Data from 1971.PennyLincolnUp.Lamp.En5.5.200Scan.071719.P1._HRD10591_15-17-57-841.txt Node
Date: Thu Jul 18 15:17:57 EDT 2019
User: cochatt
Spectrometer: HR+D1059
Trigger mode: 1
Integration Time (sec): 1.000000E-1
Scans to average: 1
Electric dark correction enabled: true
Nonlinearity correction enabled: false
Boxcar width: 0
XAxis mode: Wavelengths
Number of Pixels in Spectrum: 2048
>>>>>Begin Spectral Data<<<<<
223.165	-27.12
223.4	-27.12
223.635	-27.12
223.869	-17.12
224.104	-14.12
224.338	-5.12
224.573	4.88
224.808	-8.12
225.042	-19.12
225.277	-7.12
225.511	3.88
225.746	-2.12
225.98	16.88
226.215	9.88
226.449	15.88
226.683	17.88
226.918	17.88
227.152	12.88
227.387	7.88
227.621	26.88
227.856	34.88
228.09	42.88
228.324	54.88
228.559	47.88
228.793	67.88
229.027	92.88
229.262	92.88
229.496	80.88
229.73	108.88
229.964	98.88
230.199	98.88
230.433	101.88
230.667	101.88
230.901	92.88
231.136	98.88
231.37	85.88
231.604	107.88
231.838	104.88
232.072	93.88
232.306	102.88
232.541	115.88
232.775	109.88
233.009	117.88
233.243	109.88
233.477	94.88
233.711	114.88
233.945	115.88
234.179	97.88
234.413	105.88
234.647	121.88
234.881	101.88
235.115	108.88
235.349	115.88
235.583	113.88
235.817	104.88
236.051	109.88
236.285	108.88
236.519	111.88
236.753	99.88
236.987	127.88
237.221	139.88
237.455	191.88
237.689	159.88
237.922	99.88
238.156	117.88
238.39	117.88
238.624	107.88
238.858	113.88
239.091	111.88
239.325	102.88
239.559	106.88
239.793	111.88
240.027	118.88
240.26	133.88
240.494	129.88
240.728	131.88
240.961	121.88
241.195	118.88
241.429	117.88
241.662	116.88
241.896	117.88
242.13	111.88
242.363	128.88
242.597	129.88
242.83	127.88
243.064	131.88
243.298	135.88
243.531	125.88
243.765	128.88
243.998	131.88
244.232	120.88
244.465	147.88
244.699	123.88
244.932	131.88
245.166	131.88
245.399	132.88
245.633	141.88
245.866	125.88
246.099	133.88
246.333	128.88
246.566	127.88
246.8	145.88
247.033	129.88
247.266	144.88
247.5	151.88
247.733	144.88
247.966	156.88
248.2	144.88
248.433	148.88
248.666	167.88
248.899	159.88
249.133	187.88
249.366	169.88
249.599	168.88
249.832	163.88
250.066	159.88
250.299	160.88
250.532	171.88
250.765	165.88
250.998	177.88
251.231	200.88
251.465	187.88
251.698	176.88
251.931	173.88
252.164	165.88
252.397	171.88
252.63	177.88
252.863	171.88
253.096	170.88
253.329	169.88
253.562	189.88
253.795	204.88
254.028	189.88
254.261	200.88
254.494	198.88
254.727	219.88
254.96	227.88
255.193	219.88
255.426	205.88
255.659	190.88
255.892	181.88
256.124	202.88
256.357	200.88
256.59	211.88
256.823	183.88
257.056	200.88
257.289	173.88
257.521	181.88
257.754	172.88
257.987	179.88
258.22	175.88
258.452	189.88
258.685	189.88
258.918	179.88
259.151	188.88
259.383	199.88
259.616	194.88
259.849	194.88
260.081	187.88
260.314	208.88
260.547	208.88
260.779	190.88
261.012	225.88
261.244	191.88
261.477	204.88
261.71	200.88
261.942	196.88
262.175	208.88
262.407	197.88
262.64	169.88
262.872	194.88
263.105	193.88
263.337	194.88
263.57	196.88
263.802	194.88
264.035	195.88
264.267	188.88
264.499	190.88
264.732	196.88
264.964	195.88
265.197	189.88
265.429	194.88
265.661	204.88
265.894	191.88
266.126	184.88
266.358	197.88
266.591	200.88
266.823	205.88
267.055	190.88
267.287	205.88
267.52	182.88
267.752	202.88
267.984	209.88
268.216	185.88
268.448	201.88
268.681	208.88
268.913	205.88
269.145	236.88
269.377	226.88
269.609	224.88
269.841	245.88
270.073	225.88
270.306	255.88
270.538	247.88
270.77	268.88
271.002	247.88
271.234	246.88
271.466	257.88
271.698	268.88
271.93	270.88
272.162	259.88
272.394	266.88
272.626	252.88
272.858	260.88
273.09	244.88
273.322	261.88
273.553	245.88
273.785	232.88
274.017	234.88
274.249	239.88
274.481	233.88
274.713	233.88
274.945	245.88
275.176	223.88
275.408	236.88
275.64	227.88
275.872	249.88
276.104	229.88
276.335	232.88
276.567	237.88
276.799	228.88
277.031	248.88
277.262	275.88
277.494	267.88
277.726	269.88
277.957	256.88
278.189	257.88
278.421	232.88
278.652	252.88
278.884	244.88
279.115	258.88
279.347	239.88
279.579	240.88
279.81	237.88
280.042	249.88
280.273	223.88
280.505	235.88
280.736	232.88
280.968	218.88
281.199	233.88
281.431	223.88
281.662	241.88
281.894	245.88
282.125	245.88
282.356	235.88
282.588	263.88
282.819	247.88
283.051	254.88
283.282	244.88
283.513	241.88
283.745	231.88
283.976	231.88
284.207	256.88
284.439	232.88
284.67	244.88
284.901	242.88
285.132	239.88
285.364	222.88
285.595	240.88
285.826	253.88
286.057	242.88
286.288	242.88
286.52	249.88
286.751	233.88
286.982	250.88
287.213	236.88
287.444	261.88
287.675	260.88
287.906	263.88
288.138	258.88
288.369	250.88
288.6	258.88
288.831	244.88
289.062	266.88
289.293	248.88
289.524	253.88
289.755	234.88
289.986	255.88
290.217	261.88
290.448	269.88
290.679	276.88
290.91	264.88
291.141	264.88
291.371	271.88
291.602	267.88
291.833	257.88
292.064	261.88
292.295	261.88
292.526	243.88
292.757	253.88
292.987	245.88
293.218	252.88
293.449	259.88
293.68	259.88
293.91	260.88
294.141	246.88
294.372	244.88
294.603	258.88
294.833	257.88
295.064	269.88
295.295	258.88
295.525	262.88
295.756	268.88
295.987	261.88
296.217	293.88
296.448	282.88
296.679	275.88
296.909	259.88
297.14	278.88
297.37	248.88
297.601	265.88
297.831	270.88
298.062	275.88
298.292	276.88
298.523	269.88
298.753	241.88
298.984	259.88
299.214	282.88
299.445	266.88
299.675	269.88
299.905	287.88
300.136	278.88
300.366	279.88
300.597	292.88
300.827	293.88
301.057	265.88
301.288	298.88
301.518	283.88
301.748	277.88
301.979	295.88
302.209	270.88
302.439	284.88
302.669	267.88
302.9	287.88
303.13	285.88
303.36	267.88
303.59	264.88
303.82	290.88
304.051	294.88
304.281	284.88
304.511	283.88
304.741	273.88
304.971	288.88
305.201	269.88
305.431	290.88
305.661	284.88
305.891	294.88
306.121	277.88
306.352	291.88
306.582	299.88
306.812	283.88
307.042	291.88
307.272	280.88
307.502	273.88
307.731	284.88
307.961	301.88
308.191	268.88
308.421	287.88
308.651	295.88
308.881	297.88
309.111	307.88
309.341	284.88
309.571	315.88
309.8	298.88
310.03	297.88
310.26	313.88
310.49	315.88
310.72	312.88
310.949	311.88
311.179	308.88
311.409	332.88
311.639	317.88
311.868	317.88
312.098	323.88
312.328	326.88
312.557	340.88
312.787	337.88
313.017	329.88
313.246	311.88
313.476	324.88
313.706	327.88
313.935	326.88
314.165	334.88
314.394	329.88
314.624	329.88
314.853	309.88
315.083	331.88
315.312	325.88
315.542	326.88
315.771	318.88
316.001	317.88
316.23	323.88
316.46	312.88
316.689	338.88
316.919	330.88
317.148	334.88
317.377	337.88
317.607	327.88
317.836	337.88
318.065	305.88
318.295	336.88
318.524	337.88
318.753	295.88
318.983	308.88
319.212	330.88
319.441	323.88
319.67	329.88
319.9	347.88
320.129	335.88
320.358	335.88
320.587	331.88
320.816	348.88
321.046	335.88
321.275	341.88
321.504	320.88
321.733	331.88
321.962	356.88
322.191	352.88
322.42	349.88
322.649	360.88
322.878	372.88
323.108	377.88
323.337	392.88
323.566	383.88
323.795	387.88
324.024	450.88
324.253	498.88
324.482	697.88
324.71	1009.88
324.939	1392.88
325.168	1197.88
325.397	641.88
325.626	468.88
325.855	424.88
326.084	396.88
326.313	387.88
326.542	396.88
326.77	421.88
326.999	488.88
327.228	644.88
327.457	915.88
327.686	1029.88
327.914	725.88
328.143	496.88
328.372	455.88
328.6	431.88
328.829	433.88
329.058	428.88
329.287	441.88
329.515	407.88
329.744	395.88
329.972	402.88
330.201	411.88
330.43	424.88
330.658	433.88
330.887	439.88
331.115	447.88
331.344	420.88
331.572	387.88
331.801	390.88
332.03	382.88
332.258	377.88
332.486	380.88
332.715	371.88
332.943	358.88
333.172	370.88
333.4	377.88
333.629	387.88
333.857	398.88
334.085	379.88
334.314	387.88
334.542	402.88
334.771	413.88
334.999	410.88
335.227	377.88
335.455	387.88
335.684	379.88
335.912	380.88
336.14	369.88
336.369	376.88
336.597	361.88
336.825	381.88
337.053	347.88
337.281	362.88
337.51	362.88
337.738	373.88
337.966	369.88
338.194	367.88
338.422	349.88
338.65	363.88
338.878	349.88
339.106	367.88
339.334	362.88
339.562	328.88
339.79	356.88
340.018	347.88
340.246	355.88
340.474	354.88
340.702	359.88
340.93	355.88
341.158	355.88
341.386	350.88
341.614	343.88
341.842	361.88
342.07	348.88
342.298	358.88
342.526	334.88
342.754	355.88
342.981	344.88
343.209	357.88
343.437	346.88
343.665	361.88
343.893	341.88
344.12	375.88
344.348	373.88
344.576	370.88
344.804	354.88
345.031	368.88
345.259	375.88
345.487	341.88
345.714	362.88
345.942	344.88
346.17	339.88
346.397	339.88
346.625	331.88
346.853	332.88
347.08	343.88
347.308	343.88
347.535	339.88
347.763	373.88
347.99	355.88
348.218	325.88
348.445	335.88
348.673	328.88
348.9	355.88
349.128	337.88
349.355	325.88
349.583	350.88
349.81	333.88
350.037	297.88
350.265	327.88
350.492	328.88
350.72	334.88
350.947	353.88
351.174	339.88
351.402	351.88
351.629	323.88
351.856	331.88
352.083	351.88
352.311	343.88
352.538	318.88
352.765	340.88
352.992	332.88
353.22	324.88
353.447	338.88
353.674	323.88
353.901	326.88
354.128	323.88
354.355	314.88
354.583	326.88
354.81	330.88
355.037	325.88
355.264	312.88
355.491	325.88
355.718	305.88
355.945	307.88
356.172	320.88
356.399	316.88
356.626	293.88
356.853	310.88
357.08	324.88
357.307	331.88
357.534	314.88
357.761	320.88
357.988	311.88
358.215	319.88
358.441	331.88
358.668	315.88
358.895	322.88
359.122	336.88
359.349	336.88
359.576	333.88
359.802	358.88
360.029	360.88
360.256	345.88
360.483	354.88
360.709	345.88
360.936	335.88
361.163	337.88
361.39	325.88
361.616	325.88
361.843	314.88
362.07	327.88
362.296	324.88
362.523	332.88
362.749	349.88
362.976	332.88
363.203	328.88
363.429	325.88
363.656	331.88
363.882	320.88
364.109	312.88
364.335	316.88
364.562	308.88
364.788	311.88
365.015	318.88
365.241	305.88
365.468	315.88
365.694	305.88
365.92	325.88
366.147	321.88
366.373	314.88
366.599	315.88
366.826	320.88
367.052	309.88
367.278	300.88
367.505	303.88
367.731	315.88
367.957	330.88
368.184	323.88
368.41	300.88
368.636	313.88
368.862	346.88
369.089	319.88
369.315	309.88
369.541	317.88
369.767	324.88
369.993	299.88
370.219	332.88
370.445	332.88
370.672	299.88
370.898	316.88
371.124	319.88
371.35	300.88
371.576	336.88
371.802	326.88
372.028	297.88
372.254	308.88
372.48	317.88
372.706	312.88
372.932	298.88
373.158	333.88
373.384	295.88
373.61	305.88
373.835	321.88
374.061	330.88
374.287	321.88
374.513	315.88
374.739	315.88
374.965	322.88
375.191	312.88
375.416	324.88
375.642	316.88
375.868	313.88
376.094	324.88
376.319	314.88
376.545	300.88
376.771	307.88
376.997	316.88
377.222	302.88
377.448	312.88
377.674	300.88
377.899	329.88
378.125	319.88
378.35	313.88
378.576	316.88
378.802	315.88
379.027	288.88
379.253	319.88
379.478	304.88
379.704	301.88
379.929	321.88
380.155	298.88
380.38	311.88
380.606	312.88
380.831	313.88
381.057	308.88
381.282	296.88
381.507	310.88
381.733	330.88
381.958	296.88
382.184	312.88
382.409	338.88
382.634	315.88
382.86	305.88
383.085	324.88
383.31	321.88
383.535	315.88
383.761	310.88
383.986	315.88
384.211	310.88
384.436	315.88
384.662	331.88
384.887	333.88
385.112	326.88
385.337	329.88
385.562	320.88
385.787	340.88
386.013	343.88
386.238	330.88
386.463	321.88
386.688	324.88
386.913	319.88
387.138	335.88
387.363	330.88
387.588	327.88
387.813	322.88
388.038	341.88
388.263	312.88
388.488	320.88
388.713	333.88
388.938	297.88
389.163	337.88
389.387	328.88
389.612	351.88
389.837	338.88
390.062	331.88
390.287	353.88
390.512	328.88
390.736	331.88
390.961	332.88
391.186	327.88
391.411	327.88
391.636	337.88
391.86	333.88
392.085	337.88
392.31	324.88
392.534	325.88
392.759	333.88
392.984	339.88
393.208	351.88
393.433	337.88
393.658	349.88
393.882	337.88
394.107	336.88
394.331	337.88
394.556	337.88
394.78	327.88
395.005	352.88
395.229	330.88
395.454	349.88
395.678	340.88
395.903	350.88
396.127	361.88
396.352	354.88
396.576	340.88
396.801	342.88
397.025	359.88
397.249	350.88
397.474	365.88
397.698	346.88
397.922	356.88
398.147	356.88
398.371	363.88
398.595	365.88
398.82	374.88
399.044	360.88
399.268	380.88
399.492	421.88
399.717	433.88
399.941	433.88
400.165	442.88
400.389	433.88
400.613	409.88
400.837	373.88
401.062	377.88
401.286	373.88
401.51	376.88
401.734	347.88
401.958	358.88
402.182	347.88
402.406	368.88
402.63	367.88
402.854	378.88
403.078	361.88
403.302	370.88
403.526	371.88
403.75	392.88
403.974	387.88
404.198	384.88
404.422	377.88
404.645	376.88
404.869	370.88
405.093	392.88
405.317	431.88
405.541	428.88
405.765	429.88
405.988	402.88
406.212	393.88
406.436	395.88
406.66	399.88
406.883	369.88
407.107	388.88
407.331	428.88
407.555	473.88
407.778	481.88
408.002	451.88
408.226	412.88
408.449	403.88
408.673	421.88
408.896	425.88
409.12	440.88
409.344	427.88
409.567	397.88
409.791	386.88
410.014	391.88
410.238	376.88
410.461	393.88
410.685	384.88
410.908	375.88
411.132	413.88
411.355	430.88
411.578	403.88
411.802	389.88
412.025	379.88
412.249	356.88
412.472	393.88
412.695	387.88
412.919	402.88
413.142	371.88
413.365	356.88
413.589	385.88
413.812	372.88
414.035	366.88
414.258	353.88
414.482	363.88
414.705	360.88
414.928	348.88
415.151	341.88
415.374	363.88
415.597	332.88
415.821	340.88
416.044	348.88
416.267	353.88
416.49	356.88
416.713	343.88
416.936	355.88
417.159	345.88
417.382	370.88
417.605	341.88
417.828	354.88
418.051	363.88
418.274	371.88
418.497	351.88
418.72	359.88
418.943	361.88
419.166	361.88
419.389	385.88
419.611	378.88
419.834	361.88
420.057	365.88
420.28	388.88
420.503	347.88
420.726	377.88
420.948	377.88
421.171	414.88
421.394	421.88
421.617	385.88
421.839	383.88
422.062	374.88
422.285	367.88
422.507	393.88
422.73	439.88
422.953	412.88
423.175	412.88
423.398	384.88
423.621	372.88
423.843	389.88
424.066	391.88
424.288	381.88
424.511	422.88
424.733	445.88
424.956	482.88
425.178	467.88
425.401	465.88
425.623	472.88
425.846	420.88
426.068	406.88
426.291	373.88
426.513	391.88
426.735	388.88
426.958	414.88
427.18	473.88
427.402	550.88
427.625	616.88
427.847	531.88
428.069	463.88
428.292	412.88
428.514	383.88
428.736	375.88
428.958	370.88
429.181	367.88
429.403	361.88
429.625	370.88
429.847	402.88
430.069	430.88
430.292	433.88
430.514	366.88
430.736	362.88
430.958	352.88
431.18	360.88
431.402	337.88
431.624	341.88
431.846	329.88
432.068	329.88
432.29	372.88
432.512	343.88
432.734	339.88
432.956	345.88
433.178	344.88
433.4	361.88
433.622	360.88
433.844	339.88
434.066	345.88
434.287	342.88
434.509	340.88
434.731	355.88
434.953	347.88
435.175	363.88
435.397	383.88
435.618	396.88
435.84	429.88
436.062	458.88
436.284	501.88
436.505	425.88
436.727	380.88
436.949	388.88
437.17	353.88
437.392	357.88
437.614	362.88
437.835	385.88
438.057	451.88
438.278	490.88
438.5	514.88
438.721	545.88
438.943	525.88
439.165	435.88
439.386	403.88
439.608	400.88
439.829	385.88
440.05	401.88
440.272	438.88
440.493	412.88
440.715	380.88
440.936	361.88
441.158	364.88
441.379	374.88
441.6	358.88
441.822	368.88
442.043	387.88
442.264	480.88
442.486	488.88
442.707	420.88
442.928	377.88
443.149	397.88
443.371	405.88
443.592	412.88
443.813	485.88
444.034	526.88
444.255	461.88
444.476	398.88
444.698	411.88
444.919	389.88
445.14	552.88
445.361	471.88
445.582	440.88
445.803	453.88
446.024	513.88
446.245	543.88
446.466	456.88
446.687	393.88
446.908	384.88
447.129	369.88
447.35	364.88
447.571	339.88
447.792	356.88
448.013	347.88
448.234	374.88
448.455	406.88
448.675	470.88
448.896	556.88
449.117	460.88
449.338	466.88
449.559	535.88
449.779	570.88
450	473.88
450.221	376.88
450.442	357.88
450.662	365.88
450.883	354.88
451.104	364.88
451.324	336.88
451.545	334.88
451.766	342.88
451.986	308.88
452.207	325.88
452.428	307.88
452.648	328.88
452.869	317.88
453.089	331.88
453.31	316.88
453.53	331.88
453.751	335.88
453.971	324.88
454.192	321.88
454.412	309.88
454.633	304.88
454.853	318.88
455.073	316.88
455.294	336.88
455.514	371.88
455.734	372.88
455.955	306.88
456.175	298.88
456.395	310.88
456.616	286.88
456.836	331.88
457.056	324.88
457.276	293.88
457.497	305.88
457.717	304.88
457.937	289.88
458.157	301.88
458.377	319.88
458.598	319.88
458.818	361.88
459.038	388.88
459.258	382.88
459.478	356.88
459.698	321.88
459.918	329.88
460.138	338.88
460.358	330.88
460.578	314.88
460.798	355.88
461.018	352.88
461.238	361.88
461.458	329.88
461.678	334.88
461.898	351.88
462.118	337.88
462.338	335.88
462.558	357.88
462.777	352.88
462.997	368.88
463.217	362.88
463.437	379.88
463.657	367.88
463.876	372.88
464.096	369.88
464.316	358.88
464.536	350.88
464.755	352.88
464.975	353.88
465.195	389.88
465.414	418.88
465.634	379.88
465.854	360.88
466.073	345.88
466.293	327.88
466.512	329.88
466.732	334.88
466.951	328.88
467.171	330.88
467.391	350.88
467.61	342.88
467.829	332.88
468.049	329.88
468.268	335.88
468.488	314.88
468.707	313.88
468.927	317.88
469.146	328.88
469.365	320.88
469.585	314.88
469.804	322.88
470.023	325.88
470.243	353.88
470.462	328.88
470.681	341.88
470.901	317.88
471.12	340.88
471.339	331.88
471.558	316.88
471.777	311.88
471.997	312.88
472.216	329.88
472.435	338.88
472.654	331.88
472.873	316.88
473.092	329.88
473.311	316.88
473.53	315.88
473.749	343.88
473.968	383.88
474.187	426.88
474.406	431.88
474.625	379.88
474.844	344.88
475.063	339.88
475.282	344.88
475.501	334.88
475.72	345.88
475.939	349.88
476.158	336.88
476.377	350.88
476.596	347.88
476.814	353.88
477.033	349.88
477.252	338.88
477.471	355.88
477.69	358.88
477.908	359.88
478.127	377.88
478.346	368.88
478.564	372.88
478.783	379.88
479.002	368.88
479.22	360.88
479.439	367.88
479.658	379.88
479.876	398.88
480.095	394.88
480.313	392.88
480.532	404.88
480.751	397.88
480.969	409.88
481.188	420.88
481.406	416.88
481.624	410.88
481.843	394.88
482.061	376.88
482.28	372.88
482.498	368.88
482.717	392.88
482.935	368.88
483.153	369.88
483.372	391.88
483.59	380.88
483.808	368.88
484.027	393.88
484.245	383.88
484.463	388.88
484.681	380.88
484.9	373.88
485.118	394.88
485.336	407.88
485.554	368.88
485.772	374.88
485.99	385.88
486.209	392.88
486.427	398.88
486.645	383.88
486.863	404.88
487.081	406.88
487.299	380.88
487.517	413.88
487.735	409.88
487.953	405.88
488.171	397.88
488.389	398.88
488.607	396.88
488.825	408.88
489.043	400.88
489.261	418.88
489.479	423.88
489.696	412.88
489.914	415.88
490.132	419.88
490.35	434.88
490.568	446.88
490.786	421.88
491.003	431.88
491.221	435.88
491.439	469.88
491.657	424.88
491.874	457.88
492.092	465.88
492.31	464.88
492.527	462.88
492.745	459.88
492.963	460.88
493.18	444.88
493.398	460.88
493.615	474.88
493.833	469.88
494.05	493.88
494.268	471.88
494.485	481.88
494.703	467.88
494.92	461.88
495.138	481.88
495.355	500.88
495.573	479.88
495.79	492.88
496.008	499.88
496.225	476.88
496.442	468.88
496.66	492.88
496.877	483.88
497.094	499.88
497.312	481.88
497.529	512.88
497.746	492.88
497.963	501.88
498.181	502.88
498.398	532.88
498.615	512.88
498.832	530.88
499.049	536.88
499.267	545.88
499.484	568.88
499.701	580.88
499.918	616.88
500.135	638.88
500.352	653.88
500.569	650.88
500.786	633.88
501.003	663.88
501.22	633.88
501.437	634.88
501.654	599.88
501.871	583.88
502.088	547.88
502.305	567.88
502.522	529.88
502.739	514.88
502.956	500.88
503.172	488.88
503.389	501.88
503.606	492.88
503.823	503.88
504.04	494.88
504.256	484.88
504.473	489.88
504.69	473.88
504.907	490.88
505.123	490.88
505.34	457.88
505.557	459.88
505.773	465.88
505.99	458.88
506.207	443.88
506.423	449.88
506.64	431.88
506.856	422.88
507.073	423.88
507.289	437.88
507.506	441.88
507.722	458.88
507.939	444.88
508.155	427.88
508.372	413.88
508.588	416.88
508.805	417.88
509.021	412.88
509.238	434.88
509.454	426.88
509.67	421.88
509.887	422.88
510.103	421.88
510.319	449.88
510.536	483.88
510.752	676.88
510.968	572.88
511.184	426.88
511.401	399.88
511.617	424.88
511.833	420.88
512.049	399.88
512.265	422.88
512.481	397.88
512.698	400.88
512.914	374.88
513.13	405.88
513.346	403.88
513.562	401.88
513.778	419.88
513.994	405.88
514.21	406.88
514.426	412.88
514.642	438.88
514.858	453.88
515.074	464.88
515.29	520.88
515.506	677.88
515.721	596.88
515.937	450.88
516.153	433.88
516.369	424.88
516.585	421.88
516.801	411.88
517.016	412.88
517.232	430.88
517.448	424.88
517.664	414.88
517.879	420.88
518.095	412.88
518.311	427.88
518.527	422.88
518.742	408.88
518.958	419.88
519.173	384.88
519.389	403.88
519.605	410.88
519.82	397.88
520.036	410.88
520.251	412.88
520.467	433.88
520.682	415.88
520.898	432.88
521.113	439.88
521.329	464.88
521.544	482.88
521.76	559.88
521.975	845.88
522.19	807.88
522.406	499.88
522.621	421.88
522.836	399.88
523.052	363.88
523.267	377.88
523.482	383.88
523.698	359.88
523.913	375.88
524.128	364.88
524.343	369.88
524.559	373.88
524.774	380.88
524.989	384.88
525.204	357.88
525.419	375.88
525.634	356.88
525.849	351.88
526.064	336.88
526.28	349.88
526.495	327.88
526.71	327.88
526.925	344.88
527.14	334.88
527.355	340.88
527.57	326.88
527.785	357.88
527.999	340.88
528.214	343.88
528.429	342.88
528.644	343.88
528.859	339.88
529.074	349.88
529.289	364.88
529.503	403.88
529.718	383.88
529.933	363.88
530.148	345.88
530.363	323.88
530.577	325.88
530.792	323.88
531.007	325.88
531.221	340.88
531.436	315.88
531.651	328.88
531.865	307.88
532.08	325.88
532.295	324.88
532.509	336.88
532.724	299.88
532.938	313.88
533.153	317.88
533.367	313.88
533.582	327.88
533.796	329.88
534.011	328.88
534.225	315.88
534.44	327.88
534.654	305.88
534.868	315.88
535.083	321.88
535.297	325.88
535.511	341.88
535.726	335.88
535.94	338.88
536.154	328.88
536.369	324.88
536.583	316.88
536.797	319.88
537.011	297.88
537.225	313.88
537.44	320.88
537.654	309.88
537.868	300.88
538.082	325.88
538.296	316.88
538.51	328.88
538.724	329.88
538.938	317.88
539.153	309.88
539.367	325.88
539.581	316.88
539.795	303.88
540.009	319.88
540.222	316.88
540.436	329.88
540.65	313.88
540.864	321.88
541.078	323.88
541.292	330.88
541.506	335.88
541.72	344.88
541.934	326.88
542.147	317.88
542.361	317.88
542.575	326.88
542.789	329.88
543.002	324.88
543.216	296.88
543.43	332.88
543.644	333.88
543.857	310.88
544.071	323.88
544.285	329.88
544.498	320.88
544.712	344.88
544.925	325.88
545.139	320.88
545.352	300.88
545.566	309.88
545.779	329.88
545.993	320.88
546.206	328.88
546.42	307.88
546.633	314.88
546.847	314.88
547.06	330.88
547.274	319.88
547.487	309.88
547.7	319.88
547.914	317.88
548.127	325.88
548.34	307.88
548.554	321.88
548.767	310.88
548.98	300.88
549.193	301.88
549.407	306.88
549.62	325.88
549.833	313.88
550.046	291.88
550.259	301.88
550.473	284.88
550.686	316.88
550.899	342.88
551.112	291.88
551.325	303.88
551.538	309.88
551.751	282.88
551.964	303.88
552.177	315.88
552.39	315.88
552.603	308.88
552.816	312.88
553.029	309.88
553.242	319.88
553.455	313.88
553.667	322.88
553.88	333.88
554.093	303.88
554.306	323.88
554.519	298.88
554.732	307.88
554.944	298.88
555.157	291.88
555.37	313.88
555.583	303.88
555.795	298.88
556.008	284.88
556.221	288.88
556.433	298.88
556.646	283.88
556.859	278.88
557.071	278.88
557.284	269.88
557.496	281.88
557.709	293.88
557.921	275.88
558.134	291.88
558.346	281.88
558.559	287.88
558.771	277.88
558.984	290.88
559.196	284.88
559.409	277.88
559.621	269.88
559.833	264.88
560.046	259.88
560.258	270.88
560.47	283.88
560.683	276.88
560.895	280.88
561.107	284.88
561.32	276.88
561.532	276.88
561.744	283.88
561.956	279.88
562.168	269.88
562.381	293.88
562.593	271.88
562.805	272.88
563.017	279.88
563.229	266.88
563.441	295.88
563.653	290.88
563.865	275.88
564.077	293.88
564.289	288.88
564.501	275.88
564.713	263.88
564.925	294.88
565.137	294.88
565.349	269.88
565.561	295.88
565.773	295.88
565.985	299.88
566.197	299.88
566.408	288.88
566.62	323.88
566.832	322.88
567.044	306.88
567.255	319.88
567.467	307.88
567.679	334.88
567.891	346.88
568.102	308.88
568.314	308.88
568.526	327.88
568.737	305.88
568.949	294.88
569.161	299.88
569.372	298.88
569.584	272.88
569.795	275.88
570.007	286.88
570.218	309.88
570.43	281.88
570.641	265.88
570.853	251.88
571.064	263.88
571.276	253.88
571.487	267.88
571.698	245.88
571.91	262.88
572.121	256.88
572.333	247.88
572.544	239.88
572.755	251.88
572.966	245.88
573.178	235.88
573.389	256.88
573.6	229.88
573.811	229.88
574.023	221.88
574.234	243.88
574.445	243.88
574.656	236.88
574.867	237.88
575.078	231.88
575.289	250.88
575.501	243.88
575.712	252.88
575.923	217.88
576.134	239.88
576.345	223.88
576.556	236.88
576.767	232.88
576.978	233.88
577.188	236.88
577.399	234.88
577.61	225.88
577.821	221.88
578.032	230.88
578.243	256.88
578.454	350.88
578.665	278.88
578.875	243.88
579.086	227.88
579.297	229.88
579.508	239.88
579.718	214.88
579.929	221.88
580.14	218.88
580.35	220.88
580.561	228.88
580.772	217.88
580.982	224.88
581.193	210.88
581.403	204.88
581.614	208.88
581.825	221.88
582.035	212.88
582.246	211.88
582.456	214.88
582.667	189.88
582.877	224.88
583.087	205.88
583.298	214.88
583.508	217.88
583.719	219.88
583.929	219.88
584.139	200.88
584.35	214.88
584.56	223.88
584.77	203.88
584.981	206.88
585.191	230.88
585.401	204.88
585.611	219.88
585.821	195.88
586.032	217.88
586.242	204.88
586.452	206.88
586.662	220.88
586.872	209.88
587.082	211.88
587.292	221.88
587.502	215.88
587.713	208.88
587.923	210.88
588.133	211.88
588.343	211.88
588.553	208.88
588.762	197.88
588.972	202.88
589.182	219.88
589.392	212.88
589.602	208.88
589.812	210.88
590.022	205.88
590.232	209.88
590.441	211.88
590.651	197.88
590.861	197.88
591.071	200.88
591.281	199.88
591.49	223.88
591.7	209.88
591.91	223.88
592.119	196.88
592.329	225.88
592.539	213.88
592.748	227.88
592.958	235.88
593.167	218.88
593.377	209.88
593.587	211.88
593.796	225.88
594.006	207.88
594.215	206.88
594.424	218.88
594.634	215.88
594.843	219.88
595.053	222.88
595.262	216.88
595.472	215.88
595.681	197.88
595.89	206.88
596.1	193.88
596.309	202.88
596.518	198.88
596.727	203.88
596.937	201.88
597.146	185.88
597.355	192.88
597.564	201.88
597.774	201.88
597.983	188.88
598.192	192.88
598.401	184.88
598.61	209.88
598.819	202.88
599.028	186.88
599.237	201.88
599.446	205.88
599.655	185.88
599.864	196.88
600.073	192.88
600.282	201.88
600.491	208.88
600.7	194.88
600.909	190.88
601.118	190.88
601.327	183.88
601.536	170.88
601.745	189.88
601.953	183.88
602.162	200.88
602.371	189.88
602.58	199.88
602.789	186.88
602.997	191.88
603.206	181.88
603.415	195.88
603.623	192.88
603.832	191.88
604.041	198.88
604.249	201.88
604.458	187.88
604.666	199.88
604.875	180.88
605.084	184.88
605.292	187.88
605.501	185.88
605.709	172.88
605.918	177.88
606.126	189.88
606.334	198.88
606.543	178.88
606.751	186.88
606.96	193.88
607.168	184.88
607.376	189.88
607.585	209.88
607.793	192.88
608.001	183.88
608.21	182.88
608.418	195.88
608.626	183.88
608.834	185.88
609.043	176.88
609.251	175.88
609.459	189.88
609.667	199.88
609.875	175.88
610.083	177.88
610.291	168.88
610.499	175.88
610.707	179.88
610.916	177.88
611.124	198.88
611.332	201.88
611.54	194.88
611.748	195.88
611.955	192.88
612.163	181.88
612.371	195.88
612.579	187.88
612.787	179.88
612.995	193.88
613.203	191.88
613.411	176.88
613.618	193.88
613.826	189.88
614.034	178.88
614.242	176.88
614.449	195.88
614.657	195.88
614.865	179.88
615.072	196.88
615.28	186.88
615.488	176.88
615.695	192.88
615.903	182.88
616.111	168.88
616.318	179.88
616.526	184.88
616.733	192.88
616.941	184.88
617.148	179.88
617.356	195.88
617.563	192.88
617.771	185.88
617.978	149.88
618.185	175.88
618.393	192.88
618.6	187.88
618.807	199.88
619.015	177.88
619.222	187.88
619.429	194.88
619.637	180.88
619.844	186.88
620.051	175.88
620.258	185.88
620.466	177.88
620.673	161.88
620.88	162.88
621.087	181.88
621.294	166.88
621.501	172.88
621.708	160.88
621.915	171.88
622.122	178.88
622.329	175.88
622.536	191.88
622.743	180.88
622.95	172.88
623.157	165.88
623.364	168.88
623.571	167.88
623.778	171.88
623.985	179.88
624.192	163.88
624.399	160.88
624.606	164.88
624.812	177.88
625.019	161.88
625.226	170.88
625.433	168.88
625.639	157.88
625.846	172.88
626.053	165.88
626.259	152.88
626.466	158.88
626.673	156.88
626.879	155.88
627.086	155.88
627.293	166.88
627.499	179.88
627.706	156.88
627.912	159.88
628.119	166.88
628.325	171.88
628.532	166.88
628.738	170.88
628.945	156.88
629.151	167.88
629.357	157.88
629.564	160.88
629.77	161.88
629.976	177.88
630.183	156.88
630.389	156.88
630.595	152.88
630.802	168.88
631.008	165.88
631.214	161.88
631.42	159.88
631.627	156.88
631.833	152.88
632.039	172.88
632.245	146.88
632.451	165.88
632.657	151.88
632.863	147.88
633.069	155.88
633.275	152.88
633.481	162.88
633.688	138.88
633.893	147.88
634.099	160.88
634.305	151.88
634.511	147.88
634.717	147.88
634.923	148.88
635.129	148.88
635.335	140.88
635.541	130.88
635.747	138.88
635.952	150.88
636.158	146.88
636.364	145.88
636.57	147.88
636.775	134.88
636.981	149.88
637.187	139.88
637.392	159.88
637.598	147.88
637.804	132.88
638.009	151.88
638.215	152.88
638.421	145.88
638.626	142.88
638.832	149.88
639.037	141.88
639.243	146.88
639.448	138.88
639.654	144.88
639.859	141.88
640.065	132.88
640.27	139.88
640.475	132.88
640.681	136.88
640.886	147.88
641.091	141.88
641.297	145.88
641.502	147.88
641.707	136.88
641.913	141.88
642.118	135.88
642.323	137.88
642.528	137.88
642.733	130.88
642.939	152.88
643.144	147.88
643.349	125.88
643.554	128.88
643.759	161.88
643.964	136.88
644.169	140.88
644.374	136.88
644.579	129.88
644.784	128.88
644.989	139.88
645.194	140.88
645.399	134.88
645.604	136.88
645.809	137.88
646.014	138.88
646.219	137.88
646.423	142.88
646.628	135.88
646.833	154.88
647.038	147.88
647.243	134.88
647.447	141.88
647.652	143.88
647.857	145.88
648.062	144.88
648.266	140.88
648.471	143.88
648.676	135.88
648.88	127.88
649.085	141.88
649.289	138.88
649.494	117.88
649.698	129.88
649.903	133.88
650.107	138.88
650.312	137.88
650.516	123.88
650.721	124.88
650.925	144.88
651.13	122.88
651.334	116.88
651.539	137.88
651.743	139.88
651.947	134.88
652.152	134.88
652.356	113.88
652.56	114.88
652.764	125.88
652.969	121.88
653.173	135.88
653.377	122.88
653.581	122.88
653.785	113.88
653.99	123.88
654.194	120.88
654.398	109.88
654.602	115.88
654.806	126.88
655.01	121.88
655.214	117.88
655.418	123.88
655.622	127.88
655.826	124.88
656.03	123.88
656.234	130.88
656.438	120.88
656.642	111.88
656.846	118.88
657.049	103.88
657.253	119.88
657.457	101.88
657.661	108.88
657.865	100.88
658.068	107.88
658.272	101.88
658.476	101.88
658.68	99.88
658.883	96.88
659.087	100.88
659.291	83.88
659.494	100.88
659.698	85.88
659.901	94.88
660.105	101.88
660.309	84.88
660.512	92.88
660.716	104.88
660.919	97.88
661.123	86.88
661.326	88.88
661.53	76.88
661.733	83.88
661.936	80.88
662.14	80.88
662.343	89.88
662.546	70.88
662.75	78.88
662.953	82.88
663.156	69.88
663.36	87.88
663.563	96.88
663.766	94.88
663.969	83.88
664.173	88.88
664.376	83.88
664.579	90.88
664.782	77.88
664.985	65.88
665.188	69.88
665.391	84.88
665.594	77.88
665.797	77.88
666	74.88
666.203	85.88
666.406	87.88
666.609	76.88
666.812	78.88
667.015	79.88
667.218	77.88
667.421	87.88
667.624	76.88
667.827	91.88
668.03	67.88
668.232	77.88
668.435	77.88
668.638	95.88
668.841	88.88
669.043	100.88
669.246	72.88
669.449	73.88
669.651	85.88
669.854	78.88
670.057	76.88
670.259	74.88
670.462	91.88
670.665	80.88
670.867	76.88
671.07	90.88
671.272	74.88
671.475	83.88
671.677	74.88
671.88	86.88
672.082	71.88
672.284	67.88
672.487	85.88
672.689	76.88
672.892	76.88
