Data from 1971.PennyLincolnUp.Lamp.En5.5.200Scan.071719.P1._HRD10591_15-20-02-840.txt Node
Date: Thu Jul 18 15:20:02 EDT 2019
User: cochatt
Spectrometer: HR+D1059
Trigger mode: 1
Integration Time (sec): 1.000000E-1
Scans to average: 1
Electric dark correction enabled: true
Nonlinearity correction enabled: false
Boxcar width: 0
XAxis mode: Wavelengths
Number of Pixels in Spectrum: 2048
>>>>>Begin Spectral Data<<<<<
223.165	-14.62
223.4	-14.62
223.635	-14.62
223.869	-14.62
224.104	-22.62
224.338	-18.62
224.573	-12.62
224.808	-2.62
225.042	-16.62
225.277	0.38
225.511	9.38
225.746	6.38
225.98	8.38
226.215	21.38
226.449	-1.62
226.683	10.38
226.918	20.38
227.152	27.38
227.387	27.38
227.621	50.38
227.856	35.38
228.09	41.38
228.324	45.38
228.559	54.38
228.793	59.38
229.027	98.38
229.262	101.38
229.496	121.38
229.73	115.38
229.964	143.38
230.199	119.38
230.433	104.38
230.667	103.38
230.901	110.38
231.136	98.38
231.37	108.38
231.604	105.38
231.838	118.38
232.072	123.38
232.306	103.38
232.541	110.38
232.775	123.38
233.009	123.38
233.243	118.38
233.477	101.38
233.711	123.38
233.945	111.38
234.179	127.38
234.413	117.38
234.647	120.38
234.881	119.38
235.115	114.38
235.349	108.38
235.583	122.38
235.817	127.38
236.051	118.38
236.285	113.38
236.519	121.38
236.753	129.38
236.987	146.38
237.221	172.38
237.455	227.38
237.689	169.38
237.922	133.38
238.156	139.38
238.39	138.38
238.624	120.38
238.858	130.38
239.091	122.38
239.325	113.38
239.559	122.38
239.793	131.38
240.027	124.38
240.26	137.38
240.494	159.38
240.728	145.38
240.961	147.38
241.195	140.38
241.429	147.38
241.662	122.38
241.896	147.38
242.13	115.38
242.363	129.38
242.597	138.38
242.83	129.38
243.064	137.38
243.298	132.38
243.531	109.38
243.765	159.38
243.998	147.38
244.232	123.38
244.465	143.38
244.699	135.38
244.932	160.38
245.166	153.38
245.399	139.38
245.633	147.38
245.866	152.38
246.099	128.38
246.333	160.38
246.566	150.38
246.8	151.38
247.033	148.38
247.266	156.38
247.5	159.38
247.733	182.38
247.966	181.38
248.2	169.38
248.433	183.38
248.666	163.38
248.899	186.38
249.133	198.38
249.366	213.38
249.599	198.38
249.832	191.38
250.066	196.38
250.299	185.38
250.532	191.38
250.765	212.38
250.998	233.38
251.231	238.38
251.465	210.38
251.698	226.38
251.931	211.38
252.164	189.38
252.397	204.38
252.63	203.38
252.863	216.38
253.096	229.38
253.329	235.38
253.562	228.38
253.795	206.38
254.028	224.38
254.261	214.38
254.494	233.38
254.727	263.38
254.96	289.38
255.193	283.38
255.426	268.38
255.659	244.38
255.892	241.38
256.124	261.38
256.357	228.38
256.59	234.38
256.823	241.38
257.056	241.38
257.289	232.38
257.521	233.38
257.754	217.38
257.987	205.38
258.22	217.38
258.452	212.38
258.685	235.38
258.918	203.38
259.151	217.38
259.383	225.38
259.616	248.38
259.849	251.38
260.081	255.38
260.314	270.38
260.547	261.38
260.779	250.38
261.012	243.38
261.244	243.38
261.477	250.38
261.71	221.38
261.942	225.38
262.175	250.38
262.407	246.38
262.64	222.38
262.872	217.38
263.105	222.38
263.337	233.38
263.57	223.38
263.802	223.38
264.035	238.38
264.267	212.38
264.499	235.38
264.732	225.38
264.964	215.38
265.197	210.38
265.429	227.38
265.661	230.38
265.894	230.38
266.126	222.38
266.358	241.38
266.591	228.38
266.823	261.38
267.055	230.38
267.287	245.38
267.52	235.38
267.752	244.38
267.984	234.38
268.216	242.38
268.448	259.38
268.681	248.38
268.913	263.38
269.145	271.38
269.377	279.38
269.609	310.38
269.841	292.38
270.073	291.38
270.306	301.38
270.538	344.38
270.77	329.38
271.002	318.38
271.234	313.38
271.466	329.38
271.698	338.38
271.93	321.38
272.162	344.38
272.394	320.38
272.626	340.38
272.858	290.38
273.09	295.38
273.322	310.38
273.553	294.38
273.785	291.38
274.017	271.38
274.249	272.38
274.481	285.38
274.713	263.38
274.945	289.38
275.176	281.38
275.408	279.38
275.64	275.38
275.872	294.38
276.104	283.38
276.335	285.38
276.567	298.38
276.799	282.38
277.031	325.38
277.262	338.38
277.494	326.38
277.726	293.38
277.957	283.38
278.189	307.38
278.421	284.38
278.652	294.38
278.884	293.38
279.115	306.38
279.347	307.38
279.579	267.38
279.81	294.38
280.042	303.38
280.273	283.38
280.505	279.38
280.736	289.38
280.968	274.38
281.199	277.38
281.431	280.38
281.662	272.38
281.894	290.38
282.125	259.38
282.356	286.38
282.588	322.38
282.819	294.38
283.051	298.38
283.282	298.38
283.513	302.38
283.745	290.38
283.976	299.38
284.207	295.38
284.439	294.38
284.67	283.38
284.901	300.38
285.132	300.38
285.364	284.38
285.595	290.38
285.826	281.38
286.057	291.38
286.288	294.38
286.52	298.38
286.751	302.38
286.982	292.38
287.213	275.38
287.444	305.38
287.675	316.38
287.906	322.38
288.138	321.38
288.369	311.38
288.6	329.38
288.831	318.38
289.062	322.38
289.293	284.38
289.524	297.38
289.755	301.38
289.986	310.38
290.217	285.38
290.448	315.38
290.679	307.38
290.91	309.38
291.141	285.38
291.371	313.38
291.602	294.38
291.833	305.38
292.064	295.38
292.295	289.38
292.526	297.38
292.757	283.38
292.987	281.38
293.218	302.38
293.449	311.38
293.68	300.38
293.91	305.38
294.141	303.38
294.372	317.38
294.603	309.38
294.833	317.38
295.064	337.38
295.295	294.38
295.525	310.38
295.756	327.38
295.987	323.38
296.217	335.38
296.448	346.38
296.679	334.38
296.909	327.38
297.14	309.38
297.37	314.38
297.601	324.38
297.831	301.38
298.062	317.38
298.292	309.38
298.523	317.38
298.753	317.38
298.984	325.38
299.214	316.38
299.445	309.38
299.675	322.38
299.905	344.38
300.136	343.38
300.366	321.38
300.597	338.38
300.827	341.38
301.057	344.38
301.288	335.38
301.518	345.38
301.748	333.38
301.979	331.38
302.209	331.38
302.439	339.38
302.669	355.38
302.9	342.38
303.13	331.38
303.36	349.38
303.59	352.38
303.82	335.38
304.051	339.38
304.281	361.38
304.511	342.38
304.741	337.38
304.971	347.38
305.201	323.38
305.431	343.38
305.661	337.38
305.891	357.38
306.121	330.38
306.352	346.38
306.582	343.38
306.812	330.38
307.042	337.38
307.272	339.38
307.502	326.38
307.731	356.38
307.961	340.38
308.191	359.38
308.421	351.38
308.651	362.38
308.881	349.38
309.111	370.38
309.341	375.38
309.571	374.38
309.8	377.38
310.03	385.38
310.26	380.38
310.49	379.38
310.72	385.38
310.949	415.38
311.179	430.38
311.409	386.38
311.639	396.38
311.868	386.38
312.098	399.38
312.328	391.38
312.557	406.38
312.787	440.38
313.017	407.38
313.246	405.38
313.476	376.38
313.706	386.38
313.935	381.38
314.165	397.38
314.394	419.38
314.624	405.38
314.853	377.38
315.083	398.38
315.312	380.38
315.542	418.38
315.771	387.38
316.001	382.38
316.23	405.38
316.46	378.38
316.689	379.38
316.919	391.38
317.148	412.38
317.377	403.38
317.607	407.38
317.836	415.38
318.065	379.38
318.295	398.38
318.524	399.38
318.753	399.38
318.983	387.38
319.212	400.38
319.441	404.38
319.67	392.38
319.9	381.38
320.129	397.38
320.358	397.38
320.587	423.38
320.816	418.38
321.046	428.38
321.275	415.38
321.504	412.38
321.733	399.38
321.962	407.38
322.191	453.38
322.42	431.38
322.649	440.38
322.878	465.38
323.108	486.38
323.337	507.38
323.566	527.38
323.795	543.38
324.024	597.38
324.253	701.38
324.482	982.38
324.71	1543.38
324.939	2063.38
325.168	1697.38
325.397	905.38
325.626	651.38
325.855	524.38
326.084	523.38
326.313	495.38
326.542	517.38
326.77	578.38
326.999	674.38
327.228	906.38
327.457	1320.38
327.686	1496.38
327.914	990.38
328.143	692.38
328.372	612.38
328.6	598.38
328.829	575.38
329.058	565.38
329.287	602.38
329.515	541.38
329.744	514.38
329.972	535.38
330.201	546.38
330.43	564.38
330.658	600.38
330.887	614.38
331.115	582.38
331.344	518.38
331.572	488.38
331.801	479.38
332.03	483.38
332.258	464.38
332.486	431.38
332.715	460.38
332.943	459.38
333.172	454.38
333.4	454.38
333.629	477.38
333.857	475.38
334.085	468.38
334.314	494.38
334.542	515.38
334.771	503.38
334.999	498.38
335.227	485.38
335.455	468.38
335.684	452.38
335.912	455.38
336.14	450.38
336.369	442.38
336.597	472.38
336.825	467.38
337.053	461.38
337.281	445.38
337.51	447.38
337.738	450.38
337.966	455.38
338.194	454.38
338.422	437.38
338.65	443.38
338.878	435.38
339.106	449.38
339.334	453.38
339.562	440.38
339.79	430.38
340.018	458.38
340.246	433.38
340.474	445.38
340.702	438.38
340.93	413.38
341.158	437.38
341.386	438.38
341.614	431.38
341.842	441.38
342.07	445.38
342.298	426.38
342.526	413.38
342.754	414.38
342.981	413.38
343.209	412.38
343.437	420.38
343.665	433.38
343.893	428.38
344.12	427.38
344.348	446.38
344.576	459.38
344.804	434.38
345.031	426.38
345.259	421.38
345.487	449.38
345.714	447.38
345.942	424.38
346.17	416.38
346.397	394.38
346.625	421.38
346.853	401.38
347.08	413.38
347.308	392.38
347.535	429.38
347.763	412.38
347.99	419.38
348.218	425.38
348.445	421.38
348.673	440.38
348.9	423.38
349.128	409.38
349.355	407.38
349.583	399.38
349.81	388.38
350.037	386.38
350.265	397.38
350.492	394.38
350.72	393.38
350.947	412.38
351.174	410.38
351.402	399.38
351.629	409.38
351.856	443.38
352.083	421.38
352.311	428.38
352.538	417.38
352.765	424.38
352.992	401.38
353.22	394.38
353.447	410.38
353.674	397.38
353.901	381.38
354.128	387.38
354.355	391.38
354.583	374.38
354.81	381.38
355.037	372.38
355.264	376.38
355.491	360.38
355.718	375.38
355.945	382.38
356.172	380.38
356.399	371.38
356.626	357.38
356.853	373.38
357.08	371.38
357.307	381.38
357.534	381.38
357.761	358.38
357.988	366.38
358.215	372.38
358.441	364.38
358.668	381.38
358.895	372.38
359.122	385.38
359.349	395.38
359.576	396.38
359.802	420.38
360.029	455.38
360.256	445.38
360.483	427.38
360.709	392.38
360.936	380.38
361.163	411.38
361.39	408.38
361.616	397.38
361.843	387.38
362.07	411.38
362.296	411.38
362.523	395.38
362.749	390.38
362.976	389.38
363.203	389.38
363.429	375.38
363.656	379.38
363.882	384.38
364.109	376.38
364.335	353.38
364.562	381.38
364.788	384.38
365.015	375.38
365.241	375.38
365.468	375.38
365.694	357.38
365.92	385.38
366.147	374.38
366.373	371.38
366.599	357.38
366.826	363.38
367.052	370.38
367.278	394.38
367.505	363.38
367.731	378.38
367.957	387.38
368.184	356.38
368.41	374.38
368.636	381.38
368.862	403.38
369.089	376.38
369.315	356.38
369.541	358.38
369.767	380.38
369.993	379.38
370.219	380.38
370.445	391.38
370.672	376.38
370.898	374.38
371.124	353.38
371.35	365.38
371.576	361.38
371.802	369.38
372.028	365.38
372.254	355.38
372.48	395.38
372.706	361.38
372.932	357.38
373.158	363.38
373.384	377.38
373.61	367.38
373.835	383.38
374.061	365.38
374.287	383.38
374.513	385.38
374.739	387.38
374.965	355.38
375.191	361.38
375.416	373.38
375.642	367.38
375.868	380.38
376.094	347.38
376.319	373.38
376.545	387.38
376.771	343.38
376.997	363.38
377.222	383.38
377.448	381.38
377.674	362.38
377.899	350.38
378.125	370.38
378.35	362.38
378.576	337.38
378.802	337.38
379.027	363.38
379.253	349.38
379.478	343.38
379.704	351.38
379.929	347.38
380.155	361.38
380.38	364.38
380.606	360.38
380.831	363.38
381.057	367.38
381.282	356.38
381.507	348.38
381.733	370.38
381.958	375.38
382.184	348.38
382.409	353.38
382.634	371.38
382.86	373.38
383.085	365.38
383.31	373.38
383.535	361.38
383.761	365.38
383.986	365.38
384.211	376.38
384.436	376.38
384.662	369.38
384.887	386.38
385.112	365.38
385.337	371.38
385.562	370.38
385.787	373.38
386.013	404.38
386.238	373.38
386.463	380.38
386.688	396.38
386.913	380.38
387.138	384.38
387.363	389.38
387.588	372.38
387.813	381.38
388.038	379.38
388.263	395.38
388.488	380.38
388.713	396.38
388.938	378.38
389.163	384.38
389.387	401.38
389.612	372.38
389.837	374.38
390.062	366.38
390.287	369.38
390.512	395.38
390.736	381.38
390.961	367.38
391.186	378.38
391.411	377.38
391.636	374.38
391.86	398.38
392.085	385.38
392.31	388.38
392.534	382.38
392.759	382.38
392.984	384.38
393.208	380.38
393.433	386.38
393.658	364.38
393.882	379.38
394.107	389.38
394.331	377.38
394.556	377.38
394.78	386.38
395.005	399.38
395.229	386.38
395.454	389.38
395.678	386.38
395.903	417.38
396.127	437.38
396.352	409.38
396.576	385.38
396.801	375.38
397.025	396.38
397.249	400.38
397.474	396.38
397.698	435.38
397.922	408.38
398.147	426.38
398.371	434.38
398.595	422.38
398.82	447.38
399.044	442.38
399.268	433.38
399.492	471.38
399.717	483.38
399.941	498.38
400.165	526.38
400.389	504.38
400.613	473.38
400.837	443.38
401.062	416.38
401.286	442.38
401.51	417.38
401.734	418.38
401.958	442.38
402.182	429.38
402.406	456.38
402.63	441.38
402.854	421.38
403.078	445.38
403.302	427.38
403.526	440.38
403.75	441.38
403.974	451.38
404.198	428.38
404.422	452.38
404.645	455.38
404.869	442.38
405.093	483.38
405.317	509.38
405.541	518.38
405.765	491.38
405.988	467.38
406.212	477.38
406.436	457.38
406.66	500.38
406.883	470.38
407.107	491.38
407.331	529.38
407.555	571.38
407.778	585.38
408.002	525.38
408.226	504.38
408.449	481.38
408.673	477.38
408.896	511.38
409.12	546.38
409.344	497.38
409.567	462.38
409.791	443.38
410.014	435.38
410.238	447.38
410.461	437.38
410.685	437.38
410.908	460.38
411.132	461.38
411.355	534.38
411.578	495.38
411.802	454.38
412.025	414.38
412.249	444.38
412.472	471.38
412.695	479.38
412.919	488.38
413.142	444.38
413.365	422.38
413.589	437.38
413.812	418.38
414.035	406.38
414.258	405.38
414.482	398.38
414.705	409.38
414.928	395.38
415.151	393.38
415.374	400.38
415.597	409.38
415.821	404.38
416.044	398.38
416.267	397.38
416.49	399.38
416.713	402.38
416.936	399.38
417.159	428.38
417.382	413.38
417.605	403.38
417.828	435.38
418.051	420.38
418.274	422.38
418.497	397.38
418.72	410.38
418.943	410.38
419.166	415.38
419.389	444.38
419.611	439.38
419.834	421.38
420.057	420.38
420.28	456.38
420.503	424.38
420.726	426.38
420.948	431.38
421.171	481.38
421.394	501.38
421.617	463.38
421.839	438.38
422.062	423.38
422.285	435.38
422.507	495.38
422.73	563.38
422.953	523.38
423.175	469.38
423.398	473.38
423.621	454.38
423.843	471.38
424.066	466.38
424.288	468.38
424.511	485.38
424.733	543.38
424.956	620.38
425.178	575.38
425.401	582.38
425.623	595.38
425.846	478.38
426.068	465.38
426.291	437.38
426.513	468.38
426.735	491.38
426.958	529.38
427.18	589.38
427.402	686.38
427.625	734.38
427.847	660.38
428.069	567.38
428.292	507.38
428.514	476.38
428.736	439.38
428.958	450.38
429.181	433.38
429.403	442.38
429.625	444.38
429.847	473.38
430.069	531.38
430.292	495.38
430.514	421.38
430.736	429.38
430.958	411.38
431.18	404.38
431.402	400.38
431.624	406.38
431.846	411.38
432.068	406.38
432.29	392.38
432.512	405.38
432.734	395.38
432.956	407.38
433.178	433.38
433.4	427.38
433.622	417.38
433.844	392.38
434.066	411.38
434.287	383.38
434.509	413.38
434.731	420.38
434.953	399.38
435.175	441.38
435.397	446.38
435.618	467.38
435.84	499.38
436.062	583.38
436.284	622.38
436.505	495.38
436.727	461.38
436.949	449.38
437.17	450.38
437.392	434.38
437.614	454.38
437.835	476.38
438.057	551.38
438.278	648.38
438.5	622.38
438.721	683.38
438.943	644.38
439.165	529.38
439.386	501.38
439.608	477.38
439.829	471.38
440.05	482.38
440.272	538.38
440.493	496.38
440.715	479.38
440.936	450.38
441.158	416.38
441.379	423.38
441.6	459.38
441.822	475.38
442.043	481.38
442.264	556.38
442.486	606.38
442.707	517.38
442.928	479.38
443.149	483.38
443.371	508.38
443.592	538.38
443.813	609.38
444.034	649.38
444.255	554.38
444.476	485.38
444.698	458.38
444.919	454.38
445.14	565.38
445.361	530.38
445.582	506.38
445.803	554.38
446.024	627.38
446.245	663.38
446.466	574.38
446.687	493.38
446.908	473.38
447.129	455.38
447.35	431.38
447.571	418.38
447.792	419.38
448.013	427.38
448.234	456.38
448.455	489.38
448.675	586.38
448.896	665.38
449.117	570.38
449.338	551.38
449.559	651.38
449.779	691.38
450	547.38
450.221	478.38
450.442	441.38
450.662	428.38
450.883	425.38
451.104	439.38
451.324	428.38
451.545	408.38
451.766	395.38
451.986	399.38
452.207	381.38
452.428	380.38
452.648	385.38
452.869	381.38
453.089	401.38
453.31	399.38
453.53	363.38
453.751	374.38
453.971	357.38
454.192	393.38
454.412	399.38
454.633	375.38
454.853	385.38
455.073	373.38
455.294	410.38
455.514	459.38
455.734	444.38
455.955	400.38
456.175	356.38
456.395	371.38
456.616	363.38
456.836	361.38
457.056	349.38
457.276	335.38
457.497	372.38
457.717	359.38
457.937	354.38
458.157	351.38
458.377	377.38
458.598	391.38
458.818	431.38
459.038	489.38
459.258	510.38
459.478	429.38
459.698	405.38
459.918	374.38
460.138	393.38
460.358	401.38
460.578	390.38
460.798	398.38
461.018	415.38
461.238	382.38
461.458	371.38
461.678	375.38
461.898	395.38
462.118	397.38
462.338	382.38
462.558	404.38
462.777	423.38
462.997	434.38
463.217	416.38
463.437	420.38
463.657	422.38
463.876	415.38
464.096	425.38
464.316	424.38
464.536	420.38
464.755	434.38
464.975	431.38
465.195	472.38
465.414	515.38
465.634	454.38
465.854	419.38
466.073	399.38
466.293	413.38
466.512	394.38
466.732	391.38
466.951	375.38
467.171	374.38
467.391	390.38
467.61	415.38
467.829	405.38
468.049	407.38
468.268	395.38
468.488	396.38
468.707	367.38
468.927	385.38
469.146	379.38
469.365	358.38
469.585	369.38
469.804	397.38
470.023	389.38
470.243	395.38
470.462	388.38
470.681	410.38
470.901	403.38
471.12	388.38
471.339	417.38
471.558	400.38
471.777	381.38
471.997	390.38
472.216	395.38
472.435	416.38
472.654	413.38
472.873	393.38
473.092	385.38
473.311	381.38
473.53	402.38
473.749	404.38
473.968	436.38
474.187	525.38
474.406	563.38
474.625	453.38
474.844	411.38
475.063	409.38
475.282	384.38
475.501	395.38
475.72	385.38
475.939	393.38
476.158	406.38
476.377	407.38
476.596	400.38
476.814	406.38
477.033	415.38
477.252	411.38
477.471	417.38
477.69	421.38
477.908	421.38
478.127	418.38
478.346	425.38
478.564	432.38
478.783	455.38
479.002	446.38
479.22	443.38
479.439	455.38
479.658	453.38
479.876	467.38
480.095	479.38
480.313	492.38
480.532	467.38
480.751	478.38
480.969	490.38
481.188	516.38
481.406	533.38
481.624	502.38
481.843	456.38
482.061	462.38
482.28	450.38
482.498	457.38
482.717	442.38
482.935	449.38
483.153	468.38
483.372	460.38
483.59	445.38
483.808	474.38
484.027	463.38
484.245	461.38
484.463	459.38
484.681	471.38
484.9	458.38
485.118	443.38
485.336	461.38
485.554	462.38
485.772	485.38
485.99	462.38
486.209	441.38
486.427	455.38
486.645	476.38
486.863	478.38
487.081	491.38
487.299	487.38
487.517	485.38
487.735	513.38
487.953	481.38
488.171	473.38
488.389	493.38
488.607	483.38
488.825	486.38
489.043	476.38
489.261	504.38
489.479	487.38
489.696	507.38
489.914	486.38
490.132	511.38
490.35	511.38
490.568	517.38
490.786	535.38
491.003	542.38
491.221	538.38
491.439	543.38
491.657	560.38
491.874	548.38
492.092	579.38
492.31	574.38
492.527	576.38
492.745	556.38
492.963	565.38
493.18	558.38
493.398	568.38
493.615	585.38
493.833	567.38
494.05	563.38
494.268	597.38
494.485	598.38
494.703	572.38
494.92	558.38
495.138	571.38
495.355	578.38
495.573	594.38
495.79	579.38
496.008	583.38
496.225	579.38
496.442	573.38
496.66	577.38
496.877	572.38
497.094	577.38
497.312	584.38
497.529	616.38
497.746	590.38
497.963	576.38
498.181	619.38
498.398	638.38
498.615	627.38
498.832	643.38
499.049	653.38
499.267	637.38
499.484	661.38
499.701	668.38
499.918	689.38
500.135	771.38
500.352	742.38
500.569	757.38
500.786	765.38
501.003	788.38
501.22	734.38
501.437	717.38
501.654	718.38
501.871	712.38
502.088	702.38
502.305	660.38
502.522	630.38
502.739	631.38
502.956	594.38
503.172	596.38
503.389	605.38
503.606	605.38
503.823	574.38
504.04	582.38
504.256	603.38
504.473	580.38
504.69	578.38
504.907	590.38
505.123	561.38
505.34	586.38
505.557	539.38
505.773	535.38
505.99	541.38
506.207	566.38
506.423	550.38
506.64	535.38
506.856	539.38
507.073	523.38
507.289	527.38
507.506	519.38
507.722	528.38
507.939	574.38
508.155	513.38
508.372	531.38
508.588	506.38
508.805	515.38
509.021	511.38
509.238	532.38
509.454	547.38
509.67	531.38
509.887	517.38
510.103	519.38
510.319	545.38
510.536	610.38
510.752	952.38
510.968	719.38
511.184	525.38
511.401	486.38
511.617	502.38
511.833	516.38
512.049	505.38
512.265	494.38
512.481	481.38
512.698	501.38
512.914	459.38
513.13	494.38
513.346	498.38
513.562	506.38
513.778	481.38
513.994	484.38
514.21	494.38
514.426	518.38
514.642	527.38
514.858	573.38
515.074	601.38
515.29	699.38
515.506	950.38
515.721	807.38
515.937	580.38
516.153	550.38
516.369	513.38
516.585	495.38
516.801	501.38
517.016	497.38
517.232	486.38
517.448	473.38
517.664	503.38
517.879	497.38
518.095	480.38
518.311	494.38
518.527	481.38
518.742	489.38
518.958	490.38
519.173	491.38
519.389	492.38
519.605	491.38
519.82	475.38
520.036	507.38
520.251	515.38
520.467	519.38
520.682	527.38
520.898	521.38
521.113	558.38
521.329	598.38
521.544	644.38
521.76	777.38
521.975	1245.38
522.19	1163.38
522.406	681.38
522.621	553.38
522.836	489.38
523.052	477.38
523.267	478.38
523.482	458.38
523.698	446.38
523.913	462.38
524.128	461.38
524.343	435.38
524.559	455.38
524.774	411.38
524.989	434.38
525.204	425.38
525.419	418.38
525.634	408.38
525.849	419.38
526.064	405.38
526.28	418.38
526.495	412.38
526.71	413.38
526.925	402.38
527.14	411.38
527.355	393.38
527.57	411.38
527.785	396.38
527.999	389.38
528.214	399.38
528.429	407.38
528.644	413.38
528.859	418.38
529.074	411.38
529.289	414.38
529.503	502.38
529.718	459.38
529.933	431.38
530.148	423.38
530.363	400.38
530.577	405.38
530.792	381.38
531.007	385.38
531.221	407.38
531.436	409.38
531.651	387.38
531.865	377.38
532.08	374.38
532.295	372.38
532.509	361.38
532.724	356.38
532.938	379.38
533.153	364.38
533.367	365.38
533.582	377.38
533.796	373.38
534.011	379.38
534.225	381.38
534.44	363.38
534.654	370.38
534.868	369.38
535.083	366.38
535.297	363.38
535.511	372.38
535.726	375.38
535.94	389.38
536.154	373.38
536.369	366.38
536.583	371.38
536.797	375.38
537.011	369.38
537.225	380.38
537.44	379.38
537.654	390.38
537.868	374.38
538.082	370.38
538.296	386.38
538.51	354.38
538.724	370.38
538.938	350.38
539.153	366.38
539.367	387.38
539.581	371.38
539.795	382.38
540.009	353.38
540.222	341.38
540.436	366.38
540.65	379.38
540.864	401.38
541.078	367.38
541.292	389.38
541.506	385.38
541.72	383.38
541.934	371.38
542.147	395.38
542.361	385.38
542.575	372.38
542.789	372.38
543.002	362.38
543.216	371.38
543.43	365.38
543.644	369.38
543.857	381.38
544.071	383.38
544.285	380.38
544.498	375.38
544.712	378.38
544.925	365.38
545.139	362.38
545.352	366.38
545.566	386.38
545.779	360.38
545.993	367.38
546.206	371.38
546.42	357.38
546.633	364.38
546.847	358.38
547.06	372.38
547.274	352.38
547.487	365.38
547.7	362.38
547.914	363.38
548.127	358.38
548.34	356.38
548.554	373.38
548.767	347.38
548.98	353.38
549.193	356.38
549.407	348.38
549.62	334.38
549.833	354.38
550.046	370.38
550.259	357.38
550.473	341.38
550.686	351.38
550.899	370.38
551.112	358.38
551.325	344.38
551.538	353.38
551.751	354.38
551.964	332.38
552.177	350.38
552.39	351.38
552.603	354.38
552.816	353.38
553.029	358.38
553.242	335.38
553.455	363.38
553.667	367.38
553.88	377.38
554.093	371.38
554.306	372.38
554.519	362.38
554.732	366.38
554.944	338.38
555.157	338.38
555.37	345.38
555.583	334.38
555.795	341.38
556.008	320.38
556.221	327.38
556.433	336.38
556.646	319.38
556.859	328.38
557.071	338.38
557.284	328.38
557.496	332.38
557.709	326.38
557.921	330.38
558.134	333.38
558.346	329.38
558.559	285.38
558.771	311.38
558.984	329.38
559.196	309.38
559.409	315.38
559.621	324.38
559.833	306.38
560.046	318.38
560.258	319.38
560.47	327.38
560.683	318.38
560.895	316.38
561.107	310.38
561.32	316.38
561.532	300.38
561.744	323.38
561.956	324.38
562.168	313.38
562.381	332.38
562.593	295.38
562.805	317.38
563.017	314.38
563.229	357.38
563.441	291.38
563.653	322.38
563.865	306.38
564.077	294.38
564.289	322.38
564.501	301.38
564.713	315.38
564.925	327.38
565.137	349.38
565.349	338.38
565.561	333.38
565.773	335.38
565.985	339.38
566.197	352.38
566.408	349.38
566.62	369.38
566.832	374.38
567.044	350.38
567.255	364.38
567.467	363.38
567.679	362.38
567.891	356.38
568.102	361.38
568.314	363.38
568.526	354.38
568.737	343.38
568.949	327.38
569.161	336.38
569.372	322.38
569.584	303.38
569.795	298.38
570.007	322.38
570.218	344.38
570.43	338.38
570.641	293.38
570.853	301.38
571.064	294.38
571.276	301.38
571.487	295.38
571.698	293.38
571.91	287.38
572.121	302.38
572.333	283.38
572.544	274.38
572.755	277.38
572.966	268.38
573.178	282.38
573.389	293.38
573.6	281.38
573.811	272.38
574.023	274.38
574.234	273.38
574.445	267.38
574.656	278.38
574.867	269.38
575.078	275.38
575.289	276.38
575.501	282.38
575.712	264.38
575.923	259.38
576.134	269.38
576.345	269.38
576.556	277.38
576.767	277.38
576.978	279.38
577.188	283.38
577.399	250.38
577.61	245.38
577.821	252.38
578.032	243.38
578.243	264.38
578.454	449.38
578.665	321.38
578.875	249.38
579.086	247.38
579.297	261.38
579.508	253.38
579.718	272.38
579.929	257.38
580.14	260.38
580.35	238.38
580.561	260.38
580.772	243.38
580.982	249.38
581.193	255.38
581.403	248.38
581.614	250.38
581.825	238.38
582.035	235.38
582.246	254.38
582.456	243.38
582.667	251.38
582.877	242.38
583.087	242.38
583.298	252.38
583.508	225.38
583.719	251.38
583.929	236.38
584.139	249.38
584.35	235.38
584.56	225.38
584.77	230.38
584.981	257.38
585.191	236.38
585.401	221.38
585.611	250.38
585.821	249.38
586.032	234.38
586.242	241.38
586.452	244.38
586.662	238.38
586.872	227.38
587.082	223.38
587.292	255.38
587.502	233.38
587.713	213.38
587.923	253.38
588.133	220.38
588.343	244.38
588.553	246.38
588.762	245.38
588.972	233.38
589.182	224.38
589.392	239.38
589.602	233.38
589.812	223.38
590.022	245.38
590.232	223.38
590.441	214.38
590.651	227.38
590.861	241.38
591.071	241.38
591.281	226.38
591.49	229.38
591.7	244.38
591.91	231.38
592.119	262.38
592.329	235.38
592.539	262.38
592.748	246.38
592.958	242.38
593.167	241.38
593.377	245.38
593.587	260.38
593.796	244.38
594.006	256.38
594.215	238.38
594.424	228.38
594.634	247.38
594.843	241.38
595.053	234.38
595.262	243.38
595.472	226.38
595.681	216.38
595.89	230.38
596.1	222.38
596.309	229.38
596.518	236.38
596.727	235.38
596.937	229.38
597.146	234.38
597.355	207.38
597.564	220.38
597.774	203.38
597.983	215.38
598.192	214.38
598.401	214.38
598.61	212.38
598.819	201.38
599.028	209.38
599.237	206.38
599.446	224.38
599.655	223.38
599.864	225.38
600.073	208.38
600.282	193.38
600.491	213.38
600.7	204.38
600.909	198.38
601.118	198.38
601.327	213.38
601.536	211.38
601.745	217.38
601.953	183.38
602.162	217.38
602.371	195.38
602.58	217.38
602.789	211.38
602.997	210.38
603.206	208.38
603.415	206.38
603.623	211.38
603.832	213.38
604.041	220.38
604.249	204.38
604.458	205.38
604.666	213.38
604.875	205.38
605.084	227.38
605.292	223.38
605.501	214.38
605.709	208.38
605.918	204.38
606.126	237.38
606.334	206.38
606.543	210.38
606.751	198.38
606.96	210.38
607.168	213.38
607.376	202.38
607.585	199.38
607.793	216.38
608.001	213.38
608.21	199.38
608.418	223.38
608.626	215.38
608.834	194.38
609.043	220.38
609.251	190.38
609.459	188.38
609.667	207.38
609.875	189.38
610.083	200.38
610.291	219.38
610.499	191.38
610.707	202.38
610.916	202.38
611.124	215.38
611.332	207.38
611.54	195.38
611.748	202.38
611.955	213.38
612.163	201.38
612.371	217.38
612.579	211.38
612.787	213.38
612.995	196.38
613.203	204.38
613.411	202.38
613.618	200.38
613.826	192.38
614.034	206.38
614.242	196.38
614.449	193.38
614.657	198.38
614.865	202.38
615.072	214.38
615.28	196.38
615.488	198.38
615.695	206.38
615.903	210.38
616.111	211.38
616.318	195.38
616.526	191.38
616.733	220.38
616.941	200.38
617.148	201.38
617.356	202.38
617.563	201.38
617.771	197.38
617.978	188.38
618.185	207.38
618.393	201.38
618.6	213.38
618.807	204.38
619.015	210.38
619.222	202.38
619.429	184.38
619.637	204.38
619.844	195.38
620.051	205.38
620.258	185.38
620.466	196.38
620.673	179.38
620.88	163.38
621.087	194.38
621.294	209.38
621.501	188.38
621.708	197.38
621.915	199.38
622.122	198.38
622.329	190.38
622.536	180.38
622.743	201.38
622.95	182.38
623.157	179.38
623.364	186.38
623.571	182.38
623.778	169.38
623.985	197.38
624.192	189.38
624.399	192.38
624.606	184.38
624.812	190.38
625.019	190.38
625.226	158.38
625.433	176.38
625.639	178.38
625.846	170.38
626.053	159.38
626.259	166.38
626.466	176.38
626.673	179.38
626.879	159.38
627.086	172.38
627.293	188.38
627.499	178.38
627.706	169.38
627.912	178.38
628.119	173.38
628.325	171.38
628.532	166.38
628.738	164.38
628.945	163.38
629.151	173.38
629.357	162.38
629.564	166.38
629.77	167.38
629.976	170.38
630.183	184.38
630.389	167.38
630.595	181.38
630.802	178.38
631.008	179.38
631.214	167.38
631.42	165.38
631.627	164.38
631.833	167.38
632.039	185.38
632.245	159.38
632.451	147.38
632.657	178.38
632.863	163.38
633.069	159.38
633.275	162.38
633.481	171.38
633.688	166.38
633.893	177.38
634.099	150.38
634.305	175.38
634.511	161.38
634.717	174.38
634.923	155.38
635.129	141.38
635.335	167.38
635.541	149.38
635.747	173.38
635.952	167.38
636.158	159.38
636.364	163.38
636.57	168.38
636.775	135.38
636.981	171.38
637.187	162.38
637.392	175.38
637.598	156.38
637.804	171.38
638.009	162.38
638.215	158.38
638.421	149.38
638.626	151.38
638.832	158.38
639.037	143.38
639.243	137.38
639.448	148.38
639.654	151.38
639.859	159.38
640.065	150.38
640.27	158.38
640.475	145.38
640.681	155.38
640.886	163.38
641.091	153.38
641.297	157.38
641.502	166.38
641.707	139.38
641.913	145.38
642.118	148.38
642.323	143.38
642.528	151.38
642.733	145.38
642.939	149.38
643.144	137.38
643.349	151.38
643.554	147.38
643.759	151.38
643.964	155.38
644.169	152.38
644.374	158.38
644.579	147.38
644.784	153.38
644.989	158.38
645.194	154.38
645.399	141.38
645.604	141.38
645.809	148.38
646.014	143.38
646.219	137.38
646.423	148.38
646.628	152.38
646.833	143.38
647.038	164.38
647.243	140.38
647.447	140.38
647.652	165.38
647.857	147.38
648.062	141.38
648.266	144.38
648.471	140.38
648.676	155.38
648.88	148.38
649.085	151.38
649.289	158.38
649.494	149.38
649.698	159.38
649.903	167.38
650.107	163.38
650.312	152.38
650.516	155.38
650.721	125.38
650.925	130.38
651.13	145.38
651.334	155.38
651.539	147.38
651.743	131.38
651.947	132.38
652.152	134.38
652.356	133.38
652.56	144.38
652.764	138.38
652.969	131.38
653.173	131.38
653.377	137.38
653.581	116.38
653.785	125.38
653.99	125.38
654.194	132.38
654.398	125.38
654.602	106.38
654.806	139.38
655.01	131.38
655.214	134.38
655.418	130.38
655.622	121.38
655.826	129.38
656.03	116.38
656.234	133.38
656.438	137.38
656.642	117.38
656.846	126.38
657.049	132.38
657.253	122.38
657.457	120.38
657.661	114.38
657.865	106.38
658.068	114.38
658.272	118.38
658.476	118.38
658.68	110.38
658.883	98.38
659.087	99.38
659.291	79.38
659.494	104.38
659.698	82.38
659.901	101.38
660.105	94.38
660.309	85.38
660.512	68.38
660.716	94.38
660.919	94.38
661.123	98.38
661.326	79.38
661.53	85.38
661.733	89.38
661.936	65.38
662.14	86.38
662.343	82.38
662.546	93.38
662.75	99.38
662.953	90.38
663.156	89.38
663.36	83.38
663.563	75.38
663.766	83.38
663.969	81.38
664.173	66.38
664.376	80.38
664.579	83.38
664.782	70.38
664.985	88.38
665.188	85.38
665.391	76.38
665.594	83.38
665.797	85.38
666	81.38
666.203	86.38
666.406	85.38
666.609	104.38
666.812	93.38
667.015	85.38
667.218	82.38
667.421	80.38
667.624	99.38
667.827	78.38
668.03	83.38
668.232	87.38
668.435	95.38
668.638	79.38
668.841	93.38
669.043	92.38
669.246	80.38
669.449	90.38
669.651	80.38
669.854	70.38
670.057	75.38
670.259	82.38
670.462	80.38
670.665	78.38
670.867	82.38
671.07	92.38
671.272	84.38
671.475	82.38
671.677	73.38
671.88	79.38
672.082	84.38
672.284	75.38
672.487	83.38
672.689	92.38
672.892	88.38
