Data from 1971.PennyLincolnUp.Lamp.En5.5.200Scan.071719.P1._HRD10591_15-18-12-841.txt Node
Date: Thu Jul 18 15:18:12 EDT 2019
User: cochatt
Spectrometer: HR+D1059
Trigger mode: 1
Integration Time (sec): 1.000000E-1
Scans to average: 1
Electric dark correction enabled: true
Nonlinearity correction enabled: false
Boxcar width: 0
XAxis mode: Wavelengths
Number of Pixels in Spectrum: 2048
>>>>>Begin Spectral Data<<<<<
223.165	-8.62
223.4	-8.62
223.635	-8.62
223.869	-29.62
224.104	-6.62
224.338	3.38
224.573	-19.62
224.808	-14.62
225.042	-12.62
225.277	2.38
225.511	-8.62
225.746	-5.62
225.98	5.38
226.215	4.38
226.449	30.38
226.683	15.38
226.918	30.38
227.152	14.38
227.387	31.38
227.621	38.38
227.856	50.38
228.09	45.38
228.324	42.38
228.559	64.38
228.793	59.38
229.027	93.38
229.262	102.38
229.496	86.38
229.73	119.38
229.964	132.38
230.199	121.38
230.433	101.38
230.667	108.38
230.901	102.38
231.136	108.38
231.37	108.38
231.604	107.38
231.838	106.38
232.072	113.38
232.306	120.38
232.541	100.38
232.775	106.38
233.009	98.38
233.243	109.38
233.477	120.38
233.711	109.38
233.945	114.38
234.179	109.38
234.413	123.38
234.647	110.38
234.881	99.38
235.115	106.38
235.349	101.38
235.583	116.38
235.817	118.38
236.051	110.38
236.285	115.38
236.519	126.38
236.753	115.38
236.987	131.38
237.221	157.38
237.455	177.38
237.689	147.38
237.922	124.38
238.156	139.38
238.39	122.38
238.624	127.38
238.858	116.38
239.091	117.38
239.325	118.38
239.559	103.38
239.793	129.38
240.027	129.38
240.26	121.38
240.494	125.38
240.728	131.38
240.961	137.38
241.195	123.38
241.429	137.38
241.662	120.38
241.896	122.38
242.13	114.38
242.363	139.38
242.597	127.38
242.83	130.38
243.064	131.38
243.298	129.38
243.531	126.38
243.765	156.38
243.998	141.38
244.232	137.38
244.465	134.38
244.699	125.38
244.932	141.38
245.166	127.38
245.399	135.38
245.633	141.38
245.866	142.38
246.099	143.38
246.333	145.38
246.566	127.38
246.8	153.38
247.033	146.38
247.266	157.38
247.5	150.38
247.733	178.38
247.966	157.38
248.2	149.38
248.433	166.38
248.666	161.38
248.899	174.38
249.133	181.38
249.366	195.38
249.599	173.38
249.832	172.38
250.066	173.38
250.299	162.38
250.532	177.38
250.765	175.38
250.998	202.38
251.231	207.38
251.465	204.38
251.698	175.38
251.931	185.38
252.164	208.38
252.397	186.38
252.63	191.38
252.863	208.38
253.096	210.38
253.329	200.38
253.562	205.38
253.795	209.38
254.028	195.38
254.261	201.38
254.494	210.38
254.727	227.38
254.96	244.38
255.193	236.38
255.426	227.38
255.659	203.38
255.892	202.38
256.124	212.38
256.357	217.38
256.59	216.38
256.823	213.38
257.056	215.38
257.289	206.38
257.521	195.38
257.754	210.38
257.987	200.38
258.22	205.38
258.452	207.38
258.685	219.38
258.918	198.38
259.151	217.38
259.383	204.38
259.616	201.38
259.849	225.38
260.081	211.38
260.314	228.38
260.547	224.38
260.779	225.38
261.012	233.38
261.244	220.38
261.477	212.38
261.71	212.38
261.942	212.38
262.175	219.38
262.407	215.38
262.64	200.38
262.872	197.38
263.105	187.38
263.337	202.38
263.57	217.38
263.802	209.38
264.035	206.38
264.267	212.38
264.499	214.38
264.732	199.38
264.964	226.38
265.197	204.38
265.429	203.38
265.661	210.38
265.894	195.38
266.126	199.38
266.358	225.38
266.591	236.38
266.823	209.38
267.055	211.38
267.287	206.38
267.52	213.38
267.752	217.38
267.984	215.38
268.216	216.38
268.448	225.38
268.681	233.38
268.913	223.38
269.145	267.38
269.377	256.38
269.609	253.38
269.841	261.38
270.073	275.38
270.306	260.38
270.538	274.38
270.77	276.38
271.002	262.38
271.234	277.38
271.466	283.38
271.698	272.38
271.93	271.38
272.162	283.38
272.394	286.38
272.626	282.38
272.858	250.38
273.09	263.38
273.322	259.38
273.553	243.38
273.785	250.38
274.017	252.38
274.249	262.38
274.481	243.38
274.713	246.38
274.945	235.38
275.176	263.38
275.408	249.38
275.64	252.38
275.872	245.38
276.104	255.38
276.335	232.38
276.567	255.38
276.799	253.38
277.031	278.38
277.262	270.38
277.494	274.38
277.726	265.38
277.957	271.38
278.189	269.38
278.421	254.38
278.652	258.38
278.884	259.38
279.115	262.38
279.347	267.38
279.579	250.38
279.81	271.38
280.042	232.38
280.273	261.38
280.505	267.38
280.736	251.38
280.968	264.38
281.199	269.38
281.431	268.38
281.662	259.38
281.894	249.38
282.125	271.38
282.356	276.38
282.588	272.38
282.819	290.38
283.051	269.38
283.282	265.38
283.513	250.38
283.745	275.38
283.976	271.38
284.207	273.38
284.439	279.38
284.67	266.38
284.901	259.38
285.132	259.38
285.364	254.38
285.595	259.38
285.826	264.38
286.057	272.38
286.288	274.38
286.52	281.38
286.751	275.38
286.982	278.38
287.213	257.38
287.444	273.38
287.675	278.38
287.906	257.38
288.138	269.38
288.369	268.38
288.6	276.38
288.831	270.38
289.062	262.38
289.293	263.38
289.524	249.38
289.755	275.38
289.986	271.38
290.217	287.38
290.448	279.38
290.679	278.38
290.91	274.38
291.141	269.38
291.371	268.38
291.602	264.38
291.833	276.38
292.064	271.38
292.295	273.38
292.526	282.38
292.757	270.38
292.987	274.38
293.218	271.38
293.449	287.38
293.68	286.38
293.91	286.38
294.141	277.38
294.372	265.38
294.603	261.38
294.833	272.38
295.064	277.38
295.295	296.38
295.525	277.38
295.756	285.38
295.987	290.38
296.217	297.38
296.448	298.38
296.679	286.38
296.909	296.38
297.14	286.38
297.37	276.38
297.601	267.38
297.831	289.38
298.062	269.38
298.292	296.38
298.523	303.38
298.753	281.38
298.984	297.38
299.214	277.38
299.445	293.38
299.675	297.38
299.905	294.38
300.136	310.38
300.366	283.38
300.597	295.38
300.827	289.38
301.057	292.38
301.288	302.38
301.518	327.38
301.748	292.38
301.979	318.38
302.209	302.38
302.439	307.38
302.669	323.38
302.9	319.38
303.13	323.38
303.36	293.38
303.59	311.38
303.82	331.38
304.051	317.38
304.281	295.38
304.511	316.38
304.741	305.38
304.971	300.38
305.201	309.38
305.431	309.38
305.661	323.38
305.891	304.38
306.121	305.38
306.352	311.38
306.582	299.38
306.812	313.38
307.042	315.38
307.272	299.38
307.502	321.38
307.731	304.38
307.961	313.38
308.191	305.38
308.421	322.38
308.651	317.38
308.881	295.38
309.111	317.38
309.341	298.38
309.571	342.38
309.8	315.38
310.03	335.38
310.26	337.38
310.49	336.38
310.72	337.38
310.949	356.38
311.179	361.38
311.409	365.38
311.639	338.38
311.868	350.38
312.098	343.38
312.328	339.38
312.557	348.38
312.787	367.38
313.017	356.38
313.246	369.38
313.476	345.38
313.706	351.38
313.935	341.38
314.165	359.38
314.394	365.38
314.624	376.38
314.853	350.38
315.083	361.38
315.312	343.38
315.542	331.38
315.771	338.38
316.001	367.38
316.23	331.38
316.46	346.38
316.689	355.38
316.919	341.38
317.148	350.38
317.377	355.38
317.607	355.38
317.836	359.38
318.065	343.38
318.295	353.38
318.524	353.38
318.753	343.38
318.983	352.38
319.212	336.38
319.441	362.38
319.67	366.38
319.9	349.38
320.129	345.38
320.358	357.38
320.587	366.38
320.816	365.38
321.046	364.38
321.275	353.38
321.504	363.38
321.733	361.38
321.962	362.38
322.191	363.38
322.42	373.38
322.649	399.38
322.878	405.38
323.108	403.38
323.337	443.38
323.566	457.38
323.795	430.38
324.024	501.38
324.253	565.38
324.482	789.38
324.71	1175.38
324.939	1557.38
325.168	1354.38
325.397	744.38
325.626	539.38
325.855	469.38
326.084	435.38
326.313	446.38
326.542	442.38
326.77	455.38
326.999	551.38
327.228	713.38
327.457	1011.38
327.686	1173.38
327.914	811.38
328.143	577.38
328.372	511.38
328.6	495.38
328.829	470.38
329.058	454.38
329.287	464.38
329.515	461.38
329.744	454.38
329.972	434.38
330.201	431.38
330.43	449.38
330.658	471.38
330.887	497.38
331.115	481.38
331.344	451.38
331.572	419.38
331.801	409.38
332.03	407.38
332.258	414.38
332.486	407.38
332.715	401.38
332.943	396.38
333.172	391.38
333.4	400.38
333.629	428.38
333.857	445.38
334.085	448.38
334.314	429.38
334.542	442.38
334.771	444.38
334.999	438.38
335.227	435.38
335.455	418.38
335.684	406.38
335.912	390.38
336.14	396.38
336.369	414.38
336.597	394.38
336.825	406.38
337.053	398.38
337.281	390.38
337.51	397.38
337.738	392.38
337.966	376.38
338.194	363.38
338.422	392.38
338.65	373.38
338.878	379.38
339.106	381.38
339.334	373.38
339.562	384.38
339.79	388.38
340.018	403.38
340.246	394.38
340.474	395.38
340.702	395.38
340.93	373.38
341.158	379.38
341.386	393.38
341.614	381.38
341.842	379.38
342.07	357.38
342.298	378.38
342.526	375.38
342.754	358.38
342.981	373.38
343.209	379.38
343.437	379.38
343.665	404.38
343.893	390.38
344.12	409.38
344.348	375.38
344.576	387.38
344.804	391.38
345.031	407.38
345.259	400.38
345.487	383.38
345.714	379.38
345.942	359.38
346.17	362.38
346.397	376.38
346.625	371.38
346.853	373.38
347.08	342.38
347.308	370.38
347.535	385.38
347.763	378.38
347.99	367.38
348.218	377.38
348.445	398.38
348.673	365.38
348.9	359.38
349.128	375.38
349.355	348.38
349.583	356.38
349.81	368.38
350.037	351.38
350.265	353.38
350.492	355.38
350.72	370.38
350.947	374.38
351.174	366.38
351.402	377.38
351.629	351.38
351.856	371.38
352.083	377.38
352.311	370.38
352.538	375.38
352.765	376.38
352.992	363.38
353.22	354.38
353.447	369.38
353.674	340.38
353.901	343.38
354.128	350.38
354.355	345.38
354.583	335.38
354.81	334.38
355.037	344.38
355.264	329.38
355.491	352.38
355.718	329.38
355.945	348.38
356.172	339.38
356.399	311.38
356.626	319.38
356.853	334.38
357.08	340.38
357.307	330.38
357.534	343.38
357.761	347.38
357.988	331.38
358.215	334.38
358.441	337.38
358.668	338.38
358.895	349.38
359.122	344.38
359.349	338.38
359.576	342.38
359.802	375.38
360.029	377.38
360.256	386.38
360.483	358.38
360.709	359.38
360.936	349.38
361.163	354.38
361.39	344.38
361.616	343.38
361.843	357.38
362.07	358.38
362.296	357.38
362.523	341.38
362.749	353.38
362.976	339.38
363.203	345.38
363.429	340.38
363.656	353.38
363.882	335.38
364.109	333.38
364.335	329.38
364.562	355.38
364.788	336.38
365.015	333.38
365.241	334.38
365.468	334.38
365.694	365.38
365.92	337.38
366.147	340.38
366.373	316.38
366.599	325.38
366.826	320.38
367.052	330.38
367.278	326.38
367.505	345.38
367.731	337.38
367.957	317.38
368.184	333.38
368.41	332.38
368.636	350.38
368.862	334.38
369.089	339.38
369.315	341.38
369.541	324.38
369.767	333.38
369.993	334.38
370.219	346.38
370.445	349.38
370.672	337.38
370.898	331.38
371.124	369.38
371.35	333.38
371.576	308.38
371.802	318.38
372.028	320.38
372.254	308.38
372.48	341.38
372.706	346.38
372.932	336.38
373.158	347.38
373.384	341.38
373.61	355.38
373.835	333.38
374.061	332.38
374.287	324.38
374.513	331.38
374.739	327.38
374.965	351.38
375.191	349.38
375.416	358.38
375.642	335.38
375.868	333.38
376.094	337.38
376.319	320.38
376.545	343.38
376.771	334.38
376.997	321.38
377.222	319.38
377.448	329.38
377.674	332.38
377.899	333.38
378.125	335.38
378.35	330.38
378.576	323.38
378.802	309.38
379.027	303.38
379.253	326.38
379.478	340.38
379.704	322.38
379.929	335.38
380.155	334.38
380.38	338.38
380.606	339.38
380.831	326.38
381.057	347.38
381.282	336.38
381.507	330.38
381.733	334.38
381.958	312.38
382.184	338.38
382.409	344.38
382.634	341.38
382.86	331.38
383.085	329.38
383.31	333.38
383.535	330.38
383.761	342.38
383.986	337.38
384.211	334.38
384.436	329.38
384.662	348.38
384.887	345.38
385.112	345.38
385.337	341.38
385.562	334.38
385.787	363.38
386.013	375.38
386.238	357.38
386.463	375.38
386.688	359.38
386.913	342.38
387.138	344.38
387.363	357.38
387.588	345.38
387.813	373.38
388.038	337.38
388.263	344.38
388.488	369.38
388.713	353.38
388.938	350.38
389.163	350.38
389.387	342.38
389.612	344.38
389.837	345.38
390.062	353.38
390.287	345.38
390.512	336.38
390.736	347.38
390.961	360.38
391.186	362.38
391.411	363.38
391.636	361.38
391.86	373.38
392.085	340.38
392.31	349.38
392.534	358.38
392.759	355.38
392.984	358.38
393.208	360.38
393.433	359.38
393.658	375.38
393.882	349.38
394.107	333.38
394.331	346.38
394.556	342.38
394.78	353.38
395.005	358.38
395.229	368.38
395.454	361.38
395.678	331.38
395.903	373.38
396.127	381.38
396.352	387.38
396.576	375.38
396.801	358.38
397.025	377.38
397.249	361.38
397.474	354.38
397.698	352.38
397.922	377.38
398.147	389.38
398.371	394.38
398.595	365.38
398.82	393.38
399.044	398.38
399.268	408.38
399.492	435.38
399.717	427.38
399.941	454.38
400.165	461.38
400.389	476.38
400.613	437.38
400.837	401.38
401.062	391.38
401.286	387.38
401.51	389.38
401.734	383.38
401.958	393.38
402.182	388.38
402.406	390.38
402.63	406.38
402.854	395.38
403.078	385.38
403.302	414.38
403.526	407.38
403.75	394.38
403.974	395.38
404.198	393.38
404.422	411.38
404.645	380.38
404.869	415.38
405.093	415.38
405.317	450.38
405.541	462.38
405.765	453.38
405.988	404.38
406.212	430.38
406.436	426.38
406.66	442.38
406.883	412.38
407.107	429.38
407.331	474.38
407.555	518.38
407.778	509.38
408.002	481.38
408.226	446.38
408.449	435.38
408.673	427.38
408.896	449.38
409.12	488.38
409.344	437.38
409.567	414.38
409.791	415.38
410.014	408.38
410.238	421.38
410.461	397.38
410.685	408.38
410.908	390.38
411.132	427.38
411.355	461.38
411.578	460.38
411.802	402.38
412.025	399.38
412.249	399.38
412.472	407.38
412.695	422.38
412.919	437.38
413.142	406.38
413.365	412.38
413.589	374.38
413.812	381.38
414.035	371.38
414.258	378.38
414.482	373.38
414.705	360.38
414.928	378.38
415.151	371.38
415.374	375.38
415.597	388.38
415.821	380.38
416.044	383.38
416.267	374.38
416.49	371.38
416.713	375.38
416.936	374.38
417.159	379.38
417.382	374.38
417.605	395.38
417.828	378.38
418.051	388.38
418.274	381.38
418.497	372.38
418.72	386.38
418.943	379.38
419.166	383.38
419.389	390.38
419.611	381.38
419.834	381.38
420.057	377.38
420.28	382.38
420.503	387.38
420.726	386.38
420.948	410.38
421.171	434.38
421.394	460.38
421.617	425.38
421.839	386.38
422.062	397.38
422.285	413.38
422.507	445.38
422.73	501.38
422.953	469.38
423.175	419.38
423.398	390.38
423.621	380.38
423.843	410.38
424.066	428.38
424.288	434.38
424.511	453.38
424.733	464.38
424.956	518.38
425.178	498.38
425.401	502.38
425.623	501.38
425.846	445.38
426.068	418.38
426.291	411.38
426.513	402.38
426.735	401.38
426.958	461.38
427.18	513.38
427.402	590.38
427.625	633.38
427.847	559.38
428.069	470.38
428.292	439.38
428.514	402.38
428.736	408.38
428.958	402.38
429.181	391.38
429.403	383.38
429.625	393.38
429.847	398.38
430.069	469.38
430.292	470.38
430.514	381.38
430.736	391.38
430.958	385.38
431.18	352.38
431.402	358.38
431.624	357.38
431.846	355.38
432.068	365.38
432.29	356.38
432.512	349.38
432.734	367.38
432.956	362.38
433.178	366.38
433.4	382.38
433.622	374.38
433.844	354.38
434.066	369.38
434.287	358.38
434.509	366.38
434.731	370.38
434.953	358.38
435.175	382.38
435.397	417.38
435.618	405.38
435.84	452.38
436.062	515.38
436.284	542.38
436.505	466.38
436.727	425.38
436.949	427.38
437.17	388.38
437.392	387.38
437.614	382.38
437.835	429.38
438.057	473.38
438.278	562.38
438.5	549.38
438.721	589.38
438.943	571.38
439.165	451.38
439.386	423.38
439.608	416.38
439.829	407.38
440.05	433.38
440.272	454.38
440.493	433.38
440.715	415.38
440.936	389.38
441.158	389.38
441.379	362.38
441.6	393.38
441.822	414.38
442.043	420.38
442.264	483.38
442.486	518.38
442.707	455.38
442.928	420.38
443.149	397.38
443.371	435.38
443.592	460.38
443.813	550.38
444.034	579.38
444.255	455.38
444.476	430.38
444.698	422.38
444.919	427.38
445.14	565.38
445.361	468.38
445.582	444.38
445.803	491.38
446.024	545.38
446.245	551.38
446.466	495.38
446.687	448.38
446.908	421.38
447.129	379.38
447.35	404.38
447.571	393.38
447.792	389.38
448.013	397.38
448.234	405.38
448.455	431.38
448.675	529.38
448.896	584.38
449.117	494.38
449.338	457.38
449.559	550.38
449.779	623.38
450	500.38
450.221	415.38
450.442	391.38
450.662	397.38
450.883	359.38
451.104	362.38
451.324	383.38
451.545	354.38
451.766	355.38
451.986	357.38
452.207	363.38
452.428	330.38
452.648	356.38
452.869	343.38
453.089	345.38
453.31	346.38
453.53	339.38
453.751	350.38
453.971	345.38
454.192	340.38
454.412	356.38
454.633	337.38
454.853	351.38
455.073	340.38
455.294	371.38
455.514	410.38
455.734	389.38
455.955	333.38
456.175	311.38
456.395	318.38
456.616	317.38
456.836	333.38
457.056	315.38
457.276	324.38
457.497	318.38
457.717	336.38
457.937	327.38
458.157	343.38
458.377	322.38
458.598	335.38
458.818	394.38
459.038	455.38
459.258	450.38
459.478	384.38
459.698	362.38
459.918	356.38
460.138	360.38
460.358	380.38
460.578	363.38
460.798	347.38
461.018	366.38
461.238	374.38
461.458	362.38
461.678	365.38
461.898	360.38
462.118	373.38
462.338	357.38
462.558	387.38
462.777	373.38
462.997	410.38
463.217	391.38
463.437	391.38
463.657	389.38
463.876	392.38
464.096	400.38
464.316	374.38
464.536	385.38
464.755	398.38
464.975	404.38
465.195	406.38
465.414	442.38
465.634	405.38
465.854	381.38
466.073	380.38
466.293	339.38
466.512	352.38
466.732	349.38
466.951	335.38
467.171	341.38
467.391	349.38
467.61	340.38
467.829	352.38
468.049	357.38
468.268	350.38
468.488	323.38
468.707	341.38
468.927	345.38
469.146	332.38
469.365	349.38
469.585	350.38
469.804	342.38
470.023	337.38
470.243	346.38
470.462	364.38
470.681	369.38
470.901	373.38
471.12	361.38
471.339	365.38
471.558	362.38
471.777	331.38
471.997	360.38
472.216	363.38
472.435	368.38
472.654	378.38
472.873	355.38
473.092	361.38
473.311	345.38
473.53	366.38
473.749	373.38
473.968	393.38
474.187	440.38
474.406	477.38
474.625	404.38
474.844	378.38
475.063	355.38
475.282	363.38
475.501	354.38
475.72	354.38
475.939	344.38
476.158	364.38
476.377	352.38
476.596	361.38
476.814	390.38
477.033	371.38
477.252	358.38
477.471	369.38
477.69	390.38
477.908	384.38
478.127	392.38
478.346	366.38
478.564	387.38
478.783	405.38
479.002	401.38
479.22	395.38
479.439	394.38
479.658	409.38
479.876	406.38
480.095	413.38
480.313	451.38
480.532	426.38
480.751	417.38
480.969	421.38
481.188	415.38
481.406	469.38
481.624	423.38
481.843	385.38
482.061	412.38
482.28	407.38
482.498	395.38
482.717	403.38
482.935	393.38
483.153	401.38
483.372	417.38
483.59	429.38
483.808	408.38
484.027	430.38
484.245	413.38
484.463	397.38
484.681	437.38
484.9	411.38
485.118	421.38
485.336	426.38
485.554	424.38
485.772	416.38
485.99	405.38
486.209	401.38
486.427	437.38
486.645	423.38
486.863	433.38
487.081	428.38
487.299	414.38
487.517	437.38
487.735	435.38
487.953	402.38
488.171	466.38
488.389	432.38
488.607	438.38
488.825	435.38
489.043	429.38
489.261	414.38
489.479	457.38
489.696	442.38
489.914	460.38
490.132	456.38
490.35	459.38
490.568	474.38
490.786	474.38
491.003	472.38
491.221	470.38
491.439	485.38
491.657	484.38
491.874	492.38
492.092	485.38
492.31	508.38
492.527	508.38
492.745	514.38
492.963	499.38
493.18	479.38
493.398	517.38
493.615	522.38
493.833	479.38
494.05	527.38
494.268	508.38
494.485	502.38
494.703	525.38
494.92	541.38
495.138	511.38
495.355	522.38
495.573	499.38
495.79	522.38
496.008	526.38
496.225	543.38
496.442	514.38
496.66	522.38
496.877	508.38
497.094	521.38
497.312	521.38
497.529	525.38
497.746	523.38
497.963	567.38
498.181	541.38
498.398	581.38
498.615	558.38
498.832	583.38
499.049	590.38
499.267	573.38
499.484	616.38
499.701	621.38
499.918	648.38
500.135	667.38
500.352	685.38
500.569	698.38
500.786	705.38
501.003	666.38
501.22	669.38
501.437	667.38
501.654	648.38
501.871	625.38
502.088	597.38
502.305	569.38
502.522	578.38
502.739	563.38
502.956	549.38
503.172	535.38
503.389	524.38
503.606	531.38
503.823	535.38
504.04	539.38
504.256	507.38
504.473	504.38
504.69	510.38
504.907	510.38
505.123	502.38
505.34	492.38
505.557	480.38
505.773	489.38
505.99	503.38
506.207	479.38
506.423	492.38
506.64	495.38
506.856	503.38
507.073	476.38
507.289	471.38
507.506	478.38
507.722	493.38
507.939	492.38
508.155	474.38
508.372	480.38
508.588	452.38
508.805	453.38
509.021	457.38
509.238	455.38
509.454	478.38
509.67	463.38
509.887	454.38
510.103	444.38
510.319	455.38
510.536	522.38
510.752	749.38
510.968	617.38
511.184	473.38
511.401	462.38
511.617	446.38
511.833	440.38
512.049	428.38
512.265	440.38
512.481	446.38
512.698	440.38
512.914	448.38
513.13	443.38
513.346	445.38
513.562	435.38
513.778	441.38
513.994	445.38
514.21	445.38
514.426	437.38
514.642	471.38
514.858	474.38
515.074	497.38
515.29	585.38
515.506	781.38
515.721	667.38
515.937	500.38
516.153	464.38
516.369	470.38
516.585	460.38
516.801	454.38
517.016	448.38
517.232	446.38
517.448	435.38
517.664	445.38
517.879	436.38
518.095	454.38
518.311	434.38
518.527	450.38
518.742	438.38
518.958	436.38
519.173	437.38
519.389	442.38
519.605	458.38
519.82	429.38
520.036	448.38
520.251	443.38
520.467	454.38
520.682	460.38
520.898	465.38
521.113	490.38
521.329	481.38
521.544	535.38
521.76	660.38
521.975	995.38
522.19	975.38
522.406	593.38
522.621	467.38
522.836	423.38
523.052	422.38
523.267	411.38
523.482	413.38
523.698	399.38
523.913	431.38
524.128	403.38
524.343	385.38
524.559	398.38
524.774	374.38
524.989	378.38
525.204	409.38
525.419	389.38
525.634	384.38
525.849	377.38
526.064	360.38
526.28	376.38
526.495	349.38
526.71	367.38
526.925	363.38
527.14	363.38
527.355	361.38
527.57	365.38
527.785	346.38
527.999	354.38
528.214	361.38
528.429	359.38
528.644	362.38
528.859	354.38
529.074	366.38
529.289	392.38
529.503	411.38
529.718	421.38
529.933	401.38
530.148	379.38
530.363	389.38
530.577	369.38
530.792	360.38
531.007	340.38
531.221	350.38
531.436	355.38
531.651	357.38
531.865	338.38
532.08	331.38
532.295	342.38
532.509	341.38
532.724	332.38
532.938	341.38
533.153	362.38
533.367	348.38
533.582	359.38
533.796	351.38
534.011	353.38
534.225	317.38
534.44	355.38
534.654	340.38
534.868	341.38
535.083	325.38
535.297	354.38
535.511	345.38
535.726	365.38
535.94	354.38
536.154	345.38
536.369	341.38
536.583	341.38
536.797	341.38
537.011	334.38
537.225	348.38
537.44	341.38
537.654	343.38
537.868	337.38
538.082	339.38
538.296	336.38
538.51	342.38
538.724	359.38
538.938	341.38
539.153	338.38
539.367	352.38
539.581	341.38
539.795	337.38
540.009	331.38
540.222	319.38
540.436	332.38
540.65	341.38
540.864	334.38
541.078	324.38
541.292	346.38
541.506	342.38
541.72	338.38
541.934	335.38
542.147	337.38
542.361	355.38
542.575	337.38
542.789	335.38
543.002	349.38
543.216	348.38
543.43	353.38
543.644	337.38
543.857	339.38
544.071	347.38
544.285	343.38
544.498	335.38
544.712	343.38
544.925	337.38
545.139	330.38
545.352	346.38
545.566	335.38
545.779	335.38
545.993	331.38
546.206	331.38
546.42	349.38
546.633	341.38
546.847	332.38
547.06	343.38
547.274	324.38
547.487	353.38
547.7	324.38
547.914	343.38
548.127	343.38
548.34	347.38
548.554	333.38
548.767	323.38
548.98	342.38
549.193	335.38
549.407	347.38
549.62	327.38
549.833	333.38
550.046	310.38
550.259	335.38
550.473	334.38
550.686	333.38
550.899	323.38
551.112	302.38
551.325	333.38
551.538	342.38
551.751	307.38
551.964	316.38
552.177	330.38
552.39	327.38
552.603	316.38
552.816	294.38
553.029	342.38
553.242	339.38
553.455	336.38
553.667	346.38
553.88	363.38
554.093	339.38
554.306	314.38
554.519	322.38
554.732	326.38
554.944	328.38
555.157	319.38
555.37	304.38
555.583	319.38
555.795	317.38
556.008	291.38
556.221	279.38
556.433	306.38
556.646	299.38
556.859	311.38
557.071	301.38
557.284	305.38
557.496	311.38
557.709	297.38
557.921	285.38
558.134	307.38
558.346	304.38
558.559	290.38
558.771	284.38
558.984	302.38
559.196	287.38
559.409	301.38
559.621	292.38
559.833	284.38
560.046	300.38
560.258	285.38
560.47	278.38
560.683	290.38
560.895	282.38
561.107	289.38
561.32	295.38
561.532	303.38
561.744	295.38
561.956	297.38
562.168	293.38
562.381	292.38
562.593	295.38
562.805	299.38
563.017	280.38
563.229	272.38
563.441	292.38
563.653	285.38
563.865	274.38
564.077	302.38
564.289	321.38
564.501	313.38
564.713	292.38
564.925	309.38
565.137	307.38
565.349	310.38
565.561	330.38
565.773	325.38
565.985	316.38
566.197	333.38
566.408	331.38
566.62	334.38
566.832	341.38
567.044	337.38
567.255	345.38
567.467	338.38
567.679	373.38
567.891	359.38
568.102	355.38
568.314	335.38
568.526	344.38
568.737	331.38
568.949	300.38
569.161	305.38
569.372	290.38
569.584	297.38
569.795	290.38
570.007	301.38
570.218	309.38
570.43	313.38
570.641	281.38
570.853	294.38
571.064	286.38
571.276	293.38
571.487	279.38
571.698	284.38
571.91	281.38
572.121	279.38
572.333	277.38
572.544	275.38
572.755	254.38
572.966	255.38
573.178	258.38
573.389	251.38
573.6	243.38
573.811	255.38
574.023	261.38
574.234	243.38
574.445	255.38
574.656	255.38
574.867	236.38
575.078	261.38
575.289	267.38
575.501	262.38
575.712	242.38
575.923	253.38
576.134	247.38
576.345	249.38
576.556	253.38
576.767	235.38
576.978	233.38
577.188	241.38
577.399	234.38
577.61	243.38
577.821	251.38
578.032	242.38
578.243	264.38
578.454	367.38
578.665	317.38
578.875	247.38
579.086	221.38
579.297	226.38
579.508	235.38
579.718	224.38
579.929	230.38
580.14	241.38
580.35	228.38
580.561	234.38
580.772	248.38
580.982	242.38
581.193	231.38
581.403	234.38
581.614	221.38
581.825	205.38
582.035	229.38
582.246	214.38
582.456	222.38
582.667	233.38
582.877	231.38
583.087	235.38
583.298	230.38
583.508	220.38
583.719	213.38
583.929	226.38
584.139	228.38
584.35	211.38
584.56	217.38
584.77	236.38
584.981	217.38
585.191	237.38
585.401	219.38
585.611	242.38
585.821	207.38
586.032	234.38
586.242	235.38
586.452	222.38
586.662	224.38
586.872	226.38
587.082	218.38
587.292	218.38
587.502	233.38
587.713	208.38
587.923	232.38
588.133	207.38
588.343	213.38
588.553	213.38
588.762	214.38
588.972	222.38
589.182	238.38
589.392	229.38
589.602	221.38
589.812	220.38
590.022	206.38
590.232	235.38
590.441	212.38
590.651	229.38
590.861	223.38
591.071	214.38
591.281	223.38
591.49	213.38
591.7	203.38
591.91	232.38
592.119	218.38
592.329	217.38
592.539	233.38
592.748	233.38
592.958	231.38
593.167	229.38
593.377	235.38
593.587	243.38
593.796	231.38
594.006	233.38
594.215	234.38
594.424	219.38
594.634	235.38
594.843	229.38
595.053	229.38
595.262	234.38
595.472	212.38
595.681	222.38
595.89	229.38
596.1	215.38
596.309	223.38
596.518	220.38
596.727	224.38
596.937	214.38
597.146	206.38
597.355	194.38
597.564	226.38
597.774	201.38
597.983	221.38
598.192	201.38
598.401	182.38
598.61	184.38
598.819	203.38
599.028	203.38
599.237	203.38
599.446	202.38
599.655	209.38
599.864	192.38
600.073	197.38
600.282	196.38
600.491	201.38
600.7	204.38
600.909	201.38
601.118	192.38
601.327	210.38
601.536	206.38
601.745	215.38
601.953	194.38
602.162	179.38
602.371	190.38
602.58	189.38
602.789	200.38
602.997	197.38
603.206	197.38
603.415	201.38
603.623	207.38
603.832	193.38
604.041	183.38
604.249	184.38
604.458	203.38
604.666	204.38
604.875	190.38
605.084	189.38
605.292	199.38
605.501	210.38
605.709	181.38
605.918	195.38
606.126	188.38
606.334	181.38
606.543	195.38
606.751	207.38
606.96	177.38
607.168	210.38
607.376	201.38
607.585	219.38
607.793	199.38
608.001	181.38
608.21	196.38
608.418	198.38
608.626	201.38
608.834	195.38
609.043	193.38
609.251	204.38
609.459	190.38
609.667	204.38
609.875	181.38
610.083	204.38
610.291	197.38
610.499	195.38
610.707	198.38
610.916	197.38
611.124	195.38
611.332	212.38
611.54	198.38
611.748	194.38
611.955	206.38
612.163	218.38
612.371	193.38
612.579	191.38
612.787	217.38
612.995	200.38
613.203	210.38
613.411	191.38
613.618	194.38
613.826	184.38
614.034	183.38
614.242	198.38
614.449	187.38
614.657	177.38
614.865	190.38
615.072	198.38
615.28	197.38
615.488	197.38
615.695	183.38
615.903	199.38
616.111	181.38
616.318	201.38
616.526	193.38
616.733	209.38
616.941	187.38
617.148	198.38
617.356	207.38
617.563	179.38
617.771	194.38
617.978	195.38
618.185	186.38
618.393	195.38
618.6	197.38
618.807	188.38
619.015	182.38
619.222	169.38
619.429	173.38
619.637	188.38
619.844	174.38
620.051	184.38
620.258	181.38
620.466	186.38
620.673	161.38
620.88	178.38
621.087	185.38
621.294	165.38
621.501	181.38
621.708	177.38
621.915	185.38
622.122	175.38
622.329	163.38
622.536	173.38
622.743	195.38
622.95	193.38
623.157	194.38
623.364	197.38
623.571	171.38
623.778	182.38
623.985	179.38
624.192	172.38
624.399	179.38
624.606	193.38
624.812	156.38
625.019	164.38
625.226	170.38
625.433	181.38
625.639	170.38
625.846	161.38
626.053	170.38
626.259	176.38
626.466	163.38
626.673	162.38
626.879	166.38
627.086	147.38
627.293	173.38
627.499	150.38
627.706	159.38
627.912	160.38
628.119	186.38
628.325	168.38
628.532	181.38
628.738	183.38
628.945	178.38
629.151	168.38
629.357	167.38
629.564	161.38
629.77	153.38
629.976	149.38
630.183	154.38
630.389	170.38
630.595	164.38
630.802	157.38
631.008	152.38
631.214	157.38
631.42	165.38
631.627	173.38
631.833	159.38
632.039	162.38
632.245	175.38
632.451	158.38
632.657	164.38
632.863	163.38
633.069	141.38
633.275	154.38
633.481	149.38
633.688	149.38
633.893	165.38
634.099	159.38
634.305	153.38
634.511	150.38
634.717	167.38
634.923	148.38
635.129	142.38
635.335	155.38
635.541	154.38
635.747	147.38
635.952	152.38
636.158	164.38
636.364	154.38
636.57	151.38
636.775	153.38
636.981	142.38
637.187	135.38
637.392	167.38
637.598	153.38
637.804	152.38
638.009	149.38
638.215	155.38
638.421	161.38
638.626	137.38
638.832	152.38
639.037	158.38
639.243	154.38
639.448	143.38
639.654	145.38
639.859	153.38
640.065	150.38
640.27	157.38
640.475	147.38
640.681	143.38
640.886	159.38
641.091	141.38
641.297	147.38
641.502	125.38
641.707	144.38
641.913	156.38
642.118	149.38
642.323	161.38
642.528	140.38
642.733	153.38
642.939	146.38
643.144	140.38
643.349	139.38
643.554	135.38
643.759	141.38
643.964	142.38
644.169	146.38
644.374	149.38
644.579	148.38
644.784	145.38
644.989	141.38
645.194	137.38
645.399	133.38
645.604	141.38
645.809	131.38
646.014	134.38
646.219	134.38
646.423	145.38
646.628	143.38
646.833	153.38
647.038	143.38
647.243	139.38
647.447	145.38
647.652	140.38
647.857	148.38
648.062	159.38
648.266	147.38
648.471	149.38
648.676	144.38
648.88	151.38
649.085	147.38
649.289	149.38
649.494	137.38
649.698	151.38
649.903	137.38
650.107	140.38
650.312	149.38
650.516	145.38
650.721	128.38
650.925	121.38
651.13	145.38
651.334	137.38
651.539	118.38
651.743	141.38
651.947	154.38
652.152	131.38
652.356	127.38
652.56	125.38
652.764	152.38
652.969	127.38
653.173	124.38
653.377	134.38
653.581	131.38
653.785	127.38
653.99	120.38
654.194	125.38
654.398	122.38
654.602	120.38
654.806	110.38
655.01	128.38
655.214	121.38
655.418	115.38
655.622	111.38
655.826	122.38
656.03	109.38
656.234	121.38
656.438	125.38
656.642	120.38
656.846	121.38
657.049	123.38
657.253	113.38
657.457	126.38
657.661	112.38
657.865	103.38
658.068	107.38
658.272	105.38
658.476	96.38
658.68	108.38
658.883	94.38
659.087	108.38
659.291	100.38
659.494	104.38
659.698	94.38
659.901	104.38
660.105	92.38
660.309	93.38
660.512	87.38
660.716	95.38
660.919	89.38
661.123	90.38
661.326	89.38
661.53	81.38
661.733	79.38
661.936	89.38
662.14	89.38
662.343	98.38
662.546	84.38
662.75	93.38
662.953	88.38
663.156	83.38
663.36	87.38
663.563	89.38
663.766	91.38
663.969	91.38
664.173	86.38
664.376	84.38
664.579	91.38
664.782	76.38
664.985	87.38
665.188	77.38
665.391	80.38
665.594	89.38
665.797	76.38
666	79.38
666.203	93.38
666.406	76.38
666.609	79.38
666.812	85.38
667.015	74.38
667.218	86.38
667.421	85.38
667.624	86.38
667.827	86.38
668.03	96.38
668.232	89.38
668.435	89.38
668.638	77.38
668.841	86.38
669.043	73.38
669.246	83.38
669.449	79.38
669.651	80.38
669.854	85.38
670.057	84.38
670.259	97.38
670.462	96.38
670.665	69.38
670.867	80.38
671.07	82.38
671.272	81.38
671.475	92.38
671.677	82.38
671.88	80.38
672.082	81.38
672.284	82.38
672.487	82.38
672.689	87.38
672.892	83.38
