Data from 1971.PennyLincolnUp.Lamp.En5.5.200Scan.071719.P1.Scan 2. Changed Angle._HRD10591_15-24-58-843.txt Node
Date: Thu Jul 18 15:24:58 EDT 2019
User: cochatt
Spectrometer: HR+D1059
Trigger mode: 1
Integration Time (sec): 1.000000E-1
Scans to average: 1
Electric dark correction enabled: true
Nonlinearity correction enabled: false
Boxcar width: 0
XAxis mode: Wavelengths
Number of Pixels in Spectrum: 2048
>>>>>Begin Spectral Data<<<<<
223.165	-21.5
223.4	-21.5
223.635	-21.5
223.869	-15.5
224.104	-8.5
224.338	-27.5
224.573	-15.5
224.808	-1.5
225.042	-8.5
225.277	-5.5
225.511	-10.5
225.746	-5.5
225.98	4.5
226.215	10.5
226.449	22.5
226.683	25.5
226.918	29.5
227.152	27.5
227.387	26.5
227.621	33.5
227.856	31.5
228.09	42.5
228.324	32.5
228.559	47.5
228.793	76.5
229.027	114.5
229.262	115.5
229.496	148.5
229.73	140.5
229.964	168.5
230.199	156.5
230.433	119.5
230.667	131.5
230.901	120.5
231.136	130.5
231.37	111.5
231.604	127.5
231.838	121.5
232.072	112.5
232.306	127.5
232.541	121.5
232.775	101.5
233.009	134.5
233.243	118.5
233.477	117.5
233.711	113.5
233.945	115.5
234.179	133.5
234.413	126.5
234.647	123.5
234.881	125.5
235.115	122.5
235.349	113.5
235.583	122.5
235.817	114.5
236.051	147.5
236.285	137.5
236.519	127.5
236.753	129.5
236.987	172.5
237.221	210.5
237.455	281.5
237.689	207.5
237.922	142.5
238.156	143.5
238.39	144.5
238.624	133.5
238.858	146.5
239.091	126.5
239.325	138.5
239.559	141.5
239.793	145.5
240.027	153.5
240.26	162.5
240.494	182.5
240.728	173.5
240.961	166.5
241.195	156.5
241.429	158.5
241.662	137.5
241.896	142.5
242.13	127.5
242.363	136.5
242.597	148.5
242.83	151.5
243.064	150.5
243.298	163.5
243.531	156.5
243.765	139.5
243.998	143.5
244.232	153.5
244.465	153.5
244.699	152.5
244.932	152.5
245.166	158.5
245.399	156.5
245.633	161.5
245.866	154.5
246.099	154.5
246.333	162.5
246.566	161.5
246.8	157.5
247.033	158.5
247.266	147.5
247.5	165.5
247.733	199.5
247.966	185.5
248.2	193.5
248.433	180.5
248.666	203.5
248.899	212.5
249.133	226.5
249.366	245.5
249.599	227.5
249.832	204.5
250.066	196.5
250.299	203.5
250.532	215.5
250.765	225.5
250.998	264.5
251.231	258.5
251.465	260.5
251.698	224.5
251.931	219.5
252.164	215.5
252.397	200.5
252.63	220.5
252.863	224.5
253.096	241.5
253.329	264.5
253.562	258.5
253.795	247.5
254.028	245.5
254.261	236.5
254.494	240.5
254.727	291.5
254.96	321.5
255.193	308.5
255.426	293.5
255.659	278.5
255.892	262.5
256.124	291.5
256.357	237.5
256.59	237.5
256.823	246.5
257.056	233.5
257.289	244.5
257.521	242.5
257.754	240.5
257.987	236.5
258.22	226.5
258.452	240.5
258.685	212.5
258.918	214.5
259.151	238.5
259.383	236.5
259.616	230.5
259.849	258.5
260.081	267.5
260.314	268.5
260.547	286.5
260.779	268.5
261.012	245.5
261.244	264.5
261.477	244.5
261.71	242.5
261.942	264.5
262.175	262.5
262.407	262.5
262.64	236.5
262.872	231.5
263.105	231.5
263.337	225.5
263.57	246.5
263.802	227.5
264.035	235.5
264.267	231.5
264.499	241.5
264.732	240.5
264.964	236.5
265.197	224.5
265.429	215.5
265.661	221.5
265.894	216.5
266.126	238.5
266.358	227.5
266.591	215.5
266.823	237.5
267.055	242.5
267.287	240.5
267.52	233.5
267.752	252.5
267.984	245.5
268.216	238.5
268.448	246.5
268.681	237.5
268.913	258.5
269.145	276.5
269.377	296.5
269.609	307.5
269.841	280.5
270.073	289.5
270.306	327.5
270.538	359.5
270.77	360.5
271.002	334.5
271.234	334.5
271.466	333.5
271.698	342.5
271.93	352.5
272.162	372.5
272.394	348.5
272.626	335.5
272.858	327.5
273.09	310.5
273.322	313.5
273.553	289.5
273.785	290.5
274.017	284.5
274.249	297.5
274.481	266.5
274.713	281.5
274.945	286.5
275.176	295.5
275.408	287.5
275.64	274.5
275.872	271.5
276.104	276.5
276.335	288.5
276.567	304.5
276.799	311.5
277.031	320.5
277.262	348.5
277.494	358.5
277.726	328.5
277.957	313.5
278.189	278.5
278.421	276.5
278.652	279.5
278.884	283.5
279.115	277.5
279.347	290.5
279.579	273.5
279.81	267.5
280.042	262.5
280.273	289.5
280.505	276.5
280.736	264.5
280.968	263.5
281.199	275.5
281.431	248.5
281.662	256.5
281.894	279.5
282.125	277.5
282.356	306.5
282.588	344.5
282.819	327.5
283.051	280.5
283.282	282.5
283.513	281.5
283.745	269.5
283.976	281.5
284.207	291.5
284.439	272.5
284.67	282.5
284.901	286.5
285.132	285.5
285.364	274.5
285.595	284.5
285.826	294.5
286.057	276.5
286.288	252.5
286.52	283.5
286.751	269.5
286.982	290.5
287.213	300.5
287.444	289.5
287.675	284.5
287.906	293.5
288.138	307.5
288.369	314.5
288.6	307.5
288.831	306.5
289.062	298.5
289.293	288.5
289.524	294.5
289.755	268.5
289.986	290.5
290.217	300.5
290.448	283.5
290.679	288.5
290.91	294.5
291.141	270.5
291.371	274.5
291.602	290.5
291.833	282.5
292.064	283.5
292.295	289.5
292.526	271.5
292.757	294.5
292.987	293.5
293.218	293.5
293.449	295.5
293.68	298.5
293.91	293.5
294.141	286.5
294.372	288.5
294.603	297.5
294.833	304.5
295.064	290.5
295.295	310.5
295.525	310.5
295.756	300.5
295.987	287.5
296.217	320.5
296.448	333.5
296.679	322.5
296.909	304.5
297.14	305.5
297.37	291.5
297.601	302.5
297.831	307.5
298.062	280.5
298.292	305.5
298.523	310.5
298.753	313.5
298.984	288.5
299.214	322.5
299.445	313.5
299.675	291.5
299.905	316.5
300.136	307.5
300.366	300.5
300.597	309.5
300.827	319.5
301.057	312.5
301.288	342.5
301.518	332.5
301.748	320.5
301.979	321.5
302.209	317.5
302.439	360.5
302.669	328.5
302.9	323.5
303.13	316.5
303.36	319.5
303.59	323.5
303.82	360.5
304.051	341.5
304.281	332.5
304.511	310.5
304.741	334.5
304.971	339.5
305.201	314.5
305.431	336.5
305.661	327.5
305.891	330.5
306.121	341.5
306.352	338.5
306.582	326.5
306.812	359.5
307.042	324.5
307.272	324.5
307.502	351.5
307.731	330.5
307.961	316.5
308.191	319.5
308.421	317.5
308.651	360.5
308.881	358.5
309.111	345.5
309.341	344.5
309.571	359.5
309.8	387.5
310.03	388.5
310.26	404.5
310.49	378.5
310.72	428.5
310.949	440.5
311.179	442.5
311.409	409.5
311.639	394.5
311.868	389.5
312.098	374.5
312.328	412.5
312.557	422.5
312.787	446.5
313.017	455.5
313.246	444.5
313.476	394.5
313.706	378.5
313.935	414.5
314.165	415.5
314.394	429.5
314.624	423.5
314.853	399.5
315.083	410.5
315.312	400.5
315.542	391.5
315.771	384.5
316.001	395.5
316.23	377.5
316.46	386.5
316.689	396.5
316.919	390.5
317.148	418.5
317.377	427.5
317.607	428.5
317.836	399.5
318.065	397.5
318.295	390.5
318.524	398.5
318.753	384.5
318.983	390.5
319.212	387.5
319.441	404.5
319.67	403.5
319.9	389.5
320.129	386.5
320.358	394.5
320.587	415.5
320.816	420.5
321.046	417.5
321.275	439.5
321.504	428.5
321.733	426.5
321.962	429.5
322.191	450.5
322.42	488.5
322.649	501.5
322.878	518.5
323.108	503.5
323.337	544.5
323.566	582.5
323.795	632.5
324.024	691.5
324.253	856.5
324.482	1284.5
324.71	1991.5
324.939	2859.5
325.168	2528.5
325.397	1272.5
325.626	808.5
325.855	680.5
326.084	627.5
326.313	571.5
326.542	604.5
326.77	648.5
326.999	780.5
327.228	1121.5
327.457	1771.5
327.686	2174.5
327.914	1454.5
328.143	914.5
328.372	790.5
328.6	721.5
328.829	656.5
329.058	701.5
329.287	716.5
329.515	651.5
329.744	611.5
329.972	580.5
330.201	616.5
330.43	690.5
330.658	696.5
330.887	740.5
331.115	707.5
331.344	626.5
331.572	558.5
331.801	548.5
332.03	542.5
332.258	504.5
332.486	490.5
332.715	488.5
332.943	482.5
333.172	469.5
333.4	497.5
333.629	494.5
333.857	491.5
334.085	524.5
334.314	548.5
334.542	569.5
334.771	608.5
334.999	543.5
335.227	515.5
335.455	469.5
335.684	445.5
335.912	473.5
336.14	475.5
336.369	458.5
336.597	478.5
336.825	469.5
337.053	449.5
337.281	445.5
337.51	457.5
337.738	462.5
337.966	450.5
338.194	482.5
338.422	461.5
338.65	445.5
338.878	449.5
339.106	438.5
339.334	435.5
339.562	454.5
339.79	478.5
340.018	459.5
340.246	469.5
340.474	468.5
340.702	460.5
340.93	468.5
341.158	427.5
341.386	434.5
341.614	459.5
341.842	476.5
342.07	453.5
342.298	434.5
342.526	444.5
342.754	413.5
342.981	435.5
343.209	425.5
343.437	444.5
343.665	446.5
343.893	422.5
344.12	448.5
344.348	441.5
344.576	440.5
344.804	462.5
345.031	482.5
345.259	494.5
345.487	480.5
345.714	466.5
345.942	444.5
346.17	449.5
346.397	444.5
346.625	442.5
346.853	438.5
347.08	437.5
347.308	454.5
347.535	461.5
347.763	451.5
347.99	444.5
348.218	461.5
348.445	442.5
348.673	477.5
348.9	433.5
349.128	437.5
349.355	445.5
349.583	445.5
349.81	436.5
350.037	433.5
350.265	450.5
350.492	438.5
350.72	455.5
350.947	447.5
351.174	460.5
351.402	473.5
351.629	475.5
351.856	452.5
352.083	461.5
352.311	481.5
352.538	477.5
352.765	475.5
352.992	465.5
353.22	471.5
353.447	465.5
353.674	450.5
353.901	420.5
354.128	421.5
354.355	432.5
354.583	442.5
354.81	398.5
355.037	414.5
355.264	405.5
355.491	430.5
355.718	405.5
355.945	410.5
356.172	421.5
356.399	406.5
356.626	416.5
356.853	399.5
357.08	408.5
357.307	397.5
357.534	414.5
357.761	417.5
357.988	397.5
358.215	399.5
358.441	428.5
358.668	397.5
358.895	395.5
359.122	420.5
359.349	450.5
359.576	468.5
359.802	466.5
360.029	549.5
360.256	555.5
360.483	513.5
360.709	480.5
360.936	441.5
361.163	459.5
361.39	457.5
361.616	462.5
361.843	470.5
362.07	463.5
362.296	436.5
362.523	457.5
362.749	461.5
362.976	450.5
363.203	458.5
363.429	437.5
363.656	448.5
363.882	443.5
364.109	404.5
364.335	430.5
364.562	423.5
364.788	433.5
365.015	434.5
365.241	437.5
365.468	440.5
365.694	446.5
365.92	441.5
366.147	426.5
366.373	440.5
366.599	421.5
366.826	429.5
367.052	418.5
367.278	420.5
367.505	421.5
367.731	431.5
367.957	421.5
368.184	424.5
368.41	432.5
368.636	441.5
368.862	458.5
369.089	445.5
369.315	429.5
369.541	422.5
369.767	426.5
369.993	425.5
370.219	410.5
370.445	416.5
370.672	421.5
370.898	409.5
371.124	413.5
371.35	418.5
371.576	406.5
371.802	439.5
372.028	412.5
372.254	435.5
372.48	409.5
372.706	405.5
372.932	444.5
373.158	427.5
373.384	427.5
373.61	427.5
373.835	425.5
374.061	416.5
374.287	435.5
374.513	442.5
374.739	450.5
374.965	415.5
375.191	408.5
375.416	426.5
375.642	430.5
375.868	417.5
376.094	409.5
376.319	398.5
376.545	405.5
376.771	401.5
376.997	407.5
377.222	409.5
377.448	405.5
377.674	429.5
377.899	411.5
378.125	407.5
378.35	408.5
378.576	428.5
378.802	404.5
379.027	433.5
379.253	410.5
379.478	420.5
379.704	404.5
379.929	426.5
380.155	429.5
380.38	442.5
380.606	438.5
380.831	414.5
381.057	463.5
381.282	428.5
381.507	404.5
381.733	432.5
381.958	409.5
382.184	425.5
382.409	425.5
382.634	428.5
382.86	429.5
383.085	431.5
383.31	432.5
383.535	434.5
383.761	440.5
383.986	450.5
384.211	438.5
384.436	435.5
384.662	432.5
384.887	439.5
385.112	441.5
385.337	438.5
385.562	444.5
385.787	435.5
386.013	468.5
386.238	464.5
386.463	458.5
386.688	442.5
386.913	464.5
387.138	468.5
387.363	466.5
387.588	455.5
387.813	463.5
388.038	453.5
388.263	447.5
388.488	452.5
388.713	443.5
388.938	479.5
389.163	443.5
389.387	458.5
389.612	438.5
389.837	448.5
390.062	469.5
390.287	459.5
390.512	449.5
390.736	438.5
390.961	462.5
391.186	457.5
391.411	443.5
391.636	457.5
391.86	477.5
392.085	459.5
392.31	474.5
392.534	444.5
392.759	441.5
392.984	452.5
393.208	448.5
393.433	436.5
393.658	443.5
393.882	465.5
394.107	446.5
394.331	456.5
394.556	449.5
394.78	467.5
395.005	456.5
395.229	471.5
395.454	458.5
395.678	492.5
395.903	500.5
396.127	518.5
396.352	512.5
396.576	488.5
396.801	478.5
397.025	472.5
397.249	490.5
397.474	482.5
397.698	492.5
397.922	499.5
398.147	524.5
398.371	501.5
398.595	526.5
398.82	509.5
399.044	505.5
399.268	530.5
399.492	530.5
399.717	549.5
399.941	605.5
400.165	634.5
400.389	661.5
400.613	592.5
400.837	564.5
401.062	545.5
401.286	538.5
401.51	523.5
401.734	526.5
401.958	529.5
402.182	519.5
402.406	565.5
402.63	557.5
402.854	555.5
403.078	532.5
403.302	548.5
403.526	561.5
403.75	560.5
403.974	520.5
404.198	544.5
404.422	555.5
404.645	570.5
404.869	585.5
405.093	613.5
405.317	648.5
405.541	676.5
405.765	588.5
405.988	618.5
406.212	616.5
406.436	639.5
406.66	648.5
406.883	601.5
407.107	628.5
407.331	670.5
407.555	767.5
407.778	762.5
408.002	689.5
408.226	633.5
408.449	614.5
408.673	614.5
408.896	621.5
409.12	704.5
409.344	648.5
409.567	593.5
409.791	574.5
410.014	557.5
410.238	537.5
410.461	552.5
410.685	571.5
410.908	600.5
411.132	619.5
411.355	667.5
411.578	629.5
411.802	589.5
412.025	551.5
412.249	583.5
412.472	596.5
412.695	652.5
412.919	630.5
413.142	568.5
413.365	537.5
413.589	548.5
413.812	548.5
414.035	527.5
414.258	529.5
414.482	517.5
414.705	504.5
414.928	513.5
415.151	507.5
415.374	530.5
415.597	504.5
415.821	526.5
416.044	525.5
416.267	544.5
416.49	546.5
416.713	509.5
416.936	534.5
417.159	532.5
417.382	563.5
417.605	544.5
417.828	559.5
418.051	576.5
418.274	540.5
418.497	565.5
418.72	530.5
418.943	503.5
419.166	540.5
419.389	548.5
419.611	560.5
419.834	569.5
420.057	543.5
420.28	583.5
420.503	582.5
420.726	567.5
420.948	605.5
421.171	645.5
421.394	666.5
421.617	601.5
421.839	576.5
422.062	574.5
422.285	591.5
422.507	636.5
422.73	758.5
422.953	718.5
423.175	643.5
423.398	614.5
423.621	581.5
423.843	637.5
424.066	638.5
424.288	613.5
424.511	650.5
424.733	716.5
424.956	774.5
425.178	796.5
425.401	763.5
425.623	782.5
425.846	662.5
426.068	635.5
426.291	624.5
426.513	619.5
426.735	638.5
426.958	715.5
427.18	790.5
427.402	924.5
427.625	1028.5
427.847	928.5
428.069	811.5
428.292	704.5
428.514	664.5
428.736	592.5
428.958	603.5
429.181	593.5
429.403	596.5
429.625	589.5
429.847	647.5
430.069	713.5
430.292	702.5
430.514	625.5
430.736	582.5
430.958	581.5
431.18	556.5
431.402	555.5
431.624	539.5
431.846	534.5
432.068	536.5
432.29	539.5
432.512	564.5
432.734	532.5
432.956	536.5
433.178	556.5
433.4	570.5
433.622	577.5
433.844	553.5
434.066	542.5
434.287	544.5
434.509	534.5
434.731	544.5
434.953	576.5
435.175	589.5
435.397	623.5
435.618	636.5
435.84	692.5
436.062	774.5
436.284	868.5
436.505	757.5
436.727	648.5
436.949	621.5
437.17	584.5
437.392	602.5
437.614	619.5
437.835	668.5
438.057	787.5
438.278	916.5
438.5	896.5
438.721	969.5
438.943	902.5
439.165	739.5
439.386	666.5
439.608	681.5
439.829	695.5
440.05	705.5
440.272	762.5
440.493	714.5
440.715	652.5
440.936	619.5
441.158	581.5
441.379	590.5
441.6	618.5
441.822	635.5
442.043	689.5
442.264	779.5
442.486	861.5
442.707	744.5
442.928	655.5
443.149	695.5
443.371	706.5
443.592	746.5
443.813	840.5
444.034	892.5
444.255	747.5
444.476	670.5
444.698	645.5
444.919	615.5
445.14	772.5
445.361	698.5
445.582	695.5
445.803	792.5
446.024	914.5
446.245	931.5
446.466	801.5
446.687	695.5
446.908	648.5
447.129	639.5
447.35	585.5
447.571	609.5
447.792	605.5
448.013	616.5
448.234	638.5
448.455	722.5
448.675	812.5
448.896	941.5
449.117	818.5
449.338	792.5
449.559	864.5
449.779	973.5
450	807.5
450.221	663.5
450.442	641.5
450.662	602.5
450.883	621.5
451.104	638.5
451.324	630.5
451.545	581.5
451.766	550.5
451.986	556.5
452.207	537.5
452.428	514.5
452.648	540.5
452.869	528.5
453.089	546.5
453.31	560.5
453.53	545.5
453.751	553.5
453.971	557.5
454.192	576.5
454.412	570.5
454.633	538.5
454.853	532.5
455.073	556.5
455.294	590.5
455.514	665.5
455.734	645.5
455.955	541.5
456.175	504.5
456.395	508.5
456.616	499.5
456.836	500.5
457.056	503.5
457.276	476.5
457.497	512.5
457.717	504.5
457.937	505.5
458.157	484.5
458.377	505.5
458.598	558.5
458.818	631.5
459.038	747.5
459.258	751.5
459.478	653.5
459.698	569.5
459.918	546.5
460.138	553.5
460.358	536.5
460.578	546.5
460.798	551.5
461.018	525.5
461.238	556.5
461.458	544.5
461.678	534.5
461.898	536.5
462.118	520.5
462.338	550.5
462.558	536.5
462.777	536.5
462.997	532.5
463.217	566.5
463.437	568.5
463.657	535.5
463.876	553.5
464.096	546.5
464.316	571.5
464.536	590.5
464.755	585.5
464.975	580.5
465.195	666.5
465.414	779.5
465.634	682.5
465.854	627.5
466.073	601.5
466.293	566.5
466.512	564.5
466.732	522.5
466.951	533.5
467.171	533.5
467.391	534.5
467.61	556.5
467.829	551.5
468.049	544.5
468.268	556.5
468.488	524.5
468.707	527.5
468.927	528.5
469.146	524.5
469.365	517.5
469.585	516.5
469.804	526.5
470.023	556.5
470.243	551.5
470.462	572.5
470.681	594.5
470.901	573.5
471.12	562.5
471.339	549.5
471.558	541.5
471.777	535.5
471.997	535.5
472.216	551.5
472.435	598.5
472.654	605.5
472.873	544.5
473.092	545.5
473.311	517.5
473.53	539.5
473.749	562.5
473.968	611.5
474.187	736.5
474.406	772.5
474.625	631.5
474.844	585.5
475.063	543.5
475.282	558.5
475.501	561.5
475.72	564.5
475.939	567.5
476.158	544.5
476.377	560.5
476.596	559.5
476.814	558.5
477.033	587.5
477.252	565.5
477.471	601.5
477.69	608.5
477.908	574.5
478.127	596.5
478.346	594.5
478.564	596.5
478.783	596.5
479.002	605.5
479.22	618.5
479.439	651.5
479.658	660.5
479.876	664.5
480.095	677.5
480.313	678.5
480.532	657.5
480.751	684.5
480.969	683.5
481.188	778.5
481.406	842.5
481.624	695.5
481.843	669.5
482.061	668.5
482.28	674.5
482.498	661.5
482.717	646.5
482.935	675.5
483.153	658.5
483.372	668.5
483.59	665.5
483.808	663.5
484.027	640.5
484.245	652.5
484.463	674.5
484.681	657.5
484.9	670.5
485.118	681.5
485.336	654.5
485.554	670.5
485.772	689.5
485.99	678.5
486.209	681.5
486.427	684.5
486.645	688.5
486.863	757.5
487.081	727.5
487.299	716.5
487.517	713.5
487.735	715.5
487.953	721.5
488.171	736.5
488.389	709.5
488.607	706.5
488.825	703.5
489.043	700.5
489.261	732.5
489.479	729.5
489.696	728.5
489.914	738.5
490.132	788.5
490.35	752.5
490.568	753.5
490.786	763.5
491.003	785.5
491.221	805.5
491.439	811.5
491.657	810.5
491.874	830.5
492.092	846.5
492.31	856.5
492.527	863.5
492.745	834.5
492.963	838.5
493.18	865.5
493.398	857.5
493.615	848.5
493.833	861.5
494.05	875.5
494.268	859.5
494.485	877.5
494.703	865.5
494.92	842.5
495.138	888.5
495.355	879.5
495.573	875.5
495.79	894.5
496.008	898.5
496.225	872.5
496.442	858.5
496.66	849.5
496.877	861.5
497.094	847.5
497.312	870.5
497.529	864.5
497.746	874.5
497.963	882.5
498.181	892.5
498.398	930.5
498.615	902.5
498.832	912.5
499.049	940.5
499.267	908.5
499.484	947.5
499.701	996.5
499.918	978.5
500.135	1000.5
500.352	1052.5
500.569	1028.5
500.786	1035.5
501.003	1057.5
501.22	1049.5
501.437	1008.5
501.654	1015.5
501.871	1024.5
502.088	1001.5
502.305	966.5
502.522	911.5
502.739	931.5
502.956	890.5
503.172	898.5
503.389	851.5
503.606	880.5
503.823	910.5
504.04	856.5
504.256	859.5
504.473	864.5
504.69	828.5
504.907	852.5
505.123	812.5
505.34	808.5
505.557	838.5
505.773	841.5
505.99	836.5
506.207	826.5
506.423	845.5
506.64	843.5
506.856	817.5
507.073	822.5
507.289	805.5
507.506	808.5
507.722	825.5
507.939	857.5
508.155	858.5
508.372	804.5
508.588	811.5
508.805	810.5
509.021	817.5
509.238	820.5
509.454	816.5
509.67	822.5
509.887	793.5
510.103	771.5
510.319	808.5
510.536	966.5
510.752	1625.5
510.968	1351.5
511.184	853.5
511.401	808.5
511.617	788.5
511.833	781.5
512.049	796.5
512.265	776.5
512.481	762.5
512.698	738.5
512.914	770.5
513.13	769.5
513.346	754.5
513.562	763.5
513.778	762.5
513.994	775.5
514.21	795.5
514.426	836.5
514.642	883.5
514.858	954.5
515.074	993.5
515.29	1246.5
515.506	1855.5
515.721	1524.5
515.937	990.5
516.153	858.5
516.369	814.5
516.585	797.5
516.801	785.5
517.016	772.5
517.232	766.5
517.448	784.5
517.664	760.5
517.879	769.5
518.095	747.5
518.311	741.5
518.527	745.5
518.742	731.5
518.958	766.5
519.173	749.5
519.389	748.5
519.605	736.5
519.82	769.5
520.036	801.5
520.251	843.5
520.467	862.5
520.682	856.5
520.898	874.5
521.113	914.5
521.329	962.5
521.544	1152.5
521.76	1446.5
521.975	2498.5
522.19	2435.5
522.406	1314.5
522.621	954.5
522.836	824.5
523.052	790.5
523.267	737.5
523.482	743.5
523.698	708.5
523.913	721.5
524.128	695.5
524.343	678.5
524.559	655.5
524.774	690.5
524.989	680.5
525.204	679.5
525.419	697.5
525.634	644.5
525.849	655.5
526.064	628.5
526.28	619.5
526.495	638.5
526.71	627.5
526.925	617.5
527.14	615.5
527.355	606.5
527.57	610.5
527.785	612.5
527.999	589.5
528.214	574.5
528.429	602.5
528.644	631.5
528.859	618.5
529.074	629.5
529.289	658.5
529.503	778.5
529.718	752.5
529.933	658.5
530.148	620.5
530.363	626.5
530.577	602.5
530.792	589.5
531.007	604.5
531.221	601.5
531.436	588.5
531.651	576.5
531.865	589.5
532.08	576.5
532.295	552.5
532.509	577.5
532.724	552.5
532.938	572.5
533.153	571.5
533.367	584.5
533.582	560.5
533.796	555.5
534.011	563.5
534.225	550.5
534.44	533.5
534.654	551.5
534.868	564.5
535.083	556.5
535.297	562.5
535.511	556.5
535.726	570.5
535.94	585.5
536.154	550.5
536.369	578.5
536.583	540.5
536.797	540.5
537.011	551.5
537.225	552.5
537.44	545.5
537.654	519.5
537.868	550.5
538.082	531.5
538.296	536.5
538.51	536.5
538.724	552.5
538.938	565.5
539.153	551.5
539.367	580.5
539.581	544.5
539.795	549.5
540.009	543.5
540.222	525.5
540.436	552.5
540.65	548.5
540.864	546.5
541.078	564.5
541.292	569.5
541.506	544.5
541.72	567.5
541.934	558.5
542.147	541.5
542.361	543.5
542.575	531.5
542.789	510.5
543.002	525.5
543.216	540.5
543.43	534.5
543.644	554.5
543.857	529.5
544.071	532.5
544.285	548.5
544.498	553.5
544.712	525.5
544.925	538.5
545.139	533.5
545.352	556.5
545.566	531.5
545.779	538.5
545.993	514.5
546.206	532.5
546.42	528.5
546.633	535.5
546.847	531.5
547.06	506.5
547.274	502.5
547.487	516.5
547.7	526.5
547.914	509.5
548.127	491.5
548.34	488.5
548.554	521.5
548.767	496.5
548.98	514.5
549.193	503.5
549.407	515.5
549.62	493.5
549.833	489.5
550.046	511.5
550.259	502.5
550.473	507.5
550.686	496.5
550.899	507.5
551.112	505.5
551.325	510.5
551.538	508.5
551.751	503.5
551.964	496.5
552.177	486.5
552.39	488.5
552.603	500.5
552.816	500.5
553.029	516.5
553.242	517.5
553.455	521.5
553.667	516.5
553.88	548.5
554.093	523.5
554.306	502.5
554.519	516.5
554.732	490.5
554.944	481.5
555.157	483.5
555.37	491.5
555.583	488.5
555.795	484.5
556.008	479.5
556.221	481.5
556.433	472.5
556.646	484.5
556.859	449.5
557.071	458.5
557.284	449.5
557.496	471.5
557.709	468.5
557.921	452.5
558.134	432.5
558.346	442.5
558.559	457.5
558.771	449.5
558.984	457.5
559.196	460.5
559.409	454.5
559.621	441.5
559.833	439.5
560.046	446.5
560.258	455.5
560.47	461.5
560.683	423.5
560.895	455.5
561.107	458.5
561.32	460.5
561.532	438.5
561.744	457.5
561.956	451.5
562.168	440.5
562.381	460.5
562.593	448.5
562.805	451.5
563.017	464.5
563.229	444.5
563.441	445.5
563.653	451.5
563.865	445.5
564.077	465.5
564.289	469.5
564.501	449.5
564.713	458.5
564.925	488.5
565.137	471.5
565.349	474.5
565.561	487.5
565.773	474.5
565.985	468.5
566.197	476.5
566.408	488.5
566.62	493.5
566.832	493.5
567.044	504.5
567.255	487.5
567.467	532.5
567.679	505.5
567.891	517.5
568.102	519.5
568.314	474.5
568.526	499.5
568.737	478.5
568.949	465.5
569.161	454.5
569.372	460.5
569.584	434.5
569.795	441.5
570.007	457.5
570.218	520.5
570.43	502.5
570.641	441.5
570.853	432.5
571.064	428.5
571.276	425.5
571.487	405.5
571.698	431.5
571.91	406.5
572.121	382.5
572.333	406.5
572.544	396.5
572.755	392.5
572.966	385.5
573.178	406.5
573.389	386.5
573.6	385.5
573.811	385.5
574.023	385.5
574.234	372.5
574.445	385.5
574.656	393.5
574.867	380.5
575.078	376.5
575.289	379.5
575.501	399.5
575.712	380.5
575.923	364.5
576.134	377.5
576.345	353.5
576.556	368.5
576.767	368.5
576.978	373.5
577.188	371.5
577.399	371.5
577.61	352.5
577.821	386.5
578.032	377.5
578.243	437.5
578.454	751.5
578.665	525.5
578.875	387.5
579.086	348.5
579.297	376.5
579.508	359.5
579.718	369.5
579.929	355.5
580.14	370.5
580.35	355.5
580.561	354.5
580.772	371.5
580.982	347.5
581.193	347.5
581.403	365.5
581.614	360.5
581.825	356.5
582.035	369.5
582.246	345.5
582.456	338.5
582.667	342.5
582.877	349.5
583.087	347.5
583.298	344.5
583.508	351.5
583.719	351.5
583.929	359.5
584.139	332.5
584.35	332.5
584.56	357.5
584.77	346.5
584.981	339.5
585.191	354.5
585.401	337.5
585.611	340.5
585.821	344.5
586.032	369.5
586.242	332.5
586.452	337.5
586.662	349.5
586.872	345.5
587.082	325.5
587.292	341.5
587.502	334.5
587.713	318.5
587.923	329.5
588.133	340.5
588.343	324.5
588.553	324.5
588.762	316.5
588.972	322.5
589.182	317.5
589.392	309.5
589.602	328.5
589.812	322.5
590.022	321.5
590.232	331.5
590.441	324.5
590.651	325.5
590.861	329.5
591.071	335.5
591.281	329.5
591.49	330.5
591.7	308.5
591.91	318.5
592.119	340.5
592.329	337.5
592.539	352.5
592.748	333.5
592.958	326.5
593.167	317.5
593.377	312.5
593.587	342.5
593.796	331.5
594.006	334.5
594.215	346.5
594.424	321.5
594.634	334.5
594.843	336.5
595.053	340.5
595.262	334.5
595.472	314.5
595.681	308.5
595.89	301.5
596.1	323.5
596.309	301.5
596.518	307.5
596.727	309.5
596.937	318.5
597.146	315.5
597.355	297.5
597.564	303.5
597.774	318.5
597.983	298.5
598.192	285.5
598.401	315.5
598.61	280.5
598.819	295.5
599.028	297.5
599.237	285.5
599.446	307.5
599.655	305.5
599.864	286.5
600.073	298.5
600.282	292.5
600.491	286.5
600.7	282.5
600.909	274.5
601.118	296.5
601.327	292.5
601.536	284.5
601.745	292.5
601.953	295.5
602.162	283.5
602.371	286.5
602.58	288.5
602.789	291.5
602.997	276.5
603.206	288.5
603.415	287.5
603.623	284.5
603.832	292.5
604.041	274.5
604.249	286.5
604.458	267.5
604.666	283.5
604.875	278.5
605.084	284.5
605.292	290.5
605.501	280.5
605.709	267.5
605.918	291.5
606.126	291.5
606.334	260.5
606.543	271.5
606.751	276.5
606.96	275.5
607.168	283.5
607.376	289.5
607.585	280.5
607.793	281.5
608.001	276.5
608.21	277.5
608.418	273.5
608.626	289.5
608.834	269.5
609.043	268.5
609.251	257.5
609.459	271.5
609.667	284.5
609.875	265.5
610.083	285.5
610.291	276.5
610.499	273.5
610.707	273.5
610.916	271.5
611.124	284.5
611.332	281.5
611.54	287.5
611.748	278.5
611.955	282.5
612.163	277.5
612.371	278.5
612.579	281.5
612.787	272.5
612.995	278.5
613.203	277.5
613.411	293.5
613.618	257.5
613.826	252.5
614.034	266.5
614.242	259.5
614.449	274.5
614.657	269.5
614.865	258.5
615.072	248.5
615.28	259.5
615.488	279.5
615.695	258.5
615.903	258.5
616.111	270.5
616.318	266.5
616.526	273.5
616.733	286.5
616.941	282.5
617.148	262.5
617.356	275.5
617.563	268.5
617.771	255.5
617.978	258.5
618.185	251.5
618.393	260.5
618.6	270.5
618.807	274.5
619.015	255.5
619.222	256.5
619.429	261.5
619.637	251.5
619.844	266.5
620.051	273.5
620.258	268.5
620.466	246.5
620.673	251.5
620.88	253.5
621.087	236.5
621.294	242.5
621.501	249.5
621.708	250.5
621.915	259.5
622.122	242.5
622.329	265.5
622.536	246.5
622.743	241.5
622.95	237.5
623.157	252.5
623.364	236.5
623.571	253.5
623.778	245.5
623.985	260.5
624.192	265.5
624.399	235.5
624.606	243.5
624.812	245.5
625.019	241.5
625.226	235.5
625.433	234.5
625.639	220.5
625.846	219.5
626.053	238.5
626.259	213.5
626.466	231.5
626.673	205.5
626.879	235.5
627.086	237.5
627.293	245.5
627.499	233.5
627.706	244.5
627.912	229.5
628.119	236.5
628.325	202.5
628.532	221.5
628.738	224.5
628.945	223.5
629.151	226.5
629.357	225.5
629.564	236.5
629.77	213.5
629.976	209.5
630.183	197.5
630.389	211.5
630.595	221.5
630.802	214.5
631.008	221.5
631.214	216.5
631.42	218.5
631.627	221.5
631.833	227.5
632.039	217.5
632.245	214.5
632.451	216.5
632.657	214.5
632.863	210.5
633.069	219.5
633.275	222.5
633.481	210.5
633.688	212.5
633.893	214.5
634.099	201.5
634.305	194.5
634.511	190.5
634.717	213.5
634.923	194.5
635.129	189.5
635.335	206.5
635.541	210.5
635.747	218.5
635.952	215.5
636.158	196.5
636.364	197.5
636.57	213.5
636.775	209.5
636.981	190.5
637.187	211.5
637.392	210.5
637.598	201.5
637.804	216.5
638.009	205.5
638.215	210.5
638.421	201.5
638.626	193.5
638.832	193.5
639.037	204.5
639.243	196.5
639.448	199.5
639.654	204.5
639.859	198.5
640.065	216.5
640.27	202.5
640.475	178.5
640.681	186.5
640.886	198.5
641.091	191.5
641.297	195.5
641.502	185.5
641.707	203.5
641.913	186.5
642.118	195.5
642.323	190.5
642.528	192.5
642.733	190.5
642.939	198.5
643.144	174.5
643.349	195.5
643.554	188.5
643.759	174.5
643.964	193.5
644.169	182.5
644.374	167.5
644.579	185.5
644.784	187.5
644.989	201.5
645.194	190.5
645.399	192.5
645.604	171.5
645.809	182.5
646.014	168.5
646.219	182.5
646.423	174.5
646.628	170.5
646.833	174.5
647.038	170.5
647.243	184.5
647.447	181.5
647.652	187.5
647.857	184.5
648.062	200.5
648.266	190.5
648.471	172.5
648.676	189.5
648.88	177.5
649.085	189.5
649.289	191.5
649.494	202.5
649.698	200.5
649.903	195.5
650.107	192.5
650.312	186.5
650.516	172.5
650.721	173.5
650.925	154.5
651.13	171.5
651.334	154.5
651.539	178.5
651.743	173.5
651.947	161.5
652.152	168.5
652.356	150.5
652.56	162.5
652.764	164.5
652.969	156.5
653.173	135.5
653.377	165.5
653.581	143.5
653.785	151.5
653.99	163.5
654.194	144.5
654.398	155.5
654.602	154.5
654.806	143.5
655.01	145.5
655.214	160.5
655.418	158.5
655.622	134.5
655.826	137.5
656.03	141.5
656.234	139.5
656.438	131.5
656.642	129.5
656.846	135.5
657.049	136.5
657.253	129.5
657.457	115.5
657.661	121.5
657.865	125.5
658.068	115.5
658.272	115.5
658.476	109.5
658.68	104.5
658.883	98.5
659.087	106.5
659.291	106.5
659.494	88.5
659.698	99.5
659.901	92.5
660.105	101.5
660.309	109.5
660.512	89.5
660.716	105.5
660.919	93.5
661.123	98.5
661.326	92.5
661.53	93.5
661.733	83.5
661.936	82.5
662.14	93.5
662.343	81.5
662.546	76.5
662.75	94.5
662.953	76.5
663.156	86.5
663.36	75.5
663.563	98.5
663.766	79.5
663.969	85.5
664.173	87.5
664.376	73.5
664.579	96.5
664.782	93.5
664.985	80.5
665.188	81.5
665.391	75.5
665.594	81.5
665.797	81.5
666	79.5
666.203	84.5
666.406	78.5
666.609	64.5
666.812	91.5
667.015	79.5
667.218	75.5
667.421	84.5
667.624	88.5
667.827	88.5
668.03	89.5
668.232	68.5
668.435	88.5
668.638	87.5
668.841	81.5
669.043	77.5
669.246	76.5
669.449	77.5
669.651	84.5
669.854	77.5
670.057	83.5
670.259	90.5
670.462	88.5
670.665	81.5
670.867	78.5
671.07	85.5
671.272	87.5
671.475	104.5
671.677	80.5
671.88	78.5
672.082	95.5
672.284	80.5
672.487	82.5
672.689	83.5
672.892	67.5
