Data from 1971.PennyLincolnUp.Lamp.En5.5.200Scan.071719.P1._HRD10591_15-20-54-843.txt Node
Date: Thu Jul 18 15:20:54 EDT 2019
User: cochatt
Spectrometer: HR+D1059
Trigger mode: 1
Integration Time (sec): 1.000000E-1
Scans to average: 1
Electric dark correction enabled: true
Nonlinearity correction enabled: false
Boxcar width: 0
XAxis mode: Wavelengths
Number of Pixels in Spectrum: 2048
>>>>>Begin Spectral Data<<<<<
223.165	-6.62
223.4	-6.62
223.635	-6.62
223.869	-12.62
224.104	-10.62
224.338	-8.62
224.573	-26.62
224.808	-7.62
225.042	-7.62
225.277	-21.62
225.511	-3.62
225.746	2.38
225.98	-6.62
226.215	22.38
226.449	19.38
226.683	8.38
226.918	26.38
227.152	33.38
227.387	29.38
227.621	53.38
227.856	39.38
228.09	57.38
228.324	43.38
228.559	56.38
228.793	63.38
229.027	84.38
229.262	95.38
229.496	116.38
229.73	134.38
229.964	150.38
230.199	122.38
230.433	110.38
230.667	117.38
230.901	108.38
231.136	107.38
231.37	93.38
231.604	116.38
231.838	120.38
232.072	113.38
232.306	113.38
232.541	117.38
232.775	111.38
233.009	111.38
233.243	107.38
233.477	104.38
233.711	113.38
233.945	112.38
234.179	118.38
234.413	114.38
234.647	108.38
234.881	119.38
235.115	107.38
235.349	107.38
235.583	119.38
235.817	112.38
236.051	139.38
236.285	123.38
236.519	115.38
236.753	135.38
236.987	146.38
237.221	173.38
237.455	211.38
237.689	168.38
237.922	138.38
238.156	118.38
238.39	121.38
238.624	130.38
238.858	126.38
239.091	133.38
239.325	118.38
239.559	111.38
239.793	127.38
240.027	139.38
240.26	131.38
240.494	149.38
240.728	160.38
240.961	153.38
241.195	155.38
241.429	142.38
241.662	133.38
241.896	129.38
242.13	126.38
242.363	127.38
242.597	137.38
242.83	144.38
243.064	140.38
243.298	145.38
243.531	135.38
243.765	151.38
243.998	146.38
244.232	131.38
244.465	143.38
244.699	153.38
244.932	153.38
245.166	143.38
245.399	145.38
245.633	155.38
245.866	146.38
246.099	166.38
246.333	155.38
246.566	169.38
246.8	142.38
247.033	153.38
247.266	157.38
247.5	158.38
247.733	158.38
247.966	172.38
248.2	185.38
248.433	173.38
248.666	173.38
248.899	174.38
249.133	202.38
249.366	213.38
249.599	214.38
249.832	193.38
250.066	174.38
250.299	197.38
250.532	185.38
250.765	213.38
250.998	220.38
251.231	225.38
251.465	207.38
251.698	213.38
251.931	210.38
252.164	193.38
252.397	214.38
252.63	213.38
252.863	212.38
253.096	231.38
253.329	228.38
253.562	225.38
253.795	226.38
254.028	210.38
254.261	226.38
254.494	231.38
254.727	266.38
254.96	294.38
255.193	288.38
255.426	255.38
255.659	257.38
255.892	249.38
256.124	237.38
256.357	250.38
256.59	219.38
256.823	224.38
257.056	212.38
257.289	214.38
257.521	225.38
257.754	232.38
257.987	215.38
258.22	227.38
258.452	211.38
258.685	241.38
258.918	218.38
259.151	213.38
259.383	219.38
259.616	223.38
259.849	225.38
260.081	231.38
260.314	257.38
260.547	285.38
260.779	256.38
261.012	259.38
261.244	243.38
261.477	245.38
261.71	235.38
261.942	229.38
262.175	262.38
262.407	227.38
262.64	234.38
262.872	211.38
263.105	232.38
263.337	203.38
263.57	199.38
263.802	217.38
264.035	215.38
264.267	217.38
264.499	223.38
264.732	234.38
264.964	231.38
265.197	217.38
265.429	223.38
265.661	220.38
265.894	229.38
266.126	232.38
266.358	228.38
266.591	229.38
266.823	251.38
267.055	231.38
267.287	263.38
267.52	234.38
267.752	231.38
267.984	246.38
268.216	243.38
268.448	254.38
268.681	242.38
268.913	244.38
269.145	286.38
269.377	292.38
269.609	290.38
269.841	285.38
270.073	280.38
270.306	315.38
270.538	325.38
270.77	342.38
271.002	314.38
271.234	285.38
271.466	317.38
271.698	313.38
271.93	347.38
272.162	327.38
272.394	343.38
272.626	301.38
272.858	303.38
273.09	302.38
273.322	279.38
273.553	270.38
273.785	269.38
274.017	264.38
274.249	291.38
274.481	293.38
274.713	269.38
274.945	289.38
275.176	284.38
275.408	277.38
275.64	268.38
275.872	274.38
276.104	284.38
276.335	272.38
276.567	271.38
276.799	289.38
277.031	297.38
277.262	330.38
277.494	335.38
277.726	315.38
277.957	313.38
278.189	291.38
278.421	283.38
278.652	298.38
278.884	286.38
279.115	296.38
279.347	300.38
279.579	314.38
279.81	279.38
280.042	284.38
280.273	269.38
280.505	280.38
280.736	270.38
280.968	277.38
281.199	268.38
281.431	283.38
281.662	285.38
281.894	276.38
282.125	269.38
282.356	291.38
282.588	314.38
282.819	296.38
283.051	302.38
283.282	284.38
283.513	289.38
283.745	296.38
283.976	297.38
284.207	290.38
284.439	295.38
284.67	291.38
284.901	292.38
285.132	282.38
285.364	289.38
285.595	292.38
285.826	278.38
286.057	293.38
286.288	281.38
286.52	298.38
286.751	279.38
286.982	296.38
287.213	299.38
287.444	299.38
287.675	305.38
287.906	323.38
288.138	323.38
288.369	307.38
288.6	326.38
288.831	300.38
289.062	283.38
289.293	305.38
289.524	297.38
289.755	286.38
289.986	282.38
290.217	287.38
290.448	291.38
290.679	296.38
290.91	308.38
291.141	277.38
291.371	299.38
291.602	308.38
291.833	301.38
292.064	313.38
292.295	293.38
292.526	307.38
292.757	298.38
292.987	281.38
293.218	309.38
293.449	292.38
293.68	304.38
293.91	290.38
294.141	285.38
294.372	328.38
294.603	317.38
294.833	302.38
295.064	281.38
295.295	286.38
295.525	311.38
295.756	327.38
295.987	303.38
296.217	337.38
296.448	359.38
296.679	318.38
296.909	313.38
297.14	313.38
297.37	301.38
297.601	310.38
297.831	308.38
298.062	309.38
298.292	291.38
298.523	325.38
298.753	327.38
298.984	322.38
299.214	344.38
299.445	316.38
299.675	324.38
299.905	328.38
300.136	324.38
300.366	330.38
300.597	315.38
300.827	352.38
301.057	329.38
301.288	354.38
301.518	325.38
301.748	333.38
301.979	315.38
302.209	328.38
302.439	342.38
302.669	350.38
302.9	361.38
303.13	331.38
303.36	352.38
303.59	333.38
303.82	335.38
304.051	335.38
304.281	343.38
304.511	327.38
304.741	342.38
304.971	333.38
305.201	342.38
305.431	334.38
305.661	357.38
305.891	328.38
306.121	339.38
306.352	346.38
306.582	355.38
306.812	369.38
307.042	347.38
307.272	333.38
307.502	340.38
307.731	346.38
307.961	341.38
308.191	362.38
308.421	358.38
308.651	350.38
308.881	358.38
309.111	361.38
309.341	365.38
309.571	371.38
309.8	373.38
310.03	389.38
310.26	393.38
310.49	367.38
310.72	395.38
310.949	414.38
311.179	403.38
311.409	407.38
311.639	393.38
311.868	379.38
312.098	382.38
312.328	414.38
312.557	398.38
312.787	414.38
313.017	413.38
313.246	393.38
313.476	390.38
313.706	398.38
313.935	404.38
314.165	403.38
314.394	402.38
314.624	427.38
314.853	404.38
315.083	408.38
315.312	399.38
315.542	375.38
315.771	387.38
316.001	374.38
316.23	380.38
316.46	395.38
316.689	394.38
316.919	384.38
317.148	395.38
317.377	398.38
317.607	395.38
317.836	398.38
318.065	394.38
318.295	386.38
318.524	382.38
318.753	393.38
318.983	408.38
319.212	377.38
319.441	389.38
319.67	390.38
319.9	415.38
320.129	388.38
320.358	395.38
320.587	395.38
320.816	395.38
321.046	403.38
321.275	402.38
321.504	441.38
321.733	431.38
321.962	435.38
322.191	429.38
322.42	449.38
322.649	452.38
322.878	463.38
323.108	459.38
323.337	469.38
323.566	508.38
323.795	531.38
324.024	567.38
324.253	720.38
324.482	977.38
324.71	1545.38
324.939	2005.38
325.168	1711.38
325.397	927.38
325.626	638.38
325.855	531.38
326.084	490.38
326.313	487.38
326.542	490.38
326.77	556.38
326.999	673.38
327.228	918.38
327.457	1287.38
327.686	1487.38
327.914	998.38
328.143	674.38
328.372	636.38
328.6	584.38
328.829	575.38
329.058	584.38
329.287	559.38
329.515	533.38
329.744	520.38
329.972	491.38
330.201	528.38
330.43	569.38
330.658	569.38
330.887	577.38
331.115	572.38
331.344	507.38
331.572	478.38
331.801	502.38
332.03	498.38
332.258	462.38
332.486	485.38
332.715	454.38
332.943	463.38
333.172	466.38
333.4	475.38
333.629	455.38
333.857	470.38
334.085	494.38
334.314	500.38
334.542	509.38
334.771	515.38
334.999	459.38
335.227	467.38
335.455	452.38
335.684	443.38
335.912	451.38
336.14	449.38
336.369	444.38
336.597	446.38
336.825	470.38
337.053	431.38
337.281	430.38
337.51	459.38
337.738	449.38
337.966	448.38
338.194	424.38
338.422	450.38
338.65	418.38
338.878	417.38
339.106	420.38
339.334	422.38
339.562	442.38
339.79	443.38
340.018	417.38
340.246	429.38
340.474	442.38
340.702	413.38
340.93	427.38
341.158	422.38
341.386	428.38
341.614	414.38
341.842	411.38
342.07	419.38
342.298	423.38
342.526	406.38
342.754	391.38
342.981	407.38
343.209	401.38
343.437	412.38
343.665	421.38
343.893	419.38
344.12	439.38
344.348	442.38
344.576	418.38
344.804	453.38
345.031	445.38
345.259	436.38
345.487	441.38
345.714	426.38
345.942	430.38
346.17	386.38
346.397	399.38
346.625	399.38
346.853	410.38
347.08	398.38
347.308	414.38
347.535	414.38
347.763	407.38
347.99	391.38
348.218	406.38
348.445	425.38
348.673	417.38
348.9	397.38
349.128	384.38
349.355	393.38
349.583	375.38
349.81	395.38
350.037	394.38
350.265	396.38
350.492	387.38
350.72	387.38
350.947	378.38
351.174	416.38
351.402	407.38
351.629	415.38
351.856	398.38
352.083	400.38
352.311	392.38
352.538	417.38
352.765	440.38
352.992	404.38
353.22	414.38
353.447	417.38
353.674	405.38
353.901	368.38
354.128	383.38
354.355	360.38
354.583	358.38
354.81	364.38
355.037	352.38
355.264	388.38
355.491	367.38
355.718	385.38
355.945	379.38
356.172	378.38
356.399	365.38
356.626	367.38
356.853	368.38
357.08	359.38
357.307	373.38
357.534	373.38
357.761	360.38
357.988	378.38
358.215	382.38
358.441	370.38
358.668	377.38
358.895	387.38
359.122	390.38
359.349	385.38
359.576	385.38
359.802	417.38
360.029	418.38
360.256	424.38
360.483	425.38
360.709	413.38
360.936	407.38
361.163	398.38
361.39	404.38
361.616	406.38
361.843	384.38
362.07	398.38
362.296	382.38
362.523	383.38
362.749	391.38
362.976	386.38
363.203	383.38
363.429	370.38
363.656	381.38
363.882	370.38
364.109	373.38
364.335	384.38
364.562	377.38
364.788	372.38
365.015	377.38
365.241	373.38
365.468	383.38
365.694	395.38
365.92	385.38
366.147	383.38
366.373	373.38
366.599	364.38
366.826	349.38
367.052	371.38
367.278	365.38
367.505	375.38
367.731	390.38
367.957	370.38
368.184	381.38
368.41	395.38
368.636	383.38
368.862	364.38
369.089	373.38
369.315	362.38
369.541	358.38
369.767	381.38
369.993	349.38
370.219	365.38
370.445	369.38
370.672	366.38
370.898	372.38
371.124	356.38
371.35	341.38
371.576	369.38
371.802	361.38
372.028	364.38
372.254	369.38
372.48	362.38
372.706	360.38
372.932	365.38
373.158	351.38
373.384	370.38
373.61	361.38
373.835	365.38
374.061	354.38
374.287	351.38
374.513	369.38
374.739	357.38
374.965	371.38
375.191	358.38
375.416	379.38
375.642	357.38
375.868	371.38
376.094	379.38
376.319	375.38
376.545	364.38
376.771	359.38
376.997	350.38
377.222	331.38
377.448	359.38
377.674	348.38
377.899	349.38
378.125	342.38
378.35	362.38
378.576	347.38
378.802	341.38
379.027	356.38
379.253	361.38
379.478	376.38
379.704	356.38
379.929	355.38
380.155	347.38
380.38	330.38
380.606	349.38
380.831	361.38
381.057	357.38
381.282	360.38
381.507	355.38
381.733	354.38
381.958	362.38
382.184	359.38
382.409	359.38
382.634	364.38
382.86	369.38
383.085	371.38
383.31	373.38
383.535	366.38
383.761	364.38
383.986	365.38
384.211	360.38
384.436	361.38
384.662	380.38
384.887	371.38
385.112	374.38
385.337	363.38
385.562	374.38
385.787	376.38
386.013	391.38
386.238	398.38
386.463	389.38
386.688	377.38
386.913	359.38
387.138	375.38
387.363	377.38
387.588	383.38
387.813	391.38
388.038	366.38
388.263	362.38
388.488	383.38
388.713	365.38
388.938	385.38
389.163	386.38
389.387	371.38
389.612	376.38
389.837	372.38
390.062	372.38
390.287	383.38
390.512	349.38
390.736	357.38
390.961	375.38
391.186	372.38
391.411	376.38
391.636	370.38
391.86	383.38
392.085	385.38
392.31	394.38
392.534	386.38
392.759	393.38
392.984	378.38
393.208	354.38
393.433	369.38
393.658	371.38
393.882	383.38
394.107	380.38
394.331	369.38
394.556	353.38
394.78	377.38
395.005	385.38
395.229	374.38
395.454	392.38
395.678	395.38
395.903	400.38
396.127	409.38
396.352	407.38
396.576	396.38
396.801	378.38
397.025	379.38
397.249	387.38
397.474	407.38
397.698	415.38
397.922	423.38
398.147	433.38
398.371	439.38
398.595	398.38
398.82	412.38
399.044	422.38
399.268	420.38
399.492	458.38
399.717	467.38
399.941	475.38
400.165	492.38
400.389	513.38
400.613	470.38
400.837	445.38
401.062	422.38
401.286	397.38
401.51	438.38
401.734	421.38
401.958	427.38
402.182	409.38
402.406	419.38
402.63	423.38
402.854	439.38
403.078	430.38
403.302	420.38
403.526	419.38
403.75	413.38
403.974	446.38
404.198	420.38
404.422	441.38
404.645	427.38
404.869	449.38
405.093	476.38
405.317	488.38
405.541	505.38
405.765	479.38
405.988	450.38
406.212	453.38
406.436	487.38
406.66	454.38
406.883	476.38
407.107	494.38
407.331	515.38
407.555	567.38
407.778	557.38
408.002	517.38
408.226	484.38
408.449	468.38
408.673	483.38
408.896	500.38
409.12	523.38
409.344	521.38
409.567	458.38
409.791	437.38
410.014	448.38
410.238	432.38
410.461	430.38
410.685	425.38
410.908	448.38
411.132	488.38
411.355	509.38
411.578	467.38
411.802	447.38
412.025	430.38
412.249	433.38
412.472	444.38
412.695	485.38
412.919	486.38
413.142	425.38
413.365	430.38
413.589	419.38
413.812	413.38
414.035	417.38
414.258	411.38
414.482	390.38
414.705	415.38
414.928	387.38
415.151	408.38
415.374	419.38
415.597	405.38
415.821	401.38
416.044	401.38
416.267	403.38
416.49	407.38
416.713	391.38
416.936	410.38
417.159	401.38
417.382	393.38
417.605	383.38
417.828	410.38
418.051	429.38
418.274	419.38
418.497	414.38
418.72	405.38
418.943	401.38
419.166	406.38
419.389	444.38
419.611	422.38
419.834	425.38
420.057	443.38
420.28	439.38
420.503	435.38
420.726	441.38
420.948	438.38
421.171	470.38
421.394	504.38
421.617	433.38
421.839	426.38
422.062	435.38
422.285	430.38
422.507	502.38
422.73	552.38
422.953	524.38
423.175	476.38
423.398	445.38
423.621	437.38
423.843	469.38
424.066	469.38
424.288	453.38
424.511	469.38
424.733	527.38
424.956	600.38
425.178	579.38
425.401	539.38
425.623	563.38
425.846	506.38
426.068	455.38
426.291	438.38
426.513	448.38
426.735	469.38
426.958	491.38
427.18	564.38
427.402	674.38
427.625	725.38
427.847	636.38
428.069	571.38
428.292	503.38
428.514	451.38
428.736	417.38
428.958	430.38
429.181	417.38
429.403	419.38
429.625	437.38
429.847	451.38
430.069	507.38
430.292	510.38
430.514	423.38
430.736	419.38
430.958	418.38
431.18	397.38
431.402	409.38
431.624	391.38
431.846	375.38
432.068	382.38
432.29	400.38
432.512	406.38
432.734	406.38
432.956	394.38
433.178	409.38
433.4	415.38
433.622	408.38
433.844	404.38
434.066	398.38
434.287	380.38
434.509	387.38
434.731	393.38
434.953	411.38
435.175	427.38
435.397	464.38
435.618	471.38
435.84	500.38
436.062	584.38
436.284	611.38
436.505	513.38
436.727	465.38
436.949	428.38
437.17	430.38
437.392	442.38
437.614	446.38
437.835	459.38
438.057	555.38
438.278	626.38
438.5	618.38
438.721	675.38
438.943	642.38
439.165	529.38
439.386	469.38
439.608	488.38
439.829	463.38
440.05	490.38
440.272	540.38
440.493	514.38
440.715	456.38
440.936	447.38
441.158	433.38
441.379	421.38
441.6	441.38
441.822	450.38
442.043	490.38
442.264	558.38
442.486	592.38
442.707	486.38
442.928	447.38
443.149	462.38
443.371	509.38
443.592	517.38
443.813	618.38
444.034	629.38
444.255	529.38
444.476	492.38
444.698	460.38
444.919	459.38
445.14	539.38
445.361	520.38
445.582	501.38
445.803	548.38
446.024	624.38
446.245	620.38
446.466	575.38
446.687	484.38
446.908	467.38
447.129	447.38
447.35	429.38
447.571	445.38
447.792	408.38
448.013	427.38
448.234	430.38
448.455	474.38
448.675	589.38
448.896	657.38
449.117	577.38
449.338	529.38
449.559	613.38
449.779	686.38
450	567.38
450.221	464.38
450.442	443.38
450.662	399.38
450.883	415.38
451.104	422.38
451.324	423.38
451.545	395.38
451.766	407.38
451.986	379.38
452.207	374.38
452.428	380.38
452.648	361.38
452.869	381.38
453.089	393.38
453.31	396.38
453.53	374.38
453.751	371.38
453.971	362.38
454.192	377.38
454.412	397.38
454.633	377.38
454.853	380.38
455.073	376.38
455.294	404.38
455.514	455.38
455.734	445.38
455.955	383.38
456.175	381.38
456.395	364.38
456.616	350.38
456.836	357.38
457.056	347.38
457.276	353.38
457.497	373.38
457.717	369.38
457.937	349.38
458.157	387.38
458.377	375.38
458.598	373.38
458.818	429.38
459.038	499.38
459.258	499.38
459.478	437.38
459.698	407.38
459.918	397.38
460.138	381.38
460.358	385.38
460.578	395.38
460.798	409.38
461.018	393.38
461.238	402.38
461.458	395.38
461.678	380.38
461.898	398.38
462.118	399.38
462.338	403.38
462.558	396.38
462.777	396.38
462.997	419.38
463.217	405.38
463.437	405.38
463.657	418.38
463.876	401.38
464.096	405.38
464.316	401.38
464.536	411.38
464.755	413.38
464.975	429.38
465.195	460.38
465.414	505.38
465.634	443.38
465.854	405.38
466.073	409.38
466.293	385.38
466.512	393.38
466.732	363.38
466.951	374.38
467.171	382.38
467.391	377.38
467.61	378.38
467.829	389.38
468.049	400.38
468.268	390.38
468.488	354.38
468.707	376.38
468.927	373.38
469.146	375.38
469.365	381.38
469.585	383.38
469.804	341.38
470.023	401.38
470.243	388.38
470.462	387.38
470.681	430.38
470.901	419.38
471.12	397.38
471.339	379.38
471.558	366.38
471.777	399.38
471.997	377.38
472.216	393.38
472.435	401.38
472.654	422.38
472.873	400.38
473.092	407.38
473.311	389.38
473.53	379.38
473.749	400.38
473.968	441.38
474.187	530.38
474.406	544.38
474.625	430.38
474.844	404.38
475.063	389.38
475.282	389.38
475.501	390.38
475.72	401.38
475.939	404.38
476.158	393.38
476.377	391.38
476.596	393.38
476.814	402.38
477.033	393.38
477.252	395.38
477.471	401.38
477.69	421.38
477.908	407.38
478.127	415.38
478.346	407.38
478.564	407.38
478.783	445.38
479.002	421.38
479.22	439.38
479.439	438.38
479.658	452.38
479.876	456.38
480.095	456.38
480.313	471.38
480.532	469.38
480.751	467.38
480.969	483.38
481.188	498.38
481.406	544.38
481.624	488.38
481.843	486.38
482.061	453.38
482.28	433.38
482.498	458.38
482.717	450.38
482.935	443.38
483.153	435.38
483.372	436.38
483.59	454.38
483.808	431.38
484.027	440.38
484.245	463.38
484.463	442.38
484.681	430.38
484.9	449.38
485.118	455.38
485.336	469.38
485.554	457.38
485.772	462.38
485.99	422.38
486.209	471.38
486.427	470.38
486.645	464.38
486.863	476.38
487.081	482.38
487.299	477.38
487.517	474.38
487.735	499.38
487.953	470.38
488.171	501.38
488.389	470.38
488.607	457.38
488.825	474.38
489.043	471.38
489.261	492.38
489.479	480.38
489.696	496.38
489.914	492.38
490.132	499.38
490.35	509.38
490.568	524.38
490.786	519.38
491.003	523.38
491.221	539.38
491.439	548.38
491.657	555.38
491.874	567.38
492.092	558.38
492.31	578.38
492.527	551.38
492.745	568.38
492.963	583.38
493.18	577.38
493.398	563.38
493.615	568.38
493.833	569.38
494.05	573.38
494.268	577.38
494.485	580.38
494.703	590.38
494.92	559.38
495.138	580.38
495.355	589.38
495.573	575.38
495.79	568.38
496.008	577.38
496.225	572.38
496.442	573.38
496.66	574.38
496.877	559.38
497.094	567.38
497.312	578.38
497.529	575.38
497.746	580.38
497.963	607.38
498.181	578.38
498.398	613.38
498.615	619.38
498.832	620.38
499.049	637.38
499.267	650.38
499.484	654.38
499.701	674.38
499.918	677.38
500.135	738.38
500.352	720.38
500.569	750.38
500.786	744.38
501.003	750.38
501.22	752.38
501.437	705.38
501.654	699.38
501.871	711.38
502.088	681.38
502.305	663.38
502.522	617.38
502.739	590.38
502.956	606.38
503.172	594.38
503.389	596.38
503.606	605.38
503.823	595.38
504.04	582.38
504.256	555.38
504.473	585.38
504.69	567.38
504.907	582.38
505.123	529.38
505.34	560.38
505.557	560.38
505.773	558.38
505.99	548.38
506.207	561.38
506.423	550.38
506.64	531.38
506.856	516.38
507.073	519.38
507.289	513.38
507.506	545.38
507.722	545.38
507.939	538.38
508.155	523.38
508.372	522.38
508.588	524.38
508.805	541.38
509.021	503.38
509.238	501.38
509.454	520.38
509.67	507.38
509.887	511.38
510.103	540.38
510.319	523.38
510.536	582.38
510.752	937.38
510.968	743.38
511.184	520.38
511.401	515.38
511.617	494.38
511.833	486.38
512.049	512.38
512.265	501.38
512.481	481.38
512.698	475.38
512.914	478.38
513.13	471.38
513.346	474.38
513.562	466.38
513.778	510.38
513.994	494.38
514.21	495.38
514.426	504.38
514.642	533.38
514.858	540.38
515.074	574.38
515.29	683.38
515.506	929.38
515.721	784.38
515.937	571.38
516.153	531.38
516.369	500.38
516.585	496.38
516.801	484.38
517.016	508.38
517.232	498.38
517.448	489.38
517.664	503.38
517.879	489.38
518.095	503.38
518.311	495.38
518.527	491.38
518.742	466.38
518.958	472.38
519.173	479.38
519.389	491.38
519.605	457.38
519.82	478.38
520.036	489.38
520.251	529.38
520.467	507.38
520.682	546.38
520.898	522.38
521.113	542.38
521.329	593.38
521.544	636.38
521.76	795.38
521.975	1187.38
522.19	1167.38
522.406	666.38
522.621	544.38
522.836	493.38
523.052	445.38
523.267	470.38
523.482	439.38
523.698	442.38
523.913	444.38
524.128	448.38
524.343	427.38
524.559	419.38
524.774	422.38
524.989	412.38
525.204	434.38
525.419	428.38
525.634	434.38
525.849	425.38
526.064	421.38
526.28	398.38
526.495	401.38
526.71	409.38
526.925	396.38
527.14	399.38
527.355	408.38
527.57	399.38
527.785	414.38
527.999	401.38
528.214	391.38
528.429	397.38
528.644	398.38
528.859	395.38
529.074	415.38
529.289	441.38
529.503	475.38
529.718	447.38
529.933	396.38
530.148	393.38
530.363	410.38
530.577	380.38
530.792	383.38
531.007	384.38
531.221	384.38
531.436	382.38
531.651	378.38
531.865	378.38
532.08	385.38
532.295	381.38
532.509	385.38
532.724	373.38
532.938	362.38
533.153	351.38
533.367	373.38
533.582	394.38
533.796	376.38
534.011	375.38
534.225	380.38
534.44	380.38
534.654	353.38
534.868	360.38
535.083	357.38
535.297	362.38
535.511	372.38
535.726	375.38
535.94	390.38
536.154	394.38
536.369	376.38
536.583	364.38
536.797	369.38
537.011	361.38
537.225	364.38
537.44	344.38
537.654	368.38
537.868	354.38
538.082	377.38
538.296	347.38
538.51	374.38
538.724	373.38
538.938	361.38
539.153	356.38
539.367	374.38
539.581	367.38
539.795	364.38
540.009	365.38
540.222	353.38
540.436	371.38
540.65	363.38
540.864	369.38
541.078	387.38
541.292	378.38
541.506	386.38
541.72	405.38
541.934	391.38
542.147	372.38
542.361	362.38
542.575	377.38
542.789	364.38
543.002	362.38
543.216	381.38
543.43	371.38
543.644	390.38
543.857	373.38
544.071	379.38
544.285	377.38
544.498	363.38
544.712	371.38
544.925	354.38
545.139	366.38
545.352	367.38
545.566	359.38
545.779	342.38
545.993	372.38
546.206	365.38
546.42	354.38
546.633	346.38
546.847	347.38
547.06	353.38
547.274	365.38
547.487	367.38
547.7	355.38
547.914	358.38
548.127	351.38
548.34	349.38
548.554	369.38
548.767	354.38
548.98	335.38
549.193	359.38
549.407	347.38
549.62	368.38
549.833	349.38
550.046	355.38
550.259	385.38
550.473	341.38
550.686	345.38
550.899	350.38
551.112	323.38
551.325	354.38
551.538	345.38
551.751	329.38
551.964	344.38
552.177	350.38
552.39	347.38
552.603	350.38
552.816	362.38
553.029	349.38
553.242	349.38
553.455	364.38
553.667	360.38
553.88	366.38
554.093	353.38
554.306	369.38
554.519	364.38
554.732	356.38
554.944	348.38
555.157	331.38
555.37	313.38
555.583	317.38
555.795	340.38
556.008	341.38
556.221	316.38
556.433	318.38
556.646	319.38
556.859	324.38
557.071	319.38
557.284	304.38
557.496	341.38
557.709	338.38
557.921	314.38
558.134	338.38
558.346	319.38
558.559	316.38
558.771	315.38
558.984	334.38
559.196	316.38
559.409	313.38
559.621	323.38
559.833	324.38
560.046	297.38
560.258	310.38
560.47	310.38
560.683	311.38
560.895	309.38
561.107	320.38
561.32	323.38
561.532	301.38
561.744	316.38
561.956	310.38
562.168	314.38
562.381	294.38
562.593	310.38
562.805	300.38
563.017	307.38
563.229	319.38
563.441	305.38
563.653	303.38
563.865	311.38
564.077	322.38
564.289	297.38
564.501	342.38
564.713	322.38
564.925	318.38
565.137	323.38
565.349	333.38
565.561	316.38
565.773	315.38
565.985	336.38
566.197	339.38
566.408	353.38
566.62	352.38
566.832	340.38
567.044	359.38
567.255	364.38
567.467	370.38
567.679	351.38
567.891	358.38
568.102	361.38
568.314	362.38
568.526	346.38
568.737	353.38
568.949	332.38
569.161	313.38
569.372	319.38
569.584	306.38
569.795	305.38
570.007	308.38
570.218	329.38
570.43	330.38
570.641	303.38
570.853	296.38
571.064	291.38
571.276	279.38
571.487	277.38
571.698	271.38
571.91	280.38
572.121	279.38
572.333	275.38
572.544	277.38
572.755	264.38
572.966	271.38
573.178	283.38
573.389	277.38
573.6	253.38
573.811	273.38
574.023	271.38
574.234	269.38
574.445	281.38
574.656	273.38
574.867	255.38
575.078	267.38
575.289	278.38
575.501	264.38
575.712	257.38
575.923	253.38
576.134	277.38
576.345	258.38
576.556	265.38
576.767	257.38
576.978	277.38
577.188	261.38
577.399	254.38
577.61	256.38
577.821	248.38
578.032	247.38
578.243	296.38
578.454	424.38
578.665	311.38
578.875	264.38
579.086	230.38
579.297	257.38
579.508	255.38
579.718	257.38
579.929	224.38
580.14	226.38
580.35	233.38
580.561	245.38
580.772	244.38
580.982	250.38
581.193	250.38
581.403	258.38
581.614	245.38
581.825	242.38
582.035	242.38
582.246	244.38
582.456	262.38
582.667	246.38
582.877	238.38
583.087	219.38
583.298	245.38
583.508	238.38
583.719	250.38
583.929	217.38
584.139	235.38
584.35	262.38
584.56	230.38
584.77	245.38
584.981	241.38
585.191	242.38
585.401	244.38
585.611	232.38
585.821	229.38
586.032	229.38
586.242	238.38
586.452	233.38
586.662	236.38
586.872	222.38
587.082	237.38
587.292	239.38
587.502	223.38
587.713	230.38
587.923	230.38
588.133	227.38
588.343	212.38
588.553	209.38
588.762	245.38
588.972	230.38
589.182	230.38
589.392	235.38
589.602	245.38
589.812	237.38
590.022	241.38
590.232	224.38
590.441	238.38
590.651	227.38
590.861	236.38
591.071	223.38
591.281	234.38
591.49	223.38
591.7	237.38
591.91	234.38
592.119	250.38
592.329	247.38
592.539	254.38
592.748	246.38
592.958	232.38
593.167	241.38
593.377	267.38
593.587	235.38
593.796	246.38
594.006	241.38
594.215	225.38
594.424	253.38
594.634	243.38
594.843	243.38
595.053	245.38
595.262	233.38
595.472	234.38
595.681	239.38
595.89	237.38
596.1	212.38
596.309	236.38
596.518	227.38
596.727	233.38
596.937	235.38
597.146	226.38
597.355	208.38
597.564	221.38
597.774	200.38
597.983	221.38
598.192	218.38
598.401	215.38
598.61	206.38
598.819	219.38
599.028	198.38
599.237	211.38
599.446	211.38
599.655	216.38
599.864	198.38
600.073	212.38
600.282	216.38
600.491	214.38
600.7	206.38
600.909	201.38
601.118	206.38
601.327	207.38
601.536	227.38
601.745	219.38
601.953	206.38
602.162	210.38
602.371	213.38
602.58	195.38
602.789	202.38
602.997	211.38
603.206	211.38
603.415	196.38
603.623	189.38
603.832	204.38
604.041	217.38
604.249	203.38
604.458	208.38
604.666	215.38
604.875	186.38
605.084	194.38
605.292	203.38
605.501	206.38
605.709	209.38
605.918	206.38
606.126	209.38
606.334	209.38
606.543	205.38
606.751	217.38
606.96	200.38
607.168	203.38
607.376	201.38
607.585	209.38
607.793	221.38
608.001	199.38
608.21	197.38
608.418	190.38
608.626	201.38
608.834	209.38
609.043	185.38
609.251	200.38
609.459	202.38
609.667	195.38
609.875	190.38
610.083	191.38
610.291	202.38
610.499	198.38
610.707	197.38
610.916	209.38
611.124	197.38
611.332	196.38
611.54	206.38
611.748	200.38
611.955	203.38
612.163	198.38
612.371	190.38
612.579	200.38
612.787	220.38
612.995	213.38
613.203	189.38
613.411	221.38
613.618	204.38
613.826	213.38
614.034	204.38
614.242	212.38
614.449	195.38
614.657	213.38
614.865	208.38
615.072	216.38
615.28	203.38
615.488	203.38
615.695	195.38
615.903	199.38
616.111	198.38
616.318	203.38
616.526	209.38
616.733	200.38
616.941	201.38
617.148	197.38
617.356	199.38
617.563	197.38
617.771	199.38
617.978	204.38
618.185	197.38
618.393	209.38
618.6	206.38
618.807	198.38
619.015	196.38
619.222	196.38
619.429	201.38
619.637	183.38
619.844	180.38
620.051	214.38
620.258	193.38
620.466	193.38
620.673	197.38
620.88	202.38
621.087	196.38
621.294	203.38
621.501	196.38
621.708	174.38
621.915	196.38
622.122	198.38
622.329	177.38
622.536	189.38
622.743	191.38
622.95	188.38
623.157	199.38
623.364	190.38
623.571	189.38
623.778	186.38
623.985	166.38
624.192	183.38
624.399	174.38
624.606	182.38
624.812	165.38
625.019	169.38
625.226	189.38
625.433	178.38
625.639	184.38
625.846	168.38
626.053	169.38
626.259	180.38
626.466	193.38
626.673	175.38
626.879	155.38
627.086	183.38
627.293	182.38
627.499	174.38
627.706	167.38
627.912	186.38
628.119	168.38
628.325	179.38
628.532	173.38
628.738	173.38
628.945	164.38
629.151	158.38
629.357	172.38
629.564	172.38
629.77	182.38
629.976	175.38
630.183	164.38
630.389	171.38
630.595	182.38
630.802	165.38
631.008	174.38
631.214	174.38
631.42	169.38
631.627	165.38
631.833	164.38
632.039	135.38
632.245	161.38
632.451	157.38
632.657	161.38
632.863	177.38
633.069	172.38
633.275	163.38
633.481	161.38
633.688	161.38
633.893	149.38
634.099	163.38
634.305	159.38
634.511	129.38
634.717	145.38
634.923	158.38
635.129	157.38
635.335	158.38
635.541	149.38
635.747	148.38
635.952	139.38
636.158	158.38
636.364	166.38
636.57	154.38
636.775	154.38
636.981	147.38
637.187	146.38
637.392	151.38
637.598	165.38
637.804	154.38
638.009	163.38
638.215	166.38
638.421	161.38
638.626	154.38
638.832	167.38
639.037	148.38
639.243	154.38
639.448	137.38
639.654	158.38
639.859	155.38
640.065	162.38
640.27	172.38
640.475	160.38
640.681	141.38
640.886	163.38
641.091	148.38
641.297	150.38
641.502	149.38
641.707	153.38
641.913	154.38
642.118	163.38
642.323	149.38
642.528	146.38
642.733	143.38
642.939	154.38
643.144	139.38
643.349	154.38
643.554	139.38
643.759	146.38
643.964	137.38
644.169	129.38
644.374	148.38
644.579	141.38
644.784	148.38
644.989	157.38
645.194	140.38
645.399	136.38
645.604	158.38
645.809	148.38
646.014	139.38
646.219	157.38
646.423	134.38
646.628	155.38
646.833	146.38
647.038	151.38
647.243	150.38
647.447	143.38
647.652	141.38
647.857	141.38
648.062	141.38
648.266	134.38
648.471	148.38
648.676	152.38
648.88	141.38
649.085	137.38
649.289	144.38
649.494	143.38
649.698	164.38
649.903	155.38
650.107	156.38
650.312	156.38
650.516	150.38
650.721	147.38
650.925	140.38
651.13	146.38
651.334	127.38
651.539	147.38
651.743	120.38
651.947	135.38
652.152	133.38
652.356	119.38
652.56	125.38
652.764	140.38
652.969	141.38
653.173	128.38
653.377	119.38
653.581	132.38
653.785	124.38
653.99	102.38
654.194	122.38
654.398	123.38
654.602	128.38
654.806	133.38
655.01	130.38
655.214	140.38
655.418	108.38
655.622	127.38
655.826	126.38
656.03	125.38
656.234	118.38
656.438	122.38
656.642	115.38
656.846	117.38
657.049	108.38
657.253	123.38
657.457	98.38
657.661	117.38
657.865	102.38
658.068	97.38
658.272	96.38
658.476	101.38
658.68	96.38
658.883	88.38
659.087	101.38
659.291	104.38
659.494	92.38
659.698	100.38
659.901	85.38
660.105	99.38
660.309	89.38
660.512	87.38
660.716	91.38
660.919	87.38
661.123	93.38
661.326	86.38
661.53	97.38
661.733	81.38
661.936	95.38
662.14	88.38
662.343	89.38
662.546	95.38
662.75	86.38
662.953	97.38
663.156	85.38
663.36	74.38
663.563	76.38
663.766	84.38
663.969	85.38
664.173	81.38
664.376	76.38
664.579	77.38
664.782	82.38
664.985	104.38
665.188	88.38
665.391	76.38
665.594	72.38
665.797	76.38
666	74.38
666.203	79.38
666.406	69.38
666.609	70.38
666.812	69.38
667.015	75.38
667.218	80.38
667.421	91.38
667.624	80.38
667.827	82.38
668.03	82.38
668.232	93.38
668.435	89.38
668.638	66.38
668.841	104.38
669.043	79.38
669.246	95.38
669.449	76.38
669.651	79.38
669.854	90.38
670.057	82.38
670.259	84.38
670.462	94.38
670.665	85.38
670.867	96.38
671.07	78.38
671.272	73.38
671.475	86.38
671.677	83.38
671.88	92.38
672.082	88.38
672.284	65.38
672.487	93.38
672.689	97.38
672.892	94.38
