Data from 1971.PennyLincolnUp.Lamp.En5.5.200Scan.071719.P1.Scan 2. Changed Angle._HRD10591_15-23-49-842.txt Node
Date: Thu Jul 18 15:23:49 EDT 2019
User: cochatt
Spectrometer: HR+D1059
Trigger mode: 1
Integration Time (sec): 1.000000E-1
Scans to average: 1
Electric dark correction enabled: true
Nonlinearity correction enabled: false
Boxcar width: 0
XAxis mode: Wavelengths
Number of Pixels in Spectrum: 2048
>>>>>Begin Spectral Data<<<<<
223.165	-14.19
223.4	-14.19
223.635	-14.19
223.869	-18.19
224.104	-16.19
224.338	-14.19
224.573	-2.19
224.808	-3.19
225.042	-6.19
225.277	-10.19
225.511	-18.19
225.746	-2.19
225.98	11.81
226.215	16.81
226.449	12.81
226.683	17.81
226.918	21.81
227.152	23.81
227.387	30.81
227.621	41.81
227.856	23.81
228.09	40.81
228.324	35.81
228.559	42.81
228.793	67.81
229.027	105.81
229.262	108.81
229.496	116.81
229.73	141.81
229.964	185.81
230.199	140.81
230.433	113.81
230.667	118.81
230.901	102.81
231.136	118.81
231.37	116.81
231.604	115.81
231.838	117.81
232.072	110.81
232.306	104.81
232.541	125.81
232.775	109.81
233.009	115.81
233.243	106.81
233.477	103.81
233.711	121.81
233.945	112.81
234.179	116.81
234.413	123.81
234.647	139.81
234.881	122.81
235.115	122.81
235.349	119.81
235.583	130.81
235.817	125.81
236.051	132.81
236.285	127.81
236.519	125.81
236.753	133.81
236.987	170.81
237.221	198.81
237.455	262.81
237.689	212.81
237.922	149.81
238.156	123.81
238.39	140.81
238.624	123.81
238.858	123.81
239.091	132.81
239.325	125.81
239.559	133.81
239.793	132.81
240.027	131.81
240.26	130.81
240.494	155.81
240.728	149.81
240.961	152.81
241.195	156.81
241.429	137.81
241.662	134.81
241.896	129.81
242.13	132.81
242.363	138.81
242.597	138.81
242.83	139.81
243.064	143.81
243.298	142.81
243.531	132.81
243.765	131.81
243.998	149.81
244.232	139.81
244.465	142.81
244.699	148.81
244.932	160.81
245.166	156.81
245.399	143.81
245.633	154.81
245.866	153.81
246.099	160.81
246.333	149.81
246.566	156.81
246.8	152.81
247.033	153.81
247.266	139.81
247.5	155.81
247.733	174.81
247.966	187.81
248.2	168.81
248.433	164.81
248.666	169.81
248.899	202.81
249.133	220.81
249.366	215.81
249.599	201.81
249.832	195.81
250.066	205.81
250.299	186.81
250.532	213.81
250.765	210.81
250.998	229.81
251.231	245.81
251.465	229.81
251.698	214.81
251.931	208.81
252.164	214.81
252.397	207.81
252.63	203.81
252.863	200.81
253.096	221.81
253.329	237.81
253.562	228.81
253.795	223.81
254.028	222.81
254.261	237.81
254.494	235.81
254.727	273.81
254.96	305.81
255.193	280.81
255.426	271.81
255.659	243.81
255.892	233.81
256.124	226.81
256.357	253.81
256.59	246.81
256.823	219.81
257.056	234.81
257.289	244.81
257.521	225.81
257.754	222.81
257.987	214.81
258.22	215.81
258.452	214.81
258.685	207.81
258.918	208.81
259.151	207.81
259.383	220.81
259.616	225.81
259.849	223.81
260.081	249.81
260.314	250.81
260.547	267.81
260.779	241.81
261.012	234.81
261.244	221.81
261.477	227.81
261.71	225.81
261.942	243.81
262.175	246.81
262.407	225.81
262.64	233.81
262.872	224.81
263.105	207.81
263.337	212.81
263.57	207.81
263.802	207.81
264.035	217.81
264.267	206.81
264.499	203.81
264.732	224.81
264.964	213.81
265.197	223.81
265.429	195.81
265.661	206.81
265.894	210.81
266.126	198.81
266.358	199.81
266.591	194.81
266.823	202.81
267.055	223.81
267.287	223.81
267.52	234.81
267.752	216.81
267.984	232.81
268.216	229.81
268.448	226.81
268.681	225.81
268.913	239.81
269.145	252.81
269.377	288.81
269.609	280.81
269.841	280.81
270.073	279.81
270.306	287.81
270.538	325.81
270.77	319.81
271.002	305.81
271.234	301.81
271.466	299.81
271.698	324.81
271.93	342.81
272.162	331.81
272.394	341.81
272.626	293.81
272.858	276.81
273.09	294.81
273.322	282.81
273.553	267.81
273.785	281.81
274.017	253.81
274.249	261.81
274.481	246.81
274.713	271.81
274.945	252.81
275.176	260.81
275.408	258.81
275.64	262.81
275.872	274.81
276.104	246.81
276.335	254.81
276.567	262.81
276.799	294.81
277.031	305.81
277.262	295.81
277.494	320.81
277.726	292.81
277.957	285.81
278.189	269.81
278.421	265.81
278.652	257.81
278.884	267.81
279.115	242.81
279.347	261.81
279.579	267.81
279.81	260.81
280.042	242.81
280.273	261.81
280.505	253.81
280.736	263.81
280.968	251.81
281.199	255.81
281.431	253.81
281.662	253.81
281.894	250.81
282.125	251.81
282.356	277.81
282.588	285.81
282.819	299.81
283.051	251.81
283.282	251.81
283.513	270.81
283.745	258.81
283.976	280.81
284.207	264.81
284.439	264.81
284.67	246.81
284.901	274.81
285.132	277.81
285.364	231.81
285.595	260.81
285.826	260.81
286.057	253.81
286.288	257.81
286.52	255.81
286.751	261.81
286.982	263.81
287.213	273.81
287.444	261.81
287.675	270.81
287.906	285.81
288.138	274.81
288.369	290.81
288.6	294.81
288.831	281.81
289.062	265.81
289.293	272.81
289.524	268.81
289.755	277.81
289.986	263.81
290.217	249.81
290.448	263.81
290.679	269.81
290.91	254.81
291.141	279.81
291.371	271.81
291.602	251.81
291.833	255.81
292.064	247.81
292.295	283.81
292.526	273.81
292.757	272.81
292.987	276.81
293.218	256.81
293.449	267.81
293.68	263.81
293.91	262.81
294.141	273.81
294.372	279.81
294.603	265.81
294.833	269.81
295.064	271.81
295.295	271.81
295.525	278.81
295.756	271.81
295.987	290.81
296.217	295.81
296.448	329.81
296.679	283.81
296.909	267.81
297.14	266.81
297.37	292.81
297.601	268.81
297.831	269.81
298.062	283.81
298.292	282.81
298.523	282.81
298.753	282.81
298.984	258.81
299.214	274.81
299.445	271.81
299.675	276.81
299.905	285.81
300.136	273.81
300.366	277.81
300.597	278.81
300.827	288.81
301.057	293.81
301.288	314.81
301.518	307.81
301.748	282.81
301.979	295.81
302.209	287.81
302.439	313.81
302.669	311.81
302.9	283.81
303.13	297.81
303.36	305.81
303.59	319.81
303.82	313.81
304.051	313.81
304.281	298.81
304.511	306.81
304.741	291.81
304.971	307.81
305.201	295.81
305.431	298.81
305.661	306.81
305.891	275.81
306.121	306.81
306.352	314.81
306.582	305.81
306.812	311.81
307.042	300.81
307.272	290.81
307.502	295.81
307.731	318.81
307.961	306.81
308.191	293.81
308.421	314.81
308.651	325.81
308.881	319.81
309.111	308.81
309.341	317.81
309.571	351.81
309.8	370.81
310.03	358.81
310.26	377.81
310.49	375.81
310.72	389.81
310.949	382.81
311.179	385.81
311.409	368.81
311.639	357.81
311.868	350.81
312.098	366.81
312.328	383.81
312.557	410.81
312.787	400.81
313.017	421.81
313.246	381.81
313.476	371.81
313.706	378.81
313.935	366.81
314.165	375.81
314.394	405.81
314.624	376.81
314.853	381.81
315.083	389.81
315.312	394.81
315.542	362.81
315.771	344.81
316.001	358.81
316.23	377.81
316.46	343.81
316.689	376.81
316.919	377.81
317.148	376.81
317.377	390.81
317.607	388.81
317.836	371.81
318.065	366.81
318.295	369.81
318.524	352.81
318.753	337.81
318.983	362.81
319.212	346.81
319.441	377.81
319.67	369.81
319.9	377.81
320.129	377.81
320.358	364.81
320.587	380.81
320.816	389.81
321.046	375.81
321.275	393.81
321.504	390.81
321.733	407.81
321.962	387.81
322.191	415.81
322.42	417.81
322.649	439.81
322.878	469.81
323.108	482.81
323.337	515.81
323.566	529.81
323.795	566.81
324.024	622.81
324.253	765.81
324.482	1167.81
324.71	1773.81
324.939	2557.81
325.168	2240.81
325.397	1177.81
325.626	737.81
325.855	593.81
326.084	529.81
326.313	539.81
326.542	542.81
326.77	610.81
326.999	715.81
327.228	1018.81
327.457	1573.81
327.686	1917.81
327.914	1276.81
328.143	840.81
328.372	699.81
328.6	667.81
328.829	630.81
329.058	627.81
329.287	665.81
329.515	595.81
329.744	538.81
329.972	531.81
330.201	578.81
330.43	600.81
330.658	647.81
330.887	692.81
331.115	647.81
331.344	521.81
331.572	513.81
331.801	483.81
332.03	481.81
332.258	477.81
332.486	455.81
332.715	447.81
332.943	440.81
333.172	435.81
333.4	449.81
333.629	448.81
333.857	460.81
334.085	469.81
334.314	478.81
334.542	515.81
334.771	539.81
334.999	501.81
335.227	464.81
335.455	449.81
335.684	424.81
335.912	408.81
336.14	424.81
336.369	405.81
336.597	439.81
336.825	438.81
337.053	425.81
337.281	413.81
337.51	408.81
337.738	422.81
337.966	435.81
338.194	429.81
338.422	445.81
338.65	426.81
338.878	436.81
339.106	394.81
339.334	427.81
339.562	392.81
339.79	407.81
340.018	421.81
340.246	402.81
340.474	405.81
340.702	437.81
340.93	422.81
341.158	399.81
341.386	419.81
341.614	415.81
341.842	403.81
342.07	411.81
342.298	394.81
342.526	403.81
342.754	387.81
342.981	388.81
343.209	397.81
343.437	389.81
343.665	381.81
343.893	399.81
344.12	403.81
344.348	416.81
344.576	413.81
344.804	437.81
345.031	438.81
345.259	430.81
345.487	423.81
345.714	434.81
345.942	435.81
346.17	413.81
346.397	410.81
346.625	411.81
346.853	418.81
347.08	399.81
347.308	424.81
347.535	421.81
347.763	447.81
347.99	421.81
348.218	432.81
348.445	446.81
348.673	438.81
348.9	411.81
349.128	407.81
349.355	393.81
349.583	403.81
349.81	425.81
350.037	374.81
350.265	394.81
350.492	379.81
350.72	400.81
350.947	392.81
351.174	417.81
351.402	401.81
351.629	424.81
351.856	405.81
352.083	431.81
352.311	441.81
352.538	438.81
352.765	430.81
352.992	437.81
353.22	422.81
353.447	413.81
353.674	423.81
353.901	403.81
354.128	417.81
354.355	374.81
354.583	387.81
354.81	395.81
355.037	378.81
355.264	384.81
355.491	377.81
355.718	384.81
355.945	388.81
356.172	394.81
356.399	373.81
356.626	390.81
356.853	385.81
357.08	363.81
357.307	374.81
357.534	377.81
357.761	374.81
357.988	376.81
358.215	375.81
358.441	398.81
358.668	403.81
358.895	397.81
359.122	408.81
359.349	403.81
359.576	417.81
359.802	448.81
360.029	486.81
360.256	515.81
360.483	468.81
360.709	429.81
360.936	435.81
361.163	426.81
361.39	455.81
361.616	433.81
361.843	417.81
362.07	416.81
362.296	411.81
362.523	427.81
362.749	439.81
362.976	415.81
363.203	401.81
363.429	393.81
363.656	395.81
363.882	409.81
364.109	393.81
364.335	414.81
364.562	389.81
364.788	418.81
365.015	390.81
365.241	395.81
365.468	416.81
365.694	414.81
365.92	429.81
366.147	408.81
366.373	385.81
366.599	394.81
366.826	383.81
367.052	402.81
367.278	386.81
367.505	388.81
367.731	405.81
367.957	382.81
368.184	400.81
368.41	401.81
368.636	416.81
368.862	409.81
369.089	395.81
369.315	392.81
369.541	391.81
369.767	402.81
369.993	400.81
370.219	372.81
370.445	396.81
370.672	391.81
370.898	381.81
371.124	385.81
371.35	377.81
371.576	378.81
371.802	396.81
372.028	396.81
372.254	394.81
372.48	371.81
372.706	384.81
372.932	373.81
373.158	365.81
373.384	386.81
373.61	388.81
373.835	374.81
374.061	408.81
374.287	411.81
374.513	385.81
374.739	394.81
374.965	389.81
375.191	399.81
375.416	402.81
375.642	393.81
375.868	389.81
376.094	374.81
376.319	394.81
376.545	379.81
376.771	374.81
376.997	386.81
377.222	385.81
377.448	399.81
377.674	362.81
377.899	374.81
378.125	388.81
378.35	374.81
378.576	397.81
378.802	391.81
379.027	395.81
379.253	398.81
379.478	376.81
379.704	404.81
379.929	385.81
380.155	406.81
380.38	395.81
380.606	394.81
380.831	372.81
381.057	381.81
381.282	381.81
381.507	391.81
381.733	389.81
381.958	398.81
382.184	373.81
382.409	402.81
382.634	394.81
382.86	401.81
383.085	406.81
383.31	399.81
383.535	403.81
383.761	406.81
383.986	402.81
384.211	397.81
384.436	431.81
384.662	415.81
384.887	388.81
385.112	408.81
385.337	416.81
385.562	422.81
385.787	393.81
386.013	441.81
386.238	427.81
386.463	431.81
386.688	421.81
386.913	417.81
387.138	427.81
387.363	408.81
387.588	425.81
387.813	427.81
388.038	427.81
388.263	416.81
388.488	418.81
388.713	429.81
388.938	399.81
389.163	423.81
389.387	435.81
389.612	424.81
389.837	419.81
390.062	414.81
390.287	413.81
390.512	411.81
390.736	408.81
390.961	422.81
391.186	435.81
391.411	433.81
391.636	423.81
391.86	411.81
392.085	423.81
392.31	428.81
392.534	426.81
392.759	425.81
392.984	420.81
393.208	445.81
393.433	441.81
393.658	443.81
393.882	415.81
394.107	416.81
394.331	424.81
394.556	415.81
394.78	426.81
395.005	433.81
395.229	442.81
395.454	424.81
395.678	432.81
395.903	458.81
396.127	486.81
396.352	482.81
396.576	452.81
396.801	427.81
397.025	443.81
397.249	427.81
397.474	442.81
397.698	438.81
397.922	466.81
398.147	461.81
398.371	480.81
398.595	465.81
398.82	471.81
399.044	469.81
399.268	480.81
399.492	505.81
399.717	536.81
399.941	537.81
400.165	571.81
400.389	598.81
400.613	538.81
400.837	509.81
401.062	519.81
401.286	488.81
401.51	486.81
401.734	474.81
401.958	507.81
402.182	494.81
402.406	508.81
402.63	506.81
402.854	498.81
403.078	514.81
403.302	495.81
403.526	507.81
403.75	483.81
403.974	502.81
404.198	509.81
404.422	489.81
404.645	508.81
404.869	523.81
405.093	577.81
405.317	604.81
405.541	634.81
405.765	575.81
405.988	549.81
406.212	549.81
406.436	572.81
406.66	609.81
406.883	568.81
407.107	579.81
407.331	639.81
407.555	702.81
407.778	694.81
408.002	617.81
408.226	582.81
408.449	555.81
408.673	574.81
408.896	605.81
409.12	640.81
409.344	587.81
409.567	528.81
409.791	529.81
410.014	507.81
410.238	529.81
410.461	493.81
410.685	531.81
410.908	551.81
411.132	575.81
411.355	597.81
411.578	571.81
411.802	527.81
412.025	489.81
412.249	531.81
412.472	531.81
412.695	593.81
412.919	577.81
413.142	530.81
413.365	525.81
413.589	511.81
413.812	506.81
414.035	502.81
414.258	485.81
414.482	469.81
414.705	475.81
414.928	470.81
415.151	479.81
415.374	494.81
415.597	473.81
415.821	474.81
416.044	475.81
416.267	505.81
416.49	504.81
416.713	496.81
416.936	478.81
417.159	473.81
417.382	497.81
417.605	507.81
417.828	507.81
418.051	525.81
418.274	510.81
418.497	481.81
418.72	484.81
418.943	482.81
419.166	498.81
419.389	531.81
419.611	514.81
419.834	523.81
420.057	522.81
420.28	515.81
420.503	529.81
420.726	543.81
420.948	572.81
421.171	577.81
421.394	605.81
421.617	562.81
421.839	538.81
422.062	529.81
422.285	528.81
422.507	616.81
422.73	691.81
422.953	662.81
423.175	571.81
423.398	542.81
423.621	558.81
423.843	559.81
424.066	555.81
424.288	586.81
424.511	595.81
424.733	663.81
424.956	727.81
425.178	691.81
425.401	705.81
425.623	755.81
425.846	634.81
426.068	610.81
426.291	598.81
426.513	568.81
426.735	602.81
426.958	643.81
427.18	723.81
427.402	896.81
427.625	958.81
427.847	894.81
428.069	763.81
428.292	667.81
428.514	601.81
428.736	566.81
428.958	573.81
429.181	560.81
429.403	553.81
429.625	569.81
429.847	600.81
430.069	669.81
430.292	659.81
430.514	583.81
430.736	563.81
430.958	539.81
431.18	512.81
431.402	542.81
431.624	485.81
431.846	511.81
432.068	497.81
432.29	504.81
432.512	497.81
432.734	545.81
432.956	506.81
433.178	543.81
433.4	549.81
433.622	516.81
433.844	517.81
434.066	522.81
434.287	511.81
434.509	530.81
434.731	517.81
434.953	535.81
435.175	532.81
435.397	567.81
435.618	578.81
435.84	614.81
436.062	720.81
436.284	791.81
436.505	671.81
436.727	597.81
436.949	565.81
437.17	565.81
437.392	542.81
437.614	572.81
437.835	621.81
438.057	751.81
438.278	856.81
438.5	845.81
438.721	879.81
438.943	847.81
439.165	697.81
439.386	637.81
439.608	626.81
439.829	639.81
440.05	664.81
440.272	708.81
440.493	667.81
440.715	598.81
440.936	551.81
441.158	548.81
441.379	569.81
441.6	562.81
441.822	606.81
442.043	634.81
442.264	744.81
442.486	764.81
442.707	694.81
442.928	625.81
443.149	647.81
443.371	665.81
443.592	693.81
443.813	785.81
444.034	848.81
444.255	694.81
444.476	602.81
444.698	595.81
444.919	581.81
445.14	661.81
445.361	636.81
445.582	655.81
445.803	715.81
446.024	843.81
446.245	857.81
446.466	773.81
446.687	665.81
446.908	628.81
447.129	573.81
447.35	561.81
447.571	553.81
447.792	553.81
448.013	547.81
448.234	564.81
448.455	639.81
448.675	756.81
448.896	845.81
449.117	730.81
449.338	712.81
449.559	791.81
449.779	880.81
450	739.81
450.221	621.81
450.442	615.81
450.662	562.81
450.883	562.81
451.104	586.81
451.324	591.81
451.545	538.81
451.766	529.81
451.986	509.81
452.207	489.81
452.428	504.81
452.648	501.81
452.869	496.81
453.089	507.81
453.31	527.81
453.53	513.81
453.751	485.81
453.971	496.81
454.192	539.81
454.412	523.81
454.633	500.81
454.853	493.81
455.073	495.81
455.294	506.81
455.514	609.81
455.734	597.81
455.955	475.81
456.175	459.81
456.395	442.81
456.616	447.81
456.836	456.81
457.056	451.81
457.276	441.81
457.497	455.81
457.717	470.81
457.937	458.81
458.157	463.81
458.377	475.81
458.598	466.81
458.818	577.81
459.038	712.81
459.258	714.81
459.478	588.81
459.698	522.81
459.918	518.81
460.138	509.81
460.358	474.81
460.578	495.81
460.798	509.81
461.018	507.81
461.238	490.81
461.458	487.81
461.678	469.81
461.898	500.81
462.118	485.81
462.338	493.81
462.558	480.81
462.777	500.81
462.997	517.81
463.217	522.81
463.437	532.81
463.657	495.81
463.876	475.81
464.096	513.81
464.316	507.81
464.536	544.81
464.755	550.81
464.975	531.81
465.195	598.81
465.414	702.81
465.634	635.81
465.854	578.81
466.073	534.81
466.293	513.81
466.512	505.81
466.732	496.81
466.951	495.81
467.171	520.81
467.391	505.81
467.61	507.81
467.829	511.81
468.049	513.81
468.268	501.81
468.488	515.81
468.707	489.81
468.927	485.81
469.146	486.81
469.365	482.81
469.585	462.81
469.804	504.81
470.023	527.81
470.243	512.81
470.462	513.81
470.681	544.81
470.901	538.81
471.12	509.81
471.339	513.81
471.558	505.81
471.777	515.81
471.997	507.81
472.216	488.81
472.435	555.81
472.654	523.81
472.873	504.81
473.092	491.81
473.311	528.81
473.53	503.81
473.749	535.81
473.968	577.81
474.187	675.81
474.406	712.81
474.625	573.81
474.844	531.81
475.063	505.81
475.282	527.81
475.501	527.81
475.72	512.81
475.939	516.81
476.158	543.81
476.377	545.81
476.596	529.81
476.814	550.81
477.033	533.81
477.252	553.81
477.471	551.81
477.69	558.81
477.908	549.81
478.127	551.81
478.346	564.81
478.564	560.81
478.783	550.81
479.002	553.81
479.22	583.81
479.439	595.81
479.658	623.81
479.876	610.81
480.095	598.81
480.313	662.81
480.532	636.81
480.751	626.81
480.969	634.81
481.188	688.81
481.406	773.81
481.624	651.81
481.843	633.81
482.061	639.81
482.28	630.81
482.498	606.81
482.717	616.81
482.935	604.81
483.153	618.81
483.372	607.81
483.59	623.81
483.808	613.81
484.027	610.81
484.245	638.81
484.463	616.81
484.681	633.81
484.9	611.81
485.118	612.81
485.336	631.81
485.554	630.81
485.772	635.81
485.99	624.81
486.209	630.81
486.427	648.81
486.645	645.81
486.863	686.81
487.081	671.81
487.299	661.81
487.517	676.81
487.735	666.81
487.953	682.81
488.171	681.81
488.389	689.81
488.607	675.81
488.825	647.81
489.043	671.81
489.261	652.81
489.479	650.81
489.696	687.81
489.914	657.81
490.132	678.81
490.35	703.81
490.568	722.81
490.786	699.81
491.003	720.81
491.221	735.81
491.439	767.81
491.657	753.81
491.874	758.81
492.092	785.81
492.31	783.81
492.527	799.81
492.745	785.81
492.963	780.81
493.18	787.81
493.398	801.81
493.615	791.81
493.833	798.81
494.05	790.81
494.268	783.81
494.485	803.81
494.703	823.81
494.92	808.81
495.138	802.81
495.355	807.81
495.573	802.81
495.79	827.81
496.008	802.81
496.225	789.81
496.442	784.81
496.66	821.81
496.877	803.81
497.094	803.81
497.312	838.81
497.529	799.81
497.746	814.81
497.963	810.81
498.181	831.81
498.398	846.81
498.615	848.81
498.832	849.81
499.049	859.81
499.267	878.81
499.484	902.81
499.701	896.81
499.918	917.81
500.135	921.81
500.352	947.81
500.569	971.81
500.786	971.81
501.003	971.81
501.22	958.81
501.437	962.81
501.654	952.81
501.871	936.81
502.088	926.81
502.305	889.81
502.522	869.81
502.739	864.81
502.956	817.81
503.172	833.81
503.389	812.81
503.606	840.81
503.823	842.81
504.04	801.81
504.256	790.81
504.473	771.81
504.69	770.81
504.907	804.81
505.123	800.81
505.34	792.81
505.557	765.81
505.773	773.81
505.99	778.81
506.207	768.81
506.423	757.81
506.64	743.81
506.856	753.81
507.073	773.81
507.289	764.81
507.506	767.81
507.722	774.81
507.939	778.81
508.155	799.81
508.372	749.81
508.588	745.81
508.805	744.81
509.021	762.81
509.238	738.81
509.454	767.81
509.67	753.81
509.887	739.81
510.103	776.81
510.319	767.81
510.536	909.81
510.752	1519.81
510.968	1222.81
511.184	801.81
511.401	743.81
511.617	730.81
511.833	704.81
512.049	702.81
512.265	691.81
512.481	717.81
512.698	695.81
512.914	706.81
513.13	695.81
513.346	686.81
513.562	693.81
513.778	727.81
513.994	726.81
514.21	745.81
514.426	783.81
514.642	842.81
514.858	844.81
515.074	920.81
515.29	1112.81
515.506	1688.81
515.721	1394.81
515.937	894.81
516.153	800.81
516.369	750.81
516.585	743.81
516.801	730.81
517.016	702.81
517.232	699.81
517.448	686.81
517.664	734.81
517.879	724.81
518.095	689.81
518.311	718.81
518.527	703.81
518.742	700.81
518.958	696.81
519.173	701.81
519.389	688.81
519.605	712.81
519.82	706.81
520.036	715.81
520.251	739.81
520.467	752.81
520.682	785.81
520.898	785.81
521.113	866.81
521.329	915.81
521.544	1059.81
521.76	1374.81
521.975	2334.81
522.19	2270.81
522.406	1182.81
522.621	874.81
522.836	783.81
523.052	746.81
523.267	692.81
523.482	692.81
523.698	664.81
523.913	660.81
524.128	664.81
524.343	631.81
524.559	616.81
524.774	617.81
524.989	605.81
525.204	645.81
525.419	628.81
525.634	603.81
525.849	595.81
526.064	600.81
526.28	577.81
526.495	569.81
526.71	570.81
526.925	581.81
527.14	559.81
527.355	541.81
527.57	547.81
527.785	568.81
527.999	541.81
528.214	559.81
528.429	565.81
528.644	568.81
528.859	586.81
529.074	584.81
529.289	596.81
529.503	731.81
529.718	674.81
529.933	610.81
530.148	601.81
530.363	560.81
530.577	548.81
530.792	559.81
531.007	544.81
531.221	557.81
531.436	569.81
531.651	557.81
531.865	536.81
532.08	530.81
532.295	525.81
532.509	533.81
532.724	519.81
532.938	536.81
533.153	507.81
533.367	544.81
533.582	529.81
533.796	520.81
534.011	513.81
534.225	523.81
534.44	512.81
534.654	517.81
534.868	531.81
535.083	516.81
535.297	532.81
535.511	551.81
535.726	564.81
535.94	545.81
536.154	538.81
536.369	498.81
536.583	506.81
536.797	497.81
537.011	494.81
537.225	488.81
537.44	500.81
537.654	517.81
537.868	520.81
538.082	513.81
538.296	514.81
538.51	496.81
538.724	487.81
538.938	495.81
539.153	512.81
539.367	535.81
539.581	546.81
539.795	516.81
540.009	513.81
540.222	488.81
540.436	496.81
540.65	523.81
540.864	519.81
541.078	525.81
541.292	506.81
541.506	517.81
541.72	526.81
541.934	523.81
542.147	510.81
542.361	496.81
542.575	521.81
542.789	490.81
543.002	477.81
543.216	493.81
543.43	511.81
543.644	496.81
543.857	489.81
544.071	487.81
544.285	517.81
544.498	502.81
544.712	486.81
544.925	493.81
545.139	496.81
545.352	479.81
545.566	488.81
545.779	519.81
545.993	508.81
546.206	488.81
546.42	509.81
546.633	478.81
546.847	488.81
547.06	484.81
547.274	488.81
547.487	496.81
547.7	464.81
547.914	472.81
548.127	464.81
548.34	470.81
548.554	477.81
548.767	482.81
548.98	481.81
549.193	456.81
549.407	465.81
549.62	468.81
549.833	453.81
550.046	478.81
550.259	457.81
550.473	468.81
550.686	447.81
550.899	470.81
551.112	471.81
551.325	466.81
551.538	437.81
551.751	433.81
551.964	465.81
552.177	456.81
552.39	457.81
552.603	472.81
552.816	461.81
553.029	464.81
553.242	464.81
553.455	458.81
553.667	513.81
553.88	486.81
554.093	489.81
554.306	495.81
554.519	489.81
554.732	461.81
554.944	464.81
555.157	465.81
555.37	467.81
555.583	443.81
555.795	466.81
556.008	447.81
556.221	438.81
556.433	434.81
556.646	426.81
556.859	427.81
557.071	449.81
557.284	434.81
557.496	424.81
557.709	433.81
557.921	430.81
558.134	442.81
558.346	432.81
558.559	442.81
558.771	407.81
558.984	396.81
559.196	431.81
559.409	424.81
559.621	420.81
559.833	413.81
560.046	409.81
560.258	422.81
560.47	423.81
560.683	421.81
560.895	416.81
561.107	434.81
561.32	421.81
561.532	433.81
561.744	432.81
561.956	414.81
562.168	425.81
562.381	425.81
562.593	439.81
562.805	429.81
563.017	409.81
563.229	406.81
563.441	431.81
563.653	442.81
563.865	425.81
564.077	410.81
564.289	413.81
564.501	421.81
564.713	417.81
564.925	410.81
565.137	441.81
565.349	458.81
565.561	408.81
565.773	453.81
565.985	443.81
566.197	427.81
566.408	445.81
566.62	475.81
566.832	464.81
567.044	490.81
567.255	463.81
567.467	476.81
567.679	474.81
567.891	483.81
568.102	472.81
568.314	472.81
568.526	454.81
568.737	455.81
568.949	447.81
569.161	435.81
569.372	429.81
569.584	424.81
569.795	411.81
570.007	436.81
570.218	487.81
570.43	482.81
570.641	402.81
570.853	403.81
571.064	402.81
571.276	376.81
571.487	381.81
571.698	379.81
571.91	368.81
572.121	382.81
572.333	403.81
572.544	379.81
572.755	381.81
572.966	370.81
573.178	374.81
573.389	360.81
573.6	354.81
573.811	362.81
574.023	359.81
574.234	350.81
574.445	365.81
574.656	369.81
574.867	367.81
575.078	367.81
575.289	375.81
575.501	364.81
575.712	357.81
575.923	357.81
576.134	347.81
576.345	352.81
576.556	358.81
576.767	343.81
576.978	359.81
577.188	349.81
577.399	344.81
577.61	355.81
577.821	341.81
578.032	368.81
578.243	399.81
578.454	722.81
578.665	496.81
578.875	373.81
579.086	335.81
579.297	353.81
579.508	351.81
579.718	320.81
579.929	335.81
580.14	335.81
580.35	320.81
580.561	309.81
580.772	338.81
580.982	321.81
581.193	343.81
581.403	322.81
581.614	330.81
581.825	310.81
582.035	304.81
582.246	318.81
582.456	322.81
582.667	311.81
582.877	315.81
583.087	321.81
583.298	326.81
583.508	317.81
583.719	351.81
583.929	329.81
584.139	322.81
584.35	327.81
584.56	319.81
584.77	311.81
584.981	308.81
585.191	319.81
585.401	313.81
585.611	314.81
585.821	301.81
586.032	309.81
586.242	304.81
586.452	304.81
586.662	323.81
586.872	315.81
587.082	310.81
587.292	311.81
587.502	306.81
587.713	316.81
587.923	293.81
588.133	303.81
588.343	310.81
588.553	312.81
588.762	321.81
588.972	307.81
589.182	306.81
589.392	302.81
589.602	313.81
589.812	292.81
590.022	302.81
590.232	322.81
590.441	315.81
590.651	311.81
590.861	294.81
591.071	299.81
591.281	318.81
591.49	313.81
591.7	320.81
591.91	311.81
592.119	293.81
592.329	305.81
592.539	316.81
592.748	307.81
592.958	335.81
593.167	311.81
593.377	285.81
593.587	317.81
593.796	314.81
594.006	317.81
594.215	302.81
594.424	317.81
594.634	305.81
594.843	311.81
595.053	312.81
595.262	279.81
595.472	305.81
595.681	287.81
595.89	296.81
596.1	312.81
596.309	297.81
596.518	297.81
596.727	282.81
596.937	293.81
597.146	314.81
597.355	283.81
597.564	280.81
597.774	280.81
597.983	280.81
598.192	268.81
598.401	282.81
598.61	270.81
598.819	278.81
599.028	272.81
599.237	277.81
599.446	275.81
599.655	280.81
599.864	273.81
600.073	284.81
600.282	289.81
600.491	271.81
600.7	281.81
600.909	265.81
601.118	278.81
601.327	267.81
601.536	286.81
601.745	271.81
601.953	285.81
602.162	284.81
602.371	265.81
602.58	280.81
602.789	281.81
602.997	246.81
603.206	268.81
603.415	279.81
603.623	259.81
603.832	271.81
604.041	281.81
604.249	255.81
604.458	258.81
604.666	256.81
604.875	270.81
605.084	253.81
605.292	250.81
605.501	243.81
605.709	274.81
605.918	264.81
606.126	266.81
606.334	272.81
606.543	238.81
606.751	257.81
606.96	245.81
607.168	237.81
607.376	264.81
607.585	270.81
607.793	259.81
608.001	261.81
608.21	261.81
608.418	257.81
608.626	266.81
608.834	251.81
609.043	243.81
609.251	256.81
609.459	233.81
609.667	271.81
609.875	229.81
610.083	261.81
610.291	258.81
610.499	238.81
610.707	256.81
610.916	263.81
611.124	263.81
611.332	259.81
611.54	256.81
611.748	249.81
611.955	254.81
612.163	269.81
612.371	262.81
612.579	248.81
612.787	258.81
612.995	255.81
613.203	251.81
613.411	258.81
613.618	248.81
613.826	233.81
614.034	255.81
614.242	257.81
614.449	242.81
614.657	245.81
614.865	224.81
615.072	245.81
615.28	272.81
615.488	253.81
615.695	233.81
615.903	263.81
616.111	238.81
616.318	263.81
616.526	245.81
616.733	230.81
616.941	256.81
617.148	267.81
617.356	257.81
617.563	247.81
617.771	241.81
617.978	243.81
618.185	247.81
618.393	261.81
618.6	235.81
618.807	233.81
619.015	250.81
619.222	248.81
619.429	250.81
619.637	241.81
619.844	227.81
620.051	239.81
620.258	228.81
620.466	230.81
620.673	230.81
620.88	210.81
621.087	225.81
621.294	245.81
621.501	244.81
621.708	239.81
621.915	232.81
622.122	233.81
622.329	242.81
622.536	239.81
622.743	250.81
622.95	231.81
623.157	233.81
623.364	237.81
623.571	218.81
623.778	227.81
623.985	229.81
624.192	239.81
624.399	218.81
624.606	219.81
624.812	216.81
625.019	228.81
625.226	221.81
625.433	232.81
625.639	209.81
625.846	208.81
626.053	218.81
626.259	240.81
626.466	214.81
626.673	205.81
626.879	214.81
627.086	205.81
627.293	218.81
627.499	223.81
627.706	220.81
627.912	217.81
628.119	218.81
628.325	215.81
628.532	207.81
628.738	219.81
628.945	210.81
629.151	211.81
629.357	212.81
629.564	213.81
629.77	223.81
629.976	221.81
630.183	214.81
630.389	217.81
630.595	225.81
630.802	214.81
631.008	199.81
631.214	212.81
631.42	202.81
631.627	214.81
631.833	207.81
632.039	186.81
632.245	213.81
632.451	186.81
632.657	197.81
632.863	207.81
633.069	196.81
633.275	199.81
633.481	198.81
633.688	191.81
633.893	200.81
634.099	198.81
634.305	197.81
634.511	177.81
634.717	191.81
634.923	192.81
635.129	181.81
635.335	193.81
635.541	198.81
635.747	197.81
635.952	183.81
636.158	173.81
636.364	191.81
636.57	186.81
636.775	194.81
636.981	209.81
637.187	188.81
637.392	184.81
637.598	186.81
637.804	198.81
638.009	182.81
638.215	189.81
638.421	176.81
638.626	181.81
638.832	194.81
639.037	187.81
639.243	178.81
639.448	191.81
639.654	185.81
639.859	174.81
640.065	183.81
640.27	175.81
640.475	192.81
640.681	185.81
640.886	179.81
641.091	187.81
641.297	186.81
641.502	181.81
641.707	173.81
641.913	173.81
642.118	176.81
642.323	163.81
642.528	173.81
642.733	185.81
642.939	181.81
643.144	170.81
643.349	166.81
643.554	178.81
643.759	193.81
643.964	165.81
644.169	189.81
644.374	167.81
644.579	167.81
644.784	179.81
644.989	178.81
645.194	171.81
645.399	172.81
645.604	162.81
645.809	165.81
646.014	174.81
646.219	182.81
646.423	181.81
646.628	166.81
646.833	187.81
647.038	149.81
647.243	166.81
647.447	166.81
647.652	161.81
647.857	144.81
648.062	165.81
648.266	173.81
648.471	175.81
648.676	167.81
648.88	173.81
649.085	151.81
649.289	187.81
649.494	165.81
649.698	192.81
649.903	185.81
650.107	169.81
650.312	157.81
650.516	162.81
650.721	165.81
650.925	148.81
651.13	158.81
651.334	146.81
651.539	173.81
651.743	165.81
651.947	150.81
652.152	149.81
652.356	157.81
652.56	159.81
652.764	136.81
652.969	141.81
653.173	129.81
653.377	135.81
653.581	130.81
653.785	134.81
653.99	138.81
654.194	150.81
654.398	146.81
654.602	141.81
654.806	152.81
655.01	134.81
655.214	145.81
655.418	123.81
655.622	135.81
655.826	127.81
656.03	124.81
656.234	129.81
656.438	127.81
656.642	133.81
656.846	123.81
657.049	129.81
657.253	122.81
657.457	112.81
657.661	109.81
657.865	112.81
658.068	103.81
658.272	103.81
658.476	105.81
658.68	94.81
658.883	112.81
659.087	112.81
659.291	96.81
659.494	100.81
659.698	108.81
659.901	97.81
660.105	96.81
660.309	96.81
660.512	76.81
660.716	99.81
660.919	90.81
661.123	94.81
661.326	89.81
661.53	92.81
661.733	100.81
661.936	83.81
662.14	67.81
662.343	78.81
662.546	78.81
662.75	92.81
662.953	77.81
663.156	72.81
663.36	91.81
663.563	75.81
663.766	82.81
663.969	85.81
664.173	98.81
664.376	82.81
664.579	87.81
664.782	77.81
664.985	78.81
665.188	92.81
665.391	79.81
665.594	70.81
665.797	74.81
666	82.81
666.203	78.81
666.406	86.81
666.609	69.81
666.812	82.81
667.015	86.81
667.218	82.81
667.421	82.81
667.624	85.81
667.827	81.81
668.03	80.81
668.232	86.81
668.435	87.81
668.638	83.81
668.841	81.81
669.043	67.81
669.246	93.81
669.449	80.81
669.651	72.81
669.854	79.81
670.057	81.81
670.259	85.81
670.462	82.81
670.665	80.81
670.867	87.81
671.07	81.81
671.272	69.81
671.475	77.81
671.677	72.81
671.88	75.81
672.082	85.81
672.284	85.81
672.487	80.81
672.689	78.81
672.892	83.81
