Data from 1971.PennyLincolnUp.Lamp.En5.5.200Scan.071719.P1._HRD10591_15-20-06-841.txt Node
Date: Thu Jul 18 15:20:06 EDT 2019
User: cochatt
Spectrometer: HR+D1059
Trigger mode: 1
Integration Time (sec): 1.000000E-1
Scans to average: 1
Electric dark correction enabled: true
Nonlinearity correction enabled: false
Boxcar width: 0
XAxis mode: Wavelengths
Number of Pixels in Spectrum: 2048
>>>>>Begin Spectral Data<<<<<
223.165	-10.12
223.4	-10.12
223.635	-10.12
223.869	7.88
224.104	-18.12
224.338	-24.12
224.573	-12.12
224.808	-15.12
225.042	-13.12
225.277	-7.12
225.511	8.88
225.746	3.88
225.98	10.88
226.215	-3.12
226.449	4.88
226.683	16.88
226.918	19.88
227.152	29.88
227.387	42.88
227.621	47.88
227.856	40.88
228.09	44.88
228.324	50.88
228.559	54.88
228.793	66.88
229.027	91.88
229.262	123.88
229.496	104.88
229.73	144.88
229.964	150.88
230.199	120.88
230.433	107.88
230.667	100.88
230.901	123.88
231.136	114.88
231.37	104.88
231.604	108.88
231.838	118.88
232.072	102.88
232.306	109.88
232.541	107.88
232.775	108.88
233.009	117.88
233.243	115.88
233.477	108.88
233.711	119.88
233.945	125.88
234.179	111.88
234.413	130.88
234.647	116.88
234.881	121.88
235.115	125.88
235.349	115.88
235.583	134.88
235.817	110.88
236.051	130.88
236.285	128.88
236.519	125.88
236.753	124.88
236.987	139.88
237.221	178.88
237.455	231.88
237.689	169.88
237.922	139.88
238.156	125.88
238.39	122.88
238.624	124.88
238.858	125.88
239.091	125.88
239.325	144.88
239.559	123.88
239.793	122.88
240.027	135.88
240.26	156.88
240.494	149.88
240.728	154.88
240.961	152.88
241.195	143.88
241.429	139.88
241.662	125.88
241.896	131.88
242.13	110.88
242.363	146.88
242.597	136.88
242.83	142.88
243.064	131.88
243.298	136.88
243.531	128.88
243.765	137.88
243.998	145.88
244.232	151.88
244.465	143.88
244.699	150.88
244.932	145.88
245.166	164.88
245.399	140.88
245.633	145.88
245.866	132.88
246.099	158.88
246.333	157.88
246.566	149.88
246.8	154.88
247.033	152.88
247.266	154.88
247.5	164.88
247.733	167.88
247.966	197.88
248.2	168.88
248.433	171.88
248.666	190.88
248.899	194.88
249.133	198.88
249.366	214.88
249.599	206.88
249.832	178.88
250.066	205.88
250.299	197.88
250.532	197.88
250.765	192.88
250.998	217.88
251.231	237.88
251.465	223.88
251.698	219.88
251.931	211.88
252.164	191.88
252.397	211.88
252.63	206.88
252.863	223.88
253.096	226.88
253.329	236.88
253.562	231.88
253.795	252.88
254.028	224.88
254.261	228.88
254.494	234.88
254.727	275.88
254.96	286.88
255.193	296.88
255.426	260.88
255.659	238.88
255.892	252.88
256.124	240.88
256.357	246.88
256.59	250.88
256.823	239.88
257.056	217.88
257.289	222.88
257.521	215.88
257.754	220.88
257.987	222.88
258.22	221.88
258.452	231.88
258.685	221.88
258.918	226.88
259.151	226.88
259.383	225.88
259.616	244.88
259.849	229.88
260.081	243.88
260.314	256.88
260.547	266.88
260.779	254.88
261.012	257.88
261.244	247.88
261.477	244.88
261.71	226.88
261.942	216.88
262.175	250.88
262.407	242.88
262.64	232.88
262.872	242.88
263.105	217.88
263.337	230.88
263.57	236.88
263.802	243.88
264.035	216.88
264.267	223.88
264.499	237.88
264.732	216.88
264.964	231.88
265.197	218.88
265.429	216.88
265.661	217.88
265.894	231.88
266.126	250.88
266.358	232.88
266.591	232.88
266.823	245.88
267.055	237.88
267.287	234.88
267.52	238.88
267.752	248.88
267.984	251.88
268.216	240.88
268.448	258.88
268.681	259.88
268.913	282.88
269.145	286.88
269.377	288.88
269.609	284.88
269.841	303.88
270.073	288.88
270.306	304.88
270.538	320.88
270.77	323.88
271.002	324.88
271.234	312.88
271.466	322.88
271.698	337.88
271.93	335.88
272.162	349.88
272.394	347.88
272.626	339.88
272.858	315.88
273.09	288.88
273.322	298.88
273.553	300.88
273.785	286.88
274.017	282.88
274.249	286.88
274.481	275.88
274.713	275.88
274.945	284.88
275.176	297.88
275.408	279.88
275.64	260.88
275.872	277.88
276.104	282.88
276.335	298.88
276.567	270.88
276.799	301.88
277.031	315.88
277.262	341.88
277.494	336.88
277.726	314.88
277.957	292.88
278.189	314.88
278.421	328.88
278.652	285.88
278.884	304.88
279.115	295.88
279.347	282.88
279.579	261.88
279.81	278.88
280.042	296.88
280.273	285.88
280.505	296.88
280.736	276.88
280.968	279.88
281.199	273.88
281.431	279.88
281.662	288.88
281.894	295.88
282.125	299.88
282.356	286.88
282.588	301.88
282.819	322.88
283.051	293.88
283.282	284.88
283.513	299.88
283.745	308.88
283.976	299.88
284.207	316.88
284.439	302.88
284.67	319.88
284.901	278.88
285.132	308.88
285.364	310.88
285.595	280.88
285.826	300.88
286.057	291.88
286.288	286.88
286.52	300.88
286.751	296.88
286.982	310.88
287.213	306.88
287.444	299.88
287.675	300.88
287.906	317.88
288.138	331.88
288.369	324.88
288.6	302.88
288.831	319.88
289.062	314.88
289.293	327.88
289.524	325.88
289.755	301.88
289.986	306.88
290.217	335.88
290.448	302.88
290.679	298.88
290.91	293.88
291.141	306.88
291.371	306.88
291.602	315.88
291.833	303.88
292.064	300.88
292.295	325.88
292.526	289.88
292.757	317.88
292.987	303.88
293.218	299.88
293.449	317.88
293.68	300.88
293.91	306.88
294.141	306.88
294.372	320.88
294.603	310.88
294.833	312.88
295.064	319.88
295.295	312.88
295.525	312.88
295.756	308.88
295.987	333.88
296.217	345.88
296.448	335.88
296.679	338.88
296.909	319.88
297.14	322.88
297.37	311.88
297.601	303.88
297.831	328.88
298.062	331.88
298.292	315.88
298.523	316.88
298.753	319.88
298.984	332.88
299.214	335.88
299.445	316.88
299.675	332.88
299.905	314.88
300.136	332.88
300.366	319.88
300.597	331.88
300.827	340.88
301.057	346.88
301.288	348.88
301.518	336.88
301.748	319.88
301.979	334.88
302.209	350.88
302.439	331.88
302.669	356.88
302.9	339.88
303.13	349.88
303.36	332.88
303.59	360.88
303.82	368.88
304.051	334.88
304.281	333.88
304.511	326.88
304.741	333.88
304.971	335.88
305.201	348.88
305.431	335.88
305.661	338.88
305.891	347.88
306.121	359.88
306.352	356.88
306.582	364.88
306.812	351.88
307.042	364.88
307.272	362.88
307.502	354.88
307.731	348.88
307.961	352.88
308.191	338.88
308.421	356.88
308.651	348.88
308.881	355.88
309.111	359.88
309.341	363.88
309.571	371.88
309.8	391.88
310.03	365.88
310.26	379.88
310.49	412.88
310.72	377.88
310.949	386.88
311.179	408.88
311.409	406.88
311.639	392.88
311.868	403.88
312.098	401.88
312.328	409.88
312.557	420.88
312.787	420.88
313.017	423.88
313.246	407.88
313.476	412.88
313.706	390.88
313.935	383.88
314.165	409.88
314.394	415.88
314.624	426.88
314.853	411.88
315.083	390.88
315.312	396.88
315.542	383.88
315.771	384.88
316.001	416.88
316.23	388.88
316.46	386.88
316.689	388.88
316.919	395.88
317.148	410.88
317.377	400.88
317.607	416.88
317.836	410.88
318.065	404.88
318.295	408.88
318.524	397.88
318.753	393.88
318.983	394.88
319.212	377.88
319.441	397.88
319.67	411.88
319.9	394.88
320.129	399.88
320.358	392.88
320.587	395.88
320.816	419.88
321.046	427.88
321.275	420.88
321.504	416.88
321.733	432.88
321.962	428.88
322.191	440.88
322.42	464.88
322.649	472.88
322.878	462.88
323.108	487.88
323.337	502.88
323.566	523.88
323.795	539.88
324.024	613.88
324.253	705.88
324.482	1030.88
324.71	1519.88
324.939	2070.88
325.168	1733.88
325.397	924.88
325.626	644.88
325.855	543.88
326.084	515.88
326.313	529.88
326.542	530.88
326.77	583.88
326.999	656.88
327.228	900.88
327.457	1332.88
327.686	1522.88
327.914	1024.88
328.143	719.88
328.372	630.88
328.6	578.88
328.829	584.88
329.058	567.88
329.287	572.88
329.515	538.88
329.744	528.88
329.972	524.88
330.201	526.88
330.43	565.88
330.658	572.88
330.887	598.88
331.115	578.88
331.344	526.88
331.572	499.88
331.801	498.88
332.03	487.88
332.258	470.88
332.486	476.88
332.715	469.88
332.943	458.88
333.172	458.88
333.4	470.88
333.629	481.88
333.857	499.88
334.085	504.88
334.314	516.88
334.542	514.88
334.771	521.88
334.999	496.88
335.227	488.88
335.455	471.88
335.684	472.88
335.912	473.88
336.14	437.88
336.369	453.88
336.597	455.88
336.825	471.88
337.053	456.88
337.281	444.88
337.51	451.88
337.738	457.88
337.966	455.88
338.194	456.88
338.422	415.88
338.65	449.88
338.878	430.88
339.106	429.88
339.334	442.88
339.562	440.88
339.79	440.88
340.018	440.88
340.246	447.88
340.474	424.88
340.702	427.88
340.93	433.88
341.158	432.88
341.386	427.88
341.614	458.88
341.842	460.88
342.07	438.88
342.298	411.88
342.526	426.88
342.754	411.88
342.981	421.88
343.209	431.88
343.437	426.88
343.665	417.88
343.893	435.88
344.12	464.88
344.348	430.88
344.576	428.88
344.804	455.88
345.031	428.88
345.259	428.88
345.487	433.88
345.714	445.88
345.942	420.88
346.17	447.88
346.397	415.88
346.625	423.88
346.853	448.88
347.08	419.88
347.308	424.88
347.535	419.88
347.763	417.88
347.99	404.88
348.218	414.88
348.445	430.88
348.673	406.88
348.9	408.88
349.128	409.88
349.355	401.88
349.583	413.88
349.81	426.88
350.037	412.88
350.265	398.88
350.492	399.88
350.72	403.88
350.947	419.88
351.174	396.88
351.402	436.88
351.629	418.88
351.856	433.88
352.083	406.88
352.311	426.88
352.538	438.88
352.765	434.88
352.992	415.88
353.22	422.88
353.447	410.88
353.674	394.88
353.901	394.88
354.128	393.88
354.355	382.88
354.583	376.88
354.81	385.88
355.037	390.88
355.264	385.88
355.491	372.88
355.718	389.88
355.945	371.88
356.172	380.88
356.399	386.88
356.626	360.88
356.853	370.88
357.08	386.88
357.307	371.88
357.534	388.88
357.761	379.88
357.988	384.88
358.215	389.88
358.441	395.88
358.668	388.88
358.895	373.88
359.122	390.88
359.349	374.88
359.576	396.88
359.802	413.88
360.029	429.88
360.256	441.88
360.483	428.88
360.709	411.88
360.936	395.88
361.163	395.88
361.39	405.88
361.616	408.88
361.843	405.88
362.07	412.88
362.296	399.88
362.523	415.88
362.749	406.88
362.976	401.88
363.203	393.88
363.429	381.88
363.656	392.88
363.882	378.88
364.109	389.88
364.335	382.88
364.562	386.88
364.788	386.88
365.015	391.88
365.241	390.88
365.468	394.88
365.694	392.88
365.92	401.88
366.147	372.88
366.373	387.88
366.599	367.88
366.826	387.88
367.052	378.88
367.278	365.88
367.505	366.88
367.731	357.88
367.957	380.88
368.184	377.88
368.41	386.88
368.636	393.88
368.862	384.88
369.089	380.88
369.315	381.88
369.541	367.88
369.767	376.88
369.993	365.88
370.219	384.88
370.445	356.88
370.672	380.88
370.898	372.88
371.124	363.88
371.35	365.88
371.576	357.88
371.802	379.88
372.028	379.88
372.254	365.88
372.48	367.88
372.706	375.88
372.932	364.88
373.158	380.88
373.384	372.88
373.61	373.88
373.835	370.88
374.061	377.88
374.287	378.88
374.513	365.88
374.739	374.88
374.965	372.88
375.191	363.88
375.416	375.88
375.642	379.88
375.868	375.88
376.094	377.88
376.319	372.88
376.545	338.88
376.771	378.88
376.997	367.88
377.222	367.88
377.448	380.88
377.674	375.88
377.899	378.88
378.125	374.88
378.35	356.88
378.576	354.88
378.802	360.88
379.027	356.88
379.253	352.88
379.478	381.88
379.704	365.88
379.929	374.88
380.155	361.88
380.38	353.88
380.606	345.88
380.831	383.88
381.057	379.88
381.282	385.88
381.507	379.88
381.733	374.88
381.958	376.88
382.184	376.88
382.409	389.88
382.634	388.88
382.86	367.88
383.085	347.88
383.31	370.88
383.535	361.88
383.761	368.88
383.986	355.88
384.211	388.88
384.436	381.88
384.662	380.88
384.887	365.88
385.112	390.88
385.337	386.88
385.562	376.88
385.787	380.88
386.013	389.88
386.238	400.88
386.463	387.88
386.688	391.88
386.913	400.88
387.138	391.88
387.363	375.88
387.588	363.88
387.813	388.88
388.038	400.88
388.263	382.88
388.488	385.88
388.713	390.88
388.938	384.88
389.163	387.88
389.387	382.88
389.612	398.88
389.837	381.88
390.062	391.88
390.287	378.88
390.512	375.88
390.736	375.88
390.961	376.88
391.186	395.88
391.411	395.88
391.636	390.88
391.86	392.88
392.085	395.88
392.31	397.88
392.534	381.88
392.759	390.88
392.984	397.88
393.208	381.88
393.433	376.88
393.658	408.88
393.882	395.88
394.107	393.88
394.331	395.88
394.556	403.88
394.78	363.88
395.005	384.88
395.229	384.88
395.454	391.88
395.678	396.88
395.903	404.88
396.127	424.88
396.352	426.88
396.576	392.88
396.801	410.88
397.025	430.88
397.249	395.88
397.474	411.88
397.698	410.88
397.922	401.88
398.147	422.88
398.371	424.88
398.595	423.88
398.82	409.88
399.044	427.88
399.268	444.88
399.492	450.88
399.717	516.88
399.941	503.88
400.165	517.88
400.389	514.88
400.613	493.88
400.837	442.88
401.062	448.88
401.286	439.88
401.51	419.88
401.734	438.88
401.958	431.88
402.182	426.88
402.406	453.88
402.63	445.88
402.854	460.88
403.078	456.88
403.302	440.88
403.526	426.88
403.75	447.88
403.974	446.88
404.198	459.88
404.422	450.88
404.645	441.88
404.869	462.88
405.093	475.88
405.317	512.88
405.541	514.88
405.765	466.88
405.988	466.88
406.212	480.88
406.436	470.88
406.66	486.88
406.883	476.88
407.107	505.88
407.331	534.88
407.555	577.88
407.778	578.88
408.002	519.88
408.226	495.88
408.449	489.88
408.673	484.88
408.896	508.88
409.12	514.88
409.344	513.88
409.567	468.88
409.791	476.88
410.014	437.88
410.238	468.88
410.461	439.88
410.685	438.88
410.908	466.88
411.132	485.88
411.355	520.88
411.578	483.88
411.802	452.88
412.025	448.88
412.249	435.88
412.472	467.88
412.695	485.88
412.919	478.88
413.142	440.88
413.365	431.88
413.589	443.88
413.812	423.88
414.035	415.88
414.258	402.88
414.482	432.88
414.705	436.88
414.928	436.88
415.151	416.88
415.374	426.88
415.597	408.88
415.821	416.88
416.044	424.88
416.267	407.88
416.49	424.88
416.713	420.88
416.936	426.88
417.159	424.88
417.382	408.88
417.605	423.88
417.828	426.88
418.051	428.88
418.274	431.88
418.497	405.88
418.72	405.88
418.943	412.88
419.166	425.88
419.389	459.88
419.611	442.88
419.834	426.88
420.057	440.88
420.28	452.88
420.503	429.88
420.726	446.88
420.948	469.88
421.171	470.88
421.394	480.88
421.617	452.88
421.839	439.88
422.062	431.88
422.285	454.88
422.507	473.88
422.73	585.88
422.953	548.88
423.175	478.88
423.398	480.88
423.621	438.88
423.843	463.88
424.066	468.88
424.288	486.88
424.511	455.88
424.733	537.88
424.956	570.88
425.178	572.88
425.401	549.88
425.623	572.88
425.846	518.88
426.068	465.88
426.291	461.88
426.513	462.88
426.735	485.88
426.958	512.88
427.18	586.88
427.402	691.88
427.625	759.88
427.847	643.88
428.069	569.88
428.292	490.88
428.514	478.88
428.736	445.88
428.958	425.88
429.181	438.88
429.403	426.88
429.625	418.88
429.847	479.88
430.069	531.88
430.292	512.88
430.514	447.88
430.736	423.88
430.958	419.88
431.18	410.88
431.402	396.88
431.624	396.88
431.846	383.88
432.068	381.88
432.29	397.88
432.512	418.88
432.734	413.88
432.956	406.88
433.178	416.88
433.4	417.88
433.622	435.88
433.844	398.88
434.066	412.88
434.287	390.88
434.509	394.88
434.731	418.88
434.953	422.88
435.175	430.88
435.397	462.88
435.618	475.88
435.84	508.88
436.062	589.88
436.284	637.88
436.505	524.88
436.727	463.88
436.949	452.88
437.17	431.88
437.392	451.88
437.614	460.88
437.835	463.88
438.057	543.88
438.278	646.88
438.5	645.88
438.721	691.88
438.943	668.88
439.165	526.88
439.386	486.88
439.608	476.88
439.829	480.88
440.05	496.88
440.272	528.88
440.493	523.88
440.715	482.88
440.936	434.88
441.158	442.88
441.379	456.88
441.6	447.88
441.822	457.88
442.043	511.88
442.264	570.88
442.486	602.88
442.707	520.88
442.928	501.88
443.149	513.88
443.371	491.88
443.592	516.88
443.813	604.88
444.034	655.88
444.255	562.88
444.476	491.88
444.698	454.88
444.919	473.88
445.14	575.88
445.361	499.88
445.582	514.88
445.803	554.88
446.024	639.88
446.245	662.88
446.466	587.88
446.687	505.88
446.908	496.88
447.129	454.88
447.35	435.88
447.571	442.88
447.792	423.88
448.013	418.88
448.234	443.88
448.455	514.88
448.675	596.88
448.896	660.88
449.117	582.88
449.338	558.88
449.559	623.88
449.779	693.88
450	578.88
450.221	472.88
450.442	451.88
450.662	439.88
450.883	413.88
451.104	441.88
451.324	438.88
451.545	412.88
451.766	409.88
451.986	370.88
452.207	399.88
452.428	382.88
452.648	385.88
452.869	410.88
453.089	382.88
453.31	402.88
453.53	395.88
453.751	379.88
453.971	404.88
454.192	377.88
454.412	388.88
454.633	382.88
454.853	380.88
455.073	380.88
455.294	407.88
455.514	473.88
455.734	444.88
455.955	381.88
456.175	380.88
456.395	340.88
456.616	361.88
456.836	357.88
457.056	372.88
457.276	360.88
457.497	364.88
457.717	354.88
457.937	367.88
458.157	363.88
458.377	367.88
458.598	401.88
458.818	425.88
459.038	491.88
459.258	523.88
459.478	434.88
459.698	397.88
459.918	380.88
460.138	399.88
460.358	411.88
460.578	408.88
460.798	405.88
461.018	399.88
461.238	391.88
461.458	408.88
461.678	405.88
461.898	399.88
462.118	382.88
462.338	429.88
462.558	423.88
462.777	415.88
462.997	428.88
463.217	418.88
463.437	422.88
463.657	415.88
463.876	426.88
464.096	414.88
464.316	419.88
464.536	439.88
464.755	447.88
464.975	421.88
465.195	469.88
465.414	508.88
465.634	452.88
465.854	411.88
466.073	417.88
466.293	406.88
466.512	396.88
466.732	391.88
466.951	406.88
467.171	362.88
467.391	376.88
467.61	394.88
467.829	396.88
468.049	400.88
468.268	390.88
468.488	381.88
468.707	405.88
468.927	391.88
469.146	378.88
469.365	370.88
469.585	370.88
469.804	386.88
470.023	393.88
470.243	398.88
470.462	409.88
470.681	401.88
470.901	400.88
471.12	390.88
471.339	388.88
471.558	418.88
471.777	410.88
471.997	412.88
472.216	405.88
472.435	436.88
472.654	422.88
472.873	398.88
473.092	420.88
473.311	385.88
473.53	418.88
473.749	404.88
473.968	444.88
474.187	526.88
474.406	527.88
474.625	455.88
474.844	436.88
475.063	394.88
475.282	386.88
475.501	405.88
475.72	393.88
475.939	381.88
476.158	396.88
476.377	394.88
476.596	392.88
476.814	404.88
477.033	405.88
477.252	419.88
477.471	426.88
477.69	411.88
477.908	408.88
478.127	435.88
478.346	423.88
478.564	434.88
478.783	432.88
479.002	454.88
479.22	459.88
479.439	438.88
479.658	456.88
479.876	458.88
480.095	479.88
480.313	488.88
480.532	478.88
480.751	472.88
480.969	480.88
481.188	521.88
481.406	528.88
481.624	476.88
481.843	460.88
482.061	459.88
482.28	462.88
482.498	459.88
482.717	475.88
482.935	454.88
483.153	462.88
483.372	463.88
483.59	462.88
483.808	461.88
484.027	455.88
484.245	440.88
484.463	464.88
484.681	476.88
484.9	451.88
485.118	469.88
485.336	477.88
485.554	466.88
485.772	473.88
485.99	465.88
486.209	471.88
486.427	467.88
486.645	472.88
486.863	509.88
487.081	484.88
487.299	486.88
487.517	488.88
487.735	496.88
487.953	492.88
488.171	482.88
488.389	500.88
488.607	522.88
488.825	490.88
489.043	488.88
489.261	487.88
489.479	508.88
489.696	483.88
489.914	496.88
490.132	531.88
490.35	509.88
490.568	530.88
490.786	539.88
491.003	518.88
491.221	544.88
491.439	553.88
491.657	564.88
491.874	566.88
492.092	583.88
492.31	586.88
492.527	585.88
492.745	544.88
492.963	593.88
493.18	574.88
493.398	585.88
493.615	574.88
493.833	586.88
494.05	596.88
494.268	592.88
494.485	574.88
494.703	588.88
494.92	556.88
495.138	573.88
495.355	586.88
495.573	588.88
495.79	584.88
496.008	606.88
496.225	575.88
496.442	590.88
496.66	587.88
496.877	589.88
497.094	600.88
497.312	574.88
497.529	617.88
497.746	610.88
497.963	608.88
498.181	612.88
498.398	619.88
498.615	650.88
498.832	639.88
499.049	665.88
499.267	676.88
499.484	663.88
499.701	663.88
499.918	712.88
500.135	735.88
500.352	781.88
500.569	800.88
500.786	778.88
501.003	791.88
501.22	755.88
501.437	722.88
501.654	720.88
501.871	717.88
502.088	672.88
502.305	650.88
502.522	642.88
502.739	615.88
502.956	586.88
503.172	605.88
503.389	616.88
503.606	617.88
503.823	610.88
504.04	606.88
504.256	603.88
504.473	591.88
504.69	556.88
504.907	558.88
505.123	556.88
505.34	575.88
505.557	558.88
505.773	558.88
505.99	566.88
506.207	565.88
506.423	583.88
506.64	546.88
506.856	554.88
507.073	550.88
507.289	548.88
507.506	529.88
507.722	562.88
507.939	549.88
508.155	540.88
508.372	527.88
508.588	502.88
508.805	516.88
509.021	528.88
509.238	520.88
509.454	533.88
509.67	548.88
509.887	546.88
510.103	522.88
510.319	534.88
510.536	607.88
510.752	949.88
510.968	748.88
511.184	540.88
511.401	528.88
511.617	492.88
511.833	496.88
512.049	493.88
512.265	520.88
512.481	509.88
512.698	466.88
512.914	511.88
513.13	494.88
513.346	506.88
513.562	503.88
513.778	498.88
513.994	495.88
514.21	511.88
514.426	526.88
514.642	564.88
514.858	570.88
515.074	592.88
515.29	708.88
515.506	996.88
515.721	823.88
515.937	581.88
516.153	528.88
516.369	531.88
516.585	509.88
516.801	524.88
517.016	499.88
517.232	507.88
517.448	497.88
517.664	528.88
517.879	514.88
518.095	518.88
518.311	508.88
518.527	527.88
518.742	509.88
518.958	489.88
519.173	483.88
519.389	486.88
519.605	492.88
519.82	500.88
520.036	504.88
520.251	522.88
520.467	548.88
520.682	551.88
520.898	551.88
521.113	562.88
521.329	592.88
521.544	661.88
521.76	794.88
521.975	1288.88
522.19	1198.88
522.406	710.88
522.621	568.88
522.836	507.88
523.052	488.88
523.267	476.88
523.482	445.88
523.698	456.88
523.913	456.88
524.128	461.88
524.343	446.88
524.559	445.88
524.774	442.88
524.989	434.88
525.204	409.88
525.419	434.88
525.634	432.88
525.849	420.88
526.064	426.88
526.28	420.88
526.495	391.88
526.71	421.88
526.925	414.88
527.14	407.88
527.355	412.88
527.57	402.88
527.785	401.88
527.999	410.88
528.214	404.88
528.429	404.88
528.644	422.88
528.859	425.88
529.074	413.88
529.289	440.88
529.503	493.88
529.718	465.88
529.933	439.88
530.148	417.88
530.363	421.88
530.577	411.88
530.792	408.88
531.007	383.88
531.221	399.88
531.436	394.88
531.651	396.88
531.865	387.88
532.08	388.88
532.295	382.88
532.509	376.88
532.724	402.88
532.938	400.88
533.153	392.88
533.367	375.88
533.582	400.88
533.796	375.88
534.011	396.88
534.225	360.88
534.44	375.88
534.654	379.88
534.868	374.88
535.083	395.88
535.297	392.88
535.511	402.88
535.726	380.88
535.94	407.88
536.154	380.88
536.369	379.88
536.583	362.88
536.797	379.88
537.011	377.88
537.225	368.88
537.44	374.88
537.654	392.88
537.868	376.88
538.082	393.88
538.296	388.88
538.51	374.88
538.724	383.88
538.938	381.88
539.153	382.88
539.367	384.88
539.581	390.88
539.795	362.88
540.009	383.88
540.222	372.88
540.436	370.88
540.65	382.88
540.864	374.88
541.078	403.88
541.292	366.88
541.506	370.88
541.72	382.88
541.934	373.88
542.147	390.88
542.361	382.88
542.575	370.88
542.789	376.88
543.002	371.88
543.216	357.88
543.43	372.88
543.644	392.88
543.857	384.88
544.071	374.88
544.285	382.88
544.498	380.88
544.712	392.88
544.925	370.88
545.139	378.88
545.352	377.88
545.566	367.88
545.779	361.88
545.993	379.88
546.206	372.88
546.42	365.88
546.633	354.88
546.847	372.88
547.06	365.88
547.274	357.88
547.487	363.88
547.7	384.88
547.914	367.88
548.127	368.88
548.34	374.88
548.554	360.88
548.767	363.88
548.98	354.88
549.193	367.88
549.407	359.88
549.62	368.88
549.833	362.88
550.046	357.88
550.259	349.88
550.473	372.88
550.686	368.88
550.899	353.88
551.112	342.88
551.325	351.88
551.538	353.88
551.751	334.88
551.964	353.88
552.177	345.88
552.39	357.88
552.603	351.88
552.816	371.88
553.029	351.88
553.242	360.88
553.455	373.88
553.667	364.88
553.88	368.88
554.093	391.88
554.306	361.88
554.519	362.88
554.732	354.88
554.944	360.88
555.157	354.88
555.37	358.88
555.583	347.88
555.795	346.88
556.008	351.88
556.221	346.88
556.433	342.88
556.646	319.88
556.859	312.88
557.071	317.88
557.284	331.88
557.496	331.88
557.709	332.88
557.921	317.88
558.134	299.88
558.346	324.88
558.559	340.88
558.771	322.88
558.984	310.88
559.196	318.88
559.409	313.88
559.621	311.88
559.833	329.88
560.046	306.88
560.258	343.88
560.47	330.88
560.683	311.88
560.895	312.88
561.107	320.88
561.32	310.88
561.532	325.88
561.744	328.88
561.956	320.88
562.168	316.88
562.381	318.88
562.593	302.88
562.805	322.88
563.017	298.88
563.229	304.88
563.441	331.88
563.653	319.88
563.865	334.88
564.077	296.88
564.289	325.88
564.501	331.88
564.713	334.88
564.925	342.88
565.137	358.88
565.349	346.88
565.561	343.88
565.773	324.88
565.985	330.88
566.197	334.88
566.408	358.88
566.62	373.88
566.832	373.88
567.044	380.88
567.255	384.88
567.467	376.88
567.679	380.88
567.891	377.88
568.102	380.88
568.314	366.88
568.526	345.88
568.737	340.88
568.949	357.88
569.161	314.88
569.372	322.88
569.584	325.88
569.795	316.88
570.007	329.88
570.218	341.88
570.43	320.88
570.641	298.88
570.853	291.88
571.064	301.88
571.276	304.88
571.487	302.88
571.698	294.88
571.91	299.88
572.121	260.88
572.333	271.88
572.544	291.88
572.755	275.88
572.966	279.88
573.178	289.88
573.389	274.88
573.6	279.88
573.811	272.88
574.023	263.88
574.234	272.88
574.445	276.88
574.656	270.88
574.867	281.88
575.078	290.88
575.289	295.88
575.501	285.88
575.712	272.88
575.923	262.88
576.134	285.88
576.345	279.88
576.556	267.88
576.767	270.88
576.978	260.88
577.188	256.88
577.399	274.88
577.61	265.88
577.821	272.88
578.032	268.88
578.243	276.88
578.454	454.88
578.665	342.88
578.875	268.88
579.086	275.88
579.297	258.88
579.508	264.88
579.718	262.88
579.929	256.88
580.14	248.88
580.35	248.88
580.561	249.88
580.772	245.88
580.982	244.88
581.193	226.88
581.403	234.88
581.614	249.88
581.825	257.88
582.035	239.88
582.246	237.88
582.456	250.88
582.667	250.88
582.877	238.88
583.087	239.88
583.298	236.88
583.508	230.88
583.719	246.88
583.929	258.88
584.139	230.88
584.35	258.88
584.56	244.88
584.77	237.88
584.981	244.88
585.191	248.88
585.401	240.88
585.611	224.88
585.821	242.88
586.032	230.88
586.242	226.88
586.452	239.88
586.662	224.88
586.872	226.88
587.082	232.88
587.292	225.88
587.502	245.88
587.713	230.88
587.923	240.88
588.133	246.88
588.343	234.88
588.553	260.88
588.762	233.88
588.972	252.88
589.182	227.88
589.392	231.88
589.602	248.88
589.812	244.88
590.022	221.88
590.232	239.88
590.441	245.88
590.651	225.88
590.861	232.88
591.071	227.88
591.281	236.88
591.49	237.88
591.7	248.88
591.91	243.88
592.119	231.88
592.329	246.88
592.539	250.88
592.748	249.88
592.958	247.88
593.167	224.88
593.377	249.88
593.587	264.88
593.796	251.88
594.006	245.88
594.215	256.88
594.424	247.88
594.634	265.88
594.843	236.88
595.053	240.88
595.262	245.88
595.472	230.88
595.681	221.88
595.89	254.88
596.1	215.88
596.309	218.88
596.518	231.88
596.727	229.88
596.937	216.88
597.146	239.88
597.355	238.88
597.564	216.88
597.774	237.88
597.983	202.88
598.192	218.88
598.401	222.88
598.61	222.88
598.819	207.88
599.028	225.88
599.237	206.88
599.446	219.88
599.655	212.88
599.864	199.88
600.073	201.88
600.282	208.88
600.491	223.88
600.7	212.88
600.909	214.88
601.118	205.88
601.327	203.88
601.536	219.88
601.745	208.88
601.953	219.88
602.162	220.88
602.371	204.88
602.58	210.88
602.789	205.88
602.997	213.88
603.206	220.88
603.415	196.88
603.623	205.88
603.832	204.88
604.041	208.88
604.249	205.88
604.458	225.88
604.666	199.88
604.875	208.88
605.084	204.88
605.292	206.88
605.501	208.88
605.709	209.88
605.918	216.88
606.126	210.88
606.334	213.88
606.543	207.88
606.751	211.88
606.96	199.88
607.168	207.88
607.376	214.88
607.585	205.88
607.793	203.88
608.001	202.88
608.21	210.88
608.418	208.88
608.626	214.88
608.834	200.88
609.043	208.88
609.251	207.88
609.459	191.88
609.667	208.88
609.875	203.88
610.083	218.88
610.291	218.88
610.499	221.88
610.707	210.88
610.916	218.88
611.124	217.88
611.332	196.88
611.54	207.88
611.748	225.88
611.955	213.88
612.163	206.88
612.371	200.88
612.579	205.88
612.787	210.88
612.995	202.88
613.203	200.88
613.411	193.88
613.618	210.88
613.826	216.88
614.034	215.88
614.242	209.88
614.449	201.88
614.657	201.88
614.865	215.88
615.072	202.88
615.28	202.88
615.488	187.88
615.695	216.88
615.903	202.88
616.111	217.88
616.318	209.88
616.526	208.88
616.733	191.88
616.941	195.88
617.148	215.88
617.356	186.88
617.563	216.88
617.771	209.88
617.978	194.88
618.185	203.88
618.393	200.88
618.6	216.88
618.807	195.88
619.015	194.88
619.222	200.88
619.429	178.88
619.637	198.88
619.844	200.88
620.051	202.88
620.258	186.88
620.466	187.88
620.673	193.88
620.88	189.88
621.087	184.88
621.294	182.88
621.501	190.88
621.708	199.88
621.915	181.88
622.122	199.88
622.329	190.88
622.536	186.88
622.743	190.88
622.95	195.88
623.157	200.88
623.364	184.88
623.571	194.88
623.778	187.88
623.985	196.88
624.192	178.88
624.399	200.88
624.606	190.88
624.812	179.88
625.019	179.88
625.226	184.88
625.433	188.88
625.639	175.88
625.846	180.88
626.053	173.88
626.259	181.88
626.466	190.88
626.673	190.88
626.879	171.88
627.086	194.88
627.293	178.88
627.499	189.88
627.706	173.88
627.912	183.88
628.119	174.88
628.325	190.88
628.532	178.88
628.738	198.88
628.945	171.88
629.151	179.88
629.357	180.88
629.564	159.88
629.77	173.88
629.976	178.88
630.183	182.88
630.389	167.88
630.595	166.88
630.802	168.88
631.008	170.88
631.214	176.88
631.42	173.88
631.627	180.88
631.833	174.88
632.039	180.88
632.245	172.88
632.451	163.88
632.657	171.88
632.863	155.88
633.069	170.88
633.275	167.88
633.481	175.88
633.688	154.88
633.893	174.88
634.099	184.88
634.305	154.88
634.511	149.88
634.717	149.88
634.923	159.88
635.129	154.88
635.335	158.88
635.541	155.88
635.747	158.88
635.952	151.88
636.158	160.88
636.364	162.88
636.57	167.88
636.775	148.88
636.981	166.88
637.187	172.88
637.392	167.88
637.598	164.88
637.804	164.88
638.009	156.88
638.215	155.88
638.421	145.88
638.626	155.88
638.832	156.88
639.037	150.88
639.243	146.88
639.448	152.88
639.654	164.88
639.859	157.88
640.065	148.88
640.27	153.88
640.475	141.88
640.681	164.88
640.886	163.88
641.091	149.88
641.297	176.88
641.502	153.88
641.707	152.88
641.913	154.88
642.118	163.88
642.323	154.88
642.528	157.88
642.733	134.88
642.939	154.88
643.144	151.88
643.349	160.88
643.554	162.88
643.759	159.88
643.964	161.88
644.169	156.88
644.374	154.88
644.579	142.88
644.784	150.88
644.989	157.88
645.194	168.88
645.399	152.88
645.604	152.88
645.809	157.88
646.014	153.88
646.219	171.88
646.423	142.88
646.628	164.88
646.833	141.88
647.038	158.88
647.243	152.88
647.447	156.88
647.652	151.88
647.857	146.88
648.062	151.88
648.266	160.88
648.471	150.88
648.676	161.88
648.88	152.88
649.085	144.88
649.289	153.88
649.494	159.88
649.698	160.88
649.903	165.88
650.107	157.88
650.312	151.88
650.516	148.88
650.721	143.88
650.925	141.88
651.13	151.88
651.334	136.88
651.539	140.88
651.743	135.88
651.947	127.88
652.152	123.88
652.356	131.88
652.56	142.88
652.764	135.88
652.969	129.88
653.173	136.88
653.377	132.88
653.581	123.88
653.785	142.88
653.99	135.88
654.194	143.88
654.398	125.88
654.602	115.88
654.806	120.88
655.01	133.88
655.214	130.88
655.418	140.88
655.622	135.88
655.826	132.88
656.03	132.88
656.234	122.88
656.438	118.88
656.642	116.88
656.846	131.88
657.049	115.88
657.253	109.88
657.457	119.88
657.661	124.88
657.865	117.88
658.068	110.88
658.272	92.88
658.476	82.88
658.68	99.88
658.883	107.88
659.087	106.88
659.291	106.88
659.494	109.88
659.698	104.88
659.901	92.88
660.105	106.88
660.309	88.88
660.512	85.88
660.716	115.88
660.919	82.88
661.123	82.88
661.326	83.88
661.53	91.88
661.733	80.88
661.936	95.88
662.14	94.88
662.343	79.88
662.546	61.88
662.75	78.88
662.953	73.88
663.156	91.88
663.36	85.88
663.563	94.88
663.766	70.88
663.969	97.88
664.173	79.88
664.376	83.88
664.579	89.88
664.782	87.88
664.985	83.88
665.188	84.88
665.391	87.88
665.594	85.88
665.797	96.88
666	77.88
666.203	97.88
666.406	88.88
666.609	101.88
666.812	73.88
667.015	85.88
667.218	66.88
667.421	88.88
667.624	88.88
667.827	88.88
668.03	80.88
668.232	93.88
668.435	88.88
668.638	87.88
668.841	72.88
669.043	85.88
669.246	85.88
669.449	80.88
669.651	82.88
669.854	82.88
670.057	94.88
670.259	98.88
670.462	85.88
670.665	89.88
670.867	74.88
671.07	91.88
671.272	89.88
671.475	83.88
671.677	77.88
671.88	78.88
672.082	80.88
672.284	80.88
672.487	80.88
672.689	82.88
672.892	68.88
