Data from 1971.PennyLincolnUp.Lamp.En5.5.200Scan.071719.P1.Scan 2. Changed Angle._HRD10591_15-23-51-842.txt Node
Date: Thu Jul 18 15:23:51 EDT 2019
User: cochatt
Spectrometer: HR+D1059
Trigger mode: 1
Integration Time (sec): 1.000000E-1
Scans to average: 1
Electric dark correction enabled: true
Nonlinearity correction enabled: false
Boxcar width: 0
XAxis mode: Wavelengths
Number of Pixels in Spectrum: 2048
>>>>>Begin Spectral Data<<<<<
223.165	-12.94
223.4	-12.94
223.635	-12.94
223.869	-14.94
224.104	-19.94
224.338	-12.94
224.573	-5.94
224.808	-11.94
225.042	-18.94
225.277	-0.94
225.511	4.06
225.746	6.06
225.98	13.06
226.215	12.06
226.449	6.06
226.683	10.06
226.918	23.06
227.152	24.06
227.387	38.06
227.621	43.06
227.856	52.06
228.09	56.06
228.324	43.06
228.559	66.06
228.793	72.06
229.027	127.06
229.262	129.06
229.496	123.06
229.73	146.06
229.964	162.06
230.199	133.06
230.433	131.06
230.667	116.06
230.901	124.06
231.136	132.06
231.37	124.06
231.604	118.06
231.838	102.06
232.072	108.06
232.306	118.06
232.541	97.06
232.775	112.06
233.009	104.06
233.243	109.06
233.477	106.06
233.711	116.06
233.945	114.06
234.179	118.06
234.413	116.06
234.647	132.06
234.881	121.06
235.115	114.06
235.349	121.06
235.583	118.06
235.817	108.06
236.051	124.06
236.285	129.06
236.519	131.06
236.753	131.06
236.987	165.06
237.221	189.06
237.455	260.06
237.689	220.06
237.922	140.06
238.156	142.06
238.39	152.06
238.624	117.06
238.858	132.06
239.091	107.06
239.325	136.06
239.559	150.06
239.793	122.06
240.027	129.06
240.26	162.06
240.494	161.06
240.728	150.06
240.961	151.06
241.195	139.06
241.429	136.06
241.662	156.06
241.896	128.06
242.13	143.06
242.363	130.06
242.597	145.06
242.83	153.06
243.064	157.06
243.298	146.06
243.531	139.06
243.765	148.06
243.998	135.06
244.232	151.06
244.465	157.06
244.699	167.06
244.932	145.06
245.166	157.06
245.399	151.06
245.633	165.06
245.866	146.06
246.099	156.06
246.333	145.06
246.566	162.06
246.8	164.06
247.033	164.06
247.266	166.06
247.5	157.06
247.733	170.06
247.966	165.06
248.2	177.06
248.433	177.06
248.666	186.06
248.899	201.06
249.133	197.06
249.366	220.06
249.599	214.06
249.832	190.06
250.066	184.06
250.299	199.06
250.532	202.06
250.765	203.06
250.998	236.06
251.231	250.06
251.465	227.06
251.698	219.06
251.931	213.06
252.164	193.06
252.397	216.06
252.63	226.06
252.863	205.06
253.096	220.06
253.329	239.06
253.562	226.06
253.795	244.06
254.028	242.06
254.261	240.06
254.494	237.06
254.727	277.06
254.96	297.06
255.193	280.06
255.426	278.06
255.659	244.06
255.892	252.06
256.124	258.06
256.357	242.06
256.59	247.06
256.823	237.06
257.056	198.06
257.289	212.06
257.521	246.06
257.754	218.06
257.987	224.06
258.22	214.06
258.452	212.06
258.685	205.06
258.918	222.06
259.151	207.06
259.383	217.06
259.616	219.06
259.849	223.06
260.081	242.06
260.314	257.06
260.547	283.06
260.779	279.06
261.012	267.06
261.244	244.06
261.477	226.06
261.71	213.06
261.942	232.06
262.175	258.06
262.407	242.06
262.64	210.06
262.872	228.06
263.105	200.06
263.337	210.06
263.57	208.06
263.802	215.06
264.035	213.06
264.267	213.06
264.499	211.06
264.732	219.06
264.964	209.06
265.197	205.06
265.429	201.06
265.661	211.06
265.894	207.06
266.126	195.06
266.358	214.06
266.591	207.06
266.823	222.06
267.055	218.06
267.287	213.06
267.52	222.06
267.752	221.06
267.984	220.06
268.216	252.06
268.448	225.06
268.681	225.06
268.913	241.06
269.145	264.06
269.377	284.06
269.609	284.06
269.841	267.06
270.073	267.06
270.306	311.06
270.538	325.06
270.77	316.06
271.002	306.06
271.234	302.06
271.466	300.06
271.698	320.06
271.93	315.06
272.162	323.06
272.394	331.06
272.626	308.06
272.858	287.06
273.09	285.06
273.322	256.06
273.553	261.06
273.785	269.06
274.017	254.06
274.249	253.06
274.481	273.06
274.713	251.06
274.945	267.06
275.176	265.06
275.408	238.06
275.64	245.06
275.872	246.06
276.104	264.06
276.335	246.06
276.567	267.06
276.799	306.06
277.031	310.06
277.262	297.06
277.494	310.06
277.726	312.06
277.957	280.06
278.189	250.06
278.421	281.06
278.652	281.06
278.884	263.06
279.115	271.06
279.347	264.06
279.579	256.06
279.81	264.06
280.042	261.06
280.273	258.06
280.505	260.06
280.736	251.06
280.968	237.06
281.199	243.06
281.431	256.06
281.662	248.06
281.894	242.06
282.125	266.06
282.356	292.06
282.588	292.06
282.819	283.06
283.051	276.06
283.282	259.06
283.513	264.06
283.745	272.06
283.976	272.06
284.207	257.06
284.439	273.06
284.67	264.06
284.901	269.06
285.132	259.06
285.364	256.06
285.595	241.06
285.826	255.06
286.057	262.06
286.288	268.06
286.52	246.06
286.751	269.06
286.982	260.06
287.213	264.06
287.444	273.06
287.675	272.06
287.906	270.06
288.138	278.06
288.369	268.06
288.6	276.06
288.831	288.06
289.062	286.06
289.293	270.06
289.524	260.06
289.755	283.06
289.986	284.06
290.217	277.06
290.448	267.06
290.679	269.06
290.91	285.06
291.141	278.06
291.371	247.06
291.602	258.06
291.833	267.06
292.064	260.06
292.295	276.06
292.526	280.06
292.757	285.06
292.987	271.06
293.218	263.06
293.449	284.06
293.68	282.06
293.91	266.06
294.141	258.06
294.372	261.06
294.603	250.06
294.833	272.06
295.064	264.06
295.295	253.06
295.525	273.06
295.756	289.06
295.987	286.06
296.217	316.06
296.448	326.06
296.679	297.06
296.909	284.06
297.14	273.06
297.37	270.06
297.601	290.06
297.831	281.06
298.062	290.06
298.292	269.06
298.523	281.06
298.753	274.06
298.984	290.06
299.214	277.06
299.445	280.06
299.675	285.06
299.905	288.06
300.136	306.06
300.366	284.06
300.597	288.06
300.827	286.06
301.057	316.06
301.288	308.06
301.518	305.06
301.748	306.06
301.979	315.06
302.209	317.06
302.439	321.06
302.669	298.06
302.9	318.06
303.13	311.06
303.36	304.06
303.59	294.06
303.82	321.06
304.051	314.06
304.281	297.06
304.511	300.06
304.741	295.06
304.971	308.06
305.201	302.06
305.431	290.06
305.661	305.06
305.891	295.06
306.121	318.06
306.352	302.06
306.582	321.06
306.812	321.06
307.042	303.06
307.272	321.06
307.502	300.06
307.731	310.06
307.961	294.06
308.191	297.06
308.421	315.06
308.651	325.06
308.881	315.06
309.111	331.06
309.341	344.06
309.571	336.06
309.8	305.06
310.03	353.06
310.26	353.06
310.49	366.06
310.72	362.06
310.949	394.06
311.179	419.06
311.409	378.06
311.639	368.06
311.868	360.06
312.098	355.06
312.328	389.06
312.557	418.06
312.787	416.06
313.017	400.06
313.246	381.06
313.476	376.06
313.706	354.06
313.935	377.06
314.165	374.06
314.394	377.06
314.624	387.06
314.853	384.06
315.083	356.06
315.312	363.06
315.542	349.06
315.771	351.06
316.001	359.06
316.23	354.06
316.46	347.06
316.689	370.06
316.919	366.06
317.148	372.06
317.377	375.06
317.607	389.06
317.836	368.06
318.065	356.06
318.295	380.06
318.524	355.06
318.753	359.06
318.983	355.06
319.212	369.06
319.441	370.06
319.67	389.06
319.9	389.06
320.129	377.06
320.358	379.06
320.587	373.06
320.816	373.06
321.046	388.06
321.275	376.06
321.504	390.06
321.733	394.06
321.962	405.06
322.191	430.06
322.42	430.06
322.649	460.06
322.878	438.06
323.108	478.06
323.337	523.06
323.566	525.06
323.795	573.06
324.024	618.06
324.253	774.06
324.482	1144.06
324.71	1764.06
324.939	2528.06
325.168	2164.06
325.397	1117.06
325.626	736.06
325.855	619.06
326.084	580.06
326.313	542.06
326.542	531.06
326.77	592.06
326.999	700.06
327.228	987.06
327.457	1538.06
327.686	1853.06
327.914	1255.06
328.143	833.06
328.372	733.06
328.6	650.06
328.829	615.06
329.058	631.06
329.287	645.06
329.515	596.06
329.744	546.06
329.972	548.06
330.201	567.06
330.43	617.06
330.658	646.06
330.887	669.06
331.115	659.06
331.344	557.06
331.572	502.06
331.801	489.06
332.03	492.06
332.258	458.06
332.486	474.06
332.715	422.06
332.943	449.06
333.172	434.06
333.4	436.06
333.629	438.06
333.857	473.06
334.085	476.06
334.314	496.06
334.542	500.06
334.771	528.06
334.999	484.06
335.227	460.06
335.455	441.06
335.684	446.06
335.912	425.06
336.14	420.06
336.369	419.06
336.597	446.06
336.825	456.06
337.053	434.06
337.281	417.06
337.51	396.06
337.738	439.06
337.966	413.06
338.194	438.06
338.422	412.06
338.65	429.06
338.878	430.06
339.106	401.06
339.334	412.06
339.562	410.06
339.79	397.06
340.018	417.06
340.246	414.06
340.474	425.06
340.702	405.06
340.93	418.06
341.158	416.06
341.386	422.06
341.614	429.06
341.842	409.06
342.07	408.06
342.298	413.06
342.526	405.06
342.754	397.06
342.981	398.06
343.209	398.06
343.437	411.06
343.665	398.06
343.893	412.06
344.12	408.06
344.348	416.06
344.576	423.06
344.804	429.06
345.031	426.06
345.259	468.06
345.487	434.06
345.714	427.06
345.942	422.06
346.17	400.06
346.397	395.06
346.625	410.06
346.853	398.06
347.08	397.06
347.308	422.06
347.535	441.06
347.763	450.06
347.99	430.06
348.218	437.06
348.445	442.06
348.673	441.06
348.9	408.06
349.128	413.06
349.355	398.06
349.583	418.06
349.81	399.06
350.037	411.06
350.265	398.06
350.492	414.06
350.72	424.06
350.947	405.06
351.174	429.06
351.402	431.06
351.629	445.06
351.856	408.06
352.083	416.06
352.311	436.06
352.538	450.06
352.765	443.06
352.992	409.06
353.22	420.06
353.447	435.06
353.674	399.06
353.901	398.06
354.128	400.06
354.355	395.06
354.583	404.06
354.81	386.06
355.037	384.06
355.264	391.06
355.491	357.06
355.718	369.06
355.945	377.06
356.172	396.06
356.399	385.06
356.626	374.06
356.853	378.06
357.08	396.06
357.307	376.06
357.534	376.06
357.761	395.06
357.988	383.06
358.215	382.06
358.441	380.06
358.668	380.06
358.895	390.06
359.122	406.06
359.349	413.06
359.576	438.06
359.802	456.06
360.029	492.06
360.256	505.06
360.483	436.06
360.709	436.06
360.936	408.06
361.163	425.06
361.39	430.06
361.616	418.06
361.843	407.06
362.07	418.06
362.296	408.06
362.523	397.06
362.749	424.06
362.976	420.06
363.203	404.06
363.429	402.06
363.656	409.06
363.882	381.06
364.109	388.06
364.335	370.06
364.562	381.06
364.788	382.06
365.015	405.06
365.241	396.06
365.468	424.06
365.694	404.06
365.92	404.06
366.147	395.06
366.373	386.06
366.599	391.06
366.826	397.06
367.052	397.06
367.278	392.06
367.505	404.06
367.731	398.06
367.957	393.06
368.184	402.06
368.41	396.06
368.636	416.06
368.862	427.06
369.089	403.06
369.315	401.06
369.541	395.06
369.767	390.06
369.993	388.06
370.219	407.06
370.445	403.06
370.672	377.06
370.898	382.06
371.124	375.06
371.35	399.06
371.576	378.06
371.802	369.06
372.028	388.06
372.254	385.06
372.48	392.06
372.706	390.06
372.932	380.06
373.158	404.06
373.384	391.06
373.61	388.06
373.835	382.06
374.061	379.06
374.287	401.06
374.513	388.06
374.739	404.06
374.965	408.06
375.191	389.06
375.416	390.06
375.642	394.06
375.868	390.06
376.094	404.06
376.319	380.06
376.545	393.06
376.771	383.06
376.997	384.06
377.222	398.06
377.448	394.06
377.674	412.06
377.899	396.06
378.125	386.06
378.35	376.06
378.576	378.06
378.802	385.06
379.027	385.06
379.253	399.06
379.478	390.06
379.704	402.06
379.929	390.06
380.155	398.06
380.38	418.06
380.606	410.06
380.831	400.06
381.057	404.06
381.282	380.06
381.507	389.06
381.733	414.06
381.958	376.06
382.184	396.06
382.409	397.06
382.634	393.06
382.86	402.06
383.085	397.06
383.31	424.06
383.535	402.06
383.761	414.06
383.986	393.06
384.211	426.06
384.436	406.06
384.662	404.06
384.887	409.06
385.112	414.06
385.337	413.06
385.562	417.06
385.787	419.06
386.013	428.06
386.238	423.06
386.463	437.06
386.688	432.06
386.913	439.06
387.138	426.06
387.363	424.06
387.588	413.06
387.813	410.06
388.038	425.06
388.263	424.06
388.488	420.06
388.713	415.06
388.938	408.06
389.163	413.06
389.387	417.06
389.612	420.06
389.837	401.06
390.062	439.06
390.287	444.06
390.512	429.06
390.736	421.06
390.961	402.06
391.186	396.06
391.411	412.06
391.636	411.06
391.86	442.06
392.085	426.06
392.31	444.06
392.534	415.06
392.759	446.06
392.984	447.06
393.208	433.06
393.433	433.06
393.658	421.06
393.882	402.06
394.107	435.06
394.331	448.06
394.556	445.06
394.78	412.06
395.005	425.06
395.229	426.06
395.454	434.06
395.678	446.06
395.903	451.06
396.127	466.06
396.352	480.06
396.576	456.06
396.801	422.06
397.025	460.06
397.249	460.06
397.474	434.06
397.698	458.06
397.922	453.06
398.147	468.06
398.371	493.06
398.595	469.06
398.82	474.06
399.044	473.06
399.268	490.06
399.492	501.06
399.717	520.06
399.941	555.06
400.165	569.06
400.389	581.06
400.613	540.06
400.837	528.06
401.062	483.06
401.286	488.06
401.51	479.06
401.734	481.06
401.958	499.06
402.182	497.06
402.406	497.06
402.63	498.06
402.854	493.06
403.078	493.06
403.302	491.06
403.526	514.06
403.75	485.06
403.974	494.06
404.198	506.06
404.422	509.06
404.645	525.06
404.869	520.06
405.093	552.06
405.317	573.06
405.541	644.06
405.765	564.06
405.988	565.06
406.212	569.06
406.436	584.06
406.66	570.06
406.883	568.06
407.107	590.06
407.331	614.06
407.555	715.06
407.778	667.06
408.002	621.06
408.226	596.06
408.449	572.06
408.673	532.06
408.896	598.06
409.12	644.06
409.344	599.06
409.567	544.06
409.791	547.06
410.014	532.06
410.238	499.06
410.461	528.06
410.685	517.06
410.908	527.06
411.132	590.06
411.355	618.06
411.578	584.06
411.802	536.06
412.025	520.06
412.249	510.06
412.472	538.06
412.695	588.06
412.919	582.06
413.142	572.06
413.365	502.06
413.589	507.06
413.812	493.06
414.035	503.06
414.258	480.06
414.482	485.06
414.705	496.06
414.928	481.06
415.151	472.06
415.374	474.06
415.597	478.06
415.821	455.06
416.044	470.06
416.267	515.06
416.49	490.06
416.713	468.06
416.936	504.06
417.159	483.06
417.382	486.06
417.605	499.06
417.828	480.06
418.051	520.06
418.274	507.06
418.497	486.06
418.72	493.06
418.943	516.06
419.166	493.06
419.389	531.06
419.611	540.06
419.834	531.06
420.057	500.06
420.28	547.06
420.503	523.06
420.726	514.06
420.948	540.06
421.171	613.06
421.394	613.06
421.617	573.06
421.839	512.06
422.062	521.06
422.285	561.06
422.507	605.06
422.73	679.06
422.953	662.06
423.175	578.06
423.398	574.06
423.621	570.06
423.843	576.06
424.066	598.06
424.288	567.06
424.511	594.06
424.733	627.06
424.956	724.06
425.178	702.06
425.401	711.06
425.623	730.06
425.846	624.06
426.068	606.06
426.291	577.06
426.513	582.06
426.735	591.06
426.958	634.06
427.18	729.06
427.402	845.06
427.625	924.06
427.847	872.06
428.069	750.06
428.292	679.06
428.514	603.06
428.736	548.06
428.958	549.06
429.181	573.06
429.403	560.06
429.625	556.06
429.847	606.06
430.069	665.06
430.292	662.06
430.514	552.06
430.736	528.06
430.958	536.06
431.18	494.06
431.402	500.06
431.624	484.06
431.846	493.06
432.068	498.06
432.29	503.06
432.512	484.06
432.734	518.06
432.956	496.06
433.178	508.06
433.4	537.06
433.622	524.06
433.844	493.06
434.066	498.06
434.287	501.06
434.509	526.06
434.731	504.06
434.953	525.06
435.175	542.06
435.397	612.06
435.618	571.06
435.84	673.06
436.062	716.06
436.284	794.06
436.505	667.06
436.727	611.06
436.949	571.06
437.17	550.06
437.392	514.06
437.614	580.06
437.835	608.06
438.057	713.06
438.278	828.06
438.5	852.06
438.721	877.06
438.943	837.06
439.165	667.06
439.386	646.06
439.608	606.06
439.829	610.06
440.05	651.06
440.272	681.06
440.493	648.06
440.715	589.06
440.936	576.06
441.158	555.06
441.379	520.06
441.6	556.06
441.822	602.06
442.043	625.06
442.264	721.06
442.486	749.06
442.707	657.06
442.928	599.06
443.149	608.06
443.371	629.06
443.592	680.06
443.813	776.06
444.034	825.06
444.255	706.06
444.476	620.06
444.698	608.06
444.919	566.06
445.14	676.06
445.361	654.06
445.582	644.06
445.803	728.06
446.024	820.06
446.245	826.06
446.466	754.06
446.687	652.06
446.908	610.06
447.129	562.06
447.35	538.06
447.571	564.06
447.792	561.06
448.013	576.06
448.234	562.06
448.455	620.06
448.675	729.06
448.896	860.06
449.117	731.06
449.338	703.06
449.559	818.06
449.779	892.06
450	718.06
450.221	621.06
450.442	564.06
450.662	552.06
450.883	556.06
451.104	565.06
451.324	545.06
451.545	559.06
451.766	525.06
451.986	495.06
452.207	502.06
452.428	488.06
452.648	488.06
452.869	500.06
453.089	485.06
453.31	523.06
453.53	503.06
453.751	494.06
453.971	525.06
454.192	530.06
454.412	523.06
454.633	498.06
454.853	486.06
455.073	490.06
455.294	534.06
455.514	602.06
455.734	591.06
455.955	505.06
456.175	484.06
456.395	462.06
456.616	451.06
456.836	444.06
457.056	441.06
457.276	442.06
457.497	467.06
457.717	442.06
457.937	461.06
458.157	460.06
458.377	453.06
458.598	496.06
458.818	585.06
459.038	689.06
459.258	704.06
459.478	569.06
459.698	517.06
459.918	498.06
460.138	525.06
460.358	509.06
460.578	490.06
460.798	492.06
461.018	534.06
461.238	488.06
461.458	504.06
461.678	480.06
461.898	480.06
462.118	468.06
462.338	500.06
462.558	507.06
462.777	488.06
462.997	515.06
463.217	513.06
463.437	519.06
463.657	519.06
463.876	512.06
464.096	509.06
464.316	518.06
464.536	529.06
464.755	524.06
464.975	540.06
465.195	612.06
465.414	732.06
465.634	618.06
465.854	572.06
466.073	542.06
466.293	520.06
466.512	490.06
466.732	486.06
466.951	481.06
467.171	487.06
467.391	504.06
467.61	534.06
467.829	531.06
468.049	515.06
468.268	489.06
468.488	500.06
468.707	510.06
468.927	479.06
469.146	481.06
469.365	499.06
469.585	480.06
469.804	506.06
470.023	516.06
470.243	528.06
470.462	516.06
470.681	540.06
470.901	537.06
471.12	516.06
471.339	493.06
471.558	499.06
471.777	479.06
471.997	500.06
472.216	501.06
472.435	530.06
472.654	549.06
472.873	514.06
473.092	497.06
473.311	496.06
473.53	510.06
473.749	514.06
473.968	581.06
474.187	681.06
474.406	698.06
474.625	580.06
474.844	525.06
475.063	505.06
475.282	506.06
475.501	499.06
475.72	514.06
475.939	529.06
476.158	522.06
476.377	507.06
476.596	548.06
476.814	536.06
477.033	558.06
477.252	516.06
477.471	550.06
477.69	560.06
477.908	530.06
478.127	570.06
478.346	549.06
478.564	566.06
478.783	560.06
479.002	555.06
479.22	569.06
479.439	585.06
479.658	599.06
479.876	608.06
480.095	588.06
480.313	634.06
480.532	628.06
480.751	610.06
480.969	626.06
481.188	686.06
481.406	767.06
481.624	654.06
481.843	625.06
482.061	624.06
482.28	616.06
482.498	582.06
482.717	601.06
482.935	619.06
483.153	585.06
483.372	595.06
483.59	632.06
483.808	598.06
484.027	601.06
484.245	588.06
484.463	601.06
484.681	614.06
484.9	634.06
485.118	601.06
485.336	621.06
485.554	604.06
485.772	613.06
485.99	613.06
486.209	616.06
486.427	640.06
486.645	623.06
486.863	663.06
487.081	653.06
487.299	663.06
487.517	646.06
487.735	658.06
487.953	681.06
488.171	650.06
488.389	651.06
488.607	644.06
488.825	640.06
489.043	644.06
489.261	652.06
489.479	670.06
489.696	680.06
489.914	677.06
490.132	680.06
490.35	693.06
490.568	667.06
490.786	700.06
491.003	717.06
491.221	759.06
491.439	754.06
491.657	775.06
491.874	771.06
492.092	772.06
492.31	785.06
492.527	780.06
492.745	789.06
492.963	790.06
493.18	793.06
493.398	791.06
493.615	812.06
493.833	785.06
494.05	817.06
494.268	797.06
494.485	793.06
494.703	806.06
494.92	792.06
495.138	804.06
495.355	801.06
495.573	794.06
495.79	780.06
496.008	783.06
496.225	812.06
496.442	798.06
496.66	785.06
496.877	789.06
497.094	781.06
497.312	811.06
497.529	831.06
497.746	837.06
497.963	845.06
498.181	847.06
498.398	826.06
498.615	856.06
498.832	879.06
499.049	855.06
499.267	845.06
499.484	875.06
499.701	886.06
499.918	914.06
500.135	939.06
500.352	957.06
500.569	1003.06
500.786	985.06
501.003	965.06
501.22	965.06
501.437	942.06
501.654	923.06
501.871	910.06
502.088	923.06
502.305	880.06
502.522	846.06
502.739	833.06
502.956	828.06
503.172	814.06
503.389	816.06
503.606	800.06
503.823	827.06
504.04	827.06
504.256	768.06
504.473	787.06
504.69	778.06
504.907	772.06
505.123	732.06
505.34	795.06
505.557	740.06
505.773	788.06
505.99	785.06
506.207	771.06
506.423	791.06
506.64	761.06
506.856	719.06
507.073	735.06
507.289	735.06
507.506	759.06
507.722	763.06
507.939	792.06
508.155	733.06
508.372	732.06
508.588	728.06
508.805	737.06
509.021	732.06
509.238	749.06
509.454	741.06
509.67	740.06
509.887	701.06
510.103	745.06
510.319	745.06
510.536	891.06
510.752	1499.06
510.968	1208.06
511.184	788.06
511.401	745.06
511.617	716.06
511.833	730.06
512.049	686.06
512.265	678.06
512.481	701.06
512.698	694.06
512.914	685.06
513.13	703.06
513.346	697.06
513.562	688.06
513.778	700.06
513.994	723.06
514.21	733.06
514.426	777.06
514.642	820.06
514.858	883.06
515.074	904.06
515.29	1119.06
515.506	1708.06
515.721	1405.06
515.937	926.06
516.153	792.06
516.369	780.06
516.585	712.06
516.801	712.06
517.016	701.06
517.232	714.06
517.448	718.06
517.664	705.06
517.879	692.06
518.095	694.06
518.311	683.06
518.527	690.06
518.742	678.06
518.958	675.06
519.173	677.06
519.389	723.06
519.605	692.06
519.82	712.06
520.036	723.06
520.251	753.06
520.467	794.06
520.682	811.06
520.898	780.06
521.113	803.06
521.329	876.06
521.544	1060.06
521.76	1349.06
521.975	2283.06
522.19	2295.06
522.406	1159.06
522.621	890.06
522.836	805.06
523.052	732.06
523.267	692.06
523.482	655.06
523.698	661.06
523.913	655.06
524.128	668.06
524.343	661.06
524.559	634.06
524.774	598.06
524.989	634.06
525.204	632.06
525.419	619.06
525.634	583.06
525.849	593.06
526.064	600.06
526.28	593.06
526.495	572.06
526.71	568.06
526.925	565.06
527.14	562.06
527.355	555.06
527.57	559.06
527.785	562.06
527.999	549.06
528.214	578.06
528.429	568.06
528.644	532.06
528.859	533.06
529.074	568.06
529.289	613.06
529.503	710.06
529.718	695.06
529.933	626.06
530.148	572.06
530.363	576.06
530.577	548.06
530.792	562.06
531.007	536.06
531.221	548.06
531.436	557.06
531.651	530.06
531.865	537.06
532.08	541.06
532.295	513.06
532.509	522.06
532.724	543.06
532.938	530.06
533.153	510.06
533.367	525.06
533.582	522.06
533.796	524.06
534.011	526.06
534.225	508.06
534.44	493.06
534.654	510.06
534.868	519.06
535.083	532.06
535.297	532.06
535.511	516.06
535.726	548.06
535.94	525.06
536.154	514.06
536.369	526.06
536.583	519.06
536.797	505.06
537.011	491.06
537.225	518.06
537.44	493.06
537.654	520.06
537.868	480.06
538.082	500.06
538.296	522.06
538.51	499.06
538.724	500.06
538.938	526.06
539.153	496.06
539.367	540.06
539.581	543.06
539.795	532.06
540.009	497.06
540.222	499.06
540.436	518.06
540.65	521.06
540.864	524.06
541.078	521.06
541.292	520.06
541.506	501.06
541.72	518.06
541.934	516.06
542.147	511.06
542.361	496.06
542.575	505.06
542.789	491.06
543.002	479.06
543.216	492.06
543.43	521.06
543.644	512.06
543.857	495.06
544.071	509.06
544.285	494.06
544.498	496.06
544.712	500.06
544.925	513.06
545.139	484.06
545.352	497.06
545.566	505.06
545.779	504.06
545.993	459.06
546.206	501.06
546.42	494.06
546.633	496.06
546.847	482.06
547.06	463.06
547.274	486.06
547.487	483.06
547.7	474.06
547.914	474.06
548.127	477.06
548.34	476.06
548.554	475.06
548.767	465.06
548.98	480.06
549.193	470.06
549.407	474.06
549.62	453.06
549.833	486.06
550.046	482.06
550.259	464.06
550.473	476.06
550.686	470.06
550.899	460.06
551.112	466.06
551.325	469.06
551.538	461.06
551.751	441.06
551.964	462.06
552.177	462.06
552.39	465.06
552.603	473.06
552.816	467.06
553.029	469.06
553.242	472.06
553.455	471.06
553.667	464.06
553.88	476.06
554.093	476.06
554.306	485.06
554.519	460.06
554.732	469.06
554.944	478.06
555.157	456.06
555.37	474.06
555.583	451.06
555.795	460.06
556.008	462.06
556.221	435.06
556.433	441.06
556.646	455.06
556.859	445.06
557.071	426.06
557.284	434.06
557.496	437.06
557.709	446.06
557.921	437.06
558.134	407.06
558.346	408.06
558.559	429.06
558.771	421.06
558.984	422.06
559.196	436.06
559.409	420.06
559.621	426.06
559.833	414.06
560.046	401.06
560.258	414.06
560.47	429.06
560.683	414.06
560.895	427.06
561.107	439.06
561.32	431.06
561.532	412.06
561.744	411.06
561.956	414.06
562.168	412.06
562.381	409.06
562.593	429.06
562.805	402.06
563.017	395.06
563.229	416.06
563.441	431.06
563.653	418.06
563.865	420.06
564.077	415.06
564.289	446.06
564.501	416.06
564.713	420.06
564.925	428.06
565.137	426.06
565.349	422.06
565.561	459.06
565.773	446.06
565.985	455.06
566.197	426.06
566.408	462.06
566.62	448.06
566.832	463.06
567.044	473.06
567.255	460.06
567.467	485.06
567.679	475.06
567.891	462.06
568.102	476.06
568.314	467.06
568.526	462.06
568.737	437.06
568.949	432.06
569.161	434.06
569.372	428.06
569.584	402.06
569.795	410.06
570.007	436.06
570.218	493.06
570.43	475.06
570.641	431.06
570.853	410.06
571.064	409.06
571.276	412.06
571.487	391.06
571.698	396.06
571.91	374.06
572.121	376.06
572.333	385.06
572.544	351.06
572.755	366.06
572.966	378.06
573.178	383.06
573.389	380.06
573.6	359.06
573.811	372.06
574.023	353.06
574.234	349.06
574.445	368.06
574.656	341.06
574.867	361.06
575.078	374.06
575.289	356.06
575.501	357.06
575.712	339.06
575.923	350.06
576.134	344.06
576.345	361.06
576.556	350.06
576.767	338.06
576.978	353.06
577.188	375.06
577.399	360.06
577.61	344.06
577.821	352.06
578.032	348.06
578.243	395.06
578.454	700.06
578.665	502.06
578.875	349.06
579.086	354.06
579.297	333.06
579.508	330.06
579.718	341.06
579.929	345.06
580.14	336.06
580.35	349.06
580.561	337.06
580.772	330.06
580.982	315.06
581.193	313.06
581.403	330.06
581.614	324.06
581.825	329.06
582.035	316.06
582.246	323.06
582.456	332.06
582.667	336.06
582.877	316.06
583.087	328.06
583.298	331.06
583.508	330.06
583.719	307.06
583.929	314.06
584.139	313.06
584.35	339.06
584.56	336.06
584.77	330.06
584.981	312.06
585.191	317.06
585.401	314.06
585.611	325.06
585.821	322.06
586.032	313.06
586.242	305.06
586.452	342.06
586.662	328.06
586.872	324.06
587.082	310.06
587.292	302.06
587.502	308.06
587.713	310.06
587.923	317.06
588.133	308.06
588.343	305.06
588.553	305.06
588.762	312.06
588.972	284.06
589.182	320.06
589.392	300.06
589.602	314.06
589.812	292.06
590.022	317.06
590.232	312.06
590.441	306.06
590.651	313.06
590.861	305.06
591.071	316.06
591.281	316.06
591.49	309.06
591.7	295.06
591.91	292.06
592.119	309.06
592.329	318.06
592.539	313.06
592.748	327.06
592.958	319.06
593.167	305.06
593.377	308.06
593.587	325.06
593.796	325.06
594.006	298.06
594.215	294.06
594.424	310.06
594.634	327.06
594.843	320.06
595.053	311.06
595.262	325.06
595.472	297.06
595.681	313.06
595.89	301.06
596.1	296.06
596.309	297.06
596.518	304.06
596.727	298.06
596.937	298.06
597.146	312.06
597.355	292.06
597.564	282.06
597.774	300.06
597.983	278.06
598.192	269.06
598.401	268.06
598.61	283.06
598.819	280.06
599.028	285.06
599.237	280.06
599.446	269.06
599.655	292.06
599.864	289.06
600.073	265.06
600.282	261.06
600.491	272.06
600.7	271.06
600.909	269.06
601.118	267.06
601.327	271.06
601.536	268.06
601.745	268.06
601.953	283.06
602.162	264.06
602.371	268.06
602.58	278.06
602.789	268.06
602.997	262.06
603.206	270.06
603.415	292.06
603.623	260.06
603.832	279.06
604.041	265.06
604.249	264.06
604.458	284.06
604.666	261.06
604.875	250.06
605.084	260.06
605.292	265.06
605.501	266.06
605.709	270.06
605.918	275.06
606.126	283.06
606.334	239.06
606.543	265.06
606.751	266.06
606.96	252.06
607.168	261.06
607.376	252.06
607.585	266.06
607.793	275.06
608.001	272.06
608.21	256.06
608.418	276.06
608.626	261.06
608.834	243.06
609.043	240.06
609.251	254.06
609.459	255.06
609.667	275.06
609.875	256.06
610.083	262.06
610.291	260.06
610.499	257.06
610.707	260.06
610.916	261.06
611.124	269.06
611.332	281.06
611.54	277.06
611.748	268.06
611.955	267.06
612.163	257.06
612.371	258.06
612.579	260.06
612.787	276.06
612.995	273.06
613.203	254.06
613.411	274.06
613.618	256.06
613.826	270.06
614.034	255.06
614.242	251.06
614.449	252.06
614.657	266.06
614.865	268.06
615.072	245.06
615.28	248.06
615.488	245.06
615.695	240.06
615.903	236.06
616.111	245.06
616.318	250.06
616.526	242.06
616.733	263.06
616.941	238.06
617.148	262.06
617.356	257.06
617.563	243.06
617.771	236.06
617.978	240.06
618.185	254.06
618.393	248.06
618.6	258.06
618.807	232.06
619.015	248.06
619.222	246.06
619.429	233.06
619.637	229.06
619.844	234.06
620.051	227.06
620.258	230.06
620.466	235.06
620.673	248.06
620.88	226.06
621.087	236.06
621.294	242.06
621.501	233.06
621.708	238.06
621.915	242.06
622.122	243.06
622.329	240.06
622.536	231.06
622.743	250.06
622.95	247.06
623.157	216.06
623.364	250.06
623.571	229.06
623.778	227.06
623.985	233.06
624.192	233.06
624.399	228.06
624.606	217.06
624.812	242.06
625.019	245.06
625.226	234.06
625.433	238.06
625.639	218.06
625.846	224.06
626.053	220.06
626.259	219.06
626.466	209.06
626.673	204.06
626.879	200.06
627.086	220.06
627.293	221.06
627.499	213.06
627.706	227.06
627.912	220.06
628.119	214.06
628.325	226.06
628.532	231.06
628.738	215.06
628.945	214.06
629.151	205.06
629.357	213.06
629.564	214.06
629.77	212.06
629.976	215.06
630.183	205.06
630.389	205.06
630.595	207.06
630.802	199.06
631.008	220.06
631.214	209.06
631.42	212.06
631.627	205.06
631.833	189.06
632.039	225.06
632.245	212.06
632.451	192.06
632.657	209.06
632.863	204.06
633.069	209.06
633.275	202.06
633.481	186.06
633.688	183.06
633.893	198.06
634.099	200.06
634.305	201.06
634.511	192.06
634.717	195.06
634.923	192.06
635.129	200.06
635.335	190.06
635.541	198.06
635.747	194.06
635.952	190.06
636.158	187.06
636.364	188.06
636.57	205.06
636.775	209.06
636.981	195.06
637.187	187.06
637.392	216.06
637.598	181.06
637.804	186.06
638.009	176.06
638.215	202.06
638.421	194.06
638.626	180.06
638.832	206.06
639.037	186.06
639.243	194.06
639.448	187.06
639.654	186.06
639.859	192.06
640.065	187.06
640.27	182.06
640.475	184.06
640.681	182.06
640.886	173.06
641.091	177.06
641.297	182.06
641.502	177.06
641.707	176.06
641.913	180.06
642.118	171.06
642.323	176.06
642.528	178.06
642.733	179.06
642.939	178.06
643.144	188.06
643.349	190.06
643.554	184.06
643.759	180.06
643.964	161.06
644.169	170.06
644.374	161.06
644.579	172.06
644.784	179.06
644.989	159.06
645.194	170.06
645.399	166.06
645.604	179.06
645.809	184.06
646.014	176.06
646.219	164.06
646.423	168.06
646.628	160.06
646.833	181.06
647.038	169.06
647.243	185.06
647.447	172.06
647.652	182.06
647.857	176.06
648.062	160.06
648.266	176.06
648.471	191.06
648.676	188.06
648.88	172.06
649.085	164.06
649.289	194.06
649.494	173.06
649.698	197.06
649.903	179.06
650.107	177.06
650.312	190.06
650.516	165.06
650.721	185.06
650.925	167.06
651.13	160.06
651.334	166.06
651.539	166.06
651.743	159.06
651.947	139.06
652.152	149.06
652.356	152.06
652.56	149.06
652.764	155.06
652.969	138.06
653.173	143.06
653.377	158.06
653.581	140.06
653.785	136.06
653.99	154.06
654.194	150.06
654.398	154.06
654.602	140.06
654.806	137.06
655.01	149.06
655.214	148.06
655.418	138.06
655.622	130.06
655.826	137.06
656.03	112.06
656.234	136.06
656.438	132.06
656.642	131.06
656.846	133.06
657.049	121.06
657.253	124.06
657.457	124.06
657.661	130.06
657.865	115.06
658.068	109.06
658.272	118.06
658.476	112.06
658.68	113.06
658.883	106.06
659.087	93.06
659.291	95.06
659.494	104.06
659.698	93.06
659.901	86.06
660.105	92.06
660.309	97.06
660.512	98.06
660.716	91.06
660.919	107.06
661.123	107.06
661.326	70.06
661.53	72.06
661.733	85.06
661.936	88.06
662.14	84.06
662.343	89.06
662.546	72.06
662.75	92.06
662.953	100.06
663.156	77.06
663.36	83.06
663.563	86.06
663.766	80.06
663.969	69.06
664.173	68.06
664.376	87.06
664.579	84.06
664.782	83.06
664.985	80.06
665.188	87.06
665.391	89.06
665.594	82.06
665.797	75.06
666	80.06
666.203	74.06
666.406	85.06
666.609	75.06
666.812	77.06
667.015	83.06
667.218	78.06
667.421	82.06
667.624	93.06
667.827	90.06
668.03	100.06
668.232	77.06
668.435	83.06
668.638	74.06
668.841	78.06
669.043	74.06
669.246	86.06
669.449	75.06
669.651	84.06
669.854	82.06
670.057	65.06
670.259	74.06
670.462	81.06
670.665	82.06
670.867	86.06
671.07	90.06
671.272	86.06
671.475	83.06
671.677	77.06
671.88	90.06
672.082	69.06
672.284	74.06
672.487	69.06
672.689	83.06
672.892	78.06
