Data from 1971.PennyLincolnUp.Lamp.En5.5.200Scan.071719.P1.Scan 2. Changed Angle._HRD10591_15-24-59-843.txt Node
Date: Thu Jul 18 15:24:59 EDT 2019
User: cochatt
Spectrometer: HR+D1059
Trigger mode: 1
Integration Time (sec): 1.000000E-1
Scans to average: 1
Electric dark correction enabled: true
Nonlinearity correction enabled: false
Boxcar width: 0
XAxis mode: Wavelengths
Number of Pixels in Spectrum: 2048
>>>>>Begin Spectral Data<<<<<
223.165	-12.12
223.4	-12.12
223.635	-12.12
223.869	-26.12
224.104	-21.12
224.338	-16.12
224.573	-21.12
224.808	-3.12
225.042	-12.12
225.277	3.88
225.511	10.88
225.746	4.88
225.98	1.88
226.215	7.88
226.449	6.88
226.683	15.88
226.918	29.88
227.152	29.88
227.387	36.88
227.621	33.88
227.856	39.88
228.09	49.88
228.324	45.88
228.559	54.88
228.793	70.88
229.027	101.88
229.262	121.88
229.496	130.88
229.73	148.88
229.964	188.88
230.199	157.88
230.433	136.88
230.667	124.88
230.901	118.88
231.136	118.88
231.37	114.88
231.604	116.88
231.838	116.88
232.072	118.88
232.306	111.88
232.541	127.88
232.775	124.88
233.009	112.88
233.243	113.88
233.477	116.88
233.711	124.88
233.945	129.88
234.179	132.88
234.413	114.88
234.647	125.88
234.881	122.88
235.115	113.88
235.349	122.88
235.583	133.88
235.817	116.88
236.051	124.88
236.285	126.88
236.519	139.88
236.753	146.88
236.987	158.88
237.221	204.88
237.455	281.88
237.689	209.88
237.922	153.88
238.156	146.88
238.39	137.88
238.624	125.88
238.858	134.88
239.091	133.88
239.325	124.88
239.559	131.88
239.793	148.88
240.027	135.88
240.26	157.88
240.494	184.88
240.728	176.88
240.961	154.88
241.195	162.88
241.429	140.88
241.662	136.88
241.896	147.88
242.13	141.88
242.363	135.88
242.597	136.88
242.83	132.88
243.064	144.88
243.298	154.88
243.531	152.88
243.765	134.88
243.998	156.88
244.232	152.88
244.465	151.88
244.699	148.88
244.932	141.88
245.166	160.88
245.399	144.88
245.633	160.88
245.866	144.88
246.099	153.88
246.333	165.88
246.566	162.88
246.8	153.88
247.033	160.88
247.266	177.88
247.5	180.88
247.733	188.88
247.966	188.88
248.2	181.88
248.433	180.88
248.666	177.88
248.899	184.88
249.133	213.88
249.366	225.88
249.599	228.88
249.832	203.88
250.066	177.88
250.299	185.88
250.532	213.88
250.765	234.88
250.998	254.88
251.231	256.88
251.465	236.88
251.698	212.88
251.931	226.88
252.164	202.88
252.397	226.88
252.63	230.88
252.863	216.88
253.096	246.88
253.329	267.88
253.562	246.88
253.795	241.88
254.028	225.88
254.261	241.88
254.494	266.88
254.727	279.88
254.96	326.88
255.193	322.88
255.426	283.88
255.659	271.88
255.892	271.88
256.124	265.88
256.357	268.88
256.59	260.88
256.823	226.88
257.056	255.88
257.289	228.88
257.521	224.88
257.754	220.88
257.987	225.88
258.22	223.88
258.452	250.88
258.685	219.88
258.918	228.88
259.151	206.88
259.383	232.88
259.616	247.88
259.849	252.88
260.081	258.88
260.314	267.88
260.547	286.88
260.779	265.88
261.012	245.88
261.244	256.88
261.477	246.88
261.71	249.88
261.942	246.88
262.175	256.88
262.407	247.88
262.64	213.88
262.872	218.88
263.105	226.88
263.337	213.88
263.57	217.88
263.802	212.88
264.035	231.88
264.267	215.88
264.499	220.88
264.732	222.88
264.964	214.88
265.197	238.88
265.429	220.88
265.661	233.88
265.894	210.88
266.126	227.88
266.358	227.88
266.591	224.88
266.823	218.88
267.055	227.88
267.287	252.88
267.52	239.88
267.752	247.88
267.984	231.88
268.216	246.88
268.448	233.88
268.681	263.88
268.913	276.88
269.145	273.88
269.377	285.88
269.609	288.88
269.841	288.88
270.073	306.88
270.306	311.88
270.538	348.88
270.77	354.88
271.002	327.88
271.234	317.88
271.466	334.88
271.698	338.88
271.93	329.88
272.162	339.88
272.394	356.88
272.626	359.88
272.858	329.88
273.09	291.88
273.322	293.88
273.553	271.88
273.785	281.88
274.017	281.88
274.249	287.88
274.481	286.88
274.713	272.88
274.945	283.88
275.176	300.88
275.408	299.88
275.64	261.88
275.872	273.88
276.104	270.88
276.335	266.88
276.567	286.88
276.799	300.88
277.031	327.88
277.262	350.88
277.494	338.88
277.726	328.88
277.957	315.88
278.189	311.88
278.421	289.88
278.652	294.88
278.884	284.88
279.115	263.88
279.347	270.88
279.579	263.88
279.81	272.88
280.042	267.88
280.273	280.88
280.505	269.88
280.736	264.88
280.968	266.88
281.199	230.88
281.431	247.88
281.662	260.88
281.894	266.88
282.125	284.88
282.356	310.88
282.588	328.88
282.819	329.88
283.051	298.88
283.282	281.88
283.513	264.88
283.745	282.88
283.976	294.88
284.207	288.88
284.439	266.88
284.67	272.88
284.901	263.88
285.132	287.88
285.364	261.88
285.595	270.88
285.826	284.88
286.057	272.88
286.288	298.88
286.52	297.88
286.751	287.88
286.982	281.88
287.213	273.88
287.444	288.88
287.675	288.88
287.906	310.88
288.138	290.88
288.369	286.88
288.6	311.88
288.831	321.88
289.062	296.88
289.293	302.88
289.524	284.88
289.755	281.88
289.986	294.88
290.217	280.88
290.448	276.88
290.679	293.88
290.91	258.88
291.141	300.88
291.371	288.88
291.602	288.88
291.833	284.88
292.064	291.88
292.295	287.88
292.526	287.88
292.757	296.88
292.987	293.88
293.218	288.88
293.449	292.88
293.68	252.88
293.91	270.88
294.141	289.88
294.372	282.88
294.603	275.88
294.833	302.88
295.064	276.88
295.295	286.88
295.525	296.88
295.756	287.88
295.987	294.88
296.217	336.88
296.448	321.88
296.679	317.88
296.909	320.88
297.14	307.88
297.37	310.88
297.601	302.88
297.831	317.88
298.062	295.88
298.292	286.88
298.523	304.88
298.753	285.88
298.984	322.88
299.214	295.88
299.445	286.88
299.675	302.88
299.905	308.88
300.136	314.88
300.366	299.88
300.597	305.88
300.827	326.88
301.057	335.88
301.288	328.88
301.518	326.88
301.748	317.88
301.979	318.88
302.209	329.88
302.439	317.88
302.669	322.88
302.9	307.88
303.13	313.88
303.36	318.88
303.59	313.88
303.82	332.88
304.051	330.88
304.281	326.88
304.511	308.88
304.741	318.88
304.971	332.88
305.201	330.88
305.431	316.88
305.661	349.88
305.891	328.88
306.121	318.88
306.352	321.88
306.582	337.88
306.812	336.88
307.042	311.88
307.272	328.88
307.502	330.88
307.731	329.88
307.961	332.88
308.191	336.88
308.421	326.88
308.651	345.88
308.881	341.88
309.111	343.88
309.341	332.88
309.571	381.88
309.8	393.88
310.03	382.88
310.26	393.88
310.49	383.88
310.72	398.88
310.949	415.88
311.179	421.88
311.409	401.88
311.639	404.88
311.868	377.88
312.098	406.88
312.328	408.88
312.557	433.88
312.787	454.88
313.017	437.88
313.246	431.88
313.476	401.88
313.706	382.88
313.935	413.88
314.165	434.88
314.394	421.88
314.624	428.88
314.853	396.88
315.083	404.88
315.312	385.88
315.542	369.88
315.771	370.88
316.001	367.88
316.23	382.88
316.46	380.88
316.689	396.88
316.919	399.88
317.148	393.88
317.377	391.88
317.607	397.88
317.836	398.88
318.065	391.88
318.295	382.88
318.524	410.88
318.753	379.88
318.983	398.88
319.212	371.88
319.441	391.88
319.67	404.88
319.9	386.88
320.129	388.88
320.358	410.88
320.587	418.88
320.816	414.88
321.046	444.88
321.275	420.88
321.504	428.88
321.733	436.88
321.962	422.88
322.191	460.88
322.42	472.88
322.649	497.88
322.878	505.88
323.108	515.88
323.337	545.88
323.566	572.88
323.795	634.88
324.024	680.88
324.253	860.88
324.482	1258.88
324.71	1980.88
324.939	2829.88
325.168	2424.88
325.397	1265.88
325.626	821.88
325.855	661.88
326.084	596.88
326.313	583.88
326.542	596.88
326.77	656.88
326.999	758.88
327.228	1093.88
327.457	1719.88
327.686	2084.88
327.914	1425.88
328.143	898.88
328.372	764.88
328.6	701.88
328.829	664.88
329.058	668.88
329.287	688.88
329.515	633.88
329.744	585.88
329.972	575.88
330.201	614.88
330.43	642.88
330.658	680.88
330.887	734.88
331.115	695.88
331.344	596.88
331.572	519.88
331.801	540.88
332.03	537.88
332.258	499.88
332.486	497.88
332.715	492.88
332.943	487.88
333.172	488.88
333.4	498.88
333.629	476.88
333.857	505.88
334.085	512.88
334.314	524.88
334.542	546.88
334.771	594.88
334.999	548.88
335.227	537.88
335.455	497.88
335.684	465.88
335.912	466.88
336.14	457.88
336.369	464.88
336.597	476.88
336.825	480.88
337.053	450.88
337.281	448.88
337.51	471.88
337.738	459.88
337.966	476.88
338.194	458.88
338.422	440.88
338.65	447.88
338.878	468.88
339.106	456.88
339.334	430.88
339.562	472.88
339.79	440.88
340.018	448.88
340.246	453.88
340.474	438.88
340.702	447.88
340.93	448.88
341.158	457.88
341.386	456.88
341.614	458.88
341.842	437.88
342.07	432.88
342.298	439.88
342.526	424.88
342.754	425.88
342.981	441.88
343.209	436.88
343.437	435.88
343.665	424.88
343.893	436.88
344.12	475.88
344.348	461.88
344.576	464.88
344.804	457.88
345.031	484.88
345.259	473.88
345.487	462.88
345.714	460.88
345.942	418.88
346.17	430.88
346.397	451.88
346.625	441.88
346.853	441.88
347.08	430.88
347.308	440.88
347.535	453.88
347.763	469.88
347.99	449.88
348.218	455.88
348.445	454.88
348.673	456.88
348.9	465.88
349.128	430.88
349.355	419.88
349.583	436.88
349.81	428.88
350.037	430.88
350.265	423.88
350.492	436.88
350.72	445.88
350.947	431.88
351.174	450.88
351.402	473.88
351.629	442.88
351.856	457.88
352.083	451.88
352.311	467.88
352.538	474.88
352.765	501.88
352.992	443.88
353.22	469.88
353.447	440.88
353.674	420.88
353.901	406.88
354.128	432.88
354.355	412.88
354.583	438.88
354.81	411.88
355.037	404.88
355.264	392.88
355.491	401.88
355.718	418.88
355.945	408.88
356.172	413.88
356.399	386.88
356.626	380.88
356.853	389.88
357.08	421.88
357.307	392.88
357.534	380.88
357.761	412.88
357.988	413.88
358.215	428.88
358.441	396.88
358.668	413.88
358.895	433.88
359.122	406.88
359.349	446.88
359.576	473.88
359.802	469.88
360.029	513.88
360.256	534.88
360.483	485.88
360.709	450.88
360.936	446.88
361.163	446.88
361.39	450.88
361.616	462.88
361.843	436.88
362.07	438.88
362.296	452.88
362.523	428.88
362.749	445.88
362.976	434.88
363.203	454.88
363.429	424.88
363.656	446.88
363.882	420.88
364.109	425.88
364.335	424.88
364.562	428.88
364.788	442.88
365.015	435.88
365.241	429.88
365.468	414.88
365.694	438.88
365.92	459.88
366.147	416.88
366.373	420.88
366.599	418.88
366.826	413.88
367.052	413.88
367.278	421.88
367.505	431.88
367.731	431.88
367.957	434.88
368.184	451.88
368.41	432.88
368.636	458.88
368.862	449.88
369.089	456.88
369.315	441.88
369.541	421.88
369.767	441.88
369.993	432.88
370.219	419.88
370.445	421.88
370.672	409.88
370.898	415.88
371.124	416.88
371.35	412.88
371.576	414.88
371.802	416.88
372.028	401.88
372.254	412.88
372.48	427.88
372.706	419.88
372.932	396.88
373.158	421.88
373.384	428.88
373.61	412.88
373.835	410.88
374.061	412.88
374.287	451.88
374.513	432.88
374.739	421.88
374.965	437.88
375.191	426.88
375.416	435.88
375.642	420.88
375.868	428.88
376.094	444.88
376.319	431.88
376.545	414.88
376.771	429.88
376.997	408.88
377.222	420.88
377.448	397.88
377.674	415.88
377.899	404.88
378.125	395.88
378.35	414.88
378.576	416.88
378.802	437.88
379.027	403.88
379.253	415.88
379.478	408.88
379.704	420.88
379.929	423.88
380.155	433.88
380.38	412.88
380.606	413.88
380.831	450.88
381.057	419.88
381.282	421.88
381.507	439.88
381.733	430.88
381.958	440.88
382.184	415.88
382.409	432.88
382.634	432.88
382.86	425.88
383.085	417.88
383.31	430.88
383.535	443.88
383.761	434.88
383.986	424.88
384.211	437.88
384.436	422.88
384.662	437.88
384.887	441.88
385.112	451.88
385.337	432.88
385.562	448.88
385.787	445.88
386.013	462.88
386.238	482.88
386.463	459.88
386.688	461.88
386.913	464.88
387.138	451.88
387.363	459.88
387.588	456.88
387.813	457.88
388.038	441.88
388.263	454.88
388.488	446.88
388.713	455.88
388.938	451.88
389.163	453.88
389.387	454.88
389.612	464.88
389.837	473.88
390.062	443.88
390.287	472.88
390.512	458.88
390.736	437.88
390.961	449.88
391.186	434.88
391.411	455.88
391.636	447.88
391.86	453.88
392.085	458.88
392.31	460.88
392.534	474.88
392.759	464.88
392.984	460.88
393.208	456.88
393.433	457.88
393.658	444.88
393.882	465.88
394.107	474.88
394.331	473.88
394.556	459.88
394.78	470.88
395.005	451.88
395.229	448.88
395.454	468.88
395.678	478.88
395.903	482.88
396.127	490.88
396.352	509.88
396.576	511.88
396.801	470.88
397.025	496.88
397.249	486.88
397.474	481.88
397.698	474.88
397.922	498.88
398.147	502.88
398.371	550.88
398.595	513.88
398.82	497.88
399.044	542.88
399.268	548.88
399.492	535.88
399.717	553.88
399.941	593.88
400.165	632.88
400.389	648.88
400.613	601.88
400.837	552.88
401.062	543.88
401.286	523.88
401.51	526.88
401.734	517.88
401.958	511.88
402.182	551.88
402.406	545.88
402.63	532.88
402.854	530.88
403.078	546.88
403.302	559.88
403.526	564.88
403.75	548.88
403.974	543.88
404.198	525.88
404.422	552.88
404.645	572.88
404.869	581.88
405.093	606.88
405.317	644.88
405.541	686.88
405.765	641.88
405.988	569.88
406.212	596.88
406.436	632.88
406.66	621.88
406.883	614.88
407.107	632.88
407.331	691.88
407.555	735.88
407.778	694.88
408.002	670.88
408.226	624.88
408.449	595.88
408.673	617.88
408.896	632.88
409.12	699.88
409.344	649.88
409.567	605.88
409.791	572.88
410.014	553.88
410.238	574.88
410.461	583.88
410.685	569.88
410.908	589.88
411.132	607.88
411.355	657.88
411.578	642.88
411.802	559.88
412.025	568.88
412.249	549.88
412.472	594.88
412.695	624.88
412.919	649.88
413.142	581.88
413.365	541.88
413.589	534.88
413.812	531.88
414.035	531.88
414.258	557.88
414.482	521.88
414.705	521.88
414.928	510.88
415.151	498.88
415.374	529.88
415.597	511.88
415.821	512.88
416.044	510.88
416.267	544.88
416.49	526.88
416.713	516.88
416.936	531.88
417.159	533.88
417.382	548.88
417.605	546.88
417.828	558.88
418.051	566.88
418.274	563.88
418.497	557.88
418.72	549.88
418.943	532.88
419.166	552.88
419.389	580.88
419.611	568.88
419.834	565.88
420.057	587.88
420.28	580.88
420.503	573.88
420.726	577.88
420.948	581.88
421.171	638.88
421.394	669.88
421.617	618.88
421.839	589.88
422.062	569.88
422.285	588.88
422.507	642.88
422.73	766.88
422.953	701.88
423.175	635.88
423.398	593.88
423.621	597.88
423.843	625.88
424.066	606.88
424.288	625.88
424.511	641.88
424.733	708.88
424.956	788.88
425.178	779.88
425.401	750.88
425.623	799.88
425.846	688.88
426.068	638.88
426.291	635.88
426.513	616.88
426.735	653.88
426.958	714.88
427.18	770.88
427.402	929.88
427.625	1030.88
427.847	930.88
428.069	842.88
428.292	713.88
428.514	636.88
428.736	638.88
428.958	626.88
429.181	585.88
429.403	579.88
429.625	593.88
429.847	636.88
430.069	728.88
430.292	708.88
430.514	624.88
430.736	593.88
430.958	548.88
431.18	569.88
431.402	573.88
431.624	515.88
431.846	528.88
432.068	521.88
432.29	522.88
432.512	527.88
432.734	529.88
432.956	533.88
433.178	582.88
433.4	584.88
433.622	566.88
433.844	574.88
434.066	548.88
434.287	533.88
434.509	549.88
434.731	556.88
434.953	574.88
435.175	586.88
435.397	648.88
435.618	639.88
435.84	679.88
436.062	789.88
436.284	859.88
436.505	723.88
436.727	631.88
436.949	591.88
437.17	599.88
437.392	593.88
437.614	632.88
437.835	671.88
438.057	781.88
438.278	904.88
438.5	881.88
438.721	959.88
438.943	905.88
439.165	728.88
439.386	674.88
439.608	658.88
439.829	681.88
440.05	738.88
440.272	756.88
440.493	682.88
440.715	665.88
440.936	621.88
441.158	601.88
441.379	597.88
441.6	627.88
441.822	634.88
442.043	677.88
442.264	757.88
442.486	814.88
442.707	709.88
442.928	671.88
443.149	657.88
443.371	678.88
443.592	737.88
443.813	845.88
444.034	890.88
444.255	748.88
444.476	651.88
444.698	628.88
444.919	629.88
445.14	783.88
445.361	686.88
445.582	709.88
445.803	795.88
446.024	911.88
446.245	924.88
446.466	840.88
446.687	713.88
446.908	630.88
447.129	607.88
447.35	605.88
447.571	611.88
447.792	600.88
448.013	612.88
448.234	640.88
448.455	700.88
448.675	846.88
448.896	922.88
449.117	814.88
449.338	764.88
449.559	862.88
449.779	968.88
450	780.88
450.221	676.88
450.442	633.88
450.662	597.88
450.883	601.88
451.104	632.88
451.324	583.88
451.545	560.88
451.766	533.88
451.986	528.88
452.207	533.88
452.428	519.88
452.648	556.88
452.869	533.88
453.089	556.88
453.31	534.88
453.53	561.88
453.751	547.88
453.971	544.88
454.192	587.88
454.412	540.88
454.633	545.88
454.853	510.88
455.073	519.88
455.294	561.88
455.514	658.88
455.734	654.88
455.955	530.88
456.175	502.88
456.395	482.88
456.616	493.88
456.836	497.88
457.056	506.88
457.276	485.88
457.497	471.88
457.717	510.88
457.937	484.88
458.157	496.88
458.377	512.88
458.598	551.88
458.818	622.88
459.038	738.88
459.258	750.88
459.478	604.88
459.698	575.88
459.918	542.88
460.138	523.88
460.358	541.88
460.578	522.88
460.798	507.88
461.018	546.88
461.238	541.88
461.458	518.88
461.678	508.88
461.898	526.88
462.118	514.88
462.338	537.88
462.558	521.88
462.777	535.88
462.997	570.88
463.217	569.88
463.437	581.88
463.657	576.88
463.876	562.88
464.096	574.88
464.316	559.88
464.536	550.88
464.755	598.88
464.975	579.88
465.195	638.88
465.414	766.88
465.634	700.88
465.854	620.88
466.073	563.88
466.293	568.88
466.512	562.88
466.732	543.88
466.951	556.88
467.171	519.88
467.391	552.88
467.61	565.88
467.829	564.88
468.049	525.88
468.268	549.88
468.488	545.88
468.707	540.88
468.927	534.88
469.146	510.88
469.365	516.88
469.585	519.88
469.804	534.88
470.023	558.88
470.243	554.88
470.462	561.88
470.681	567.88
470.901	572.88
471.12	571.88
471.339	546.88
471.558	523.88
471.777	548.88
471.997	530.88
472.216	550.88
472.435	583.88
472.654	570.88
472.873	560.88
473.092	541.88
473.311	530.88
473.53	542.88
473.749	566.88
473.968	619.88
474.187	735.88
474.406	776.88
474.625	632.88
474.844	574.88
475.063	544.88
475.282	557.88
475.501	556.88
475.72	560.88
475.939	552.88
476.158	569.88
476.377	565.88
476.596	561.88
476.814	578.88
477.033	587.88
477.252	602.88
477.471	594.88
477.69	572.88
477.908	595.88
478.127	572.88
478.346	585.88
478.564	596.88
478.783	606.88
479.002	615.88
479.22	625.88
479.439	622.88
479.658	648.88
479.876	663.88
480.095	675.88
480.313	691.88
480.532	672.88
480.751	665.88
480.969	665.88
481.188	754.88
481.406	815.88
481.624	700.88
481.843	692.88
482.061	646.88
482.28	651.88
482.498	621.88
482.717	654.88
482.935	629.88
483.153	638.88
483.372	681.88
483.59	658.88
483.808	669.88
484.027	651.88
484.245	663.88
484.463	647.88
484.681	663.88
484.9	664.88
485.118	645.88
485.336	674.88
485.554	670.88
485.772	687.88
485.99	663.88
486.209	701.88
486.427	692.88
486.645	717.88
486.863	732.88
487.081	714.88
487.299	733.88
487.517	709.88
487.735	710.88
487.953	729.88
488.171	713.88
488.389	706.88
488.607	715.88
488.825	705.88
489.043	703.88
489.261	714.88
489.479	717.88
489.696	740.88
489.914	732.88
490.132	734.88
490.35	756.88
490.568	762.88
490.786	798.88
491.003	771.88
491.221	797.88
491.439	816.88
491.657	830.88
491.874	798.88
492.092	849.88
492.31	857.88
492.527	831.88
492.745	855.88
492.963	860.88
493.18	851.88
493.398	841.88
493.615	845.88
493.833	872.88
494.05	857.88
494.268	850.88
494.485	845.88
494.703	868.88
494.92	851.88
495.138	861.88
495.355	860.88
495.573	857.88
495.79	864.88
496.008	851.88
496.225	869.88
496.442	855.88
496.66	850.88
496.877	838.88
497.094	855.88
497.312	867.88
497.529	883.88
497.746	896.88
497.963	896.88
498.181	915.88
498.398	908.88
498.615	919.88
498.832	957.88
499.049	901.88
499.267	922.88
499.484	943.88
499.701	964.88
499.918	998.88
500.135	1008.88
500.352	1005.88
500.569	1048.88
500.786	1022.88
501.003	1057.88
501.22	1034.88
501.437	1011.88
501.654	991.88
501.871	1001.88
502.088	971.88
502.305	943.88
502.522	944.88
502.739	964.88
502.956	907.88
503.172	907.88
503.389	872.88
503.606	880.88
503.823	876.88
504.04	879.88
504.256	864.88
504.473	866.88
504.69	831.88
504.907	826.88
505.123	850.88
505.34	839.88
505.557	828.88
505.773	826.88
505.99	840.88
506.207	837.88
506.423	828.88
506.64	803.88
506.856	803.88
507.073	803.88
507.289	817.88
507.506	805.88
507.722	841.88
507.939	861.88
508.155	831.88
508.372	830.88
508.588	825.88
508.805	786.88
509.021	796.88
509.238	809.88
509.454	793.88
509.67	814.88
509.887	790.88
510.103	834.88
510.319	801.88
510.536	932.88
510.752	1598.88
510.968	1338.88
511.184	847.88
511.401	794.88
511.617	800.88
511.833	758.88
512.049	741.88
512.265	745.88
512.481	757.88
512.698	736.88
512.914	766.88
513.13	773.88
513.346	766.88
513.562	754.88
513.778	735.88
513.994	768.88
514.21	793.88
514.426	808.88
514.642	879.88
514.858	913.88
515.074	967.88
515.29	1217.88
515.506	1817.88
515.721	1444.88
515.937	958.88
516.153	847.88
516.369	822.88
516.585	769.88
516.801	780.88
517.016	758.88
517.232	773.88
517.448	762.88
517.664	768.88
517.879	752.88
518.095	756.88
518.311	732.88
518.527	732.88
518.742	728.88
518.958	732.88
519.173	725.88
519.389	761.88
519.605	742.88
519.82	752.88
520.036	782.88
520.251	812.88
520.467	862.88
520.682	863.88
520.898	839.88
521.113	862.88
521.329	991.88
521.544	1104.88
521.76	1450.88
521.975	2419.88
522.19	2276.88
522.406	1270.88
522.621	930.88
522.836	823.88
523.052	760.88
523.267	722.88
523.482	727.88
523.698	707.88
523.913	702.88
524.128	692.88
524.343	678.88
524.559	685.88
524.774	670.88
524.989	629.88
525.204	652.88
525.419	666.88
525.634	647.88
525.849	644.88
526.064	613.88
526.28	639.88
526.495	583.88
526.71	606.88
526.925	612.88
527.14	599.88
527.355	591.88
527.57	610.88
527.785	609.88
527.999	584.88
528.214	611.88
528.429	620.88
528.644	624.88
528.859	621.88
529.074	617.88
529.289	631.88
529.503	750.88
529.718	733.88
529.933	648.88
530.148	635.88
530.363	593.88
530.577	593.88
530.792	596.88
531.007	596.88
531.221	582.88
531.436	580.88
531.651	592.88
531.865	550.88
532.08	572.88
532.295	577.88
532.509	567.88
532.724	577.88
532.938	567.88
533.153	578.88
533.367	566.88
533.582	588.88
533.796	561.88
534.011	536.88
534.225	558.88
534.44	540.88
534.654	551.88
534.868	539.88
535.083	540.88
535.297	537.88
535.511	569.88
535.726	588.88
535.94	581.88
536.154	567.88
536.369	567.88
536.583	563.88
536.797	536.88
537.011	530.88
537.225	542.88
537.44	521.88
537.654	560.88
537.868	548.88
538.082	529.88
538.296	534.88
538.51	543.88
538.724	571.88
538.938	538.88
539.153	544.88
539.367	550.88
539.581	557.88
539.795	554.88
540.009	539.88
540.222	533.88
540.436	511.88
540.65	545.88
540.864	563.88
541.078	562.88
541.292	543.88
541.506	564.88
541.72	556.88
541.934	542.88
542.147	548.88
542.361	536.88
542.575	535.88
542.789	537.88
543.002	519.88
543.216	544.88
543.43	541.88
543.644	545.88
543.857	536.88
544.071	542.88
544.285	549.88
544.498	542.88
544.712	541.88
544.925	537.88
545.139	537.88
545.352	543.88
545.566	519.88
545.779	517.88
545.993	523.88
546.206	526.88
546.42	516.88
546.633	528.88
546.847	510.88
547.06	516.88
547.274	531.88
547.487	496.88
547.7	541.88
547.914	508.88
548.127	504.88
548.34	521.88
548.554	505.88
548.767	520.88
548.98	517.88
549.193	500.88
549.407	497.88
549.62	504.88
549.833	501.88
550.046	502.88
550.259	481.88
550.473	527.88
550.686	518.88
550.899	508.88
551.112	486.88
551.325	499.88
551.538	509.88
551.751	500.88
551.964	474.88
552.177	481.88
552.39	475.88
552.603	489.88
552.816	496.88
553.029	495.88
553.242	510.88
553.455	512.88
553.667	503.88
553.88	514.88
554.093	526.88
554.306	526.88
554.519	510.88
554.732	487.88
554.944	508.88
555.157	488.88
555.37	481.88
555.583	497.88
555.795	493.88
556.008	477.88
556.221	485.88
556.433	453.88
556.646	461.88
556.859	450.88
557.071	452.88
557.284	468.88
557.496	480.88
557.709	449.88
557.921	445.88
558.134	456.88
558.346	461.88
558.559	472.88
558.771	474.88
558.984	435.88
559.196	457.88
559.409	463.88
559.621	442.88
559.833	431.88
560.046	441.88
560.258	447.88
560.47	440.88
560.683	446.88
560.895	440.88
561.107	440.88
561.32	445.88
561.532	440.88
561.744	452.88
561.956	435.88
562.168	449.88
562.381	444.88
562.593	449.88
562.805	455.88
563.017	434.88
563.229	451.88
563.441	456.88
563.653	451.88
563.865	463.88
564.077	443.88
564.289	448.88
564.501	479.88
564.713	449.88
564.925	472.88
565.137	470.88
565.349	469.88
565.561	487.88
565.773	440.88
565.985	452.88
566.197	485.88
566.408	496.88
566.62	479.88
566.832	490.88
567.044	509.88
567.255	505.88
567.467	492.88
567.679	486.88
567.891	520.88
568.102	477.88
568.314	507.88
568.526	512.88
568.737	462.88
568.949	456.88
569.161	454.88
569.372	460.88
569.584	435.88
569.795	454.88
570.007	434.88
570.218	504.88
570.43	475.88
570.641	425.88
570.853	408.88
571.064	423.88
571.276	428.88
571.487	428.88
571.698	413.88
571.91	404.88
572.121	400.88
572.333	423.88
572.544	394.88
572.755	380.88
572.966	392.88
573.178	390.88
573.389	389.88
573.6	384.88
573.811	375.88
574.023	386.88
574.234	383.88
574.445	374.88
574.656	386.88
574.867	382.88
575.078	375.88
575.289	378.88
575.501	381.88
575.712	381.88
575.923	372.88
576.134	385.88
576.345	380.88
576.556	365.88
576.767	376.88
576.978	360.88
577.188	364.88
577.399	376.88
577.61	367.88
577.821	371.88
578.032	380.88
578.243	416.88
578.454	752.88
578.665	536.88
578.875	389.88
579.086	378.88
579.297	367.88
579.508	369.88
579.718	336.88
579.929	354.88
580.14	345.88
580.35	345.88
580.561	355.88
580.772	344.88
580.982	349.88
581.193	325.88
581.403	341.88
581.614	349.88
581.825	347.88
582.035	345.88
582.246	336.88
582.456	356.88
582.667	346.88
582.877	336.88
583.087	346.88
583.298	332.88
583.508	340.88
583.719	345.88
583.929	339.88
584.139	328.88
584.35	335.88
584.56	344.88
584.77	365.88
584.981	356.88
585.191	341.88
585.401	358.88
585.611	341.88
585.821	340.88
586.032	340.88
586.242	340.88
586.452	335.88
586.662	330.88
586.872	322.88
587.082	313.88
587.292	319.88
587.502	334.88
587.713	346.88
587.923	329.88
588.133	328.88
588.343	335.88
588.553	334.88
588.762	344.88
588.972	305.88
589.182	341.88
589.392	334.88
589.602	345.88
589.812	316.88
590.022	342.88
590.232	321.88
590.441	324.88
590.651	329.88
590.861	325.88
591.071	329.88
591.281	320.88
591.49	342.88
591.7	328.88
591.91	334.88
592.119	316.88
592.329	331.88
592.539	335.88
592.748	323.88
592.958	342.88
593.167	340.88
593.377	354.88
593.587	333.88
593.796	334.88
594.006	341.88
594.215	325.88
594.424	330.88
594.634	329.88
594.843	312.88
595.053	327.88
595.262	311.88
595.472	317.88
595.681	333.88
595.89	313.88
596.1	330.88
596.309	314.88
596.518	302.88
596.727	304.88
596.937	314.88
597.146	298.88
597.355	324.88
597.564	311.88
597.774	302.88
597.983	302.88
598.192	316.88
598.401	289.88
598.61	288.88
598.819	295.88
599.028	308.88
599.237	286.88
599.446	287.88
599.655	302.88
599.864	295.88
600.073	296.88
600.282	296.88
600.491	280.88
600.7	284.88
600.909	274.88
601.118	281.88
601.327	278.88
601.536	272.88
601.745	292.88
601.953	292.88
602.162	297.88
602.371	304.88
602.58	274.88
602.789	288.88
602.997	287.88
603.206	293.88
603.415	270.88
603.623	290.88
603.832	289.88
604.041	277.88
604.249	282.88
604.458	267.88
604.666	258.88
604.875	270.88
605.084	294.88
605.292	285.88
605.501	282.88
605.709	288.88
605.918	282.88
606.126	285.88
606.334	285.88
606.543	271.88
606.751	263.88
606.96	271.88
607.168	282.88
607.376	288.88
607.585	297.88
607.793	275.88
608.001	278.88
608.21	273.88
608.418	293.88
608.626	284.88
608.834	256.88
609.043	281.88
609.251	265.88
609.459	273.88
609.667	277.88
609.875	272.88
610.083	288.88
610.291	274.88
610.499	271.88
610.707	293.88
610.916	284.88
611.124	272.88
611.332	278.88
611.54	287.88
611.748	275.88
611.955	262.88
612.163	271.88
612.371	276.88
612.579	260.88
612.787	264.88
612.995	270.88
613.203	266.88
613.411	262.88
613.618	262.88
613.826	264.88
614.034	280.88
614.242	281.88
614.449	260.88
614.657	278.88
614.865	266.88
615.072	276.88
615.28	282.88
615.488	264.88
615.695	250.88
615.903	252.88
616.111	271.88
616.318	248.88
616.526	262.88
616.733	262.88
616.941	264.88
617.148	255.88
617.356	246.88
617.563	262.88
617.771	245.88
617.978	266.88
618.185	270.88
618.393	264.88
618.6	262.88
618.807	276.88
619.015	273.88
619.222	269.88
619.429	239.88
619.637	254.88
619.844	243.88
620.051	254.88
620.258	246.88
620.466	237.88
620.673	255.88
620.88	258.88
621.087	255.88
621.294	252.88
621.501	229.88
621.708	258.88
621.915	259.88
622.122	253.88
622.329	246.88
622.536	260.88
622.743	256.88
622.95	255.88
623.157	249.88
623.364	241.88
623.571	250.88
623.778	241.88
623.985	255.88
624.192	253.88
624.399	227.88
624.606	222.88
624.812	212.88
625.019	242.88
625.226	239.88
625.433	257.88
625.639	223.88
625.846	238.88
626.053	233.88
626.259	238.88
626.466	238.88
626.673	219.88
626.879	220.88
627.086	234.88
627.293	228.88
627.499	228.88
627.706	228.88
627.912	215.88
628.119	229.88
628.325	239.88
628.532	238.88
628.738	218.88
628.945	225.88
629.151	227.88
629.357	228.88
629.564	215.88
629.77	210.88
629.976	220.88
630.183	216.88
630.389	214.88
630.595	223.88
630.802	224.88
631.008	208.88
631.214	201.88
631.42	229.88
631.627	219.88
631.833	215.88
632.039	202.88
632.245	221.88
632.451	205.88
632.657	208.88
632.863	198.88
633.069	212.88
633.275	206.88
633.481	206.88
633.688	210.88
633.893	199.88
634.099	211.88
634.305	214.88
634.511	207.88
634.717	202.88
634.923	209.88
635.129	192.88
635.335	212.88
635.541	215.88
635.747	214.88
635.952	208.88
636.158	203.88
636.364	216.88
636.57	207.88
636.775	198.88
636.981	211.88
637.187	200.88
637.392	196.88
637.598	182.88
637.804	200.88
638.009	202.88
638.215	208.88
638.421	193.88
638.626	205.88
638.832	186.88
639.037	196.88
639.243	194.88
639.448	201.88
639.654	194.88
639.859	187.88
640.065	194.88
640.27	209.88
640.475	198.88
640.681	189.88
640.886	195.88
641.091	190.88
641.297	184.88
641.502	183.88
641.707	176.88
641.913	198.88
642.118	180.88
642.323	168.88
642.528	184.88
642.733	178.88
642.939	180.88
643.144	168.88
643.349	174.88
643.554	196.88
643.759	183.88
643.964	181.88
644.169	176.88
644.374	161.88
644.579	169.88
644.784	190.88
644.989	200.88
645.194	172.88
645.399	176.88
645.604	158.88
645.809	168.88
646.014	175.88
646.219	177.88
646.423	175.88
646.628	189.88
646.833	184.88
647.038	178.88
647.243	178.88
647.447	192.88
647.652	170.88
647.857	188.88
648.062	190.88
648.266	185.88
648.471	178.88
648.676	194.88
648.88	185.88
649.085	181.88
649.289	186.88
649.494	184.88
649.698	196.88
649.903	220.88
650.107	189.88
650.312	178.88
650.516	167.88
650.721	173.88
650.925	176.88
651.13	182.88
651.334	157.88
651.539	144.88
651.743	169.88
651.947	158.88
652.152	149.88
652.356	158.88
652.56	165.88
652.764	141.88
652.969	156.88
653.173	153.88
653.377	144.88
653.581	153.88
653.785	148.88
653.99	153.88
654.194	140.88
654.398	150.88
654.602	133.88
654.806	148.88
655.01	146.88
655.214	158.88
655.418	145.88
655.622	148.88
655.826	145.88
656.03	132.88
656.234	134.88
656.438	132.88
656.642	134.88
656.846	131.88
657.049	122.88
657.253	106.88
657.457	105.88
657.661	113.88
657.865	109.88
658.068	100.88
658.272	101.88
658.476	109.88
658.68	119.88
658.883	107.88
659.087	113.88
659.291	116.88
659.494	103.88
659.698	84.88
659.901	102.88
660.105	96.88
660.309	80.88
660.512	92.88
660.716	96.88
660.919	88.88
661.123	89.88
661.326	89.88
661.53	81.88
661.733	98.88
661.936	95.88
662.14	81.88
662.343	99.88
662.546	92.88
662.75	89.88
662.953	97.88
663.156	89.88
663.36	87.88
663.563	78.88
663.766	71.88
663.969	90.88
664.173	94.88
664.376	84.88
664.579	85.88
664.782	81.88
664.985	76.88
665.188	87.88
665.391	82.88
665.594	63.88
665.797	83.88
666	82.88
666.203	92.88
666.406	70.88
666.609	68.88
666.812	78.88
667.015	85.88
667.218	82.88
667.421	79.88
667.624	74.88
667.827	85.88
668.03	85.88
668.232	79.88
668.435	79.88
668.638	74.88
668.841	92.88
669.043	83.88
669.246	74.88
669.449	84.88
669.651	74.88
669.854	74.88
670.057	70.88
670.259	66.88
670.462	87.88
670.665	78.88
670.867	79.88
671.07	74.88
671.272	78.88
671.475	80.88
671.677	73.88
671.88	75.88
672.082	80.88
672.284	85.88
672.487	75.88
672.689	76.88
672.892	77.88
