Data from 1971.PennyLincolnUp.Lamp.En5.5.200Scan.071719.P1.Scan 2. Changed Angle._HRD10591_15-23-18-841.txt Node
Date: Thu Jul 18 15:23:18 EDT 2019
User: cochatt
Spectrometer: HR+D1059
Trigger mode: 1
Integration Time (sec): 1.000000E-1
Scans to average: 1
Electric dark correction enabled: true
Nonlinearity correction enabled: false
Boxcar width: 0
XAxis mode: Wavelengths
Number of Pixels in Spectrum: 2048
>>>>>Begin Spectral Data<<<<<
223.165	-23.31
223.4	-23.31
223.635	-23.31
223.869	-10.31
224.104	1.69
224.338	-6.31
224.573	-20.31
224.808	-30.31
225.042	-15.31
225.277	-7.31
225.511	-6.31
225.746	8.69
225.98	10.69
226.215	14.69
226.449	13.69
226.683	19.69
226.918	24.69
227.152	25.69
227.387	25.69
227.621	45.69
227.856	58.69
228.09	52.69
228.324	49.69
228.559	54.69
228.793	77.69
229.027	121.69
229.262	126.69
229.496	121.69
229.73	145.69
229.964	176.69
230.199	133.69
230.433	133.69
230.667	127.69
230.901	116.69
231.136	117.69
231.37	113.69
231.604	112.69
231.838	128.69
232.072	119.69
232.306	118.69
232.541	138.69
232.775	104.69
233.009	112.69
233.243	120.69
233.477	116.69
233.711	114.69
233.945	122.69
234.179	109.69
234.413	127.69
234.647	135.69
234.881	126.69
235.115	130.69
235.349	129.69
235.583	131.69
235.817	123.69
236.051	133.69
236.285	136.69
236.519	130.69
236.753	141.69
236.987	164.69
237.221	211.69
237.455	260.69
237.689	213.69
237.922	161.69
238.156	143.69
238.39	140.69
238.624	136.69
238.858	135.69
239.091	131.69
239.325	136.69
239.559	133.69
239.793	135.69
240.027	143.69
240.26	160.69
240.494	162.69
240.728	152.69
240.961	171.69
241.195	166.69
241.429	140.69
241.662	132.69
241.896	131.69
242.13	136.69
242.363	147.69
242.597	137.69
242.83	150.69
243.064	134.69
243.298	157.69
243.531	137.69
243.765	149.69
243.998	135.69
244.232	145.69
244.465	138.69
244.699	136.69
244.932	149.69
245.166	160.69
245.399	155.69
245.633	134.69
245.866	145.69
246.099	163.69
246.333	152.69
246.566	163.69
246.8	170.69
247.033	156.69
247.266	164.69
247.5	161.69
247.733	181.69
247.966	184.69
248.2	187.69
248.433	169.69
248.666	174.69
248.899	188.69
249.133	219.69
249.366	249.69
249.599	204.69
249.832	197.69
250.066	203.69
250.299	201.69
250.532	199.69
250.765	223.69
250.998	255.69
251.231	261.69
251.465	241.69
251.698	239.69
251.931	216.69
252.164	214.69
252.397	220.69
252.63	207.69
252.863	230.69
253.096	237.69
253.329	258.69
253.562	262.69
253.795	237.69
254.028	223.69
254.261	243.69
254.494	246.69
254.727	270.69
254.96	306.69
255.193	300.69
255.426	262.69
255.659	268.69
255.892	252.69
256.124	239.69
256.357	247.69
256.59	228.69
256.823	233.69
257.056	230.69
257.289	221.69
257.521	219.69
257.754	221.69
257.987	219.69
258.22	216.69
258.452	220.69
258.685	213.69
258.918	225.69
259.151	209.69
259.383	229.69
259.616	228.69
259.849	233.69
260.081	257.69
260.314	272.69
260.547	266.69
260.779	267.69
261.012	238.69
261.244	240.69
261.477	229.69
261.71	209.69
261.942	215.69
262.175	246.69
262.407	228.69
262.64	235.69
262.872	226.69
263.105	214.69
263.337	225.69
263.57	221.69
263.802	221.69
264.035	217.69
264.267	230.69
264.499	217.69
264.732	222.69
264.964	218.69
265.197	217.69
265.429	221.69
265.661	209.69
265.894	209.69
266.126	214.69
266.358	224.69
266.591	221.69
266.823	229.69
267.055	222.69
267.287	235.69
267.52	239.69
267.752	218.69
267.984	225.69
268.216	224.69
268.448	233.69
268.681	237.69
268.913	249.69
269.145	277.69
269.377	279.69
269.609	304.69
269.841	284.69
270.073	276.69
270.306	296.69
270.538	328.69
270.77	322.69
271.002	308.69
271.234	310.69
271.466	326.69
271.698	333.69
271.93	341.69
272.162	333.69
272.394	335.69
272.626	316.69
272.858	297.69
273.09	312.69
273.322	273.69
273.553	267.69
273.785	271.69
274.017	281.69
274.249	272.69
274.481	254.69
274.713	258.69
274.945	274.69
275.176	270.69
275.408	272.69
275.64	270.69
275.872	248.69
276.104	271.69
276.335	284.69
276.567	249.69
276.799	280.69
277.031	314.69
277.262	321.69
277.494	325.69
277.726	318.69
277.957	287.69
278.189	272.69
278.421	264.69
278.652	273.69
278.884	271.69
279.115	261.69
279.347	270.69
279.579	273.69
279.81	246.69
280.042	251.69
280.273	270.69
280.505	253.69
280.736	257.69
280.968	263.69
281.199	261.69
281.431	265.69
281.662	268.69
281.894	252.69
282.125	281.69
282.356	276.69
282.588	327.69
282.819	321.69
283.051	263.69
283.282	268.69
283.513	265.69
283.745	260.69
283.976	271.69
284.207	267.69
284.439	282.69
284.67	268.69
284.901	275.69
285.132	278.69
285.364	264.69
285.595	253.69
285.826	270.69
286.057	269.69
286.288	281.69
286.52	261.69
286.751	262.69
286.982	291.69
287.213	271.69
287.444	278.69
287.675	280.69
287.906	289.69
288.138	285.69
288.369	294.69
288.6	280.69
288.831	285.69
289.062	283.69
289.293	271.69
289.524	286.69
289.755	273.69
289.986	286.69
290.217	263.69
290.448	263.69
290.679	262.69
290.91	270.69
291.141	266.69
291.371	271.69
291.602	282.69
291.833	285.69
292.064	276.69
292.295	274.69
292.526	279.69
292.757	272.69
292.987	292.69
293.218	274.69
293.449	292.69
293.68	285.69
293.91	274.69
294.141	281.69
294.372	270.69
294.603	281.69
294.833	294.69
295.064	283.69
295.295	280.69
295.525	282.69
295.756	277.69
295.987	297.69
296.217	333.69
296.448	338.69
296.679	308.69
296.909	274.69
297.14	292.69
297.37	280.69
297.601	301.69
297.831	287.69
298.062	293.69
298.292	304.69
298.523	315.69
298.753	305.69
298.984	290.69
299.214	294.69
299.445	303.69
299.675	283.69
299.905	315.69
300.136	297.69
300.366	293.69
300.597	291.69
300.827	285.69
301.057	303.69
301.288	320.69
301.518	324.69
301.748	305.69
301.979	302.69
302.209	313.69
302.439	308.69
302.669	297.69
302.9	316.69
303.13	308.69
303.36	313.69
303.59	305.69
303.82	322.69
304.051	313.69
304.281	319.69
304.511	295.69
304.741	313.69
304.971	313.69
305.201	307.69
305.431	297.69
305.661	308.69
305.891	316.69
306.121	310.69
306.352	331.69
306.582	318.69
306.812	324.69
307.042	294.69
307.272	326.69
307.502	325.69
307.731	317.69
307.961	311.69
308.191	308.69
308.421	329.69
308.651	336.69
308.881	322.69
309.111	338.69
309.341	329.69
309.571	338.69
309.8	361.69
310.03	392.69
310.26	364.69
310.49	379.69
310.72	379.69
310.949	408.69
311.179	407.69
311.409	396.69
311.639	374.69
311.868	390.69
312.098	366.69
312.328	369.69
312.557	398.69
312.787	396.69
313.017	401.69
313.246	374.69
313.476	350.69
313.706	377.69
313.935	392.69
314.165	382.69
314.394	400.69
314.624	394.69
314.853	384.69
315.083	396.69
315.312	384.69
315.542	352.69
315.771	354.69
316.001	357.69
316.23	371.69
316.46	350.69
316.689	394.69
316.919	360.69
317.148	396.69
317.377	376.69
317.607	393.69
317.836	387.69
318.065	370.69
318.295	377.69
318.524	343.69
318.753	370.69
318.983	383.69
319.212	383.69
319.441	374.69
319.67	384.69
319.9	369.69
320.129	385.69
320.358	385.69
320.587	384.69
320.816	370.69
321.046	417.69
321.275	392.69
321.504	397.69
321.733	398.69
321.962	393.69
322.191	421.69
322.42	437.69
322.649	466.69
322.878	472.69
323.108	478.69
323.337	516.69
323.566	534.69
323.795	607.69
324.024	644.69
324.253	783.69
324.482	1152.69
324.71	1780.69
324.939	2556.69
325.168	2221.69
325.397	1144.69
325.626	740.69
325.855	597.69
326.084	569.69
326.313	536.69
326.542	543.69
326.77	589.69
326.999	714.69
327.228	1037.69
327.457	1545.69
327.686	1901.69
327.914	1265.69
328.143	830.69
328.372	715.69
328.6	646.69
328.829	597.69
329.058	649.69
329.287	647.69
329.515	600.69
329.744	556.69
329.972	548.69
330.201	575.69
330.43	605.69
330.658	637.69
330.887	697.69
331.115	646.69
331.344	558.69
331.572	513.69
331.801	533.69
332.03	503.69
332.258	488.69
332.486	464.69
332.715	460.69
332.943	457.69
333.172	455.69
333.4	454.69
333.629	442.69
333.857	477.69
334.085	484.69
334.314	497.69
334.542	524.69
334.771	551.69
334.999	491.69
335.227	468.69
335.455	429.69
335.684	421.69
335.912	440.69
336.14	445.69
336.369	448.69
336.597	445.69
336.825	446.69
337.053	442.69
337.281	431.69
337.51	438.69
337.738	427.69
337.966	420.69
338.194	434.69
338.422	444.69
338.65	430.69
338.878	444.69
339.106	406.69
339.334	411.69
339.562	411.69
339.79	432.69
340.018	416.69
340.246	440.69
340.474	429.69
340.702	418.69
340.93	413.69
341.158	427.69
341.386	445.69
341.614	454.69
341.842	427.69
342.07	422.69
342.298	434.69
342.526	412.69
342.754	410.69
342.981	416.69
343.209	417.69
343.437	403.69
343.665	423.69
343.893	410.69
344.12	431.69
344.348	406.69
344.576	425.69
344.804	428.69
345.031	451.69
345.259	450.69
345.487	446.69
345.714	446.69
345.942	437.69
346.17	421.69
346.397	397.69
346.625	422.69
346.853	414.69
347.08	427.69
347.308	409.69
347.535	426.69
347.763	437.69
347.99	444.69
348.218	442.69
348.445	446.69
348.673	440.69
348.9	423.69
349.128	398.69
349.355	404.69
349.583	426.69
349.81	417.69
350.037	411.69
350.265	401.69
350.492	410.69
350.72	405.69
350.947	433.69
351.174	427.69
351.402	456.69
351.629	438.69
351.856	427.69
352.083	427.69
352.311	477.69
352.538	434.69
352.765	461.69
352.992	445.69
353.22	430.69
353.447	433.69
353.674	416.69
353.901	415.69
354.128	389.69
354.355	390.69
354.583	397.69
354.81	402.69
355.037	401.69
355.264	399.69
355.491	382.69
355.718	381.69
355.945	406.69
356.172	402.69
356.399	390.69
356.626	398.69
356.853	375.69
357.08	385.69
357.307	362.69
357.534	396.69
357.761	389.69
357.988	409.69
358.215	408.69
358.441	397.69
358.668	359.69
358.895	399.69
359.122	426.69
359.349	438.69
359.576	426.69
359.802	456.69
360.029	490.69
360.256	510.69
360.483	482.69
360.709	447.69
360.936	418.69
361.163	446.69
361.39	431.69
361.616	441.69
361.843	436.69
362.07	437.69
362.296	427.69
362.523	417.69
362.749	426.69
362.976	427.69
363.203	449.69
363.429	409.69
363.656	412.69
363.882	408.69
364.109	415.69
364.335	397.69
364.562	399.69
364.788	409.69
365.015	413.69
365.241	413.69
365.468	421.69
365.694	408.69
365.92	418.69
366.147	414.69
366.373	424.69
366.599	412.69
366.826	412.69
367.052	413.69
367.278	385.69
367.505	402.69
367.731	407.69
367.957	407.69
368.184	425.69
368.41	416.69
368.636	426.69
368.862	431.69
369.089	421.69
369.315	431.69
369.541	402.69
369.767	389.69
369.993	415.69
370.219	414.69
370.445	399.69
370.672	408.69
370.898	398.69
371.124	406.69
371.35	406.69
371.576	406.69
371.802	391.69
372.028	388.69
372.254	410.69
372.48	409.69
372.706	392.69
372.932	407.69
373.158	409.69
373.384	405.69
373.61	398.69
373.835	422.69
374.061	413.69
374.287	432.69
374.513	415.69
374.739	429.69
374.965	406.69
375.191	408.69
375.416	411.69
375.642	408.69
375.868	415.69
376.094	406.69
376.319	399.69
376.545	406.69
376.771	391.69
376.997	398.69
377.222	402.69
377.448	387.69
377.674	400.69
377.899	402.69
378.125	409.69
378.35	400.69
378.576	412.69
378.802	384.69
379.027	422.69
379.253	388.69
379.478	393.69
379.704	403.69
379.929	412.69
380.155	415.69
380.38	415.69
380.606	407.69
380.831	424.69
381.057	431.69
381.282	391.69
381.507	414.69
381.733	425.69
381.958	400.69
382.184	407.69
382.409	421.69
382.634	406.69
382.86	409.69
383.085	412.69
383.31	420.69
383.535	408.69
383.761	407.69
383.986	419.69
384.211	439.69
384.436	415.69
384.662	422.69
384.887	440.69
385.112	438.69
385.337	437.69
385.562	437.69
385.787	418.69
386.013	468.69
386.238	442.69
386.463	440.69
386.688	440.69
386.913	423.69
387.138	441.69
387.363	423.69
387.588	432.69
387.813	439.69
388.038	448.69
388.263	421.69
388.488	466.69
388.713	420.69
388.938	430.69
389.163	428.69
389.387	438.69
389.612	451.69
389.837	421.69
390.062	447.69
390.287	426.69
390.512	442.69
390.736	435.69
390.961	431.69
391.186	440.69
391.411	449.69
391.636	446.69
391.86	451.69
392.085	452.69
392.31	447.69
392.534	448.69
392.759	434.69
392.984	433.69
393.208	468.69
393.433	472.69
393.658	448.69
393.882	466.69
394.107	447.69
394.331	431.69
394.556	445.69
394.78	446.69
395.005	444.69
395.229	453.69
395.454	455.69
395.678	448.69
395.903	460.69
396.127	503.69
396.352	500.69
396.576	456.69
396.801	454.69
397.025	465.69
397.249	476.69
397.474	452.69
397.698	465.69
397.922	482.69
398.147	484.69
398.371	500.69
398.595	511.69
398.82	487.69
399.044	498.69
399.268	510.69
399.492	527.69
399.717	551.69
399.941	586.69
400.165	621.69
400.389	640.69
400.613	568.69
400.837	546.69
401.062	510.69
401.286	529.69
401.51	530.69
401.734	514.69
401.958	515.69
402.182	502.69
402.406	519.69
402.63	528.69
402.854	505.69
403.078	526.69
403.302	518.69
403.526	539.69
403.75	511.69
403.974	532.69
404.198	536.69
404.422	561.69
404.645	526.69
404.869	519.69
405.093	581.69
405.317	611.69
405.541	642.69
405.765	598.69
405.988	576.69
406.212	576.69
406.436	615.69
406.66	603.69
406.883	599.69
407.107	609.69
407.331	680.69
407.555	684.69
407.778	707.69
408.002	632.69
408.226	593.69
408.449	579.69
408.673	582.69
408.896	648.69
409.12	661.69
409.344	607.69
409.567	554.69
409.791	541.69
410.014	549.69
410.238	548.69
410.461	544.69
410.685	562.69
410.908	554.69
411.132	585.69
411.355	613.69
411.578	606.69
411.802	555.69
412.025	538.69
412.249	544.69
412.472	586.69
412.695	608.69
412.919	604.69
413.142	577.69
413.365	528.69
413.589	495.69
413.812	538.69
414.035	496.69
414.258	517.69
414.482	508.69
414.705	502.69
414.928	490.69
415.151	508.69
415.374	496.69
415.597	505.69
415.821	497.69
416.044	520.69
416.267	514.69
416.49	525.69
416.713	500.69
416.936	484.69
417.159	509.69
417.382	522.69
417.605	532.69
417.828	532.69
418.051	536.69
418.274	525.69
418.497	510.69
418.72	511.69
418.943	502.69
419.166	535.69
419.389	546.69
419.611	565.69
419.834	527.69
420.057	554.69
420.28	549.69
420.503	528.69
420.726	560.69
420.948	556.69
421.171	621.69
421.394	647.69
421.617	553.69
421.839	541.69
422.062	542.69
422.285	570.69
422.507	639.69
422.73	724.69
422.953	693.69
423.175	597.69
423.398	585.69
423.621	599.69
423.843	607.69
424.066	606.69
424.288	615.69
424.511	618.69
424.733	698.69
424.956	766.69
425.178	744.69
425.401	720.69
425.623	789.69
425.846	660.69
426.068	619.69
426.291	610.69
426.513	629.69
426.735	601.69
426.958	646.69
427.18	776.69
427.402	881.69
427.625	968.69
427.847	891.69
428.069	768.69
428.292	670.69
428.514	628.69
428.736	592.69
428.958	564.69
429.181	577.69
429.403	560.69
429.625	556.69
429.847	635.69
430.069	693.69
430.292	694.69
430.514	586.69
430.736	568.69
430.958	556.69
431.18	528.69
431.402	537.69
431.624	506.69
431.846	504.69
432.068	507.69
432.29	524.69
432.512	530.69
432.734	530.69
432.956	530.69
433.178	528.69
433.4	537.69
433.622	543.69
433.844	536.69
434.066	506.69
434.287	520.69
434.509	522.69
434.731	517.69
434.953	521.69
435.175	574.69
435.397	601.69
435.618	616.69
435.84	648.69
436.062	749.69
436.284	830.69
436.505	711.69
436.727	623.69
436.949	588.69
437.17	556.69
437.392	565.69
437.614	578.69
437.835	632.69
438.057	734.69
438.278	864.69
438.5	825.69
438.721	907.69
438.943	894.69
439.165	716.69
439.386	654.69
439.608	623.69
439.829	642.69
440.05	688.69
440.272	700.69
440.493	656.69
440.715	612.69
440.936	606.69
441.158	563.69
441.379	567.69
441.6	590.69
441.822	637.69
442.043	650.69
442.264	744.69
442.486	801.69
442.707	688.69
442.928	660.69
443.149	644.69
443.371	666.69
443.592	696.69
443.813	809.69
444.034	863.69
444.255	703.69
444.476	618.69
444.698	603.69
444.919	622.69
445.14	691.69
445.361	657.69
445.582	678.69
445.803	721.69
446.024	840.69
446.245	868.69
446.466	782.69
446.687	660.69
446.908	618.69
447.129	598.69
447.35	583.69
447.571	570.69
447.792	567.69
448.013	545.69
448.234	574.69
448.455	646.69
448.675	760.69
448.896	880.69
449.117	759.69
449.338	728.69
449.559	842.69
449.779	933.69
450	753.69
450.221	666.69
450.442	621.69
450.662	567.69
450.883	573.69
451.104	582.69
451.324	588.69
451.545	540.69
451.766	523.69
451.986	533.69
452.207	514.69
452.428	496.69
452.648	534.69
452.869	528.69
453.089	527.69
453.31	541.69
453.53	541.69
453.751	504.69
453.971	508.69
454.192	553.69
454.412	530.69
454.633	514.69
454.853	521.69
455.073	516.69
455.294	551.69
455.514	630.69
455.734	620.69
455.955	506.69
456.175	480.69
456.395	457.69
456.616	473.69
456.836	483.69
457.056	477.69
457.276	492.69
457.497	473.69
457.717	480.69
457.937	489.69
458.157	489.69
458.377	519.69
458.598	533.69
458.818	628.69
459.038	708.69
459.258	701.69
459.478	608.69
459.698	528.69
459.918	511.69
460.138	517.69
460.358	521.69
460.578	517.69
460.798	499.69
461.018	528.69
461.238	524.69
461.458	519.69
461.678	534.69
461.898	515.69
462.118	498.69
462.338	508.69
462.558	518.69
462.777	540.69
462.997	525.69
463.217	529.69
463.437	540.69
463.657	524.69
463.876	550.69
464.096	544.69
464.316	526.69
464.536	552.69
464.755	548.69
464.975	553.69
465.195	631.69
465.414	729.69
465.634	646.69
465.854	580.69
466.073	557.69
466.293	534.69
466.512	538.69
466.732	518.69
466.951	506.69
467.171	523.69
467.391	525.69
467.61	527.69
467.829	560.69
468.049	518.69
468.268	535.69
468.488	518.69
468.707	509.69
468.927	515.69
469.146	516.69
469.365	513.69
469.585	487.69
469.804	502.69
470.023	529.69
470.243	542.69
470.462	541.69
470.681	589.69
470.901	565.69
471.12	531.69
471.339	516.69
471.558	534.69
471.777	526.69
471.997	525.69
472.216	519.69
472.435	553.69
472.654	538.69
472.873	520.69
473.092	502.69
473.311	497.69
473.53	526.69
473.749	528.69
473.968	590.69
474.187	706.69
474.406	728.69
474.625	611.69
474.844	526.69
475.063	522.69
475.282	539.69
475.501	538.69
475.72	536.69
475.939	524.69
476.158	521.69
476.377	540.69
476.596	539.69
476.814	538.69
477.033	553.69
477.252	564.69
477.471	558.69
477.69	551.69
477.908	560.69
478.127	567.69
478.346	557.69
478.564	561.69
478.783	574.69
479.002	592.69
479.22	573.69
479.439	610.69
479.658	618.69
479.876	637.69
480.095	630.69
480.313	656.69
480.532	644.69
480.751	667.69
480.969	657.69
481.188	706.69
481.406	744.69
481.624	671.69
481.843	658.69
482.061	624.69
482.28	633.69
482.498	620.69
482.717	626.69
482.935	636.69
483.153	604.69
483.372	622.69
483.59	604.69
483.808	612.69
484.027	613.69
484.245	623.69
484.463	637.69
484.681	638.69
484.9	604.69
485.118	640.69
485.336	641.69
485.554	654.69
485.772	644.69
485.99	638.69
486.209	646.69
486.427	667.69
486.645	670.69
486.863	716.69
487.081	692.69
487.299	712.69
487.517	664.69
487.735	641.69
487.953	680.69
488.171	670.69
488.389	666.69
488.607	677.69
488.825	686.69
489.043	673.69
489.261	710.69
489.479	671.69
489.696	677.69
489.914	695.69
490.132	692.69
490.35	697.69
490.568	722.69
490.786	722.69
491.003	752.69
491.221	796.69
491.439	765.69
491.657	779.69
491.874	779.69
492.092	790.69
492.31	832.69
492.527	794.69
492.745	813.69
492.963	805.69
493.18	804.69
493.398	782.69
493.615	823.69
493.833	826.69
494.05	818.69
494.268	820.69
494.485	809.69
494.703	811.69
494.92	824.69
495.138	815.69
495.355	813.69
495.573	822.69
495.79	814.69
496.008	806.69
496.225	817.69
496.442	803.69
496.66	785.69
496.877	820.69
497.094	832.69
497.312	861.69
497.529	841.69
497.746	849.69
497.963	851.69
498.181	857.69
498.398	870.69
498.615	860.69
498.832	879.69
499.049	887.69
499.267	894.69
499.484	891.69
499.701	912.69
499.918	940.69
500.135	976.69
500.352	990.69
500.569	1015.69
500.786	1016.69
501.003	1007.69
501.22	1002.69
501.437	982.69
501.654	1008.69
501.871	957.69
502.088	929.69
502.305	897.69
502.522	884.69
502.739	902.69
502.956	870.69
503.172	844.69
503.389	839.69
503.606	847.69
503.823	845.69
504.04	832.69
504.256	824.69
504.473	808.69
504.69	827.69
504.907	786.69
505.123	798.69
505.34	766.69
505.557	800.69
505.773	792.69
505.99	804.69
506.207	792.69
506.423	779.69
506.64	795.69
506.856	776.69
507.073	766.69
507.289	748.69
507.506	763.69
507.722	794.69
507.939	820.69
508.155	804.69
508.372	756.69
508.588	782.69
508.805	777.69
509.021	770.69
509.238	764.69
509.454	754.69
509.67	750.69
509.887	769.69
510.103	760.69
510.319	769.69
510.536	905.69
510.752	1527.69
510.968	1244.69
511.184	812.69
511.401	745.69
511.617	748.69
511.833	726.69
512.049	705.69
512.265	719.69
512.481	717.69
512.698	705.69
512.914	713.69
513.13	726.69
513.346	696.69
513.562	701.69
513.778	735.69
513.994	717.69
514.21	745.69
514.426	787.69
514.642	828.69
514.858	862.69
515.074	926.69
515.29	1114.69
515.506	1719.69
515.721	1406.69
515.937	897.69
516.153	808.69
516.369	790.69
516.585	759.69
516.801	755.69
517.016	744.69
517.232	719.69
517.448	739.69
517.664	724.69
517.879	721.69
518.095	720.69
518.311	733.69
518.527	687.69
518.742	715.69
518.958	699.69
519.173	709.69
519.389	734.69
519.605	717.69
519.82	743.69
520.036	737.69
520.251	769.69
520.467	818.69
520.682	829.69
520.898	851.69
521.113	892.69
521.329	914.69
521.544	1039.69
521.76	1371.69
521.975	2317.69
522.19	2224.69
522.406	1206.69
522.621	873.69
522.836	781.69
523.052	732.69
523.267	712.69
523.482	678.69
523.698	684.69
523.913	689.69
524.128	672.69
524.343	633.69
524.559	632.69
524.774	630.69
524.989	606.69
525.204	645.69
525.419	622.69
525.634	622.69
525.849	600.69
526.064	598.69
526.28	608.69
526.495	604.69
526.71	576.69
526.925	574.69
527.14	598.69
527.355	579.69
527.57	578.69
527.785	571.69
527.999	582.69
528.214	580.69
528.429	569.69
528.644	567.69
528.859	584.69
529.074	581.69
529.289	602.69
529.503	743.69
529.718	711.69
529.933	629.69
530.148	607.69
530.363	598.69
530.577	576.69
530.792	562.69
531.007	575.69
531.221	577.69
531.436	535.69
531.651	541.69
531.865	554.69
532.08	566.69
532.295	545.69
532.509	564.69
532.724	529.69
532.938	529.69
533.153	549.69
533.367	539.69
533.582	553.69
533.796	551.69
534.011	542.69
534.225	547.69
534.44	505.69
534.654	514.69
534.868	533.69
535.083	537.69
535.297	518.69
535.511	542.69
535.726	531.69
535.94	586.69
536.154	549.69
536.369	539.69
536.583	520.69
536.797	530.69
537.011	525.69
537.225	505.69
537.44	525.69
537.654	512.69
537.868	508.69
538.082	506.69
538.296	528.69
538.51	525.69
538.724	507.69
538.938	527.69
539.153	518.69
539.367	553.69
539.581	534.69
539.795	515.69
540.009	520.69
540.222	494.69
540.436	522.69
540.65	516.69
540.864	521.69
541.078	531.69
541.292	562.69
541.506	528.69
541.72	536.69
541.934	538.69
542.147	546.69
542.361	536.69
542.575	518.69
542.789	512.69
543.002	505.69
543.216	505.69
543.43	510.69
543.644	523.69
543.857	537.69
544.071	503.69
544.285	525.69
544.498	516.69
544.712	500.69
544.925	517.69
545.139	535.69
545.352	496.69
545.566	493.69
545.779	498.69
545.993	482.69
546.206	509.69
546.42	510.69
546.633	513.69
546.847	493.69
547.06	502.69
547.274	472.69
547.487	509.69
547.7	486.69
547.914	487.69
548.127	504.69
548.34	492.69
548.554	489.69
548.767	518.69
548.98	490.69
549.193	485.69
549.407	490.69
549.62	498.69
549.833	491.69
550.046	475.69
550.259	491.69
550.473	490.69
550.686	472.69
550.899	478.69
551.112	487.69
551.325	490.69
551.538	475.69
551.751	475.69
551.964	461.69
552.177	471.69
552.39	488.69
552.603	502.69
552.816	480.69
553.029	471.69
553.242	496.69
553.455	513.69
553.667	495.69
553.88	504.69
554.093	486.69
554.306	475.69
554.519	488.69
554.732	486.69
554.944	489.69
555.157	484.69
555.37	455.69
555.583	472.69
555.795	478.69
556.008	462.69
556.221	459.69
556.433	449.69
556.646	421.69
556.859	457.69
557.071	451.69
557.284	447.69
557.496	472.69
557.709	447.69
557.921	447.69
558.134	433.69
558.346	446.69
558.559	434.69
558.771	441.69
558.984	434.69
559.196	424.69
559.409	418.69
559.621	437.69
559.833	431.69
560.046	447.69
560.258	435.69
560.47	440.69
560.683	430.69
560.895	428.69
561.107	442.69
561.32	438.69
561.532	429.69
561.744	429.69
561.956	441.69
562.168	429.69
562.381	423.69
562.593	440.69
562.805	427.69
563.017	442.69
563.229	445.69
563.441	432.69
563.653	444.69
563.865	446.69
564.077	445.69
564.289	440.69
564.501	420.69
564.713	447.69
564.925	454.69
565.137	467.69
565.349	472.69
565.561	452.69
565.773	462.69
565.985	465.69
566.197	467.69
566.408	440.69
566.62	481.69
566.832	502.69
567.044	487.69
567.255	467.69
567.467	497.69
567.679	496.69
567.891	509.69
568.102	504.69
568.314	490.69
568.526	478.69
568.737	477.69
568.949	482.69
569.161	441.69
569.372	465.69
569.584	441.69
569.795	415.69
570.007	430.69
570.218	514.69
570.43	466.69
570.641	407.69
570.853	408.69
571.064	400.69
571.276	390.69
571.487	403.69
571.698	397.69
571.91	402.69
572.121	404.69
572.333	381.69
572.544	379.69
572.755	387.69
572.966	383.69
573.178	382.69
573.389	377.69
573.6	394.69
573.811	379.69
574.023	372.69
574.234	382.69
574.445	379.69
574.656	355.69
574.867	372.69
575.078	369.69
575.289	374.69
575.501	380.69
575.712	367.69
575.923	396.69
576.134	384.69
576.345	379.69
576.556	369.69
576.767	364.69
576.978	356.69
577.188	358.69
577.399	355.69
577.61	367.69
577.821	361.69
578.032	363.69
578.243	422.69
578.454	753.69
578.665	525.69
578.875	382.69
579.086	363.69
579.297	359.69
579.508	362.69
579.718	358.69
579.929	349.69
580.14	348.69
580.35	341.69
580.561	343.69
580.772	348.69
580.982	343.69
581.193	357.69
581.403	355.69
581.614	337.69
581.825	318.69
582.035	325.69
582.246	351.69
582.456	330.69
582.667	314.69
582.877	340.69
583.087	344.69
583.298	324.69
583.508	344.69
583.719	341.69
583.929	331.69
584.139	340.69
584.35	338.69
584.56	338.69
584.77	328.69
584.981	346.69
585.191	338.69
585.401	337.69
585.611	350.69
585.821	334.69
586.032	325.69
586.242	344.69
586.452	338.69
586.662	318.69
586.872	327.69
587.082	335.69
587.292	311.69
587.502	296.69
587.713	327.69
587.923	322.69
588.133	331.69
588.343	327.69
588.553	322.69
588.762	329.69
588.972	335.69
589.182	344.69
589.392	337.69
589.602	300.69
589.812	318.69
590.022	298.69
590.232	308.69
590.441	321.69
590.651	312.69
590.861	319.69
591.071	322.69
591.281	323.69
591.49	300.69
591.7	315.69
591.91	336.69
592.119	324.69
592.329	326.69
592.539	329.69
592.748	315.69
592.958	331.69
593.167	324.69
593.377	326.69
593.587	362.69
593.796	338.69
594.006	326.69
594.215	327.69
594.424	317.69
594.634	318.69
594.843	327.69
595.053	316.69
595.262	325.69
595.472	316.69
595.681	318.69
595.89	314.69
596.1	310.69
596.309	310.69
596.518	327.69
596.727	316.69
596.937	301.69
597.146	309.69
597.355	317.69
597.564	291.69
597.774	300.69
597.983	292.69
598.192	290.69
598.401	286.69
598.61	293.69
598.819	306.69
599.028	305.69
599.237	298.69
599.446	305.69
599.655	278.69
599.864	284.69
600.073	282.69
600.282	304.69
600.491	272.69
600.7	297.69
600.909	289.69
601.118	297.69
601.327	291.69
601.536	298.69
601.745	287.69
601.953	272.69
602.162	275.69
602.371	290.69
602.58	300.69
602.789	296.69
602.997	274.69
603.206	313.69
603.415	273.69
603.623	286.69
603.832	283.69
604.041	285.69
604.249	272.69
604.458	265.69
604.666	269.69
604.875	285.69
605.084	291.69
605.292	285.69
605.501	289.69
605.709	284.69
605.918	255.69
606.126	266.69
606.334	280.69
606.543	294.69
606.751	277.69
606.96	264.69
607.168	270.69
607.376	280.69
607.585	284.69
607.793	280.69
608.001	267.69
608.21	262.69
608.418	257.69
608.626	267.69
608.834	269.69
609.043	255.69
609.251	265.69
609.459	290.69
609.667	268.69
609.875	276.69
610.083	274.69
610.291	280.69
610.499	267.69
610.707	275.69
610.916	266.69
611.124	280.69
611.332	296.69
611.54	287.69
611.748	264.69
611.955	266.69
612.163	273.69
612.371	273.69
612.579	261.69
612.787	268.69
612.995	273.69
613.203	258.69
613.411	244.69
613.618	261.69
613.826	266.69
614.034	270.69
614.242	248.69
614.449	264.69
614.657	249.69
614.865	269.69
615.072	266.69
615.28	275.69
615.488	273.69
615.695	264.69
615.903	274.69
616.111	274.69
616.318	262.69
616.526	252.69
616.733	271.69
616.941	255.69
617.148	277.69
617.356	261.69
617.563	264.69
617.771	257.69
617.978	251.69
618.185	248.69
618.393	252.69
618.6	266.69
618.807	245.69
619.015	253.69
619.222	257.69
619.429	261.69
619.637	262.69
619.844	263.69
620.051	260.69
620.258	257.69
620.466	261.69
620.673	264.69
620.88	237.69
621.087	244.69
621.294	254.69
621.501	250.69
621.708	233.69
621.915	262.69
622.122	229.69
622.329	241.69
622.536	240.69
622.743	262.69
622.95	244.69
623.157	260.69
623.364	244.69
623.571	238.69
623.778	254.69
623.985	249.69
624.192	236.69
624.399	246.69
624.606	226.69
624.812	234.69
625.019	234.69
625.226	233.69
625.433	236.69
625.639	250.69
625.846	238.69
626.053	234.69
626.259	232.69
626.466	230.69
626.673	215.69
626.879	240.69
627.086	232.69
627.293	224.69
627.499	245.69
627.706	235.69
627.912	224.69
628.119	225.69
628.325	231.69
628.532	230.69
628.738	236.69
628.945	217.69
629.151	223.69
629.357	226.69
629.564	214.69
629.77	206.69
629.976	225.69
630.183	216.69
630.389	227.69
630.595	214.69
630.802	227.69
631.008	210.69
631.214	209.69
631.42	219.69
631.627	240.69
631.833	228.69
632.039	200.69
632.245	205.69
632.451	214.69
632.657	229.69
632.863	212.69
633.069	217.69
633.275	198.69
633.481	218.69
633.688	191.69
633.893	200.69
634.099	214.69
634.305	204.69
634.511	209.69
634.717	215.69
634.923	198.69
635.129	191.69
635.335	216.69
635.541	207.69
635.747	199.69
635.952	207.69
636.158	196.69
636.364	206.69
636.57	196.69
636.775	211.69
636.981	205.69
637.187	199.69
637.392	189.69
637.598	201.69
637.804	203.69
638.009	201.69
638.215	194.69
638.421	203.69
638.626	194.69
638.832	204.69
639.037	203.69
639.243	200.69
639.448	194.69
639.654	199.69
639.859	187.69
640.065	205.69
640.27	201.69
640.475	196.69
640.681	189.69
640.886	180.69
641.091	197.69
641.297	191.69
641.502	176.69
641.707	184.69
641.913	198.69
642.118	177.69
642.323	192.69
642.528	177.69
642.733	196.69
642.939	183.69
643.144	181.69
643.349	192.69
643.554	193.69
643.759	198.69
643.964	169.69
644.169	185.69
644.374	187.69
644.579	184.69
644.784	173.69
644.989	190.69
645.194	180.69
645.399	176.69
645.604	177.69
645.809	165.69
646.014	191.69
646.219	185.69
646.423	178.69
646.628	190.69
646.833	200.69
647.038	185.69
647.243	177.69
647.447	176.69
647.652	187.69
647.857	181.69
648.062	174.69
648.266	178.69
648.471	182.69
648.676	205.69
648.88	200.69
649.085	182.69
649.289	198.69
649.494	197.69
649.698	208.69
649.903	192.69
650.107	195.69
650.312	199.69
650.516	178.69
650.721	181.69
650.925	162.69
651.13	167.69
651.334	166.69
651.539	157.69
651.743	164.69
651.947	160.69
652.152	167.69
652.356	156.69
652.56	164.69
652.764	156.69
652.969	168.69
653.173	147.69
653.377	143.69
653.581	156.69
653.785	150.69
653.99	149.69
654.194	152.69
654.398	140.69
654.602	165.69
654.806	144.69
655.01	160.69
655.214	159.69
655.418	142.69
655.622	130.69
655.826	142.69
656.03	140.69
656.234	149.69
656.438	136.69
656.642	124.69
656.846	142.69
657.049	148.69
657.253	125.69
657.457	110.69
657.661	112.69
657.865	116.69
658.068	112.69
658.272	122.69
658.476	127.69
658.68	113.69
658.883	93.69
659.087	103.69
659.291	108.69
659.494	115.69
659.698	105.69
659.901	88.69
660.105	100.69
660.309	112.69
660.512	102.69
660.716	96.69
660.919	97.69
661.123	98.69
661.326	101.69
661.53	101.69
661.733	93.69
661.936	100.69
662.14	87.69
662.343	83.69
662.546	111.69
662.75	81.69
662.953	102.69
663.156	88.69
663.36	91.69
663.563	80.69
663.766	83.69
663.969	91.69
664.173	104.69
664.376	90.69
664.579	87.69
664.782	84.69
664.985	102.69
665.188	89.69
665.391	82.69
665.594	72.69
665.797	66.69
666	92.69
666.203	84.69
666.406	80.69
666.609	89.69
666.812	89.69
667.015	90.69
667.218	89.69
667.421	85.69
667.624	82.69
667.827	97.69
668.03	85.69
668.232	90.69
668.435	77.69
668.638	75.69
668.841	100.69
669.043	81.69
669.246	90.69
669.449	89.69
669.651	77.69
669.854	85.69
670.057	104.69
670.259	96.69
670.462	89.69
670.665	89.69
670.867	84.69
671.07	86.69
671.272	81.69
671.475	97.69
671.677	89.69
671.88	82.69
672.082	85.69
672.284	96.69
672.487	80.69
672.689	81.69
672.892	89.69
