Data from 1971.PennyLincolnUp.Lamp.En5.5.200Scan.071719.P1._HRD10591_15-20-08-842.txt Node
Date: Thu Jul 18 15:20:08 EDT 2019
User: cochatt
Spectrometer: HR+D1059
Trigger mode: 1
Integration Time (sec): 1.000000E-1
Scans to average: 1
Electric dark correction enabled: true
Nonlinearity correction enabled: false
Boxcar width: 0
XAxis mode: Wavelengths
Number of Pixels in Spectrum: 2048
>>>>>Begin Spectral Data<<<<<
223.165	-10.12
223.4	-10.12
223.635	-10.12
223.869	7.88
224.104	-26.12
224.338	-12.12
224.573	-19.12
224.808	-2.12
225.042	-8.12
225.277	8.88
225.511	-2.12
225.746	-0.12
225.98	7.88
226.215	-0.12
226.449	-10.12
226.683	2.88
226.918	27.88
227.152	34.88
227.387	49.88
227.621	47.88
227.856	53.88
228.09	53.88
228.324	53.88
228.559	46.88
228.793	55.88
229.027	96.88
229.262	104.88
229.496	133.88
229.73	117.88
229.964	137.88
230.199	130.88
230.433	115.88
230.667	110.88
230.901	109.88
231.136	110.88
231.37	95.88
231.604	116.88
231.838	115.88
232.072	110.88
232.306	115.88
232.541	116.88
232.775	123.88
233.009	104.88
233.243	107.88
233.477	106.88
233.711	117.88
233.945	107.88
234.179	109.88
234.413	116.88
234.647	117.88
234.881	120.88
235.115	116.88
235.349	131.88
235.583	126.88
235.817	126.88
236.051	122.88
236.285	114.88
236.519	118.88
236.753	122.88
236.987	137.88
237.221	179.88
237.455	209.88
237.689	169.88
237.922	132.88
238.156	146.88
238.39	126.88
238.624	116.88
238.858	126.88
239.091	136.88
239.325	128.88
239.559	111.88
239.793	120.88
240.027	135.88
240.26	139.88
240.494	145.88
240.728	143.88
240.961	139.88
241.195	145.88
241.429	153.88
241.662	143.88
241.896	139.88
242.13	111.88
242.363	133.88
242.597	131.88
242.83	142.88
243.064	133.88
243.298	147.88
243.531	144.88
243.765	132.88
243.998	133.88
244.232	144.88
244.465	146.88
244.699	149.88
244.932	151.88
245.166	151.88
245.399	145.88
245.633	149.88
245.866	156.88
246.099	149.88
246.333	155.88
246.566	181.88
246.8	160.88
247.033	160.88
247.266	165.88
247.5	165.88
247.733	164.88
247.966	173.88
248.2	191.88
248.433	184.88
248.666	188.88
248.899	203.88
249.133	200.88
249.366	209.88
249.599	192.88
249.832	170.88
250.066	190.88
250.299	187.88
250.532	193.88
250.765	209.88
250.998	228.88
251.231	207.88
251.465	213.88
251.698	227.88
251.931	208.88
252.164	206.88
252.397	212.88
252.63	213.88
252.863	214.88
253.096	215.88
253.329	225.88
253.562	247.88
253.795	216.88
254.028	225.88
254.261	234.88
254.494	224.88
254.727	257.88
254.96	289.88
255.193	276.88
255.426	237.88
255.659	230.88
255.892	236.88
256.124	232.88
256.357	230.88
256.59	233.88
256.823	229.88
257.056	222.88
257.289	217.88
257.521	216.88
257.754	220.88
257.987	232.88
258.22	222.88
258.452	226.88
258.685	213.88
258.918	218.88
259.151	221.88
259.383	228.88
259.616	235.88
259.849	234.88
260.081	252.88
260.314	288.88
260.547	280.88
260.779	255.88
261.012	242.88
261.244	239.88
261.477	231.88
261.71	221.88
261.942	237.88
262.175	235.88
262.407	220.88
262.64	216.88
262.872	230.88
263.105	219.88
263.337	197.88
263.57	201.88
263.802	234.88
264.035	224.88
264.267	218.88
264.499	223.88
264.732	233.88
264.964	236.88
265.197	221.88
265.429	223.88
265.661	208.88
265.894	215.88
266.126	220.88
266.358	225.88
266.591	238.88
266.823	220.88
267.055	234.88
267.287	232.88
267.52	232.88
267.752	228.88
267.984	240.88
268.216	236.88
268.448	236.88
268.681	261.88
268.913	259.88
269.145	296.88
269.377	280.88
269.609	283.88
269.841	263.88
270.073	286.88
270.306	300.88
270.538	328.88
270.77	328.88
271.002	300.88
271.234	299.88
271.466	316.88
271.698	307.88
271.93	328.88
272.162	325.88
272.394	348.88
272.626	293.88
272.858	292.88
273.09	305.88
273.322	302.88
273.553	286.88
273.785	273.88
274.017	274.88
274.249	287.88
274.481	293.88
274.713	284.88
274.945	283.88
275.176	296.88
275.408	282.88
275.64	273.88
275.872	279.88
276.104	284.88
276.335	267.88
276.567	277.88
276.799	310.88
277.031	314.88
277.262	324.88
277.494	320.88
277.726	288.88
277.957	302.88
278.189	293.88
278.421	279.88
278.652	305.88
278.884	277.88
279.115	283.88
279.347	256.88
279.579	283.88
279.81	277.88
280.042	287.88
280.273	273.88
280.505	256.88
280.736	260.88
280.968	294.88
281.199	275.88
281.431	286.88
281.662	277.88
281.894	285.88
282.125	284.88
282.356	284.88
282.588	301.88
282.819	309.88
283.051	286.88
283.282	269.88
283.513	299.88
283.745	289.88
283.976	301.88
284.207	296.88
284.439	283.88
284.67	288.88
284.901	271.88
285.132	293.88
285.364	291.88
285.595	286.88
285.826	301.88
286.057	300.88
286.288	292.88
286.52	298.88
286.751	288.88
286.982	295.88
287.213	299.88
287.444	310.88
287.675	300.88
287.906	305.88
288.138	313.88
288.369	315.88
288.6	309.88
288.831	300.88
289.062	313.88
289.293	297.88
289.524	286.88
289.755	307.88
289.986	304.88
290.217	300.88
290.448	298.88
290.679	281.88
290.91	309.88
291.141	302.88
291.371	283.88
291.602	291.88
291.833	295.88
292.064	308.88
292.295	320.88
292.526	302.88
292.757	301.88
292.987	303.88
293.218	287.88
293.449	297.88
293.68	302.88
293.91	300.88
294.141	288.88
294.372	312.88
294.603	288.88
294.833	288.88
295.064	293.88
295.295	314.88
295.525	314.88
295.756	315.88
295.987	314.88
296.217	335.88
296.448	334.88
296.679	305.88
296.909	303.88
297.14	295.88
297.37	321.88
297.601	321.88
297.831	320.88
298.062	304.88
298.292	327.88
298.523	307.88
298.753	319.88
298.984	318.88
299.214	311.88
299.445	310.88
299.675	319.88
299.905	319.88
300.136	318.88
300.366	323.88
300.597	312.88
300.827	332.88
301.057	337.88
301.288	337.88
301.518	330.88
301.748	321.88
301.979	351.88
302.209	343.88
302.439	337.88
302.669	317.88
302.9	345.88
303.13	328.88
303.36	332.88
303.59	339.88
303.82	344.88
304.051	336.88
304.281	341.88
304.511	327.88
304.741	325.88
304.971	335.88
305.201	340.88
305.431	311.88
305.661	337.88
305.891	335.88
306.121	320.88
306.352	356.88
306.582	339.88
306.812	327.88
307.042	345.88
307.272	343.88
307.502	348.88
307.731	342.88
307.961	345.88
308.191	345.88
308.421	339.88
308.651	353.88
308.881	350.88
309.111	342.88
309.341	323.88
309.571	376.88
309.8	366.88
310.03	352.88
310.26	366.88
310.49	388.88
310.72	397.88
310.949	397.88
311.179	385.88
311.409	401.88
311.639	411.88
311.868	374.88
312.098	370.88
312.328	405.88
312.557	411.88
312.787	426.88
313.017	420.88
313.246	398.88
313.476	383.88
313.706	377.88
313.935	388.88
314.165	387.88
314.394	388.88
314.624	406.88
314.853	400.88
315.083	399.88
315.312	400.88
315.542	377.88
315.771	372.88
316.001	377.88
316.23	389.88
316.46	382.88
316.689	379.88
316.919	404.88
317.148	395.88
317.377	400.88
317.607	381.88
317.836	399.88
318.065	390.88
318.295	399.88
318.524	392.88
318.753	387.88
318.983	397.88
319.212	377.88
319.441	383.88
319.67	385.88
319.9	384.88
320.129	381.88
320.358	377.88
320.587	401.88
320.816	394.88
321.046	396.88
321.275	413.88
321.504	408.88
321.733	406.88
321.962	420.88
322.191	436.88
322.42	435.88
322.649	451.88
322.878	456.88
323.108	488.88
323.337	487.88
323.566	489.88
323.795	540.88
324.024	574.88
324.253	693.88
324.482	962.88
324.71	1459.88
324.939	1983.88
325.168	1663.88
325.397	897.88
325.626	642.88
325.855	544.88
326.084	508.88
326.313	491.88
326.542	493.88
326.77	549.88
326.999	651.88
327.228	867.88
327.457	1248.88
327.686	1455.88
327.914	990.88
328.143	683.88
328.372	618.88
328.6	588.88
328.829	549.88
329.058	557.88
329.287	552.88
329.515	512.88
329.744	488.88
329.972	493.88
330.201	512.88
330.43	556.88
330.658	557.88
330.887	586.88
331.115	572.88
331.344	513.88
331.572	469.88
331.801	479.88
332.03	499.88
332.258	451.88
332.486	442.88
332.715	447.88
332.943	462.88
333.172	438.88
333.4	435.88
333.629	449.88
333.857	468.88
334.085	486.88
334.314	489.88
334.542	507.88
334.771	521.88
334.999	465.88
335.227	474.88
335.455	453.88
335.684	444.88
335.912	441.88
336.14	439.88
336.369	423.88
336.597	448.88
336.825	441.88
337.053	429.88
337.281	415.88
337.51	423.88
337.738	437.88
337.966	435.88
338.194	415.88
338.422	410.88
338.65	415.88
338.878	418.88
339.106	400.88
339.334	443.88
339.562	436.88
339.79	393.88
340.018	435.88
340.246	432.88
340.474	426.88
340.702	394.88
340.93	413.88
341.158	409.88
341.386	421.88
341.614	431.88
341.842	393.88
342.07	421.88
342.298	420.88
342.526	383.88
342.754	388.88
342.981	407.88
343.209	391.88
343.437	399.88
343.665	415.88
343.893	420.88
344.12	414.88
344.348	423.88
344.576	410.88
344.804	415.88
345.031	425.88
345.259	432.88
345.487	430.88
345.714	411.88
345.942	397.88
346.17	402.88
346.397	399.88
346.625	409.88
346.853	399.88
347.08	406.88
347.308	401.88
347.535	385.88
347.763	415.88
347.99	415.88
348.218	399.88
348.445	391.88
348.673	437.88
348.9	404.88
349.128	390.88
349.355	386.88
349.583	411.88
349.81	399.88
350.037	380.88
350.265	377.88
350.492	383.88
350.72	377.88
350.947	376.88
351.174	376.88
351.402	396.88
351.629	398.88
351.856	385.88
352.083	401.88
352.311	396.88
352.538	417.88
352.765	403.88
352.992	393.88
353.22	398.88
353.447	396.88
353.674	377.88
353.901	370.88
354.128	370.88
354.355	348.88
354.583	371.88
354.81	377.88
355.037	372.88
355.264	360.88
355.491	362.88
355.718	361.88
355.945	361.88
356.172	353.88
356.399	359.88
356.626	359.88
356.853	385.88
357.08	365.88
357.307	355.88
357.534	369.88
357.761	371.88
357.988	381.88
358.215	379.88
358.441	346.88
358.668	355.88
358.895	349.88
359.122	388.88
359.349	368.88
359.576	374.88
359.802	401.88
360.029	432.88
360.256	432.88
360.483	409.88
360.709	378.88
360.936	409.88
361.163	388.88
361.39	372.88
361.616	379.88
361.843	379.88
362.07	388.88
362.296	387.88
362.523	399.88
362.749	381.88
362.976	377.88
363.203	376.88
363.429	390.88
363.656	387.88
363.882	385.88
364.109	368.88
364.335	376.88
364.562	376.88
364.788	368.88
365.015	381.88
365.241	375.88
365.468	375.88
365.694	371.88
365.92	338.88
366.147	358.88
366.373	365.88
366.599	357.88
366.826	372.88
367.052	364.88
367.278	353.88
367.505	370.88
367.731	363.88
367.957	367.88
368.184	354.88
368.41	379.88
368.636	377.88
368.862	387.88
369.089	371.88
369.315	375.88
369.541	366.88
369.767	364.88
369.993	360.88
370.219	357.88
370.445	360.88
370.672	384.88
370.898	357.88
371.124	373.88
371.35	369.88
371.576	367.88
371.802	364.88
372.028	363.88
372.254	361.88
372.48	353.88
372.706	369.88
372.932	361.88
373.158	364.88
373.384	360.88
373.61	375.88
373.835	361.88
374.061	367.88
374.287	376.88
374.513	353.88
374.739	369.88
374.965	363.88
375.191	355.88
375.416	361.88
375.642	363.88
375.868	358.88
376.094	358.88
376.319	341.88
376.545	362.88
376.771	353.88
376.997	358.88
377.222	357.88
377.448	345.88
377.674	346.88
377.899	346.88
378.125	377.88
378.35	341.88
378.576	339.88
378.802	334.88
379.027	332.88
379.253	342.88
379.478	333.88
379.704	363.88
379.929	364.88
380.155	346.88
380.38	365.88
380.606	346.88
380.831	326.88
381.057	354.88
381.282	359.88
381.507	349.88
381.733	351.88
381.958	345.88
382.184	356.88
382.409	344.88
382.634	358.88
382.86	364.88
383.085	368.88
383.31	358.88
383.535	360.88
383.761	351.88
383.986	336.88
384.211	365.88
384.436	373.88
384.662	357.88
384.887	349.88
385.112	353.88
385.337	362.88
385.562	361.88
385.787	363.88
386.013	378.88
386.238	404.88
386.463	365.88
386.688	389.88
386.913	366.88
387.138	376.88
387.363	375.88
387.588	363.88
387.813	363.88
388.038	361.88
388.263	372.88
388.488	379.88
388.713	364.88
388.938	383.88
389.163	391.88
389.387	360.88
389.612	357.88
389.837	374.88
390.062	371.88
390.287	380.88
390.512	364.88
390.736	354.88
390.961	349.88
391.186	349.88
391.411	374.88
391.636	401.88
391.86	379.88
392.085	385.88
392.31	377.88
392.534	383.88
392.759	375.88
392.984	386.88
393.208	383.88
393.433	373.88
393.658	377.88
393.882	371.88
394.107	367.88
394.331	371.88
394.556	366.88
394.78	375.88
395.005	371.88
395.229	373.88
395.454	384.88
395.678	374.88
395.903	401.88
396.127	410.88
396.352	401.88
396.576	373.88
396.801	385.88
397.025	403.88
397.249	397.88
397.474	401.88
397.698	389.88
397.922	400.88
398.147	407.88
398.371	411.88
398.595	423.88
398.82	404.88
399.044	411.88
399.268	439.88
399.492	440.88
399.717	466.88
399.941	468.88
400.165	514.88
400.389	517.88
400.613	470.88
400.837	442.88
401.062	433.88
401.286	402.88
401.51	399.88
401.734	395.88
401.958	407.88
402.182	427.88
402.406	401.88
402.63	419.88
402.854	426.88
403.078	430.88
403.302	424.88
403.526	413.88
403.75	432.88
403.974	416.88
404.198	430.88
404.422	411.88
404.645	431.88
404.869	429.88
405.093	454.88
405.317	495.88
405.541	489.88
405.765	461.88
405.988	436.88
406.212	459.88
406.436	460.88
406.66	479.88
406.883	441.88
407.107	475.88
407.331	499.88
407.555	554.88
407.778	554.88
408.002	521.88
408.226	468.88
408.449	474.88
408.673	462.88
408.896	488.88
409.12	536.88
409.344	480.88
409.567	447.88
409.791	422.88
410.014	408.88
410.238	438.88
410.461	425.88
410.685	436.88
410.908	450.88
411.132	461.88
411.355	493.88
411.578	454.88
411.802	429.88
412.025	427.88
412.249	437.88
412.472	437.88
412.695	453.88
412.919	459.88
413.142	427.88
413.365	419.88
413.589	412.88
413.812	394.88
414.035	399.88
414.258	398.88
414.482	419.88
414.705	404.88
414.928	390.88
415.151	397.88
415.374	388.88
415.597	393.88
415.821	398.88
416.044	399.88
416.267	392.88
416.49	384.88
416.713	378.88
416.936	383.88
417.159	398.88
417.382	387.88
417.605	389.88
417.828	398.88
418.051	410.88
418.274	429.88
418.497	417.88
418.72	411.88
418.943	379.88
419.166	399.88
419.389	439.88
419.611	435.88
419.834	419.88
420.057	421.88
420.28	430.88
420.503	415.88
420.726	406.88
420.948	443.88
421.171	458.88
421.394	477.88
421.617	440.88
421.839	417.88
422.062	448.88
422.285	443.88
422.507	474.88
422.73	539.88
422.953	516.88
423.175	438.88
423.398	452.88
423.621	451.88
423.843	468.88
424.066	460.88
424.288	453.88
424.511	467.88
424.733	495.88
424.956	575.88
425.178	539.88
425.401	550.88
425.623	549.88
425.846	496.88
426.068	454.88
426.291	454.88
426.513	438.88
426.735	462.88
426.958	502.88
427.18	557.88
427.402	651.88
427.625	724.88
427.847	603.88
428.069	571.88
428.292	489.88
428.514	442.88
428.736	429.88
428.958	428.88
429.181	422.88
429.403	432.88
429.625	415.88
429.847	457.88
430.069	516.88
430.292	490.88
430.514	429.88
430.736	416.88
430.958	416.88
431.18	402.88
431.402	403.88
431.624	383.88
431.846	385.88
432.068	380.88
432.29	394.88
432.512	389.88
432.734	382.88
432.956	400.88
433.178	414.88
433.4	400.88
433.622	388.88
433.844	418.88
434.066	375.88
434.287	381.88
434.509	372.88
434.731	383.88
434.953	417.88
435.175	428.88
435.397	430.88
435.618	430.88
435.84	483.88
436.062	551.88
436.284	605.88
436.505	507.88
436.727	460.88
436.949	435.88
437.17	411.88
437.392	403.88
437.614	410.88
437.835	462.88
438.057	520.88
438.278	621.88
438.5	577.88
438.721	669.88
438.943	625.88
439.165	501.88
439.386	455.88
439.608	449.88
439.829	458.88
440.05	485.88
440.272	520.88
440.493	486.88
440.715	445.88
440.936	426.88
441.158	435.88
441.379	427.88
441.6	433.88
441.822	455.88
442.043	479.88
442.264	537.88
442.486	569.88
442.707	488.88
442.928	486.88
443.149	464.88
443.371	473.88
443.592	521.88
443.813	591.88
444.034	653.88
444.255	532.88
444.476	458.88
444.698	441.88
444.919	462.88
445.14	559.88
445.361	496.88
445.582	471.88
445.803	525.88
446.024	615.88
446.245	607.88
446.466	569.88
446.687	492.88
446.908	458.88
447.129	437.88
447.35	419.88
447.571	421.88
447.792	420.88
448.013	406.88
448.234	411.88
448.455	484.88
448.675	587.88
448.896	634.88
449.117	587.88
449.338	525.88
449.559	608.88
449.779	688.88
450	540.88
450.221	446.88
450.442	413.88
450.662	427.88
450.883	401.88
451.104	414.88
451.324	402.88
451.545	391.88
451.766	383.88
451.986	377.88
452.207	374.88
452.428	375.88
452.648	388.88
452.869	373.88
453.089	380.88
453.31	373.88
453.53	388.88
453.751	372.88
453.971	371.88
454.192	379.88
454.412	377.88
454.633	362.88
454.853	387.88
455.073	363.88
455.294	389.88
455.514	462.88
455.734	421.88
455.955	371.88
456.175	354.88
456.395	350.88
456.616	351.88
456.836	348.88
457.056	347.88
457.276	339.88
457.497	370.88
457.717	345.88
457.937	344.88
458.157	351.88
458.377	361.88
458.598	402.88
458.818	414.88
459.038	467.88
459.258	501.88
459.478	436.88
459.698	379.88
459.918	372.88
460.138	382.88
460.358	393.88
460.578	389.88
460.798	398.88
461.018	379.88
461.238	380.88
461.458	393.88
461.678	399.88
461.898	380.88
462.118	407.88
462.338	393.88
462.558	394.88
462.777	400.88
462.997	399.88
463.217	391.88
463.437	424.88
463.657	420.88
463.876	418.88
464.096	427.88
464.316	418.88
464.536	414.88
464.755	422.88
464.975	399.88
465.195	424.88
465.414	472.88
465.634	457.88
465.854	414.88
466.073	391.88
466.293	362.88
466.512	365.88
466.732	359.88
466.951	373.88
467.171	343.88
467.391	355.88
467.61	376.88
467.829	371.88
468.049	372.88
468.268	379.88
468.488	376.88
468.707	371.88
468.927	363.88
469.146	354.88
469.365	361.88
469.585	364.88
469.804	374.88
470.023	379.88
470.243	381.88
470.462	405.88
470.681	402.88
470.901	393.88
471.12	384.88
471.339	391.88
471.558	379.88
471.777	385.88
471.997	380.88
472.216	385.88
472.435	428.88
472.654	365.88
472.873	353.88
473.092	358.88
473.311	384.88
473.53	393.88
473.749	404.88
473.968	438.88
474.187	506.88
474.406	509.88
474.625	425.88
474.844	401.88
475.063	391.88
475.282	378.88
475.501	400.88
475.72	404.88
475.939	399.88
476.158	395.88
476.377	377.88
476.596	383.88
476.814	405.88
477.033	406.88
477.252	398.88
477.471	400.88
477.69	411.88
477.908	423.88
478.127	441.88
478.346	424.88
478.564	407.88
478.783	433.88
479.002	429.88
479.22	409.88
479.439	441.88
479.658	446.88
479.876	459.88
480.095	460.88
480.313	469.88
480.532	471.88
480.751	460.88
480.969	466.88
481.188	511.88
481.406	527.88
481.624	473.88
481.843	444.88
482.061	439.88
482.28	442.88
482.498	441.88
482.717	451.88
482.935	432.88
483.153	444.88
483.372	421.88
483.59	433.88
483.808	432.88
484.027	439.88
484.245	442.88
484.463	437.88
484.681	443.88
484.9	454.88
485.118	443.88
485.336	459.88
485.554	455.88
485.772	444.88
485.99	443.88
486.209	448.88
486.427	446.88
486.645	483.88
486.863	493.88
487.081	479.88
487.299	473.88
487.517	461.88
487.735	468.88
487.953	470.88
488.171	485.88
488.389	443.88
488.607	469.88
488.825	483.88
489.043	473.88
489.261	463.88
489.479	477.88
489.696	477.88
489.914	486.88
490.132	501.88
490.35	482.88
490.568	508.88
490.786	490.88
491.003	508.88
491.221	533.88
491.439	542.88
491.657	539.88
491.874	529.88
492.092	551.88
492.31	569.88
492.527	557.88
492.745	540.88
492.963	545.88
493.18	558.88
493.398	538.88
493.615	580.88
493.833	539.88
494.05	593.88
494.268	577.88
494.485	578.88
494.703	555.88
494.92	577.88
495.138	573.88
495.355	563.88
495.573	586.88
495.79	554.88
496.008	557.88
496.225	558.88
496.442	561.88
496.66	564.88
496.877	565.88
497.094	556.88
497.312	552.88
497.529	567.88
497.746	569.88
497.963	580.88
498.181	613.88
498.398	600.88
498.615	629.88
498.832	620.88
499.049	599.88
499.267	642.88
499.484	645.88
499.701	666.88
499.918	679.88
500.135	728.88
500.352	712.88
500.569	731.88
500.786	753.88
501.003	741.88
501.22	726.88
501.437	707.88
501.654	686.88
501.871	686.88
502.088	665.88
502.305	638.88
502.522	617.88
502.739	631.88
502.956	589.88
503.172	592.88
503.389	555.88
503.606	581.88
503.823	581.88
504.04	574.88
504.256	563.88
504.473	564.88
504.69	539.88
504.907	532.88
505.123	555.88
505.34	563.88
505.557	560.88
505.773	551.88
505.99	530.88
506.207	549.88
506.423	545.88
506.64	537.88
506.856	504.88
507.073	522.88
507.289	529.88
507.506	527.88
507.722	524.88
507.939	527.88
508.155	491.88
508.372	501.88
508.588	511.88
508.805	517.88
509.021	507.88
509.238	515.88
509.454	519.88
509.67	527.88
509.887	511.88
510.103	493.88
510.319	521.88
510.536	583.88
510.752	885.88
510.968	752.88
511.184	519.88
511.401	501.88
511.617	495.88
511.833	480.88
512.049	485.88
512.265	460.88
512.481	478.88
512.698	473.88
512.914	491.88
513.13	480.88
513.346	462.88
513.562	476.88
513.778	474.88
513.994	489.88
514.21	503.88
514.426	514.88
514.642	522.88
514.858	544.88
515.074	585.88
515.29	676.88
515.506	934.88
515.721	747.88
515.937	565.88
516.153	513.88
516.369	521.88
516.585	491.88
516.801	494.88
517.016	475.88
517.232	491.88
517.448	496.88
517.664	492.88
517.879	488.88
518.095	492.88
518.311	503.88
518.527	468.88
518.742	481.88
518.958	491.88
519.173	481.88
519.389	463.88
519.605	463.88
519.82	492.88
520.036	486.88
520.251	500.88
520.467	537.88
520.682	523.88
520.898	520.88
521.113	528.88
521.329	557.88
521.544	615.88
521.76	783.88
521.975	1255.88
522.19	1117.88
522.406	686.88
522.621	541.88
522.836	502.88
523.052	480.88
523.267	443.88
523.482	444.88
523.698	444.88
523.913	435.88
524.128	430.88
524.343	428.88
524.559	406.88
524.774	413.88
524.989	419.88
525.204	409.88
525.419	410.88
525.634	408.88
525.849	401.88
526.064	419.88
526.28	407.88
526.495	388.88
526.71	397.88
526.925	391.88
527.14	380.88
527.355	369.88
527.57	397.88
527.785	395.88
527.999	416.88
528.214	390.88
528.429	369.88
528.644	382.88
528.859	393.88
529.074	399.88
529.289	420.88
529.503	451.88
529.718	436.88
529.933	384.88
530.148	416.88
530.363	392.88
530.577	376.88
530.792	377.88
531.007	376.88
531.221	379.88
531.436	389.88
531.651	374.88
531.865	362.88
532.08	382.88
532.295	385.88
532.509	368.88
532.724	359.88
532.938	372.88
533.153	375.88
533.367	359.88
533.582	363.88
533.796	387.88
534.011	364.88
534.225	373.88
534.44	365.88
534.654	369.88
534.868	377.88
535.083	372.88
535.297	370.88
535.511	372.88
535.726	373.88
535.94	387.88
536.154	360.88
536.369	374.88
536.583	385.88
536.797	356.88
537.011	358.88
537.225	357.88
537.44	360.88
537.654	349.88
537.868	366.88
538.082	354.88
538.296	344.88
538.51	360.88
538.724	367.88
538.938	375.88
539.153	376.88
539.367	383.88
539.581	385.88
539.795	355.88
540.009	374.88
540.222	349.88
540.436	373.88
540.65	360.88
540.864	357.88
541.078	372.88
541.292	368.88
541.506	367.88
541.72	378.88
541.934	379.88
542.147	364.88
542.361	376.88
542.575	358.88
542.789	367.88
543.002	366.88
543.216	349.88
543.43	368.88
543.644	356.88
543.857	364.88
544.071	376.88
544.285	354.88
544.498	354.88
544.712	361.88
544.925	373.88
545.139	354.88
545.352	371.88
545.566	347.88
545.779	364.88
545.993	349.88
546.206	335.88
546.42	381.88
546.633	359.88
546.847	362.88
547.06	360.88
547.274	357.88
547.487	361.88
547.7	357.88
547.914	363.88
548.127	367.88
548.34	355.88
548.554	358.88
548.767	360.88
548.98	357.88
549.193	338.88
549.407	342.88
549.62	354.88
549.833	334.88
550.046	354.88
550.259	353.88
550.473	325.88
550.686	324.88
550.899	335.88
551.112	363.88
551.325	341.88
551.538	348.88
551.751	333.88
551.964	324.88
552.177	323.88
552.39	331.88
552.603	344.88
552.816	355.88
553.029	337.88
553.242	351.88
553.455	343.88
553.667	350.88
553.88	340.88
554.093	347.88
554.306	356.88
554.519	354.88
554.732	328.88
554.944	349.88
555.157	320.88
555.37	334.88
555.583	330.88
555.795	347.88
556.008	332.88
556.221	329.88
556.433	317.88
556.646	325.88
556.859	323.88
557.071	332.88
557.284	336.88
557.496	309.88
557.709	323.88
557.921	309.88
558.134	323.88
558.346	315.88
558.559	319.88
558.771	293.88
558.984	282.88
559.196	318.88
559.409	313.88
559.621	304.88
559.833	315.88
560.046	315.88
560.258	322.88
560.47	309.88
560.683	305.88
560.895	295.88
561.107	299.88
561.32	312.88
561.532	311.88
561.744	303.88
561.956	309.88
562.168	319.88
562.381	301.88
562.593	305.88
562.805	312.88
563.017	315.88
563.229	297.88
563.441	307.88
563.653	307.88
563.865	298.88
564.077	298.88
564.289	313.88
564.501	313.88
564.713	318.88
564.925	317.88
565.137	319.88
565.349	319.88
565.561	309.88
565.773	328.88
565.985	326.88
566.197	326.88
566.408	345.88
566.62	339.88
566.832	345.88
567.044	340.88
567.255	371.88
567.467	340.88
567.679	381.88
567.891	355.88
568.102	373.88
568.314	363.88
568.526	356.88
568.737	346.88
568.949	329.88
569.161	313.88
569.372	332.88
569.584	325.88
569.795	300.88
570.007	307.88
570.218	340.88
570.43	324.88
570.641	305.88
570.853	296.88
571.064	286.88
571.276	286.88
571.487	282.88
571.698	289.88
571.91	279.88
572.121	282.88
572.333	279.88
572.544	268.88
572.755	275.88
572.966	288.88
573.178	281.88
573.389	256.88
573.6	254.88
573.811	264.88
574.023	266.88
574.234	267.88
574.445	252.88
574.656	261.88
574.867	255.88
575.078	265.88
575.289	265.88
575.501	265.88
575.712	263.88
575.923	253.88
576.134	257.88
576.345	232.88
576.556	267.88
576.767	250.88
576.978	262.88
577.188	267.88
577.399	262.88
577.61	248.88
577.821	241.88
578.032	264.88
578.243	282.88
578.454	431.88
578.665	329.88
578.875	277.88
579.086	252.88
579.297	257.88
579.508	263.88
579.718	240.88
579.929	240.88
580.14	255.88
580.35	238.88
580.561	229.88
580.772	226.88
580.982	234.88
581.193	248.88
581.403	265.88
581.614	239.88
581.825	257.88
582.035	226.88
582.246	235.88
582.456	246.88
582.667	227.88
582.877	241.88
583.087	229.88
583.298	233.88
583.508	238.88
583.719	243.88
583.929	232.88
584.139	229.88
584.35	232.88
584.56	237.88
584.77	233.88
584.981	229.88
585.191	240.88
585.401	240.88
585.611	234.88
585.821	225.88
586.032	238.88
586.242	238.88
586.452	226.88
586.662	229.88
586.872	222.88
587.082	220.88
587.292	218.88
587.502	235.88
587.713	226.88
587.923	243.88
588.133	225.88
588.343	232.88
588.553	223.88
588.762	236.88
588.972	244.88
589.182	235.88
589.392	237.88
589.602	224.88
589.812	223.88
590.022	221.88
590.232	220.88
590.441	236.88
590.651	223.88
590.861	227.88
591.071	230.88
591.281	227.88
591.49	224.88
591.7	223.88
591.91	230.88
592.119	232.88
592.329	220.88
592.539	229.88
592.748	229.88
592.958	243.88
593.167	248.88
593.377	251.88
593.587	246.88
593.796	245.88
594.006	257.88
594.215	243.88
594.424	227.88
594.634	226.88
594.843	236.88
595.053	230.88
595.262	227.88
595.472	228.88
595.681	240.88
595.89	220.88
596.1	233.88
596.309	221.88
596.518	218.88
596.727	229.88
596.937	224.88
597.146	224.88
597.355	224.88
597.564	206.88
597.774	212.88
597.983	218.88
598.192	205.88
598.401	211.88
598.61	226.88
598.819	212.88
599.028	213.88
599.237	199.88
599.446	214.88
599.655	209.88
599.864	215.88
600.073	199.88
600.282	193.88
600.491	216.88
600.7	206.88
600.909	207.88
601.118	212.88
601.327	228.88
601.536	228.88
601.745	206.88
601.953	205.88
602.162	205.88
602.371	205.88
602.58	198.88
602.789	221.88
602.997	195.88
603.206	213.88
603.415	210.88
603.623	189.88
603.832	224.88
604.041	199.88
604.249	182.88
604.458	210.88
604.666	199.88
604.875	212.88
605.084	189.88
605.292	202.88
605.501	210.88
605.709	206.88
605.918	195.88
606.126	185.88
606.334	216.88
606.543	205.88
606.751	206.88
606.96	182.88
607.168	209.88
607.376	204.88
607.585	197.88
607.793	208.88
608.001	195.88
608.21	206.88
608.418	197.88
608.626	201.88
608.834	200.88
609.043	201.88
609.251	217.88
609.459	190.88
609.667	192.88
609.875	197.88
610.083	211.88
610.291	194.88
610.499	222.88
610.707	206.88
610.916	200.88
611.124	204.88
611.332	216.88
611.54	218.88
611.748	210.88
611.955	199.88
612.163	197.88
612.371	216.88
612.579	214.88
612.787	195.88
612.995	203.88
613.203	206.88
613.411	198.88
613.618	180.88
613.826	191.88
614.034	199.88
614.242	208.88
614.449	196.88
614.657	203.88
614.865	191.88
615.072	204.88
615.28	204.88
615.488	192.88
615.695	209.88
615.903	205.88
616.111	199.88
616.318	211.88
616.526	202.88
616.733	198.88
616.941	192.88
617.148	222.88
617.356	207.88
617.563	200.88
617.771	191.88
617.978	182.88
618.185	193.88
618.393	205.88
618.6	196.88
618.807	195.88
619.015	187.88
619.222	191.88
619.429	211.88
619.637	197.88
619.844	181.88
620.051	188.88
620.258	189.88
620.466	195.88
620.673	182.88
620.88	177.88
621.087	186.88
621.294	189.88
621.501	181.88
621.708	186.88
621.915	197.88
622.122	176.88
622.329	189.88
622.536	176.88
622.743	182.88
622.95	219.88
623.157	188.88
623.364	197.88
623.571	186.88
623.778	188.88
623.985	182.88
624.192	187.88
624.399	179.88
624.606	192.88
624.812	176.88
625.019	171.88
625.226	172.88
625.433	190.88
625.639	170.88
625.846	173.88
626.053	152.88
626.259	168.88
626.466	171.88
626.673	169.88
626.879	172.88
627.086	171.88
627.293	170.88
627.499	161.88
627.706	181.88
627.912	171.88
628.119	170.88
628.325	182.88
628.532	170.88
628.738	168.88
628.945	183.88
629.151	151.88
629.357	168.88
629.564	174.88
629.77	150.88
629.976	167.88
630.183	164.88
630.389	169.88
630.595	183.88
630.802	191.88
631.008	173.88
631.214	165.88
631.42	179.88
631.627	168.88
631.833	166.88
632.039	166.88
632.245	170.88
632.451	147.88
632.657	167.88
632.863	182.88
633.069	167.88
633.275	163.88
633.481	162.88
633.688	168.88
633.893	164.88
634.099	159.88
634.305	165.88
634.511	159.88
634.717	152.88
634.923	154.88
635.129	149.88
635.335	150.88
635.541	152.88
635.747	159.88
635.952	156.88
636.158	160.88
636.364	148.88
636.57	156.88
636.775	160.88
636.981	163.88
637.187	158.88
637.392	166.88
637.598	141.88
637.804	145.88
638.009	147.88
638.215	161.88
638.421	159.88
638.626	164.88
638.832	166.88
639.037	149.88
639.243	141.88
639.448	146.88
639.654	152.88
639.859	150.88
640.065	161.88
640.27	162.88
640.475	135.88
640.681	160.88
640.886	155.88
641.091	156.88
641.297	156.88
641.502	161.88
641.707	144.88
641.913	145.88
642.118	163.88
642.323	139.88
642.528	132.88
642.733	146.88
642.939	157.88
643.144	164.88
643.349	143.88
643.554	155.88
643.759	154.88
643.964	155.88
644.169	136.88
644.374	152.88
644.579	149.88
644.784	168.88
644.989	148.88
645.194	137.88
645.399	141.88
645.604	142.88
645.809	143.88
646.014	160.88
646.219	148.88
646.423	147.88
646.628	138.88
646.833	151.88
647.038	147.88
647.243	135.88
647.447	150.88
647.652	148.88
647.857	146.88
648.062	142.88
648.266	169.88
648.471	142.88
648.676	158.88
648.88	154.88
649.085	142.88
649.289	158.88
649.494	163.88
649.698	174.88
649.903	164.88
650.107	155.88
650.312	160.88
650.516	150.88
650.721	133.88
650.925	143.88
651.13	148.88
651.334	119.88
651.539	126.88
651.743	132.88
651.947	148.88
652.152	150.88
652.356	129.88
652.56	138.88
652.764	135.88
652.969	134.88
653.173	106.88
653.377	128.88
653.581	113.88
653.785	129.88
653.99	136.88
654.194	127.88
654.398	132.88
654.602	129.88
654.806	133.88
655.01	133.88
655.214	129.88
655.418	118.88
655.622	120.88
655.826	132.88
656.03	124.88
656.234	125.88
656.438	102.88
656.642	121.88
656.846	128.88
657.049	125.88
657.253	116.88
657.457	110.88
657.661	116.88
657.865	112.88
658.068	103.88
658.272	108.88
658.476	108.88
658.68	110.88
658.883	106.88
659.087	99.88
659.291	105.88
659.494	111.88
659.698	84.88
659.901	88.88
660.105	96.88
660.309	91.88
660.512	100.88
660.716	104.88
660.919	119.88
661.123	105.88
661.326	99.88
661.53	88.88
661.733	85.88
661.936	90.88
662.14	94.88
662.343	106.88
662.546	96.88
662.75	84.88
662.953	88.88
663.156	86.88
663.36	81.88
663.563	82.88
663.766	102.88
663.969	81.88
664.173	80.88
664.376	83.88
664.579	96.88
664.782	84.88
664.985	88.88
665.188	87.88
665.391	72.88
665.594	91.88
665.797	82.88
666	91.88
666.203	80.88
666.406	84.88
666.609	92.88
666.812	88.88
667.015	87.88
667.218	89.88
667.421	88.88
667.624	81.88
667.827	80.88
668.03	77.88
668.232	83.88
668.435	86.88
668.638	97.88
668.841	96.88
669.043	78.88
669.246	100.88
669.449	103.88
669.651	88.88
669.854	85.88
670.057	71.88
670.259	73.88
670.462	79.88
670.665	77.88
670.867	85.88
671.07	94.88
671.272	95.88
671.475	76.88
671.677	81.88
671.88	76.88
672.082	76.88
672.284	97.88
672.487	95.88
672.689	95.88
672.892	97.88
