Data from 1971.PennyLincolnUp.Lamp.En5.5.200Scan.071719.P1._HRD10591_15-19-43-842.txt Node
Date: Thu Jul 18 15:19:43 EDT 2019
User: cochatt
Spectrometer: HR+D1059
Trigger mode: 1
Integration Time (sec): 1.000000E-1
Scans to average: 1
Electric dark correction enabled: true
Nonlinearity correction enabled: false
Boxcar width: 0
XAxis mode: Wavelengths
Number of Pixels in Spectrum: 2048
>>>>>Begin Spectral Data<<<<<
223.165	-13.94
223.4	-13.94
223.635	-13.94
223.869	-3.94
224.104	-14.94
224.338	-22.94
224.573	-18.94
224.808	-4.94
225.042	-10.94
225.277	-7.94
225.511	-8.94
225.746	0.06
225.98	5.06
226.215	19.06
226.449	16.06
226.683	16.06
226.918	25.06
227.152	26.06
227.387	42.06
227.621	39.06
227.856	41.06
228.09	54.06
228.324	45.06
228.559	51.06
228.793	62.06
229.027	93.06
229.262	103.06
229.496	103.06
229.73	138.06
229.964	159.06
230.199	129.06
230.433	108.06
230.667	101.06
230.901	107.06
231.136	118.06
231.37	109.06
231.604	100.06
231.838	111.06
232.072	113.06
232.306	123.06
232.541	121.06
232.775	127.06
233.009	121.06
233.243	119.06
233.477	122.06
233.711	123.06
233.945	119.06
234.179	110.06
234.413	126.06
234.647	125.06
234.881	105.06
235.115	126.06
235.349	112.06
235.583	125.06
235.817	121.06
236.051	130.06
236.285	146.06
236.519	119.06
236.753	130.06
236.987	145.06
237.221	178.06
237.455	228.06
237.689	178.06
237.922	145.06
238.156	137.06
238.39	134.06
238.624	124.06
238.858	123.06
239.091	114.06
239.325	124.06
239.559	127.06
239.793	113.06
240.027	130.06
240.26	134.06
240.494	153.06
240.728	150.06
240.961	146.06
241.195	161.06
241.429	146.06
241.662	140.06
241.896	133.06
242.13	150.06
242.363	134.06
242.597	141.06
242.83	159.06
243.064	141.06
243.298	136.06
243.531	146.06
243.765	149.06
243.998	152.06
244.232	154.06
244.465	149.06
244.699	167.06
244.932	152.06
245.166	143.06
245.399	146.06
245.633	150.06
245.866	151.06
246.099	142.06
246.333	163.06
246.566	150.06
246.8	161.06
247.033	158.06
247.266	170.06
247.5	166.06
247.733	172.06
247.966	185.06
248.2	185.06
248.433	188.06
248.666	180.06
248.899	200.06
249.133	196.06
249.366	204.06
249.599	197.06
249.832	204.06
250.066	172.06
250.299	178.06
250.532	196.06
250.765	229.06
250.998	232.06
251.231	207.06
251.465	226.06
251.698	221.06
251.931	205.06
252.164	218.06
252.397	204.06
252.63	206.06
252.863	218.06
253.096	225.06
253.329	227.06
253.562	249.06
253.795	227.06
254.028	226.06
254.261	232.06
254.494	231.06
254.727	259.06
254.96	284.06
255.193	290.06
255.426	282.06
255.659	246.06
255.892	237.06
256.124	224.06
256.357	223.06
256.59	222.06
256.823	232.06
257.056	227.06
257.289	216.06
257.521	225.06
257.754	199.06
257.987	213.06
258.22	218.06
258.452	210.06
258.685	210.06
258.918	205.06
259.151	227.06
259.383	222.06
259.616	223.06
259.849	236.06
260.081	257.06
260.314	260.06
260.547	256.06
260.779	255.06
261.012	250.06
261.244	239.06
261.477	231.06
261.71	224.06
261.942	234.06
262.175	241.06
262.407	237.06
262.64	224.06
262.872	234.06
263.105	223.06
263.337	235.06
263.57	215.06
263.802	214.06
264.035	225.06
264.267	208.06
264.499	227.06
264.732	219.06
264.964	220.06
265.197	236.06
265.429	236.06
265.661	231.06
265.894	219.06
266.126	219.06
266.358	236.06
266.591	230.06
266.823	256.06
267.055	228.06
267.287	247.06
267.52	235.06
267.752	240.06
267.984	243.06
268.216	249.06
268.448	253.06
268.681	252.06
268.913	278.06
269.145	265.06
269.377	301.06
269.609	294.06
269.841	288.06
270.073	284.06
270.306	305.06
270.538	320.06
270.77	327.06
271.002	319.06
271.234	309.06
271.466	293.06
271.698	319.06
271.93	346.06
272.162	332.06
272.394	322.06
272.626	309.06
272.858	305.06
273.09	284.06
273.322	292.06
273.553	274.06
273.785	298.06
274.017	271.06
274.249	274.06
274.481	275.06
274.713	272.06
274.945	270.06
275.176	280.06
275.408	275.06
275.64	290.06
275.872	268.06
276.104	272.06
276.335	288.06
276.567	298.06
276.799	275.06
277.031	308.06
277.262	324.06
277.494	316.06
277.726	320.06
277.957	317.06
278.189	313.06
278.421	288.06
278.652	292.06
278.884	286.06
279.115	298.06
279.347	311.06
279.579	268.06
279.81	286.06
280.042	283.06
280.273	278.06
280.505	266.06
280.736	300.06
280.968	274.06
281.199	256.06
281.431	292.06
281.662	270.06
281.894	283.06
282.125	293.06
282.356	292.06
282.588	304.06
282.819	319.06
283.051	310.06
283.282	281.06
283.513	285.06
283.745	274.06
283.976	301.06
284.207	306.06
284.439	296.06
284.67	275.06
284.901	305.06
285.132	297.06
285.364	292.06
285.595	286.06
285.826	312.06
286.057	311.06
286.288	295.06
286.52	318.06
286.751	297.06
286.982	333.06
287.213	311.06
287.444	296.06
287.675	288.06
287.906	303.06
288.138	304.06
288.369	311.06
288.6	311.06
288.831	314.06
289.062	304.06
289.293	314.06
289.524	292.06
289.755	324.06
289.986	313.06
290.217	302.06
290.448	308.06
290.679	304.06
290.91	315.06
291.141	292.06
291.371	301.06
291.602	302.06
291.833	285.06
292.064	324.06
292.295	301.06
292.526	298.06
292.757	302.06
292.987	294.06
293.218	297.06
293.449	313.06
293.68	301.06
293.91	312.06
294.141	308.06
294.372	297.06
294.603	314.06
294.833	308.06
295.064	297.06
295.295	312.06
295.525	317.06
295.756	305.06
295.987	318.06
296.217	341.06
296.448	342.06
296.679	310.06
296.909	315.06
297.14	312.06
297.37	324.06
297.601	317.06
297.831	317.06
298.062	322.06
298.292	286.06
298.523	312.06
298.753	312.06
298.984	309.06
299.214	329.06
299.445	321.06
299.675	334.06
299.905	332.06
300.136	324.06
300.366	321.06
300.597	318.06
300.827	306.06
301.057	325.06
301.288	321.06
301.518	336.06
301.748	338.06
301.979	340.06
302.209	320.06
302.439	346.06
302.669	343.06
302.9	343.06
303.13	326.06
303.36	334.06
303.59	329.06
303.82	345.06
304.051	362.06
304.281	326.06
304.511	359.06
304.741	334.06
304.971	337.06
305.201	344.06
305.431	344.06
305.661	341.06
305.891	332.06
306.121	337.06
306.352	341.06
306.582	332.06
306.812	356.06
307.042	362.06
307.272	335.06
307.502	342.06
307.731	342.06
307.961	346.06
308.191	347.06
308.421	353.06
308.651	354.06
308.881	340.06
309.111	368.06
309.341	361.06
309.571	347.06
309.8	376.06
310.03	364.06
310.26	382.06
310.49	376.06
310.72	406.06
310.949	395.06
311.179	392.06
311.409	380.06
311.639	373.06
311.868	376.06
312.098	381.06
312.328	396.06
312.557	400.06
312.787	406.06
313.017	402.06
313.246	409.06
313.476	365.06
313.706	376.06
313.935	392.06
314.165	424.06
314.394	402.06
314.624	404.06
314.853	401.06
315.083	390.06
315.312	391.06
315.542	392.06
315.771	380.06
316.001	354.06
316.23	374.06
316.46	380.06
316.689	390.06
316.919	390.06
317.148	397.06
317.377	400.06
317.607	382.06
317.836	410.06
318.065	376.06
318.295	383.06
318.524	394.06
318.753	382.06
318.983	388.06
319.212	396.06
319.441	392.06
319.67	404.06
319.9	409.06
320.129	398.06
320.358	388.06
320.587	382.06
320.816	416.06
321.046	399.06
321.275	399.06
321.504	419.06
321.733	393.06
321.962	418.06
322.191	425.06
322.42	421.06
322.649	440.06
322.878	447.06
323.108	460.06
323.337	459.06
323.566	510.06
323.795	538.06
324.024	572.06
324.253	690.06
324.482	976.06
324.71	1436.06
324.939	1924.06
325.168	1637.06
325.397	895.06
325.626	634.06
325.855	576.06
326.084	507.06
326.313	505.06
326.542	514.06
326.77	544.06
326.999	647.06
327.228	897.06
327.457	1271.06
327.686	1420.06
327.914	1005.06
328.143	687.06
328.372	592.06
328.6	569.06
328.829	550.06
329.058	587.06
329.287	558.06
329.515	541.06
329.744	531.06
329.972	495.06
330.201	526.06
330.43	547.06
330.658	557.06
330.887	586.06
331.115	538.06
331.344	488.06
331.572	475.06
331.801	478.06
332.03	464.06
332.258	460.06
332.486	453.06
332.715	458.06
332.943	457.06
333.172	438.06
333.4	466.06
333.629	455.06
333.857	473.06
334.085	476.06
334.314	514.06
334.542	511.06
334.771	509.06
334.999	493.06
335.227	450.06
335.455	459.06
335.684	466.06
335.912	471.06
336.14	446.06
336.369	439.06
336.597	465.06
336.825	448.06
337.053	464.06
337.281	445.06
337.51	427.06
337.738	455.06
337.966	422.06
338.194	446.06
338.422	440.06
338.65	439.06
338.878	433.06
339.106	425.06
339.334	425.06
339.562	421.06
339.79	416.06
340.018	452.06
340.246	442.06
340.474	438.06
340.702	431.06
340.93	422.06
341.158	397.06
341.386	439.06
341.614	420.06
341.842	428.06
342.07	406.06
342.298	420.06
342.526	411.06
342.754	401.06
342.981	420.06
343.209	404.06
343.437	401.06
343.665	416.06
343.893	416.06
344.12	423.06
344.348	410.06
344.576	441.06
344.804	439.06
345.031	443.06
345.259	451.06
345.487	414.06
345.714	403.06
345.942	406.06
346.17	392.06
346.397	394.06
346.625	415.06
346.853	408.06
347.08	403.06
347.308	422.06
347.535	422.06
347.763	412.06
347.99	392.06
348.218	424.06
348.445	406.06
348.673	402.06
348.9	401.06
349.128	403.06
349.355	400.06
349.583	386.06
349.81	382.06
350.037	398.06
350.265	395.06
350.492	378.06
350.72	391.06
350.947	382.06
351.174	410.06
351.402	416.06
351.629	402.06
351.856	401.06
352.083	424.06
352.311	412.06
352.538	390.06
352.765	422.06
352.992	399.06
353.22	397.06
353.447	398.06
353.674	370.06
353.901	381.06
354.128	390.06
354.355	383.06
354.583	364.06
354.81	366.06
355.037	370.06
355.264	374.06
355.491	364.06
355.718	370.06
355.945	375.06
356.172	376.06
356.399	352.06
356.626	381.06
356.853	374.06
357.08	373.06
357.307	354.06
357.534	361.06
357.761	382.06
357.988	368.06
358.215	390.06
358.441	374.06
358.668	369.06
358.895	372.06
359.122	380.06
359.349	391.06
359.576	399.06
359.802	426.06
360.029	428.06
360.256	421.06
360.483	421.06
360.709	426.06
360.936	388.06
361.163	408.06
361.39	395.06
361.616	387.06
361.843	377.06
362.07	411.06
362.296	389.06
362.523	383.06
362.749	400.06
362.976	397.06
363.203	393.06
363.429	386.06
363.656	379.06
363.882	378.06
364.109	362.06
364.335	361.06
364.562	369.06
364.788	377.06
365.015	352.06
365.241	390.06
365.468	375.06
365.694	387.06
365.92	383.06
366.147	381.06
366.373	377.06
366.599	375.06
366.826	382.06
367.052	347.06
367.278	372.06
367.505	380.06
367.731	377.06
367.957	364.06
368.184	380.06
368.41	372.06
368.636	373.06
368.862	396.06
369.089	383.06
369.315	384.06
369.541	370.06
369.767	369.06
369.993	368.06
370.219	360.06
370.445	358.06
370.672	373.06
370.898	375.06
371.124	364.06
371.35	374.06
371.576	380.06
371.802	383.06
372.028	357.06
372.254	378.06
372.48	353.06
372.706	361.06
372.932	370.06
373.158	377.06
373.384	378.06
373.61	372.06
373.835	378.06
374.061	373.06
374.287	362.06
374.513	366.06
374.739	363.06
374.965	369.06
375.191	375.06
375.416	363.06
375.642	353.06
375.868	348.06
376.094	363.06
376.319	378.06
376.545	376.06
376.771	377.06
376.997	374.06
377.222	362.06
377.448	363.06
377.674	348.06
377.899	359.06
378.125	360.06
378.35	355.06
378.576	360.06
378.802	352.06
379.027	365.06
379.253	344.06
379.478	363.06
379.704	369.06
379.929	336.06
380.155	352.06
380.38	342.06
380.606	380.06
380.831	350.06
381.057	350.06
381.282	359.06
381.507	356.06
381.733	368.06
381.958	374.06
382.184	366.06
382.409	355.06
382.634	370.06
382.86	357.06
383.085	358.06
383.31	373.06
383.535	380.06
383.761	375.06
383.986	353.06
384.211	367.06
384.436	382.06
384.662	382.06
384.887	368.06
385.112	386.06
385.337	382.06
385.562	365.06
385.787	380.06
386.013	388.06
386.238	392.06
386.463	399.06
386.688	390.06
386.913	376.06
387.138	398.06
387.363	386.06
387.588	381.06
387.813	384.06
388.038	367.06
388.263	363.06
388.488	351.06
388.713	388.06
388.938	374.06
389.163	394.06
389.387	391.06
389.612	376.06
389.837	385.06
390.062	384.06
390.287	369.06
390.512	372.06
390.736	394.06
390.961	393.06
391.186	372.06
391.411	392.06
391.636	377.06
391.86	403.06
392.085	391.06
392.31	396.06
392.534	388.06
392.759	393.06
392.984	386.06
393.208	395.06
393.433	407.06
393.658	380.06
393.882	370.06
394.107	385.06
394.331	383.06
394.556	398.06
394.78	376.06
395.005	392.06
395.229	368.06
395.454	375.06
395.678	392.06
395.903	391.06
396.127	413.06
396.352	438.06
396.576	398.06
396.801	394.06
397.025	390.06
397.249	397.06
397.474	391.06
397.698	418.06
397.922	406.06
398.147	399.06
398.371	430.06
398.595	406.06
398.82	408.06
399.044	421.06
399.268	444.06
399.492	459.06
399.717	474.06
399.941	483.06
400.165	518.06
400.389	527.06
400.613	461.06
400.837	447.06
401.062	438.06
401.286	402.06
401.51	399.06
401.734	405.06
401.958	423.06
402.182	417.06
402.406	430.06
402.63	440.06
402.854	422.06
403.078	441.06
403.302	445.06
403.526	443.06
403.75	438.06
403.974	424.06
404.198	397.06
404.422	445.06
404.645	456.06
404.869	462.06
405.093	464.06
405.317	499.06
405.541	544.06
405.765	495.06
405.988	454.06
406.212	457.06
406.436	481.06
406.66	470.06
406.883	474.06
407.107	482.06
407.331	531.06
407.555	564.06
407.778	559.06
408.002	536.06
408.226	487.06
408.449	492.06
408.673	482.06
408.896	508.06
409.12	534.06
409.344	507.06
409.567	468.06
409.791	442.06
410.014	412.06
410.238	440.06
410.461	435.06
410.685	444.06
410.908	460.06
411.132	473.06
411.355	497.06
411.578	484.06
411.802	450.06
412.025	412.06
412.249	447.06
412.472	462.06
412.695	487.06
412.919	476.06
413.142	441.06
413.365	428.06
413.589	430.06
413.812	417.06
414.035	412.06
414.258	413.06
414.482	413.06
414.705	415.06
414.928	409.06
415.151	391.06
415.374	402.06
415.597	405.06
415.821	398.06
416.044	406.06
416.267	409.06
416.49	414.06
416.713	403.06
416.936	396.06
417.159	402.06
417.382	410.06
417.605	405.06
417.828	408.06
418.051	427.06
418.274	429.06
418.497	408.06
418.72	419.06
418.943	392.06
419.166	427.06
419.389	444.06
419.611	428.06
419.834	434.06
420.057	430.06
420.28	441.06
420.503	444.06
420.726	419.06
420.948	437.06
421.171	489.06
421.394	503.06
421.617	441.06
421.839	436.06
422.062	440.06
422.285	433.06
422.507	468.06
422.73	548.06
422.953	552.06
423.175	446.06
423.398	448.06
423.621	444.06
423.843	463.06
424.066	439.06
424.288	473.06
424.511	461.06
424.733	532.06
424.956	604.06
425.178	549.06
425.401	556.06
425.623	573.06
425.846	498.06
426.068	460.06
426.291	466.06
426.513	470.06
426.735	462.06
426.958	503.06
427.18	582.06
427.402	662.06
427.625	734.06
427.847	641.06
428.069	585.06
428.292	482.06
428.514	462.06
428.736	447.06
428.958	456.06
429.181	417.06
429.403	421.06
429.625	433.06
429.847	446.06
430.069	502.06
430.292	492.06
430.514	445.06
430.736	404.06
430.958	403.06
431.18	411.06
431.402	425.06
431.624	378.06
431.846	402.06
432.068	394.06
432.29	402.06
432.512	409.06
432.734	389.06
432.956	400.06
433.178	417.06
433.4	405.06
433.622	405.06
433.844	421.06
434.066	392.06
434.287	399.06
434.509	399.06
434.731	396.06
434.953	418.06
435.175	437.06
435.397	450.06
435.618	475.06
435.84	500.06
436.062	572.06
436.284	607.06
436.505	522.06
436.727	470.06
436.949	443.06
437.17	421.06
437.392	410.06
437.614	438.06
437.835	474.06
438.057	516.06
438.278	624.06
438.5	618.06
438.721	662.06
438.943	649.06
439.165	530.06
439.386	474.06
439.608	479.06
439.829	473.06
440.05	501.06
440.272	513.06
440.493	490.06
440.715	452.06
440.936	434.06
441.158	418.06
441.379	423.06
441.6	443.06
441.822	456.06
442.043	505.06
442.264	565.06
442.486	593.06
442.707	507.06
442.928	472.06
443.149	470.06
443.371	492.06
443.592	511.06
443.813	613.06
444.034	622.06
444.255	541.06
444.476	487.06
444.698	476.06
444.919	452.06
445.14	562.06
445.361	522.06
445.582	479.06
445.803	545.06
446.024	641.06
446.245	633.06
446.466	599.06
446.687	483.06
446.908	446.06
447.129	454.06
447.35	429.06
447.571	414.06
447.792	430.06
448.013	449.06
448.234	463.06
448.455	507.06
448.675	576.06
448.896	681.06
449.117	584.06
449.338	550.06
449.559	636.06
449.779	716.06
450	552.06
450.221	482.06
450.442	433.06
450.662	426.06
450.883	422.06
451.104	437.06
451.324	381.06
451.545	399.06
451.766	393.06
451.986	372.06
452.207	372.06
452.428	385.06
452.648	369.06
452.869	385.06
453.089	388.06
453.31	399.06
453.53	378.06
453.751	362.06
453.971	372.06
454.192	388.06
454.412	391.06
454.633	373.06
454.853	382.06
455.073	375.06
455.294	417.06
455.514	455.06
455.734	427.06
455.955	392.06
456.175	370.06
456.395	358.06
456.616	352.06
456.836	352.06
457.056	368.06
457.276	337.06
457.497	361.06
457.717	358.06
457.937	367.06
458.157	375.06
458.377	384.06
458.598	380.06
458.818	418.06
459.038	496.06
459.258	516.06
459.478	446.06
459.698	423.06
459.918	388.06
460.138	389.06
460.358	398.06
460.578	405.06
460.798	375.06
461.018	384.06
461.238	383.06
461.458	391.06
461.678	387.06
461.898	399.06
462.118	387.06
462.338	418.06
462.558	398.06
462.777	390.06
462.997	402.06
463.217	413.06
463.437	430.06
463.657	424.06
463.876	422.06
464.096	408.06
464.316	411.06
464.536	413.06
464.755	421.06
464.975	419.06
465.195	454.06
465.414	479.06
465.634	438.06
465.854	425.06
466.073	426.06
466.293	413.06
466.512	392.06
466.732	390.06
466.951	364.06
467.171	361.06
467.391	387.06
467.61	392.06
467.829	402.06
468.049	394.06
468.268	402.06
468.488	383.06
468.707	372.06
468.927	377.06
469.146	372.06
469.365	361.06
469.585	346.06
469.804	393.06
470.023	388.06
470.243	388.06
470.462	415.06
470.681	392.06
470.901	402.06
471.12	396.06
471.339	388.06
471.558	403.06
471.777	389.06
471.997	367.06
472.216	378.06
472.435	396.06
472.654	391.06
472.873	383.06
473.092	384.06
473.311	394.06
473.53	402.06
473.749	414.06
473.968	420.06
474.187	530.06
474.406	516.06
474.625	425.06
474.844	408.06
475.063	400.06
475.282	393.06
475.501	384.06
475.72	407.06
475.939	394.06
476.158	372.06
476.377	395.06
476.596	387.06
476.814	403.06
477.033	397.06
477.252	420.06
477.471	403.06
477.69	396.06
477.908	407.06
478.127	437.06
478.346	400.06
478.564	429.06
478.783	427.06
479.002	439.06
479.22	428.06
479.439	444.06
479.658	473.06
479.876	440.06
480.095	477.06
480.313	466.06
480.532	471.06
480.751	468.06
480.969	475.06
481.188	499.06
481.406	508.06
481.624	468.06
481.843	464.06
482.061	456.06
482.28	466.06
482.498	452.06
482.717	461.06
482.935	458.06
483.153	443.06
483.372	448.06
483.59	447.06
483.808	438.06
484.027	471.06
484.245	448.06
484.463	443.06
484.681	453.06
484.9	460.06
485.118	461.06
485.336	451.06
485.554	469.06
485.772	452.06
485.99	463.06
486.209	452.06
486.427	432.06
486.645	468.06
486.863	488.06
487.081	502.06
487.299	486.06
487.517	492.06
487.735	482.06
487.953	501.06
488.171	497.06
488.389	482.06
488.607	492.06
488.825	470.06
489.043	471.06
489.261	486.06
489.479	499.06
489.696	480.06
489.914	499.06
490.132	496.06
490.35	469.06
490.568	518.06
490.786	540.06
491.003	523.06
491.221	533.06
491.439	513.06
491.657	546.06
491.874	546.06
492.092	534.06
492.31	558.06
492.527	561.06
492.745	566.06
492.963	566.06
493.18	582.06
493.398	585.06
493.615	600.06
493.833	575.06
494.05	585.06
494.268	564.06
494.485	572.06
494.703	574.06
494.92	589.06
495.138	562.06
495.355	573.06
495.573	567.06
495.79	557.06
496.008	570.06
496.225	567.06
496.442	576.06
496.66	575.06
496.877	574.06
497.094	580.06
497.312	578.06
497.529	603.06
497.746	588.06
497.963	594.06
498.181	609.06
498.398	604.06
498.615	619.06
498.832	623.06
499.049	625.06
499.267	643.06
499.484	680.06
499.701	699.06
499.918	710.06
500.135	720.06
500.352	756.06
500.569	752.06
500.786	770.06
501.003	763.06
501.22	735.06
501.437	727.06
501.654	713.06
501.871	696.06
502.088	672.06
502.305	649.06
502.522	633.06
502.739	622.06
502.956	595.06
503.172	598.06
503.389	588.06
503.606	569.06
503.823	598.06
504.04	566.06
504.256	591.06
504.473	576.06
504.69	568.06
504.907	557.06
505.123	564.06
505.34	572.06
505.557	551.06
505.773	555.06
505.99	535.06
506.207	553.06
506.423	545.06
506.64	554.06
506.856	550.06
507.073	548.06
507.289	526.06
507.506	539.06
507.722	537.06
507.939	552.06
508.155	547.06
508.372	533.06
508.588	523.06
508.805	533.06
509.021	516.06
509.238	558.06
509.454	529.06
509.67	533.06
509.887	512.06
510.103	524.06
510.319	526.06
510.536	592.06
510.752	905.06
510.968	714.06
511.184	538.06
511.401	511.06
511.617	506.06
511.833	485.06
512.049	502.06
512.265	482.06
512.481	514.06
512.698	475.06
512.914	481.06
513.13	485.06
513.346	480.06
513.562	464.06
513.778	492.06
513.994	493.06
514.21	498.06
514.426	545.06
514.642	556.06
514.858	541.06
515.074	575.06
515.29	681.06
515.506	955.06
515.721	783.06
515.937	564.06
516.153	531.06
516.369	519.06
516.585	488.06
516.801	484.06
517.016	481.06
517.232	496.06
517.448	485.06
517.664	476.06
517.879	480.06
518.095	497.06
518.311	509.06
518.527	485.06
518.742	474.06
518.958	492.06
519.173	483.06
519.389	495.06
519.605	481.06
519.82	480.06
520.036	493.06
520.251	518.06
520.467	517.06
520.682	507.06
520.898	524.06
521.113	538.06
521.329	573.06
521.544	622.06
521.76	771.06
521.975	1198.06
522.19	1140.06
522.406	671.06
522.621	566.06
522.836	493.06
523.052	471.06
523.267	455.06
523.482	446.06
523.698	456.06
523.913	457.06
524.128	444.06
524.343	444.06
524.559	442.06
524.774	415.06
524.989	420.06
525.204	445.06
525.419	431.06
525.634	408.06
525.849	403.06
526.064	426.06
526.28	404.06
526.495	398.06
526.71	411.06
526.925	394.06
527.14	403.06
527.355	394.06
527.57	400.06
527.785	390.06
527.999	393.06
528.214	402.06
528.429	400.06
528.644	405.06
528.859	396.06
529.074	406.06
529.289	425.06
529.503	473.06
529.718	432.06
529.933	413.06
530.148	412.06
530.363	397.06
530.577	382.06
530.792	402.06
531.007	384.06
531.221	392.06
531.436	388.06
531.651	360.06
531.865	380.06
532.08	393.06
532.295	382.06
532.509	373.06
532.724	378.06
532.938	379.06
533.153	365.06
533.367	362.06
533.582	386.06
533.796	384.06
534.011	372.06
534.225	380.06
534.44	385.06
534.654	386.06
534.868	372.06
535.083	367.06
535.297	366.06
535.511	381.06
535.726	396.06
535.94	382.06
536.154	376.06
536.369	351.06
536.583	374.06
536.797	369.06
537.011	355.06
537.225	366.06
537.44	365.06
537.654	369.06
537.868	358.06
538.082	377.06
538.296	367.06
538.51	350.06
538.724	346.06
538.938	376.06
539.153	369.06
539.367	360.06
539.581	366.06
539.795	382.06
540.009	373.06
540.222	373.06
540.436	363.06
540.65	362.06
540.864	377.06
541.078	356.06
541.292	377.06
541.506	372.06
541.72	357.06
541.934	383.06
542.147	369.06
542.361	392.06
542.575	372.06
542.789	368.06
543.002	374.06
543.216	374.06
543.43	377.06
543.644	374.06
543.857	366.06
544.071	390.06
544.285	380.06
544.498	362.06
544.712	372.06
544.925	360.06
545.139	354.06
545.352	365.06
545.566	372.06
545.779	372.06
545.993	368.06
546.206	388.06
546.42	372.06
546.633	365.06
546.847	358.06
547.06	355.06
547.274	361.06
547.487	372.06
547.7	392.06
547.914	357.06
548.127	369.06
548.34	359.06
548.554	349.06
548.767	333.06
548.98	346.06
549.193	364.06
549.407	370.06
549.62	356.06
549.833	347.06
550.046	342.06
550.259	349.06
550.473	353.06
550.686	333.06
550.899	341.06
551.112	346.06
551.325	348.06
551.538	347.06
551.751	345.06
551.964	348.06
552.177	354.06
552.39	353.06
552.603	366.06
552.816	360.06
553.029	366.06
553.242	356.06
553.455	366.06
553.667	371.06
553.88	376.06
554.093	360.06
554.306	358.06
554.519	359.06
554.732	356.06
554.944	352.06
555.157	368.06
555.37	344.06
555.583	343.06
555.795	335.06
556.008	337.06
556.221	324.06
556.433	333.06
556.646	322.06
556.859	332.06
557.071	322.06
557.284	338.06
557.496	318.06
557.709	319.06
557.921	321.06
558.134	327.06
558.346	317.06
558.559	314.06
558.771	330.06
558.984	311.06
559.196	301.06
559.409	305.06
559.621	298.06
559.833	289.06
560.046	316.06
560.258	299.06
560.47	310.06
560.683	309.06
560.895	309.06
561.107	309.06
561.32	318.06
561.532	313.06
561.744	319.06
561.956	299.06
562.168	329.06
562.381	324.06
562.593	342.06
562.805	309.06
563.017	320.06
563.229	316.06
563.441	314.06
563.653	321.06
563.865	322.06
564.077	331.06
564.289	331.06
564.501	303.06
564.713	319.06
564.925	313.06
565.137	336.06
565.349	337.06
565.561	336.06
565.773	336.06
565.985	330.06
566.197	350.06
566.408	372.06
566.62	367.06
566.832	368.06
567.044	380.06
567.255	375.06
567.467	373.06
567.679	366.06
567.891	370.06
568.102	363.06
568.314	355.06
568.526	376.06
568.737	349.06
568.949	322.06
569.161	340.06
569.372	338.06
569.584	316.06
569.795	321.06
570.007	308.06
570.218	346.06
570.43	330.06
570.641	286.06
570.853	293.06
571.064	303.06
571.276	300.06
571.487	293.06
571.698	305.06
571.91	295.06
572.121	304.06
572.333	260.06
572.544	284.06
572.755	280.06
572.966	273.06
573.178	265.06
573.389	294.06
573.6	282.06
573.811	279.06
574.023	263.06
574.234	271.06
574.445	266.06
574.656	279.06
574.867	264.06
575.078	262.06
575.289	267.06
575.501	266.06
575.712	255.06
575.923	266.06
576.134	266.06
576.345	262.06
576.556	267.06
576.767	247.06
576.978	273.06
577.188	268.06
577.399	274.06
577.61	269.06
577.821	264.06
578.032	270.06
578.243	274.06
578.454	449.06
578.665	324.06
578.875	240.06
579.086	242.06
579.297	252.06
579.508	266.06
579.718	252.06
579.929	240.06
580.14	240.06
580.35	248.06
580.561	238.06
580.772	248.06
580.982	253.06
581.193	238.06
581.403	236.06
581.614	239.06
581.825	249.06
582.035	246.06
582.246	242.06
582.456	233.06
582.667	237.06
582.877	234.06
583.087	248.06
583.298	232.06
583.508	235.06
583.719	257.06
583.929	242.06
584.139	234.06
584.35	237.06
584.56	249.06
584.77	242.06
584.981	253.06
585.191	249.06
585.401	254.06
585.611	233.06
585.821	228.06
586.032	252.06
586.242	240.06
586.452	232.06
586.662	240.06
586.872	239.06
587.082	229.06
587.292	231.06
587.502	243.06
587.713	252.06
587.923	242.06
588.133	256.06
588.343	249.06
588.553	216.06
588.762	228.06
588.972	225.06
589.182	248.06
589.392	232.06
589.602	224.06
589.812	240.06
590.022	233.06
590.232	231.06
590.441	237.06
590.651	241.06
590.861	228.06
591.071	250.06
591.281	233.06
591.49	236.06
591.7	230.06
591.91	243.06
592.119	236.06
592.329	244.06
592.539	252.06
592.748	234.06
592.958	237.06
593.167	245.06
593.377	249.06
593.587	247.06
593.796	241.06
594.006	235.06
594.215	258.06
594.424	248.06
594.634	265.06
594.843	249.06
595.053	246.06
595.262	230.06
595.472	249.06
595.681	228.06
595.89	232.06
596.1	225.06
596.309	233.06
596.518	228.06
596.727	230.06
596.937	230.06
597.146	222.06
597.355	234.06
597.564	213.06
597.774	225.06
597.983	220.06
598.192	214.06
598.401	208.06
598.61	229.06
598.819	209.06
599.028	220.06
599.237	208.06
599.446	225.06
599.655	212.06
599.864	210.06
600.073	216.06
600.282	213.06
600.491	218.06
600.7	220.06
600.909	207.06
601.118	226.06
601.327	214.06
601.536	213.06
601.745	203.06
601.953	216.06
602.162	225.06
602.371	224.06
602.58	222.06
602.789	215.06
602.997	209.06
603.206	216.06
603.415	186.06
603.623	217.06
603.832	223.06
604.041	219.06
604.249	211.06
604.458	203.06
604.666	199.06
604.875	176.06
605.084	194.06
605.292	213.06
605.501	204.06
605.709	204.06
605.918	208.06
606.126	208.06
606.334	199.06
606.543	214.06
606.751	218.06
606.96	191.06
607.168	211.06
607.376	216.06
607.585	218.06
607.793	209.06
608.001	210.06
608.21	200.06
608.418	225.06
608.626	213.06
608.834	207.06
609.043	219.06
609.251	214.06
609.459	203.06
609.667	214.06
609.875	213.06
610.083	192.06
610.291	216.06
610.499	199.06
610.707	209.06
610.916	206.06
611.124	207.06
611.332	207.06
611.54	227.06
611.748	202.06
611.955	191.06
612.163	216.06
612.371	225.06
612.579	203.06
612.787	206.06
612.995	194.06
613.203	218.06
613.411	204.06
613.618	176.06
613.826	216.06
614.034	209.06
614.242	203.06
614.449	206.06
614.657	201.06
614.865	193.06
615.072	198.06
615.28	186.06
615.488	188.06
615.695	207.06
615.903	184.06
616.111	208.06
616.318	222.06
616.526	210.06
616.733	214.06
616.941	203.06
617.148	213.06
617.356	203.06
617.563	184.06
617.771	192.06
617.978	199.06
618.185	197.06
618.393	205.06
618.6	201.06
618.807	199.06
619.015	197.06
619.222	197.06
619.429	184.06
619.637	209.06
619.844	203.06
620.051	190.06
620.258	190.06
620.466	185.06
620.673	173.06
620.88	207.06
621.087	191.06
621.294	184.06
621.501	188.06
621.708	174.06
621.915	177.06
622.122	193.06
622.329	191.06
622.536	195.06
622.743	187.06
622.95	197.06
623.157	183.06
623.364	180.06
623.571	193.06
623.778	180.06
623.985	177.06
624.192	188.06
624.399	190.06
624.606	184.06
624.812	175.06
625.019	172.06
625.226	184.06
625.433	185.06
625.639	183.06
625.846	173.06
626.053	167.06
626.259	182.06
626.466	186.06
626.673	158.06
626.879	158.06
627.086	176.06
627.293	186.06
627.499	180.06
627.706	167.06
627.912	174.06
628.119	186.06
628.325	177.06
628.532	172.06
628.738	173.06
628.945	166.06
629.151	171.06
629.357	173.06
629.564	170.06
629.77	174.06
629.976	162.06
630.183	174.06
630.389	165.06
630.595	165.06
630.802	162.06
631.008	175.06
631.214	169.06
631.42	181.06
631.627	173.06
631.833	171.06
632.039	153.06
632.245	181.06
632.451	181.06
632.657	162.06
632.863	155.06
633.069	156.06
633.275	162.06
633.481	156.06
633.688	173.06
633.893	163.06
634.099	163.06
634.305	148.06
634.511	165.06
634.717	168.06
634.923	161.06
635.129	159.06
635.335	156.06
635.541	150.06
635.747	141.06
635.952	162.06
636.158	169.06
636.364	168.06
636.57	156.06
636.775	167.06
636.981	152.06
637.187	166.06
637.392	182.06
637.598	151.06
637.804	175.06
638.009	161.06
638.215	152.06
638.421	156.06
638.626	154.06
638.832	156.06
639.037	144.06
639.243	161.06
639.448	166.06
639.654	157.06
639.859	149.06
640.065	156.06
640.27	160.06
640.475	152.06
640.681	158.06
640.886	160.06
641.091	162.06
641.297	157.06
641.502	158.06
641.707	166.06
641.913	166.06
642.118	144.06
642.323	166.06
642.528	151.06
642.733	153.06
642.939	155.06
643.144	149.06
643.349	153.06
643.554	158.06
643.759	153.06
643.964	143.06
644.169	135.06
644.374	146.06
644.579	156.06
644.784	144.06
644.989	145.06
645.194	152.06
645.399	164.06
645.604	139.06
645.809	148.06
646.014	165.06
646.219	142.06
646.423	150.06
646.628	143.06
646.833	138.06
647.038	136.06
647.243	158.06
647.447	165.06
647.652	171.06
647.857	161.06
648.062	156.06
648.266	158.06
648.471	147.06
648.676	164.06
648.88	152.06
649.085	152.06
649.289	141.06
649.494	150.06
649.698	195.06
649.903	176.06
650.107	169.06
650.312	157.06
650.516	164.06
650.721	148.06
650.925	137.06
651.13	146.06
651.334	145.06
651.539	136.06
651.743	150.06
651.947	143.06
652.152	141.06
652.356	135.06
652.56	146.06
652.764	126.06
652.969	131.06
653.173	146.06
653.377	144.06
653.581	132.06
653.785	144.06
653.99	133.06
654.194	129.06
654.398	133.06
654.602	122.06
654.806	117.06
655.01	139.06
655.214	140.06
655.418	138.06
655.622	126.06
655.826	128.06
656.03	113.06
656.234	127.06
656.438	129.06
656.642	126.06
656.846	122.06
657.049	124.06
657.253	136.06
657.457	122.06
657.661	104.06
657.865	118.06
658.068	114.06
658.272	93.06
658.476	101.06
658.68	100.06
658.883	122.06
659.087	111.06
659.291	104.06
659.494	108.06
659.698	104.06
659.901	98.06
660.105	97.06
660.309	97.06
660.512	93.06
660.716	92.06
660.919	100.06
661.123	93.06
661.326	90.06
661.53	93.06
661.733	92.06
661.936	92.06
662.14	81.06
662.343	81.06
662.546	102.06
662.75	88.06
662.953	95.06
663.156	85.06
663.36	86.06
663.563	83.06
663.766	95.06
663.969	88.06
664.173	74.06
664.376	79.06
664.579	86.06
664.782	92.06
664.985	85.06
665.188	78.06
665.391	109.06
665.594	86.06
665.797	86.06
666	90.06
666.203	86.06
666.406	90.06
666.609	93.06
666.812	92.06
667.015	89.06
667.218	85.06
667.421	82.06
667.624	77.06
667.827	79.06
668.03	90.06
668.232	81.06
668.435	98.06
668.638	84.06
668.841	84.06
669.043	85.06
669.246	85.06
669.449	83.06
669.651	87.06
669.854	82.06
670.057	73.06
670.259	71.06
670.462	84.06
670.665	81.06
670.867	87.06
671.07	93.06
671.272	80.06
671.475	86.06
671.677	95.06
671.88	89.06
672.082	85.06
672.284	86.06
672.487	85.06
672.689	93.06
672.892	82.06
