Data from 1971.PennyLincolnUp.Lamp.En5.5.200Scan.071719.P1.Scan 2. Changed Angle._HRD10591_15-25-35-842.txt Node
Date: Thu Jul 18 15:25:35 EDT 2019
User: cochatt
Spectrometer: HR+D1059
Trigger mode: 1
Integration Time (sec): 1.000000E-1
Scans to average: 1
Electric dark correction enabled: true
Nonlinearity correction enabled: false
Boxcar width: 0
XAxis mode: Wavelengths
Number of Pixels in Spectrum: 2048
>>>>>Begin Spectral Data<<<<<
223.165	-16.19
223.4	-16.19
223.635	-16.19
223.869	-19.19
224.104	-21.19
224.338	-17.19
224.573	-8.19
224.808	-10.19
225.042	-9.19
225.277	-12.19
225.511	-0.19
225.746	9.81
225.98	8.81
226.215	3.81
226.449	21.81
226.683	9.81
226.918	24.81
227.152	34.81
227.387	37.81
227.621	33.81
227.856	49.81
228.09	37.81
228.324	41.81
228.559	53.81
228.793	75.81
229.027	108.81
229.262	114.81
229.496	118.81
229.73	164.81
229.964	199.81
230.199	139.81
230.433	133.81
230.667	125.81
230.901	120.81
231.136	133.81
231.37	117.81
231.604	118.81
231.838	126.81
232.072	123.81
232.306	121.81
232.541	127.81
232.775	136.81
233.009	119.81
233.243	119.81
233.477	109.81
233.711	138.81
233.945	107.81
234.179	118.81
234.413	114.81
234.647	133.81
234.881	117.81
235.115	130.81
235.349	123.81
235.583	141.81
235.817	117.81
236.051	127.81
236.285	147.81
236.519	133.81
236.753	149.81
236.987	179.81
237.221	217.81
237.455	292.81
237.689	226.81
237.922	162.81
238.156	141.81
238.39	147.81
238.624	131.81
238.858	142.81
239.091	133.81
239.325	139.81
239.559	140.81
239.793	156.81
240.027	159.81
240.26	167.81
240.494	190.81
240.728	164.81
240.961	158.81
241.195	153.81
241.429	157.81
241.662	162.81
241.896	162.81
242.13	141.81
242.363	147.81
242.597	146.81
242.83	147.81
243.064	161.81
243.298	154.81
243.531	158.81
243.765	138.81
243.998	155.81
244.232	156.81
244.465	161.81
244.699	167.81
244.932	152.81
245.166	142.81
245.399	155.81
245.633	152.81
245.866	158.81
246.099	174.81
246.333	167.81
246.566	162.81
246.8	154.81
247.033	174.81
247.266	166.81
247.5	168.81
247.733	186.81
247.966	187.81
248.2	186.81
248.433	173.81
248.666	197.81
248.899	195.81
249.133	224.81
249.366	250.81
249.599	230.81
249.832	212.81
250.066	189.81
250.299	213.81
250.532	218.81
250.765	247.81
250.998	252.81
251.231	251.81
251.465	261.81
251.698	239.81
251.931	244.81
252.164	211.81
252.397	209.81
252.63	230.81
252.863	226.81
253.096	259.81
253.329	265.81
253.562	259.81
253.795	243.81
254.028	265.81
254.261	253.81
254.494	255.81
254.727	294.81
254.96	332.81
255.193	321.81
255.426	309.81
255.659	264.81
255.892	275.81
256.124	254.81
256.357	257.81
256.59	260.81
256.823	245.81
257.056	245.81
257.289	233.81
257.521	264.81
257.754	235.81
257.987	222.81
258.22	231.81
258.452	221.81
258.685	217.81
258.918	213.81
259.151	227.81
259.383	241.81
259.616	253.81
259.849	238.81
260.081	264.81
260.314	273.81
260.547	290.81
260.779	284.81
261.012	261.81
261.244	259.81
261.477	248.81
261.71	227.81
261.942	243.81
262.175	262.81
262.407	266.81
262.64	248.81
262.872	235.81
263.105	222.81
263.337	220.81
263.57	225.81
263.802	233.81
264.035	229.81
264.267	218.81
264.499	236.81
264.732	225.81
264.964	226.81
265.197	236.81
265.429	226.81
265.661	219.81
265.894	233.81
266.126	232.81
266.358	211.81
266.591	221.81
266.823	230.81
267.055	239.81
267.287	248.81
267.52	230.81
267.752	231.81
267.984	212.81
268.216	234.81
268.448	238.81
268.681	258.81
268.913	246.81
269.145	275.81
269.377	307.81
269.609	283.81
269.841	289.81
270.073	305.81
270.306	326.81
270.538	345.81
270.77	354.81
271.002	331.81
271.234	330.81
271.466	353.81
271.698	341.81
271.93	355.81
272.162	365.81
272.394	365.81
272.626	348.81
272.858	316.81
273.09	302.81
273.322	289.81
273.553	299.81
273.785	298.81
274.017	323.81
274.249	289.81
274.481	279.81
274.713	285.81
274.945	284.81
275.176	301.81
275.408	285.81
275.64	282.81
275.872	280.81
276.104	289.81
276.335	278.81
276.567	310.81
276.799	313.81
277.031	350.81
277.262	358.81
277.494	353.81
277.726	317.81
277.957	315.81
278.189	307.81
278.421	285.81
278.652	296.81
278.884	291.81
279.115	314.81
279.347	267.81
279.579	288.81
279.81	267.81
280.042	269.81
280.273	285.81
280.505	277.81
280.736	282.81
280.968	289.81
281.199	271.81
281.431	275.81
281.662	267.81
281.894	269.81
282.125	277.81
282.356	307.81
282.588	339.81
282.819	328.81
283.051	293.81
283.282	293.81
283.513	286.81
283.745	307.81
283.976	274.81
284.207	273.81
284.439	281.81
284.67	288.81
284.901	277.81
285.132	282.81
285.364	268.81
285.595	279.81
285.826	286.81
286.057	298.81
286.288	278.81
286.52	281.81
286.751	278.81
286.982	274.81
287.213	290.81
287.444	291.81
287.675	295.81
287.906	318.81
288.138	315.81
288.369	322.81
288.6	305.81
288.831	308.81
289.062	309.81
289.293	303.81
289.524	297.81
289.755	279.81
289.986	267.81
290.217	293.81
290.448	282.81
290.679	277.81
290.91	277.81
291.141	279.81
291.371	293.81
291.602	290.81
291.833	286.81
292.064	300.81
292.295	292.81
292.526	316.81
292.757	286.81
292.987	280.81
293.218	297.81
293.449	292.81
293.68	309.81
293.91	276.81
294.141	286.81
294.372	293.81
294.603	292.81
294.833	294.81
295.064	313.81
295.295	284.81
295.525	288.81
295.756	296.81
295.987	313.81
296.217	345.81
296.448	345.81
296.679	317.81
296.909	310.81
297.14	313.81
297.37	307.81
297.601	297.81
297.831	297.81
298.062	293.81
298.292	298.81
298.523	301.81
298.753	306.81
298.984	314.81
299.214	320.81
299.445	309.81
299.675	311.81
299.905	309.81
300.136	323.81
300.366	312.81
300.597	303.81
300.827	329.81
301.057	313.81
301.288	350.81
301.518	327.81
301.748	327.81
301.979	336.81
302.209	332.81
302.439	334.81
302.669	353.81
302.9	331.81
303.13	319.81
303.36	313.81
303.59	345.81
303.82	355.81
304.051	346.81
304.281	336.81
304.511	326.81
304.741	332.81
304.971	319.81
305.201	322.81
305.431	342.81
305.661	338.81
305.891	348.81
306.121	348.81
306.352	344.81
306.582	371.81
306.812	314.81
307.042	332.81
307.272	350.81
307.502	330.81
307.731	355.81
307.961	342.81
308.191	332.81
308.421	339.81
308.651	340.81
308.881	339.81
309.111	372.81
309.341	355.81
309.571	373.81
309.8	385.81
310.03	391.81
310.26	418.81
310.49	390.81
310.72	428.81
310.949	428.81
311.179	437.81
311.409	411.81
311.639	403.81
311.868	402.81
312.098	414.81
312.328	413.81
312.557	425.81
312.787	449.81
313.017	462.81
313.246	444.81
313.476	390.81
313.706	409.81
313.935	414.81
314.165	444.81
314.394	443.81
314.624	414.81
314.853	426.81
315.083	394.81
315.312	403.81
315.542	383.81
315.771	394.81
316.001	371.81
316.23	381.81
316.46	396.81
316.689	370.81
316.919	399.81
317.148	407.81
317.377	403.81
317.607	431.81
317.836	401.81
318.065	394.81
318.295	393.81
318.524	403.81
318.753	404.81
318.983	394.81
319.212	391.81
319.441	422.81
319.67	404.81
319.9	385.81
320.129	405.81
320.358	414.81
320.587	392.81
320.816	427.81
321.046	445.81
321.275	443.81
321.504	403.81
321.733	449.81
321.962	448.81
322.191	500.81
322.42	488.81
322.649	502.81
322.878	520.81
323.108	514.81
323.337	556.81
323.566	585.81
323.795	644.81
324.024	705.81
324.253	875.81
324.482	1308.81
324.71	2094.81
324.939	3047.81
325.168	2606.81
325.397	1315.81
325.626	855.81
325.855	684.81
326.084	611.81
326.313	606.81
326.542	625.81
326.77	673.81
326.999	819.81
327.228	1169.81
327.457	1858.81
327.686	2265.81
327.914	1474.81
328.143	938.81
328.372	798.81
328.6	777.81
328.829	696.81
329.058	719.81
329.287	710.81
329.515	670.81
329.744	606.81
329.972	602.81
330.201	628.81
330.43	681.81
330.658	745.81
330.887	770.81
331.115	733.81
331.344	629.81
331.572	575.81
331.801	551.81
332.03	558.81
332.258	540.81
332.486	508.81
332.715	491.81
332.943	498.81
333.172	486.81
333.4	502.81
333.629	506.81
333.857	505.81
334.085	534.81
334.314	551.81
334.542	581.81
334.771	632.81
334.999	547.81
335.227	527.81
335.455	482.81
335.684	482.81
335.912	470.81
336.14	451.81
336.369	477.81
336.597	487.81
336.825	475.81
337.053	455.81
337.281	462.81
337.51	455.81
337.738	461.81
337.966	472.81
338.194	471.81
338.422	475.81
338.65	450.81
338.878	437.81
339.106	441.81
339.334	460.81
339.562	461.81
339.79	445.81
340.018	455.81
340.246	444.81
340.474	484.81
340.702	467.81
340.93	473.81
341.158	444.81
341.386	452.81
341.614	449.81
341.842	478.81
342.07	452.81
342.298	444.81
342.526	442.81
342.754	447.81
342.981	443.81
343.209	447.81
343.437	436.81
343.665	434.81
343.893	434.81
344.12	453.81
344.348	440.81
344.576	461.81
344.804	452.81
345.031	482.81
345.259	481.81
345.487	491.81
345.714	450.81
345.942	431.81
346.17	438.81
346.397	463.81
346.625	477.81
346.853	454.81
347.08	434.81
347.308	448.81
347.535	473.81
347.763	448.81
347.99	455.81
348.218	480.81
348.445	497.81
348.673	475.81
348.9	459.81
349.128	468.81
349.355	455.81
349.583	441.81
349.81	444.81
350.037	441.81
350.265	461.81
350.492	420.81
350.72	449.81
350.947	442.81
351.174	459.81
351.402	484.81
351.629	472.81
351.856	481.81
352.083	491.81
352.311	491.81
352.538	492.81
352.765	468.81
352.992	466.81
353.22	460.81
353.447	459.81
353.674	461.81
353.901	414.81
354.128	413.81
354.355	407.81
354.583	427.81
354.81	426.81
355.037	429.81
355.264	395.81
355.491	423.81
355.718	387.81
355.945	403.81
356.172	417.81
356.399	401.81
356.626	394.81
356.853	421.81
357.08	416.81
357.307	414.81
357.534	403.81
357.761	405.81
357.988	414.81
358.215	413.81
358.441	421.81
358.668	410.81
358.895	429.81
359.122	401.81
359.349	423.81
359.576	468.81
359.802	494.81
360.029	547.81
360.256	546.81
360.483	539.81
360.709	507.81
360.936	464.81
361.163	478.81
361.39	461.81
361.616	483.81
361.843	462.81
362.07	455.81
362.296	454.81
362.523	439.81
362.749	450.81
362.976	456.81
363.203	449.81
363.429	420.81
363.656	426.81
363.882	437.81
364.109	398.81
364.335	420.81
364.562	426.81
364.788	427.81
365.015	412.81
365.241	439.81
365.468	437.81
365.694	448.81
365.92	438.81
366.147	426.81
366.373	428.81
366.599	424.81
366.826	419.81
367.052	440.81
367.278	435.81
367.505	426.81
367.731	424.81
367.957	419.81
368.184	439.81
368.41	441.81
368.636	451.81
368.862	439.81
369.089	443.81
369.315	433.81
369.541	439.81
369.767	436.81
369.993	436.81
370.219	422.81
370.445	413.81
370.672	434.81
370.898	417.81
371.124	399.81
371.35	430.81
371.576	417.81
371.802	415.81
372.028	425.81
372.254	408.81
372.48	424.81
372.706	416.81
372.932	443.81
373.158	418.81
373.384	425.81
373.61	422.81
373.835	413.81
374.061	429.81
374.287	423.81
374.513	438.81
374.739	452.81
374.965	438.81
375.191	422.81
375.416	411.81
375.642	445.81
375.868	446.81
376.094	423.81
376.319	419.81
376.545	418.81
376.771	405.81
376.997	409.81
377.222	401.81
377.448	415.81
377.674	410.81
377.899	413.81
378.125	399.81
378.35	410.81
378.576	428.81
378.802	409.81
379.027	407.81
379.253	423.81
379.478	412.81
379.704	434.81
379.929	434.81
380.155	437.81
380.38	436.81
380.606	429.81
380.831	429.81
381.057	466.81
381.282	423.81
381.507	441.81
381.733	427.81
381.958	437.81
382.184	409.81
382.409	395.81
382.634	424.81
382.86	425.81
383.085	418.81
383.31	440.81
383.535	455.81
383.761	441.81
383.986	421.81
384.211	445.81
384.436	436.81
384.662	465.81
384.887	445.81
385.112	459.81
385.337	455.81
385.562	441.81
385.787	445.81
386.013	456.81
386.238	491.81
386.463	452.81
386.688	474.81
386.913	452.81
387.138	435.81
387.363	462.81
387.588	447.81
387.813	472.81
388.038	454.81
388.263	455.81
388.488	441.81
388.713	448.81
388.938	441.81
389.163	457.81
389.387	452.81
389.612	455.81
389.837	450.81
390.062	449.81
390.287	466.81
390.512	445.81
390.736	468.81
390.961	455.81
391.186	437.81
391.411	457.81
391.636	458.81
391.86	476.81
392.085	472.81
392.31	460.81
392.534	461.81
392.759	462.81
392.984	467.81
393.208	457.81
393.433	465.81
393.658	457.81
393.882	453.81
394.107	462.81
394.331	459.81
394.556	460.81
394.78	455.81
395.005	447.81
395.229	457.81
395.454	480.81
395.678	469.81
395.903	490.81
396.127	502.81
396.352	499.81
396.576	502.81
396.801	471.81
397.025	499.81
397.249	489.81
397.474	462.81
397.698	497.81
397.922	495.81
398.147	533.81
398.371	523.81
398.595	500.81
398.82	506.81
399.044	515.81
399.268	528.81
399.492	551.81
399.717	572.81
399.941	617.81
400.165	647.81
400.389	647.81
400.613	607.81
400.837	570.81
401.062	533.81
401.286	551.81
401.51	546.81
401.734	509.81
401.958	554.81
402.182	535.81
402.406	578.81
402.63	539.81
402.854	522.81
403.078	549.81
403.302	558.81
403.526	555.81
403.75	553.81
403.974	548.81
404.198	552.81
404.422	584.81
404.645	578.81
404.869	559.81
405.093	597.81
405.317	661.81
405.541	670.81
405.765	651.81
405.988	609.81
406.212	602.81
406.436	620.81
406.66	635.81
406.883	620.81
407.107	661.81
407.331	701.81
407.555	762.81
407.778	746.81
408.002	686.81
408.226	633.81
408.449	629.81
408.673	639.81
408.896	655.81
409.12	696.81
409.344	658.81
409.567	626.81
409.791	561.81
410.014	570.81
410.238	571.81
410.461	550.81
410.685	577.81
410.908	622.81
411.132	636.81
411.355	663.81
411.578	653.81
411.802	574.81
412.025	527.81
412.249	563.81
412.472	583.81
412.695	636.81
412.919	648.81
413.142	596.81
413.365	577.81
413.589	546.81
413.812	547.81
414.035	546.81
414.258	530.81
414.482	527.81
414.705	525.81
414.928	510.81
415.151	525.81
415.374	530.81
415.597	523.81
415.821	523.81
416.044	512.81
416.267	538.81
416.49	536.81
416.713	543.81
416.936	535.81
417.159	524.81
417.382	533.81
417.605	549.81
417.828	544.81
418.051	586.81
418.274	551.81
418.497	543.81
418.72	527.81
418.943	523.81
419.166	546.81
419.389	584.81
419.611	542.81
419.834	572.81
420.057	577.81
420.28	566.81
420.503	561.81
420.726	582.81
420.948	601.81
421.171	631.81
421.394	669.81
421.617	601.81
421.839	577.81
422.062	565.81
422.285	594.81
422.507	695.81
422.73	740.81
422.953	693.81
423.175	627.81
423.398	613.81
423.621	605.81
423.843	631.81
424.066	627.81
424.288	635.81
424.511	647.81
424.733	702.81
424.956	837.81
425.178	781.81
425.401	791.81
425.623	818.81
425.846	682.81
426.068	656.81
426.291	661.81
426.513	649.81
426.735	655.81
426.958	712.81
427.18	793.81
427.402	927.81
427.625	1064.81
427.847	975.81
428.069	829.81
428.292	733.81
428.514	653.81
428.736	632.81
428.958	643.81
429.181	588.81
429.403	593.81
429.625	587.81
429.847	639.81
430.069	747.81
430.292	728.81
430.514	620.81
430.736	586.81
430.958	575.81
431.18	569.81
431.402	565.81
431.624	557.81
431.846	535.81
432.068	538.81
432.29	539.81
432.512	547.81
432.734	563.81
432.956	566.81
433.178	586.81
433.4	578.81
433.622	548.81
433.844	548.81
434.066	559.81
434.287	541.81
434.509	543.81
434.731	542.81
434.953	558.81
435.175	589.81
435.397	639.81
435.618	636.81
435.84	725.81
436.062	813.81
436.284	881.81
436.505	734.81
436.727	671.81
436.949	610.81
437.17	602.81
437.392	600.81
437.614	628.81
437.835	685.81
438.057	807.81
438.278	911.81
438.5	892.81
438.721	972.81
438.943	915.81
439.165	773.81
439.386	696.81
439.608	694.81
439.829	677.81
440.05	720.81
440.272	777.81
440.493	744.81
440.715	659.81
440.936	608.81
441.158	614.81
441.379	594.81
441.6	584.81
441.822	640.81
442.043	684.81
442.264	819.81
442.486	849.81
442.707	723.81
442.928	669.81
443.149	670.81
443.371	722.81
443.592	795.81
443.813	891.81
444.034	933.81
444.255	769.81
444.476	670.81
444.698	643.81
444.919	646.81
445.14	685.81
445.361	686.81
445.582	703.81
445.803	815.81
446.024	920.81
446.245	931.81
446.466	867.81
446.687	726.81
446.908	697.81
447.129	615.81
447.35	586.81
447.571	614.81
447.792	589.81
448.013	591.81
448.234	629.81
448.455	702.81
448.675	859.81
448.896	941.81
449.117	817.81
449.338	759.81
449.559	896.81
449.779	975.81
450	828.81
450.221	685.81
450.442	626.81
450.662	597.81
450.883	641.81
451.104	649.81
451.324	614.81
451.545	565.81
451.766	583.81
451.986	559.81
452.207	550.81
452.428	532.81
452.648	553.81
452.869	553.81
453.089	545.81
453.31	573.81
453.53	561.81
453.751	550.81
453.971	553.81
454.192	574.81
454.412	580.81
454.633	540.81
454.853	540.81
455.073	533.81
455.294	559.81
455.514	660.81
455.734	661.81
455.955	551.81
456.175	506.81
456.395	501.81
456.616	489.81
456.836	501.81
457.056	499.81
457.276	497.81
457.497	503.81
457.717	511.81
457.937	491.81
458.157	492.81
458.377	526.81
458.598	534.81
458.818	641.81
459.038	749.81
459.258	762.81
459.478	637.81
459.698	584.81
459.918	535.81
460.138	558.81
460.358	552.81
460.578	529.81
460.798	546.81
461.018	531.81
461.238	548.81
461.458	534.81
461.678	547.81
461.898	508.81
462.118	516.81
462.338	530.81
462.558	547.81
462.777	545.81
462.997	598.81
463.217	560.81
463.437	570.81
463.657	579.81
463.876	554.81
464.096	565.81
464.316	533.81
464.536	567.81
464.755	600.81
464.975	606.81
465.195	663.81
465.414	807.81
465.634	683.81
465.854	639.81
466.073	587.81
466.293	559.81
466.512	547.81
466.732	516.81
466.951	548.81
467.171	535.81
467.391	539.81
467.61	563.81
467.829	584.81
468.049	589.81
468.268	581.81
468.488	548.81
468.707	521.81
468.927	504.81
469.146	516.81
469.365	524.81
469.585	525.81
469.804	534.81
470.023	561.81
470.243	557.81
470.462	560.81
470.681	593.81
470.901	580.81
471.12	561.81
471.339	545.81
471.558	531.81
471.777	533.81
471.997	538.81
472.216	577.81
472.435	609.81
472.654	604.81
472.873	567.81
473.092	571.81
473.311	555.81
473.53	550.81
473.749	574.81
473.968	628.81
474.187	761.81
474.406	774.81
474.625	623.81
474.844	587.81
475.063	569.81
475.282	545.81
475.501	553.81
475.72	567.81
475.939	566.81
476.158	574.81
476.377	557.81
476.596	565.81
476.814	586.81
477.033	574.81
477.252	593.81
477.471	579.81
477.69	607.81
477.908	594.81
478.127	589.81
478.346	598.81
478.564	597.81
478.783	598.81
479.002	628.81
479.22	596.81
479.439	665.81
479.658	661.81
479.876	680.81
480.095	670.81
480.313	685.81
480.532	686.81
480.751	676.81
480.969	696.81
481.188	797.81
481.406	851.81
481.624	742.81
481.843	681.81
482.061	717.81
482.28	677.81
482.498	647.81
482.717	646.81
482.935	655.81
483.153	666.81
483.372	673.81
483.59	655.81
483.808	642.81
484.027	662.81
484.245	647.81
484.463	664.81
484.681	672.81
484.9	659.81
485.118	664.81
485.336	687.81
485.554	678.81
485.772	683.81
485.99	677.81
486.209	704.81
486.427	697.81
486.645	707.81
486.863	725.81
487.081	728.81
487.299	715.81
487.517	697.81
487.735	702.81
487.953	726.81
488.171	741.81
488.389	720.81
488.607	739.81
488.825	733.81
489.043	724.81
489.261	746.81
489.479	732.81
489.696	757.81
489.914	746.81
490.132	742.81
490.35	754.81
490.568	769.81
490.786	775.81
491.003	791.81
491.221	793.81
491.439	840.81
491.657	828.81
491.874	824.81
492.092	866.81
492.31	878.81
492.527	864.81
492.745	828.81
492.963	853.81
493.18	875.81
493.398	868.81
493.615	874.81
493.833	875.81
494.05	869.81
494.268	878.81
494.485	870.81
494.703	876.81
494.92	872.81
495.138	866.81
495.355	866.81
495.573	876.81
495.79	893.81
496.008	877.81
496.225	873.81
496.442	879.81
496.66	894.81
496.877	859.81
497.094	868.81
497.312	868.81
497.529	898.81
497.746	881.81
497.963	911.81
498.181	935.81
498.398	907.81
498.615	924.81
498.832	947.81
499.049	926.81
499.267	958.81
499.484	933.81
499.701	971.81
499.918	985.81
500.135	994.81
500.352	1039.81
500.569	1063.81
500.786	1062.81
501.003	1050.81
501.22	1033.81
501.437	1010.81
501.654	1010.81
501.871	1023.81
502.088	1022.81
502.305	991.81
502.522	968.81
502.739	945.81
502.956	921.81
503.172	895.81
503.389	884.81
503.606	913.81
503.823	923.81
504.04	857.81
504.256	857.81
504.473	846.81
504.69	893.81
504.907	878.81
505.123	861.81
505.34	859.81
505.557	855.81
505.773	838.81
505.99	822.81
506.207	862.81
506.423	846.81
506.64	851.81
506.856	833.81
507.073	805.81
507.289	839.81
507.506	814.81
507.722	851.81
507.939	876.81
508.155	850.81
508.372	817.81
508.588	803.81
508.805	825.81
509.021	821.81
509.238	850.81
509.454	846.81
509.67	841.81
509.887	824.81
510.103	809.81
510.319	822.81
510.536	951.81
510.752	1692.81
510.968	1373.81
511.184	858.81
511.401	817.81
511.617	795.81
511.833	787.81
512.049	751.81
512.265	777.81
512.481	773.81
512.698	787.81
512.914	766.81
513.13	791.81
513.346	733.81
513.562	791.81
513.778	772.81
513.994	773.81
514.21	799.81
514.426	832.81
514.642	927.81
514.858	970.81
515.074	996.81
515.29	1284.81
515.506	1897.81
515.721	1523.81
515.937	1000.81
516.153	895.81
516.369	844.81
516.585	841.81
516.801	817.81
517.016	773.81
517.232	775.81
517.448	785.81
517.664	773.81
517.879	766.81
518.095	747.81
518.311	762.81
518.527	743.81
518.742	722.81
518.958	770.81
519.173	743.81
519.389	769.81
519.605	762.81
519.82	780.81
520.036	812.81
520.251	834.81
520.467	865.81
520.682	890.81
520.898	891.81
521.113	930.81
521.329	1025.81
521.544	1146.81
521.76	1486.81
521.975	2551.81
522.19	2510.81
522.406	1324.81
522.621	968.81
522.836	872.81
523.052	808.81
523.267	746.81
523.482	712.81
523.698	727.81
523.913	729.81
524.128	733.81
524.343	707.81
524.559	671.81
524.774	657.81
524.989	668.81
525.204	684.81
525.419	674.81
525.634	654.81
525.849	629.81
526.064	622.81
526.28	631.81
526.495	605.81
526.71	606.81
526.925	637.81
527.14	644.81
527.355	626.81
527.57	603.81
527.785	615.81
527.999	590.81
528.214	609.81
528.429	604.81
528.644	587.81
528.859	627.81
529.074	604.81
529.289	673.81
529.503	790.81
529.718	751.81
529.933	701.81
530.148	648.81
530.363	638.81
530.577	599.81
530.792	601.81
531.007	599.81
531.221	614.81
531.436	579.81
531.651	567.81
531.865	601.81
532.08	574.81
532.295	564.81
532.509	581.81
532.724	575.81
532.938	567.81
533.153	579.81
533.367	554.81
533.582	580.81
533.796	532.81
534.011	564.81
534.225	567.81
534.44	565.81
534.654	566.81
534.868	563.81
535.083	591.81
535.297	564.81
535.511	579.81
535.726	591.81
535.94	590.81
536.154	582.81
536.369	567.81
536.583	559.81
536.797	540.81
537.011	554.81
537.225	551.81
537.44	548.81
537.654	534.81
537.868	521.81
538.082	563.81
538.296	547.81
538.51	552.81
538.724	569.81
538.938	532.81
539.153	546.81
539.367	575.81
539.581	581.81
539.795	556.81
540.009	547.81
540.222	556.81
540.436	567.81
540.65	547.81
540.864	559.81
541.078	564.81
541.292	568.81
541.506	552.81
541.72	565.81
541.934	557.81
542.147	553.81
542.361	558.81
542.575	554.81
542.789	549.81
543.002	533.81
543.216	541.81
543.43	556.81
543.644	547.81
543.857	559.81
544.071	547.81
544.285	570.81
544.498	532.81
544.712	557.81
544.925	543.81
545.139	539.81
545.352	539.81
545.566	547.81
545.779	528.81
545.993	531.81
546.206	532.81
546.42	517.81
546.633	526.81
546.847	508.81
547.06	514.81
547.274	520.81
547.487	523.81
547.7	522.81
547.914	511.81
548.127	493.81
548.34	537.81
548.554	520.81
548.767	532.81
548.98	511.81
549.193	493.81
549.407	517.81
549.62	516.81
549.833	517.81
550.046	526.81
550.259	504.81
550.473	508.81
550.686	510.81
550.899	501.81
551.112	503.81
551.325	495.81
551.538	482.81
551.751	501.81
551.964	501.81
552.177	503.81
552.39	491.81
552.603	513.81
552.816	508.81
553.029	491.81
553.242	499.81
553.455	529.81
553.667	532.81
553.88	532.81
554.093	531.81
554.306	529.81
554.519	531.81
554.732	518.81
554.944	489.81
555.157	484.81
555.37	494.81
555.583	507.81
555.795	491.81
556.008	462.81
556.221	483.81
556.433	468.81
556.646	473.81
556.859	465.81
557.071	464.81
557.284	461.81
557.496	474.81
557.709	463.81
557.921	449.81
558.134	476.81
558.346	464.81
558.559	453.81
558.771	429.81
558.984	450.81
559.196	462.81
559.409	454.81
559.621	466.81
559.833	447.81
560.046	433.81
560.258	436.81
560.47	447.81
560.683	464.81
560.895	450.81
561.107	471.81
561.32	456.81
561.532	439.81
561.744	428.81
561.956	463.81
562.168	452.81
562.381	460.81
562.593	447.81
562.805	456.81
563.017	455.81
563.229	439.81
563.441	459.81
563.653	441.81
563.865	452.81
564.077	461.81
564.289	452.81
564.501	458.81
564.713	455.81
564.925	486.81
565.137	481.81
565.349	475.81
565.561	473.81
565.773	463.81
565.985	469.81
566.197	497.81
566.408	476.81
566.62	493.81
566.832	494.81
567.044	497.81
567.255	511.81
567.467	518.81
567.679	535.81
567.891	520.81
568.102	503.81
568.314	501.81
568.526	513.81
568.737	475.81
568.949	481.81
569.161	433.81
569.372	463.81
569.584	463.81
569.795	458.81
570.007	443.81
570.218	500.81
570.43	488.81
570.641	414.81
570.853	430.81
571.064	434.81
571.276	412.81
571.487	414.81
571.698	413.81
571.91	413.81
572.121	401.81
572.333	407.81
572.544	383.81
572.755	410.81
572.966	399.81
573.178	393.81
573.389	405.81
573.6	398.81
573.811	393.81
574.023	387.81
574.234	392.81
574.445	381.81
574.656	385.81
574.867	389.81
575.078	405.81
575.289	380.81
575.501	352.81
575.712	373.81
575.923	383.81
576.134	362.81
576.345	371.81
576.556	377.81
576.767	356.81
576.978	365.81
577.188	362.81
577.399	379.81
577.61	385.81
577.821	379.81
578.032	370.81
578.243	442.81
578.454	741.81
578.665	540.81
578.875	393.81
579.086	359.81
579.297	373.81
579.508	348.81
579.718	347.81
579.929	344.81
580.14	365.81
580.35	346.81
580.561	342.81
580.772	335.81
580.982	350.81
581.193	358.81
581.403	362.81
581.614	339.81
581.825	361.81
582.035	337.81
582.246	349.81
582.456	360.81
582.667	364.81
582.877	369.81
583.087	361.81
583.298	339.81
583.508	344.81
583.719	364.81
583.929	333.81
584.139	343.81
584.35	342.81
584.56	335.81
584.77	342.81
584.981	348.81
585.191	347.81
585.401	347.81
585.611	356.81
585.821	341.81
586.032	334.81
586.242	327.81
586.452	332.81
586.662	329.81
586.872	342.81
587.082	328.81
587.292	350.81
587.502	315.81
587.713	349.81
587.923	339.81
588.133	330.81
588.343	330.81
588.553	321.81
588.762	343.81
588.972	331.81
589.182	331.81
589.392	333.81
589.602	323.81
589.812	309.81
590.022	337.81
590.232	320.81
590.441	344.81
590.651	317.81
590.861	340.81
591.071	333.81
591.281	317.81
591.49	317.81
591.7	344.81
591.91	333.81
592.119	318.81
592.329	327.81
592.539	358.81
592.748	346.81
592.958	331.81
593.167	336.81
593.377	333.81
593.587	339.81
593.796	336.81
594.006	349.81
594.215	327.81
594.424	329.81
594.634	329.81
594.843	328.81
595.053	344.81
595.262	335.81
595.472	322.81
595.681	322.81
595.89	318.81
596.1	303.81
596.309	333.81
596.518	318.81
596.727	329.81
596.937	329.81
597.146	295.81
597.355	301.81
597.564	309.81
597.774	294.81
597.983	281.81
598.192	283.81
598.401	295.81
598.61	295.81
598.819	306.81
599.028	297.81
599.237	307.81
599.446	285.81
599.655	298.81
599.864	286.81
600.073	280.81
600.282	307.81
600.491	298.81
600.7	277.81
600.909	298.81
601.118	289.81
601.327	275.81
601.536	295.81
601.745	300.81
601.953	284.81
602.162	299.81
602.371	285.81
602.58	297.81
602.789	289.81
602.997	302.81
603.206	303.81
603.415	283.81
603.623	290.81
603.832	281.81
604.041	292.81
604.249	275.81
604.458	283.81
604.666	277.81
604.875	271.81
605.084	280.81
605.292	289.81
605.501	287.81
605.709	281.81
605.918	282.81
606.126	269.81
606.334	268.81
606.543	276.81
606.751	288.81
606.96	272.81
607.168	279.81
607.376	284.81
607.585	285.81
607.793	291.81
608.001	285.81
608.21	276.81
608.418	291.81
608.626	278.81
608.834	274.81
609.043	265.81
609.251	279.81
609.459	273.81
609.667	278.81
609.875	261.81
610.083	286.81
610.291	278.81
610.499	277.81
610.707	283.81
610.916	285.81
611.124	271.81
611.332	267.81
611.54	282.81
611.748	278.81
611.955	285.81
612.163	290.81
612.371	272.81
612.579	277.81
612.787	263.81
612.995	270.81
613.203	293.81
613.411	270.81
613.618	270.81
613.826	268.81
614.034	284.81
614.242	301.81
614.449	270.81
614.657	266.81
614.865	267.81
615.072	260.81
615.28	265.81
615.488	256.81
615.695	261.81
615.903	275.81
616.111	271.81
616.318	282.81
616.526	260.81
616.733	263.81
616.941	257.81
617.148	260.81
617.356	265.81
617.563	254.81
617.771	265.81
617.978	253.81
618.185	254.81
618.393	273.81
618.6	278.81
618.807	268.81
619.015	259.81
619.222	282.81
619.429	257.81
619.637	271.81
619.844	259.81
620.051	243.81
620.258	267.81
620.466	237.81
620.673	252.81
620.88	258.81
621.087	253.81
621.294	241.81
621.501	254.81
621.708	237.81
621.915	247.81
622.122	249.81
622.329	255.81
622.536	259.81
622.743	252.81
622.95	239.81
623.157	242.81
623.364	254.81
623.571	224.81
623.778	231.81
623.985	257.81
624.192	265.81
624.399	242.81
624.606	253.81
624.812	242.81
625.019	243.81
625.226	239.81
625.433	246.81
625.639	245.81
625.846	236.81
626.053	230.81
626.259	242.81
626.466	238.81
626.673	235.81
626.879	235.81
627.086	248.81
627.293	244.81
627.499	237.81
627.706	239.81
627.912	233.81
628.119	251.81
628.325	228.81
628.532	253.81
628.738	237.81
628.945	234.81
629.151	230.81
629.357	213.81
629.564	219.81
629.77	215.81
629.976	201.81
630.183	212.81
630.389	214.81
630.595	208.81
630.802	206.81
631.008	233.81
631.214	215.81
631.42	233.81
631.627	218.81
631.833	202.81
632.039	208.81
632.245	213.81
632.451	209.81
632.657	216.81
632.863	210.81
633.069	229.81
633.275	217.81
633.481	223.81
633.688	211.81
633.893	230.81
634.099	221.81
634.305	214.81
634.511	211.81
634.717	195.81
634.923	207.81
635.129	217.81
635.335	204.81
635.541	202.81
635.747	204.81
635.952	212.81
636.158	197.81
636.364	204.81
636.57	197.81
636.775	219.81
636.981	217.81
637.187	218.81
637.392	204.81
637.598	196.81
637.804	195.81
638.009	198.81
638.215	196.81
638.421	196.81
638.626	182.81
638.832	206.81
639.037	205.81
639.243	203.81
639.448	194.81
639.654	185.81
639.859	187.81
640.065	195.81
640.27	200.81
640.475	202.81
640.681	181.81
640.886	197.81
641.091	209.81
641.297	191.81
641.502	181.81
641.707	174.81
641.913	198.81
642.118	187.81
642.323	206.81
642.528	196.81
642.733	188.81
642.939	188.81
643.144	198.81
643.349	196.81
643.554	176.81
643.759	200.81
643.964	179.81
644.169	182.81
644.374	183.81
644.579	187.81
644.784	190.81
644.989	183.81
645.194	163.81
645.399	178.81
645.604	187.81
645.809	189.81
646.014	182.81
646.219	171.81
646.423	170.81
646.628	165.81
646.833	197.81
647.038	172.81
647.243	187.81
647.447	176.81
647.652	189.81
647.857	203.81
648.062	189.81
648.266	192.81
648.471	188.81
648.676	183.81
648.88	179.81
649.085	194.81
649.289	196.81
649.494	185.81
649.698	222.81
649.903	203.81
650.107	184.81
650.312	193.81
650.516	169.81
650.721	171.81
650.925	180.81
651.13	167.81
651.334	155.81
651.539	145.81
651.743	153.81
651.947	166.81
652.152	148.81
652.356	142.81
652.56	162.81
652.764	168.81
652.969	139.81
653.173	145.81
653.377	156.81
653.581	153.81
653.785	161.81
653.99	154.81
654.194	132.81
654.398	147.81
654.602	155.81
654.806	135.81
655.01	147.81
655.214	167.81
655.418	138.81
655.622	145.81
655.826	139.81
656.03	125.81
656.234	123.81
656.438	133.81
656.642	138.81
656.846	130.81
657.049	137.81
657.253	129.81
657.457	137.81
657.661	128.81
657.865	118.81
658.068	113.81
658.272	117.81
658.476	122.81
658.68	119.81
658.883	106.81
659.087	110.81
659.291	117.81
659.494	91.81
659.698	95.81
659.901	99.81
660.105	77.81
660.309	96.81
660.512	97.81
660.716	104.81
660.919	100.81
661.123	89.81
661.326	90.81
661.53	78.81
661.733	78.81
661.936	98.81
662.14	85.81
662.343	92.81
662.546	90.81
662.75	89.81
662.953	92.81
663.156	87.81
663.36	93.81
663.563	97.81
663.766	82.81
663.969	89.81
664.173	78.81
664.376	73.81
664.579	87.81
664.782	82.81
664.985	76.81
665.188	97.81
665.391	101.81
665.594	80.81
665.797	73.81
666	85.81
666.203	79.81
666.406	73.81
666.609	86.81
666.812	81.81
667.015	71.81
667.218	81.81
667.421	83.81
667.624	79.81
667.827	86.81
668.03	93.81
668.232	78.81
668.435	87.81
668.638	87.81
668.841	76.81
669.043	94.81
669.246	91.81
669.449	69.81
669.651	71.81
669.854	75.81
670.057	87.81
670.259	81.81
670.462	75.81
670.665	91.81
670.867	86.81
671.07	87.81
671.272	83.81
671.475	84.81
671.677	83.81
671.88	73.81
672.082	86.81
672.284	63.81
672.487	68.81
672.689	69.81
672.892	82.81
