Data from 1971.PennyLincolnUp.Lamp.En5.5.200Scan.071719.P1.Scan 2. Changed Angle._HRD10591_15-25-41-843.txt Node
Date: Thu Jul 18 15:25:41 EDT 2019
User: cochatt
Spectrometer: HR+D1059
Trigger mode: 1
Integration Time (sec): 1.000000E-1
Scans to average: 1
Electric dark correction enabled: true
Nonlinearity correction enabled: false
Boxcar width: 0
XAxis mode: Wavelengths
Number of Pixels in Spectrum: 2048
>>>>>Begin Spectral Data<<<<<
223.165	-2.44
223.4	-2.44
223.635	-2.44
223.869	-11.44
224.104	-26.44
224.338	-13.44
224.573	-29.44
224.808	-2.44
225.042	-13.44
225.277	-6.44
225.511	0.56
225.746	-10.44
225.98	19.56
226.215	6.56
226.449	14.56
226.683	12.56
226.918	19.56
227.152	42.56
227.387	47.56
227.621	34.56
227.856	43.56
228.09	52.56
228.324	61.56
228.559	50.56
228.793	77.56
229.027	117.56
229.262	126.56
229.496	115.56
229.73	144.56
229.964	188.56
230.199	139.56
230.433	139.56
230.667	110.56
230.901	126.56
231.136	124.56
231.37	124.56
231.604	121.56
231.838	124.56
232.072	113.56
232.306	108.56
232.541	125.56
232.775	120.56
233.009	120.56
233.243	125.56
233.477	115.56
233.711	132.56
233.945	128.56
234.179	122.56
234.413	122.56
234.647	131.56
234.881	123.56
235.115	121.56
235.349	121.56
235.583	131.56
235.817	134.56
236.051	129.56
236.285	140.56
236.519	137.56
236.753	136.56
236.987	159.56
237.221	204.56
237.455	293.56
237.689	217.56
237.922	154.56
238.156	158.56
238.39	138.56
238.624	131.56
238.858	133.56
239.091	139.56
239.325	155.56
239.559	135.56
239.793	144.56
240.027	132.56
240.26	138.56
240.494	159.56
240.728	169.56
240.961	163.56
241.195	154.56
241.429	139.56
241.662	155.56
241.896	140.56
242.13	139.56
242.363	135.56
242.597	153.56
242.83	129.56
243.064	148.56
243.298	155.56
243.531	155.56
243.765	147.56
243.998	146.56
244.232	158.56
244.465	157.56
244.699	160.56
244.932	175.56
245.166	157.56
245.399	165.56
245.633	154.56
245.866	157.56
246.099	165.56
246.333	149.56
246.566	148.56
246.8	170.56
247.033	167.56
247.266	180.56
247.5	177.56
247.733	183.56
247.966	179.56
248.2	171.56
248.433	180.56
248.666	186.56
248.899	213.56
249.133	216.56
249.366	218.56
249.599	221.56
249.832	201.56
250.066	206.56
250.299	197.56
250.532	225.56
250.765	237.56
250.998	258.56
251.231	250.56
251.465	247.56
251.698	225.56
251.931	241.56
252.164	213.56
252.397	226.56
252.63	225.56
252.863	229.56
253.096	241.56
253.329	249.56
253.562	240.56
253.795	244.56
254.028	229.56
254.261	222.56
254.494	257.56
254.727	289.56
254.96	331.56
255.193	296.56
255.426	290.56
255.659	274.56
255.892	286.56
256.124	258.56
256.357	257.56
256.59	242.56
256.823	239.56
257.056	245.56
257.289	227.56
257.521	211.56
257.754	227.56
257.987	230.56
258.22	230.56
258.452	222.56
258.685	222.56
258.918	231.56
259.151	227.56
259.383	246.56
259.616	241.56
259.849	249.56
260.081	252.56
260.314	289.56
260.547	265.56
260.779	264.56
261.012	260.56
261.244	242.56
261.477	254.56
261.71	248.56
261.942	250.56
262.175	250.56
262.407	254.56
262.64	242.56
262.872	225.56
263.105	233.56
263.337	227.56
263.57	219.56
263.802	223.56
264.035	225.56
264.267	223.56
264.499	218.56
264.732	230.56
264.964	205.56
265.197	210.56
265.429	221.56
265.661	215.56
265.894	212.56
266.126	226.56
266.358	231.56
266.591	207.56
266.823	215.56
267.055	216.56
267.287	226.56
267.52	226.56
267.752	233.56
267.984	239.56
268.216	250.56
268.448	249.56
268.681	249.56
268.913	261.56
269.145	281.56
269.377	271.56
269.609	310.56
269.841	303.56
270.073	290.56
270.306	290.56
270.538	344.56
270.77	343.56
271.002	357.56
271.234	322.56
271.466	341.56
271.698	333.56
271.93	355.56
272.162	356.56
272.394	339.56
272.626	319.56
272.858	299.56
273.09	283.56
273.322	300.56
273.553	298.56
273.785	286.56
274.017	265.56
274.249	277.56
274.481	286.56
274.713	279.56
274.945	270.56
275.176	273.56
275.408	302.56
275.64	277.56
275.872	270.56
276.104	283.56
276.335	277.56
276.567	292.56
276.799	306.56
277.031	319.56
277.262	328.56
277.494	340.56
277.726	322.56
277.957	301.56
278.189	296.56
278.421	277.56
278.652	289.56
278.884	270.56
279.115	281.56
279.347	278.56
279.579	271.56
279.81	262.56
280.042	270.56
280.273	271.56
280.505	264.56
280.736	271.56
280.968	267.56
281.199	262.56
281.431	265.56
281.662	271.56
281.894	253.56
282.125	273.56
282.356	293.56
282.588	326.56
282.819	332.56
283.051	281.56
283.282	264.56
283.513	270.56
283.745	263.56
283.976	270.56
284.207	283.56
284.439	271.56
284.67	294.56
284.901	263.56
285.132	258.56
285.364	277.56
285.595	289.56
285.826	263.56
286.057	276.56
286.288	270.56
286.52	279.56
286.751	293.56
286.982	268.56
287.213	286.56
287.444	270.56
287.675	277.56
287.906	288.56
288.138	303.56
288.369	290.56
288.6	316.56
288.831	299.56
289.062	296.56
289.293	293.56
289.524	293.56
289.755	289.56
289.986	291.56
290.217	287.56
290.448	275.56
290.679	270.56
290.91	274.56
291.141	282.56
291.371	300.56
291.602	290.56
291.833	269.56
292.064	285.56
292.295	279.56
292.526	289.56
292.757	283.56
292.987	276.56
293.218	301.56
293.449	272.56
293.68	279.56
293.91	297.56
294.141	289.56
294.372	270.56
294.603	288.56
294.833	290.56
295.064	288.56
295.295	294.56
295.525	292.56
295.756	303.56
295.987	315.56
296.217	328.56
296.448	327.56
296.679	298.56
296.909	274.56
297.14	283.56
297.37	293.56
297.601	262.56
297.831	294.56
298.062	287.56
298.292	296.56
298.523	297.56
298.753	306.56
298.984	282.56
299.214	294.56
299.445	280.56
299.675	317.56
299.905	332.56
300.136	294.56
300.366	305.56
300.597	324.56
300.827	303.56
301.057	310.56
301.288	314.56
301.518	332.56
301.748	316.56
301.979	315.56
302.209	332.56
302.439	330.56
302.669	325.56
302.9	325.56
303.13	313.56
303.36	313.56
303.59	322.56
303.82	321.56
304.051	340.56
304.281	320.56
304.511	322.56
304.741	337.56
304.971	294.56
305.201	312.56
305.431	317.56
305.661	318.56
305.891	322.56
306.121	327.56
306.352	337.56
306.582	353.56
306.812	332.56
307.042	345.56
307.272	333.56
307.502	337.56
307.731	338.56
307.961	338.56
308.191	350.56
308.421	338.56
308.651	335.56
308.881	345.56
309.111	348.56
309.341	335.56
309.571	364.56
309.8	357.56
310.03	377.56
310.26	397.56
310.49	389.56
310.72	409.56
310.949	434.56
311.179	411.56
311.409	403.56
311.639	378.56
311.868	398.56
312.098	397.56
312.328	406.56
312.557	412.56
312.787	436.56
313.017	419.56
313.246	401.56
313.476	380.56
313.706	393.56
313.935	400.56
314.165	407.56
314.394	445.56
314.624	407.56
314.853	410.56
315.083	379.56
315.312	389.56
315.542	387.56
315.771	374.56
316.001	370.56
316.23	370.56
316.46	382.56
316.689	375.56
316.919	398.56
317.148	409.56
317.377	390.56
317.607	407.56
317.836	411.56
318.065	392.56
318.295	409.56
318.524	391.56
318.753	381.56
318.983	376.56
319.212	388.56
319.441	393.56
319.67	402.56
319.9	391.56
320.129	380.56
320.358	393.56
320.587	380.56
320.816	409.56
321.046	415.56
321.275	427.56
321.504	415.56
321.733	426.56
321.962	427.56
322.191	458.56
322.42	464.56
322.649	473.56
322.878	490.56
323.108	483.56
323.337	536.56
323.566	587.56
323.795	600.56
324.024	668.56
324.253	867.56
324.482	1193.56
324.71	1961.56
324.939	2819.56
325.168	2390.56
325.397	1214.56
325.626	804.56
325.855	619.56
326.084	595.56
326.313	574.56
326.542	585.56
326.77	651.56
326.999	732.56
327.228	1046.56
327.457	1685.56
327.686	2092.56
327.914	1366.56
328.143	879.56
328.372	747.56
328.6	709.56
328.829	645.56
329.058	684.56
329.287	676.56
329.515	646.56
329.744	575.56
329.972	574.56
330.201	602.56
330.43	642.56
330.658	690.56
330.887	721.56
331.115	705.56
331.344	609.56
331.572	557.56
331.801	535.56
332.03	541.56
332.258	520.56
332.486	487.56
332.715	459.56
332.943	462.56
333.172	479.56
333.4	481.56
333.629	488.56
333.857	522.56
334.085	523.56
334.314	501.56
334.542	577.56
334.771	583.56
334.999	540.56
335.227	493.56
335.455	483.56
335.684	455.56
335.912	457.56
336.14	457.56
336.369	448.56
336.597	453.56
336.825	468.56
337.053	458.56
337.281	438.56
337.51	448.56
337.738	423.56
337.966	431.56
338.194	452.56
338.422	471.56
338.65	447.56
338.878	451.56
339.106	440.56
339.334	433.56
339.562	439.56
339.79	421.56
340.018	457.56
340.246	443.56
340.474	467.56
340.702	462.56
340.93	441.56
341.158	439.56
341.386	438.56
341.614	446.56
341.842	438.56
342.07	447.56
342.298	428.56
342.526	429.56
342.754	415.56
342.981	411.56
343.209	412.56
343.437	418.56
343.665	410.56
343.893	435.56
344.12	427.56
344.348	424.56
344.576	429.56
344.804	446.56
345.031	455.56
345.259	474.56
345.487	451.56
345.714	428.56
345.942	429.56
346.17	455.56
346.397	443.56
346.625	441.56
346.853	438.56
347.08	450.56
347.308	430.56
347.535	446.56
347.763	449.56
347.99	456.56
348.218	459.56
348.445	443.56
348.673	458.56
348.9	446.56
349.128	446.56
349.355	431.56
349.583	421.56
349.81	419.56
350.037	433.56
350.265	415.56
350.492	420.56
350.72	436.56
350.947	422.56
351.174	459.56
351.402	455.56
351.629	435.56
351.856	447.56
352.083	476.56
352.311	484.56
352.538	462.56
352.765	466.56
352.992	446.56
353.22	427.56
353.447	438.56
353.674	437.56
353.901	419.56
354.128	417.56
354.355	409.56
354.583	421.56
354.81	407.56
355.037	385.56
355.264	393.56
355.491	388.56
355.718	380.56
355.945	392.56
356.172	406.56
356.399	398.56
356.626	385.56
356.853	383.56
357.08	402.56
357.307	408.56
357.534	415.56
357.761	394.56
357.988	387.56
358.215	413.56
358.441	405.56
358.668	393.56
358.895	413.56
359.122	415.56
359.349	412.56
359.576	433.56
359.802	463.56
360.029	499.56
360.256	531.56
360.483	502.56
360.709	486.56
360.936	439.56
361.163	456.56
361.39	467.56
361.616	460.56
361.843	438.56
362.07	433.56
362.296	473.56
362.523	442.56
362.749	461.56
362.976	432.56
363.203	436.56
363.429	430.56
363.656	426.56
363.882	412.56
364.109	411.56
364.335	435.56
364.562	417.56
364.788	419.56
365.015	409.56
365.241	422.56
365.468	419.56
365.694	430.56
365.92	428.56
366.147	431.56
366.373	433.56
366.599	409.56
366.826	415.56
367.052	393.56
367.278	430.56
367.505	422.56
367.731	430.56
367.957	402.56
368.184	428.56
368.41	425.56
368.636	455.56
368.862	434.56
369.089	426.56
369.315	391.56
369.541	415.56
369.767	407.56
369.993	421.56
370.219	409.56
370.445	407.56
370.672	421.56
370.898	405.56
371.124	411.56
371.35	379.56
371.576	409.56
371.802	404.56
372.028	436.56
372.254	403.56
372.48	409.56
372.706	396.56
372.932	399.56
373.158	393.56
373.384	408.56
373.61	398.56
373.835	417.56
374.061	403.56
374.287	398.56
374.513	419.56
374.739	407.56
374.965	428.56
375.191	422.56
375.416	413.56
375.642	398.56
375.868	433.56
376.094	410.56
376.319	403.56
376.545	406.56
376.771	399.56
376.997	417.56
377.222	420.56
377.448	388.56
377.674	403.56
377.899	387.56
378.125	409.56
378.35	405.56
378.576	412.56
378.802	404.56
379.027	429.56
379.253	414.56
379.478	428.56
379.704	414.56
379.929	414.56
380.155	408.56
380.38	413.56
380.606	407.56
380.831	418.56
381.057	423.56
381.282	417.56
381.507	398.56
381.733	427.56
381.958	421.56
382.184	408.56
382.409	407.56
382.634	429.56
382.86	425.56
383.085	431.56
383.31	426.56
383.535	434.56
383.761	430.56
383.986	425.56
384.211	428.56
384.436	427.56
384.662	422.56
384.887	439.56
385.112	431.56
385.337	421.56
385.562	432.56
385.787	450.56
386.013	449.56
386.238	465.56
386.463	446.56
386.688	453.56
386.913	440.56
387.138	433.56
387.363	437.56
387.588	453.56
387.813	437.56
388.038	418.56
388.263	457.56
388.488	447.56
388.713	437.56
388.938	435.56
389.163	446.56
389.387	447.56
389.612	433.56
389.837	450.56
390.062	439.56
390.287	451.56
390.512	442.56
390.736	439.56
390.961	435.56
391.186	455.56
391.411	437.56
391.636	439.56
391.86	443.56
392.085	434.56
392.31	463.56
392.534	483.56
392.759	475.56
392.984	445.56
393.208	454.56
393.433	444.56
393.658	451.56
393.882	443.56
394.107	437.56
394.331	454.56
394.556	443.56
394.78	439.56
395.005	461.56
395.229	465.56
395.454	469.56
395.678	460.56
395.903	472.56
396.127	503.56
396.352	503.56
396.576	488.56
396.801	486.56
397.025	467.56
397.249	475.56
397.474	469.56
397.698	477.56
397.922	485.56
398.147	514.56
398.371	513.56
398.595	506.56
398.82	493.56
399.044	521.56
399.268	517.56
399.492	524.56
399.717	534.56
399.941	589.56
400.165	618.56
400.389	609.56
400.613	575.56
400.837	526.56
401.062	523.56
401.286	547.56
401.51	521.56
401.734	484.56
401.958	505.56
402.182	537.56
402.406	535.56
402.63	534.56
402.854	533.56
403.078	527.56
403.302	525.56
403.526	533.56
403.75	539.56
403.974	527.56
404.198	533.56
404.422	542.56
404.645	538.56
404.869	536.56
405.093	561.56
405.317	656.56
405.541	667.56
405.765	602.56
405.988	580.56
406.212	563.56
406.436	595.56
406.66	633.56
406.883	579.56
407.107	594.56
407.331	653.56
407.555	718.56
407.778	739.56
408.002	647.56
408.226	618.56
408.449	593.56
408.673	604.56
408.896	615.56
409.12	682.56
409.344	652.56
409.567	571.56
409.791	555.56
410.014	549.56
410.238	540.56
410.461	540.56
410.685	550.56
410.908	563.56
411.132	622.56
411.355	661.56
411.578	633.56
411.802	571.56
412.025	556.56
412.249	556.56
412.472	582.56
412.695	608.56
412.919	618.56
413.142	549.56
413.365	549.56
413.589	536.56
413.812	502.56
414.035	495.56
414.258	519.56
414.482	513.56
414.705	515.56
414.928	519.56
415.151	523.56
415.374	527.56
415.597	489.56
415.821	493.56
416.044	522.56
416.267	523.56
416.49	523.56
416.713	518.56
416.936	542.56
417.159	502.56
417.382	524.56
417.605	521.56
417.828	531.56
418.051	541.56
418.274	529.56
418.497	516.56
418.72	532.56
418.943	527.56
419.166	556.56
419.389	538.56
419.611	536.56
419.834	561.56
420.057	541.56
420.28	550.56
420.503	545.56
420.726	553.56
420.948	579.56
421.171	633.56
421.394	663.56
421.617	581.56
421.839	576.56
422.062	550.56
422.285	577.56
422.507	658.56
422.73	706.56
422.953	697.56
423.175	639.56
423.398	613.56
423.621	616.56
423.843	608.56
424.066	619.56
424.288	602.56
424.511	635.56
424.733	706.56
424.956	787.56
425.178	769.56
425.401	718.56
425.623	800.56
425.846	674.56
426.068	628.56
426.291	615.56
426.513	629.56
426.735	617.56
426.958	704.56
427.18	752.56
427.402	903.56
427.625	1006.56
427.847	902.56
428.069	819.56
428.292	713.56
428.514	634.56
428.736	610.56
428.958	608.56
429.181	573.56
429.403	569.56
429.625	596.56
429.847	631.56
430.069	705.56
430.292	705.56
430.514	591.56
430.736	593.56
430.958	575.56
431.18	527.56
431.402	524.56
431.624	542.56
431.846	525.56
432.068	532.56
432.29	519.56
432.512	535.56
432.734	534.56
432.956	540.56
433.178	549.56
433.4	569.56
433.622	567.56
433.844	534.56
434.066	535.56
434.287	508.56
434.509	538.56
434.731	541.56
434.953	559.56
435.175	562.56
435.397	620.56
435.618	601.56
435.84	674.56
436.062	771.56
436.284	855.56
436.505	717.56
436.727	663.56
436.949	601.56
437.17	581.56
437.392	581.56
437.614	608.56
437.835	656.56
438.057	756.56
438.278	875.56
438.5	870.56
438.721	929.56
438.943	895.56
439.165	715.56
439.386	659.56
439.608	660.56
439.829	658.56
440.05	670.56
440.272	718.56
440.493	686.56
440.715	631.56
440.936	591.56
441.158	587.56
441.379	591.56
441.6	598.56
441.822	627.56
442.043	682.56
442.264	768.56
442.486	805.56
442.707	699.56
442.928	653.56
443.149	679.56
443.371	673.56
443.592	703.56
443.813	827.56
444.034	886.56
444.255	720.56
444.476	669.56
444.698	602.56
444.919	613.56
445.14	693.56
445.361	675.56
445.582	682.56
445.803	791.56
446.024	894.56
446.245	903.56
446.466	818.56
446.687	684.56
446.908	629.56
447.129	608.56
447.35	612.56
447.571	574.56
447.792	575.56
448.013	588.56
448.234	634.56
448.455	678.56
448.675	787.56
448.896	919.56
449.117	789.56
449.338	725.56
449.559	872.56
449.779	951.56
450	781.56
450.221	656.56
450.442	610.56
450.662	612.56
450.883	564.56
451.104	623.56
451.324	593.56
451.545	588.56
451.766	561.56
451.986	553.56
452.207	507.56
452.428	511.56
452.648	516.56
452.869	532.56
453.089	521.56
453.31	569.56
453.53	535.56
453.751	529.56
453.971	527.56
454.192	553.56
454.412	526.56
454.633	519.56
454.853	510.56
455.073	517.56
455.294	559.56
455.514	635.56
455.734	631.56
455.955	557.56
456.175	498.56
456.395	485.56
456.616	451.56
456.836	475.56
457.056	481.56
457.276	478.56
457.497	471.56
457.717	490.56
457.937	488.56
458.157	515.56
458.377	502.56
458.598	540.56
458.818	615.56
459.038	717.56
459.258	718.56
459.478	622.56
459.698	563.56
459.918	524.56
460.138	530.56
460.358	526.56
460.578	497.56
460.798	533.56
461.018	530.56
461.238	501.56
461.458	513.56
461.678	516.56
461.898	543.56
462.118	519.56
462.338	541.56
462.558	536.56
462.777	537.56
462.997	541.56
463.217	550.56
463.437	561.56
463.657	555.56
463.876	541.56
464.096	531.56
464.316	552.56
464.536	558.56
464.755	548.56
464.975	582.56
465.195	660.56
465.414	745.56
465.634	656.56
465.854	598.56
466.073	561.56
466.293	538.56
466.512	541.56
466.732	515.56
466.951	520.56
467.171	498.56
467.391	523.56
467.61	553.56
467.829	544.56
468.049	521.56
468.268	537.56
468.488	517.56
468.707	520.56
468.927	499.56
469.146	523.56
469.365	514.56
469.585	530.56
469.804	539.56
470.023	538.56
470.243	530.56
470.462	542.56
470.681	572.56
470.901	553.56
471.12	553.56
471.339	547.56
471.558	526.56
471.777	549.56
471.997	537.56
472.216	545.56
472.435	565.56
472.654	567.56
472.873	558.56
473.092	509.56
473.311	522.56
473.53	538.56
473.749	559.56
473.968	609.56
474.187	707.56
474.406	733.56
474.625	626.56
474.844	551.56
475.063	542.56
475.282	533.56
475.501	549.56
475.72	544.56
475.939	556.56
476.158	566.56
476.377	546.56
476.596	538.56
476.814	556.56
477.033	567.56
477.252	554.56
477.471	569.56
477.69	553.56
477.908	594.56
478.127	606.56
478.346	602.56
478.564	598.56
478.783	609.56
479.002	610.56
479.22	585.56
479.439	611.56
479.658	667.56
479.876	661.56
480.095	651.56
480.313	680.56
480.532	677.56
480.751	653.56
480.969	669.56
481.188	760.56
481.406	815.56
481.624	715.56
481.843	677.56
482.061	672.56
482.28	638.56
482.498	651.56
482.717	650.56
482.935	637.56
483.153	656.56
483.372	647.56
483.59	643.56
483.808	640.56
484.027	651.56
484.245	640.56
484.463	634.56
484.681	674.56
484.9	653.56
485.118	630.56
485.336	635.56
485.554	650.56
485.772	643.56
485.99	638.56
486.209	638.56
486.427	676.56
486.645	669.56
486.863	703.56
487.081	697.56
487.299	702.56
487.517	681.56
487.735	694.56
487.953	700.56
488.171	705.56
488.389	690.56
488.607	663.56
488.825	713.56
489.043	710.56
489.261	718.56
489.479	721.56
489.696	721.56
489.914	723.56
490.132	724.56
490.35	740.56
490.568	753.56
490.786	784.56
491.003	772.56
491.221	765.56
491.439	791.56
491.657	815.56
491.874	810.56
492.092	811.56
492.31	830.56
492.527	851.56
492.745	817.56
492.963	851.56
493.18	847.56
493.398	830.56
493.615	838.56
493.833	850.56
494.05	829.56
494.268	851.56
494.485	850.56
494.703	828.56
494.92	866.56
495.138	855.56
495.355	864.56
495.573	825.56
495.79	821.56
496.008	852.56
496.225	863.56
496.442	844.56
496.66	858.56
496.877	834.56
497.094	824.56
497.312	859.56
497.529	842.56
497.746	855.56
497.963	905.56
498.181	911.56
498.398	908.56
498.615	880.56
498.832	889.56
499.049	910.56
499.267	922.56
499.484	948.56
499.701	956.56
499.918	964.56
500.135	967.56
500.352	1006.56
500.569	1015.56
500.786	1009.56
501.003	1000.56
501.22	1007.56
501.437	993.56
501.654	1003.56
501.871	1000.56
502.088	1002.56
502.305	939.56
502.522	907.56
502.739	907.56
502.956	903.56
503.172	839.56
503.389	847.56
503.606	902.56
503.823	865.56
504.04	864.56
504.256	841.56
504.473	823.56
504.69	839.56
504.907	818.56
505.123	832.56
505.34	830.56
505.557	819.56
505.773	808.56
505.99	811.56
506.207	836.56
506.423	813.56
506.64	796.56
506.856	796.56
507.073	806.56
507.289	787.56
507.506	794.56
507.722	853.56
507.939	850.56
508.155	802.56
508.372	794.56
508.588	785.56
508.805	769.56
509.021	778.56
509.238	782.56
509.454	791.56
509.67	809.56
509.887	775.56
510.103	756.56
510.319	767.56
510.536	923.56
510.752	1581.56
510.968	1254.56
511.184	814.56
511.401	798.56
511.617	769.56
511.833	741.56
512.049	733.56
512.265	705.56
512.481	729.56
512.698	730.56
512.914	726.56
513.13	753.56
513.346	759.56
513.562	725.56
513.778	789.56
513.994	758.56
514.21	782.56
514.426	804.56
514.642	882.56
514.858	891.56
515.074	949.56
515.29	1197.56
515.506	1804.56
515.721	1441.56
515.937	945.56
516.153	859.56
516.369	809.56
516.585	787.56
516.801	759.56
517.016	748.56
517.232	761.56
517.448	753.56
517.664	777.56
517.879	754.56
518.095	701.56
518.311	725.56
518.527	728.56
518.742	723.56
518.958	721.56
519.173	740.56
519.389	735.56
519.605	723.56
519.82	706.56
520.036	747.56
520.251	812.56
520.467	821.56
520.682	806.56
520.898	830.56
521.113	871.56
521.329	939.56
521.544	1083.56
521.76	1369.56
521.975	2345.56
522.19	2276.56
522.406	1235.56
522.621	907.56
522.836	806.56
523.052	781.56
523.267	730.56
523.482	713.56
523.698	696.56
523.913	706.56
524.128	684.56
524.343	668.56
524.559	644.56
524.774	630.56
524.989	662.56
525.204	656.56
525.419	678.56
525.634	647.56
525.849	617.56
526.064	624.56
526.28	616.56
526.495	588.56
526.71	612.56
526.925	582.56
527.14	591.56
527.355	612.56
527.57	583.56
527.785	601.56
527.999	606.56
528.214	586.56
528.429	570.56
528.644	580.56
528.859	588.56
529.074	601.56
529.289	649.56
529.503	750.56
529.718	719.56
529.933	644.56
530.148	634.56
530.363	618.56
530.577	590.56
530.792	580.56
531.007	572.56
531.221	611.56
531.436	578.56
531.651	562.56
531.865	552.56
532.08	575.56
532.295	551.56
532.509	543.56
532.724	537.56
532.938	562.56
533.153	547.56
533.367	542.56
533.582	558.56
533.796	545.56
534.011	547.56
534.225	551.56
534.44	539.56
534.654	547.56
534.868	539.56
535.083	546.56
535.297	530.56
535.511	555.56
535.726	561.56
535.94	528.56
536.154	565.56
536.369	553.56
536.583	547.56
536.797	558.56
537.011	542.56
537.225	543.56
537.44	532.56
537.654	526.56
537.868	527.56
538.082	530.56
538.296	531.56
538.51	571.56
538.724	542.56
538.938	533.56
539.153	555.56
539.367	529.56
539.581	545.56
539.795	540.56
540.009	538.56
540.222	522.56
540.436	540.56
540.65	539.56
540.864	542.56
541.078	543.56
541.292	543.56
541.506	518.56
541.72	532.56
541.934	515.56
542.147	533.56
542.361	539.56
542.575	540.56
542.789	514.56
543.002	507.56
543.216	529.56
543.43	524.56
543.644	522.56
543.857	550.56
544.071	540.56
544.285	526.56
544.498	533.56
544.712	523.56
544.925	518.56
545.139	516.56
545.352	516.56
545.566	501.56
545.779	492.56
545.993	497.56
546.206	535.56
546.42	517.56
546.633	490.56
546.847	482.56
547.06	499.56
547.274	492.56
547.487	485.56
547.7	499.56
547.914	517.56
548.127	501.56
548.34	509.56
548.554	498.56
548.767	510.56
548.98	509.56
549.193	488.56
549.407	462.56
549.62	497.56
549.833	502.56
550.046	499.56
550.259	481.56
550.473	489.56
550.686	492.56
550.899	488.56
551.112	478.56
551.325	490.56
551.538	491.56
551.751	472.56
551.964	486.56
552.177	482.56
552.39	468.56
552.603	483.56
552.816	486.56
553.029	475.56
553.242	476.56
553.455	483.56
553.667	515.56
553.88	497.56
554.093	522.56
554.306	503.56
554.519	509.56
554.732	522.56
554.944	484.56
555.157	470.56
555.37	460.56
555.583	470.56
555.795	459.56
556.008	476.56
556.221	469.56
556.433	463.56
556.646	439.56
556.859	470.56
557.071	442.56
557.284	443.56
557.496	459.56
557.709	461.56
557.921	464.56
558.134	453.56
558.346	446.56
558.559	438.56
558.771	460.56
558.984	441.56
559.196	427.56
559.409	434.56
559.621	454.56
559.833	439.56
560.046	451.56
560.258	439.56
560.47	455.56
560.683	444.56
560.895	418.56
561.107	426.56
561.32	420.56
561.532	432.56
561.744	430.56
561.956	450.56
562.168	463.56
562.381	435.56
562.593	425.56
562.805	434.56
563.017	460.56
563.229	430.56
563.441	446.56
563.653	459.56
563.865	459.56
564.077	453.56
564.289	440.56
564.501	422.56
564.713	451.56
564.925	457.56
565.137	474.56
565.349	460.56
565.561	450.56
565.773	445.56
565.985	466.56
566.197	471.56
566.408	484.56
566.62	481.56
566.832	464.56
567.044	496.56
567.255	493.56
567.467	496.56
567.679	492.56
567.891	489.56
568.102	473.56
568.314	459.56
568.526	478.56
568.737	478.56
568.949	446.56
569.161	455.56
569.372	426.56
569.584	428.56
569.795	441.56
570.007	433.56
570.218	494.56
570.43	474.56
570.641	433.56
570.853	416.56
571.064	411.56
571.276	396.56
571.487	406.56
571.698	412.56
571.91	406.56
572.121	397.56
572.333	388.56
572.544	414.56
572.755	395.56
572.966	393.56
573.178	402.56
573.389	366.56
573.6	382.56
573.811	387.56
574.023	374.56
574.234	384.56
574.445	376.56
574.656	378.56
574.867	384.56
575.078	368.56
575.289	376.56
575.501	370.56
575.712	346.56
575.923	348.56
576.134	371.56
576.345	387.56
576.556	378.56
576.767	371.56
576.978	380.56
577.188	357.56
577.399	373.56
577.61	403.56
577.821	364.56
578.032	365.56
578.243	429.56
578.454	718.56
578.665	528.56
578.875	390.56
579.086	351.56
579.297	349.56
579.508	337.56
579.718	364.56
579.929	324.56
580.14	343.56
580.35	357.56
580.561	344.56
580.772	350.56
580.982	350.56
581.193	336.56
581.403	347.56
581.614	322.56
581.825	354.56
582.035	331.56
582.246	342.56
582.456	342.56
582.667	358.56
582.877	345.56
583.087	325.56
583.298	345.56
583.508	332.56
583.719	358.56
583.929	330.56
584.139	309.56
584.35	312.56
584.56	338.56
584.77	347.56
584.981	327.56
585.191	333.56
585.401	315.56
585.611	318.56
585.821	324.56
586.032	350.56
586.242	321.56
586.452	321.56
586.662	317.56
586.872	334.56
587.082	323.56
587.292	315.56
587.502	326.56
587.713	319.56
587.923	325.56
588.133	309.56
588.343	331.56
588.553	326.56
588.762	317.56
588.972	319.56
589.182	315.56
589.392	319.56
589.602	299.56
589.812	310.56
590.022	305.56
590.232	324.56
590.441	325.56
590.651	330.56
590.861	333.56
591.071	295.56
591.281	325.56
591.49	331.56
591.7	328.56
591.91	315.56
592.119	303.56
592.329	323.56
592.539	325.56
592.748	333.56
592.958	338.56
593.167	327.56
593.377	326.56
593.587	339.56
593.796	328.56
594.006	336.56
594.215	318.56
594.424	332.56
594.634	331.56
594.843	316.56
595.053	326.56
595.262	315.56
595.472	318.56
595.681	306.56
595.89	323.56
596.1	312.56
596.309	329.56
596.518	300.56
596.727	322.56
596.937	315.56
597.146	323.56
597.355	311.56
597.564	307.56
597.774	303.56
597.983	282.56
598.192	302.56
598.401	291.56
598.61	297.56
598.819	290.56
599.028	277.56
599.237	285.56
599.446	293.56
599.655	275.56
599.864	295.56
600.073	293.56
600.282	282.56
600.491	279.56
600.7	302.56
600.909	297.56
601.118	312.56
601.327	291.56
601.536	284.56
601.745	281.56
601.953	285.56
602.162	279.56
602.371	286.56
602.58	275.56
602.789	282.56
602.997	274.56
603.206	278.56
603.415	299.56
603.623	292.56
603.832	291.56
604.041	281.56
604.249	283.56
604.458	267.56
604.666	264.56
604.875	268.56
605.084	276.56
605.292	283.56
605.501	263.56
605.709	267.56
605.918	275.56
606.126	291.56
606.334	274.56
606.543	257.56
606.751	269.56
606.96	272.56
607.168	284.56
607.376	274.56
607.585	266.56
607.793	266.56
608.001	281.56
608.21	267.56
608.418	279.56
608.626	283.56
608.834	265.56
609.043	285.56
609.251	265.56
609.459	267.56
609.667	273.56
609.875	267.56
610.083	269.56
610.291	269.56
610.499	245.56
610.707	273.56
610.916	267.56
611.124	282.56
611.332	272.56
611.54	287.56
611.748	285.56
611.955	276.56
612.163	260.56
612.371	261.56
612.579	266.56
612.787	264.56
612.995	285.56
613.203	262.56
613.411	263.56
613.618	257.56
613.826	249.56
614.034	265.56
614.242	255.56
614.449	251.56
614.657	282.56
614.865	263.56
615.072	269.56
615.28	261.56
615.488	254.56
615.695	268.56
615.903	258.56
616.111	271.56
616.318	266.56
616.526	248.56
616.733	271.56
616.941	270.56
617.148	268.56
617.356	253.56
617.563	257.56
617.771	268.56
617.978	240.56
618.185	254.56
618.393	250.56
618.6	249.56
618.807	256.56
619.015	255.56
619.222	247.56
619.429	244.56
619.637	253.56
619.844	245.56
620.051	255.56
620.258	239.56
620.466	253.56
620.673	226.56
620.88	232.56
621.087	230.56
621.294	242.56
621.501	234.56
621.708	253.56
621.915	238.56
622.122	248.56
622.329	244.56
622.536	244.56
622.743	244.56
622.95	257.56
623.157	244.56
623.364	240.56
623.571	243.56
623.778	254.56
623.985	242.56
624.192	251.56
624.399	228.56
624.606	231.56
624.812	224.56
625.019	232.56
625.226	231.56
625.433	242.56
625.639	238.56
625.846	217.56
626.053	197.56
626.259	225.56
626.466	229.56
626.673	220.56
626.879	212.56
627.086	218.56
627.293	221.56
627.499	220.56
627.706	215.56
627.912	214.56
628.119	228.56
628.325	234.56
628.532	219.56
628.738	207.56
628.945	218.56
629.151	229.56
629.357	233.56
629.564	222.56
629.77	206.56
629.976	229.56
630.183	218.56
630.389	223.56
630.595	225.56
630.802	211.56
631.008	217.56
631.214	199.56
631.42	206.56
631.627	221.56
631.833	218.56
632.039	191.56
632.245	199.56
632.451	205.56
632.657	208.56
632.863	195.56
633.069	203.56
633.275	217.56
633.481	215.56
633.688	208.56
633.893	217.56
634.099	195.56
634.305	199.56
634.511	201.56
634.717	217.56
634.923	179.56
635.129	199.56
635.335	198.56
635.541	202.56
635.747	193.56
635.952	201.56
636.158	198.56
636.364	218.56
636.57	208.56
636.775	195.56
636.981	193.56
637.187	178.56
637.392	177.56
637.598	187.56
637.804	181.56
638.009	196.56
638.215	206.56
638.421	205.56
638.626	211.56
638.832	186.56
639.037	198.56
639.243	206.56
639.448	199.56
639.654	193.56
639.859	203.56
640.065	179.56
640.27	190.56
640.475	190.56
640.681	173.56
640.886	191.56
641.091	183.56
641.297	190.56
641.502	200.56
641.707	192.56
641.913	200.56
642.118	178.56
642.323	192.56
642.528	196.56
642.733	168.56
642.939	169.56
643.144	178.56
643.349	175.56
643.554	180.56
643.759	179.56
643.964	174.56
644.169	191.56
644.374	183.56
644.579	188.56
644.784	186.56
644.989	177.56
645.194	172.56
645.399	174.56
645.604	178.56
645.809	200.56
646.014	170.56
646.219	184.56
646.423	181.56
646.628	181.56
646.833	195.56
647.038	173.56
647.243	172.56
647.447	174.56
647.652	181.56
647.857	161.56
648.062	185.56
648.266	185.56
648.471	188.56
648.676	180.56
648.88	182.56
649.085	188.56
649.289	172.56
649.494	170.56
649.698	195.56
649.903	203.56
650.107	179.56
650.312	177.56
650.516	167.56
650.721	171.56
650.925	168.56
651.13	156.56
651.334	168.56
651.539	163.56
651.743	152.56
651.947	161.56
652.152	172.56
652.356	158.56
652.56	164.56
652.764	132.56
652.969	149.56
653.173	158.56
653.377	142.56
653.581	152.56
653.785	142.56
653.99	141.56
654.194	139.56
654.398	151.56
654.602	142.56
654.806	144.56
655.01	157.56
655.214	148.56
655.418	147.56
655.622	134.56
655.826	126.56
656.03	153.56
656.234	127.56
656.438	135.56
656.642	143.56
656.846	133.56
657.049	129.56
657.253	125.56
657.457	131.56
657.661	125.56
657.865	113.56
658.068	118.56
658.272	99.56
658.476	114.56
658.68	115.56
658.883	103.56
659.087	121.56
659.291	107.56
659.494	101.56
659.698	106.56
659.901	98.56
660.105	94.56
660.309	115.56
660.512	97.56
660.716	93.56
660.919	106.56
661.123	98.56
661.326	99.56
661.53	101.56
661.733	93.56
661.936	98.56
662.14	92.56
662.343	94.56
662.546	82.56
662.75	103.56
662.953	88.56
663.156	92.56
663.36	82.56
663.563	82.56
663.766	90.56
663.969	98.56
664.173	81.56
664.376	88.56
664.579	91.56
664.782	74.56
664.985	90.56
665.188	91.56
665.391	81.56
665.594	88.56
665.797	84.56
666	73.56
666.203	89.56
666.406	92.56
666.609	98.56
666.812	96.56
667.015	76.56
667.218	82.56
667.421	85.56
667.624	83.56
667.827	79.56
668.03	80.56
668.232	88.56
668.435	86.56
668.638	88.56
668.841	83.56
669.043	94.56
669.246	84.56
669.449	70.56
669.651	92.56
669.854	83.56
670.057	91.56
670.259	71.56
670.462	71.56
670.665	94.56
670.867	88.56
671.07	74.56
671.272	91.56
671.475	83.56
671.677	72.56
671.88	103.56
672.082	91.56
672.284	86.56
672.487	87.56
672.689	83.56
672.892	98.56
