Data from 1971.PennyLincolnUp.Lamp.En5.5.200Scan.071719.P1.Scan 2. Changed Angle._HRD10591_15-23-19-842.txt Node
Date: Thu Jul 18 15:23:19 EDT 2019
User: cochatt
Spectrometer: HR+D1059
Trigger mode: 1
Integration Time (sec): 1.000000E-1
Scans to average: 1
Electric dark correction enabled: true
Nonlinearity correction enabled: false
Boxcar width: 0
XAxis mode: Wavelengths
Number of Pixels in Spectrum: 2048
>>>>>Begin Spectral Data<<<<<
223.165	-11.31
223.4	-11.31
223.635	-11.31
223.869	-5.31
224.104	-30.31
224.338	-16.31
224.573	3.69
224.808	-12.31
225.042	-5.31
225.277	-9.31
225.511	-14.31
225.746	-12.31
225.98	1.69
226.215	6.69
226.449	26.69
226.683	24.69
226.918	21.69
227.152	31.69
227.387	29.69
227.621	30.69
227.856	40.69
228.09	44.69
228.324	49.69
228.559	49.69
228.793	74.69
229.027	96.69
229.262	98.69
229.496	124.69
229.73	147.69
229.964	164.69
230.199	131.69
230.433	115.69
230.667	117.69
230.901	121.69
231.136	115.69
231.37	130.69
231.604	107.69
231.838	116.69
232.072	109.69
232.306	113.69
232.541	107.69
232.775	113.69
233.009	115.69
233.243	98.69
233.477	117.69
233.711	123.69
233.945	127.69
234.179	109.69
234.413	112.69
234.647	105.69
234.881	111.69
235.115	109.69
235.349	119.69
235.583	129.69
235.817	120.69
236.051	119.69
236.285	134.69
236.519	121.69
236.753	139.69
236.987	142.69
237.221	195.69
237.455	248.69
237.689	189.69
237.922	148.69
238.156	130.69
238.39	130.69
238.624	126.69
238.858	129.69
239.091	113.69
239.325	124.69
239.559	122.69
239.793	137.69
240.027	147.69
240.26	145.69
240.494	164.69
240.728	166.69
240.961	147.69
241.195	143.69
241.429	130.69
241.662	132.69
241.896	125.69
242.13	123.69
242.363	143.69
242.597	133.69
242.83	137.69
243.064	119.69
243.298	138.69
243.531	138.69
243.765	131.69
243.998	122.69
244.232	146.69
244.465	146.69
244.699	153.69
244.932	136.69
245.166	143.69
245.399	145.69
245.633	135.69
245.866	151.69
246.099	153.69
246.333	143.69
246.566	143.69
246.8	158.69
247.033	151.69
247.266	174.69
247.5	162.69
247.733	161.69
247.966	173.69
248.2	163.69
248.433	173.69
248.666	170.69
248.899	184.69
249.133	200.69
249.366	227.69
249.599	198.69
249.832	186.69
250.066	181.69
250.299	183.69
250.532	195.69
250.765	210.69
250.998	224.69
251.231	240.69
251.465	211.69
251.698	214.69
251.931	198.69
252.164	211.69
252.397	201.69
252.63	213.69
252.863	208.69
253.096	216.69
253.329	232.69
253.562	222.69
253.795	226.69
254.028	239.69
254.261	218.69
254.494	239.69
254.727	264.69
254.96	267.69
255.193	283.69
255.426	253.69
255.659	239.69
255.892	241.69
256.124	227.69
256.357	229.69
256.59	223.69
256.823	217.69
257.056	223.69
257.289	215.69
257.521	204.69
257.754	202.69
257.987	212.69
258.22	226.69
258.452	202.69
258.685	216.69
258.918	194.69
259.151	211.69
259.383	218.69
259.616	224.69
259.849	225.69
260.081	254.69
260.314	245.69
260.547	242.69
260.779	257.69
261.012	242.69
261.244	230.69
261.477	224.69
261.71	206.69
261.942	234.69
262.175	234.69
262.407	221.69
262.64	217.69
262.872	195.69
263.105	211.69
263.337	217.69
263.57	232.69
263.802	213.69
264.035	205.69
264.267	210.69
264.499	210.69
264.732	207.69
264.964	207.69
265.197	214.69
265.429	199.69
265.661	195.69
265.894	190.69
266.126	219.69
266.358	193.69
266.591	215.69
266.823	214.69
267.055	205.69
267.287	213.69
267.52	227.69
267.752	200.69
267.984	219.69
268.216	202.69
268.448	215.69
268.681	203.69
268.913	224.69
269.145	237.69
269.377	261.69
269.609	266.69
269.841	249.69
270.073	269.69
270.306	288.69
270.538	305.69
270.77	312.69
271.002	294.69
271.234	280.69
271.466	278.69
271.698	301.69
271.93	317.69
272.162	297.69
272.394	308.69
272.626	302.69
272.858	277.69
273.09	264.69
273.322	267.69
273.553	244.69
273.785	257.69
274.017	259.69
274.249	269.69
274.481	239.69
274.713	242.69
274.945	244.69
275.176	240.69
275.408	246.69
275.64	241.69
275.872	240.69
276.104	243.69
276.335	273.69
276.567	244.69
276.799	285.69
277.031	278.69
277.262	317.69
277.494	301.69
277.726	293.69
277.957	264.69
278.189	259.69
278.421	244.69
278.652	242.69
278.884	235.69
279.115	261.69
279.347	247.69
279.579	249.69
279.81	241.69
280.042	238.69
280.273	215.69
280.505	235.69
280.736	221.69
280.968	224.69
281.199	254.69
281.431	245.69
281.662	259.69
281.894	253.69
282.125	224.69
282.356	257.69
282.588	270.69
282.819	296.69
283.051	263.69
283.282	259.69
283.513	242.69
283.745	239.69
283.976	246.69
284.207	270.69
284.439	245.69
284.67	253.69
284.901	251.69
285.132	270.69
285.364	246.69
285.595	252.69
285.826	259.69
286.057	263.69
286.288	264.69
286.52	267.69
286.751	248.69
286.982	248.69
287.213	257.69
287.444	262.69
287.675	261.69
287.906	274.69
288.138	262.69
288.369	270.69
288.6	291.69
288.831	275.69
289.062	285.69
289.293	266.69
289.524	257.69
289.755	242.69
289.986	266.69
290.217	255.69
290.448	274.69
290.679	277.69
290.91	251.69
291.141	243.69
291.371	257.69
291.602	253.69
291.833	253.69
292.064	254.69
292.295	252.69
292.526	263.69
292.757	271.69
292.987	242.69
293.218	252.69
293.449	242.69
293.68	264.69
293.91	252.69
294.141	246.69
294.372	264.69
294.603	267.69
294.833	256.69
295.064	257.69
295.295	265.69
295.525	257.69
295.756	273.69
295.987	269.69
296.217	310.69
296.448	297.69
296.679	276.69
296.909	252.69
297.14	256.69
297.37	256.69
297.601	261.69
297.831	274.69
298.062	264.69
298.292	258.69
298.523	265.69
298.753	257.69
298.984	283.69
299.214	267.69
299.445	274.69
299.675	283.69
299.905	265.69
300.136	273.69
300.366	280.69
300.597	298.69
300.827	277.69
301.057	290.69
301.288	305.69
301.518	281.69
301.748	293.69
301.979	293.69
302.209	294.69
302.439	283.69
302.669	289.69
302.9	263.69
303.13	290.69
303.36	286.69
303.59	287.69
303.82	318.69
304.051	304.69
304.281	295.69
304.511	281.69
304.741	295.69
304.971	277.69
305.201	280.69
305.431	279.69
305.661	296.69
305.891	291.69
306.121	286.69
306.352	292.69
306.582	322.69
306.812	293.69
307.042	278.69
307.272	299.69
307.502	301.69
307.731	289.69
307.961	303.69
308.191	301.69
308.421	305.69
308.651	295.69
308.881	309.69
309.111	308.69
309.341	324.69
309.571	319.69
309.8	331.69
310.03	337.69
310.26	327.69
310.49	343.69
310.72	342.69
310.949	355.69
311.179	394.69
311.409	347.69
311.639	343.69
311.868	357.69
312.098	331.69
312.328	361.69
312.557	378.69
312.787	390.69
313.017	381.69
313.246	371.69
313.476	355.69
313.706	342.69
313.935	359.69
314.165	351.69
314.394	371.69
314.624	361.69
314.853	367.69
315.083	365.69
315.312	353.69
315.542	346.69
315.771	349.69
316.001	343.69
316.23	342.69
316.46	331.69
316.689	335.69
316.919	362.69
317.148	361.69
317.377	350.69
317.607	351.69
317.836	358.69
318.065	357.69
318.295	343.69
318.524	346.69
318.753	352.69
318.983	357.69
319.212	361.69
319.441	342.69
319.67	364.69
319.9	369.69
320.129	363.69
320.358	365.69
320.587	359.69
320.816	376.69
321.046	361.69
321.275	372.69
321.504	373.69
321.733	376.69
321.962	382.69
322.191	419.69
322.42	415.69
322.649	417.69
322.878	442.69
323.108	460.69
323.337	489.69
323.566	490.69
323.795	516.69
324.024	564.69
324.253	715.69
324.482	1036.69
324.71	1595.69
324.939	2239.69
325.168	1967.69
325.397	1039.69
325.626	683.69
325.855	557.69
326.084	525.69
326.313	493.69
326.542	521.69
326.77	553.69
326.999	685.69
327.228	895.69
327.457	1410.69
327.686	1690.69
327.914	1169.69
328.143	752.69
328.372	642.69
328.6	608.69
328.829	568.69
329.058	582.69
329.287	583.69
329.515	544.69
329.744	511.69
329.972	490.69
330.201	519.69
330.43	554.69
330.658	601.69
330.887	621.69
331.115	602.69
331.344	538.69
331.572	485.69
331.801	457.69
332.03	469.69
332.258	465.69
332.486	419.69
332.715	435.69
332.943	426.69
333.172	420.69
333.4	438.69
333.629	429.69
333.857	444.69
334.085	451.69
334.314	474.69
334.542	482.69
334.771	496.69
334.999	469.69
335.227	449.69
335.455	411.69
335.684	422.69
335.912	411.69
336.14	383.69
336.369	409.69
336.597	429.69
336.825	410.69
337.053	413.69
337.281	410.69
337.51	396.69
337.738	414.69
337.966	405.69
338.194	417.69
338.422	421.69
338.65	408.69
338.878	395.69
339.106	409.69
339.334	398.69
339.562	380.69
339.79	400.69
340.018	398.69
340.246	410.69
340.474	425.69
340.702	402.69
340.93	394.69
341.158	397.69
341.386	409.69
341.614	411.69
341.842	402.69
342.07	375.69
342.298	407.69
342.526	391.69
342.754	393.69
342.981	369.69
343.209	385.69
343.437	396.69
343.665	388.69
343.893	394.69
344.12	394.69
344.348	389.69
344.576	387.69
344.804	398.69
345.031	417.69
345.259	429.69
345.487	436.69
345.714	434.69
345.942	405.69
346.17	394.69
346.397	391.69
346.625	374.69
346.853	384.69
347.08	397.69
347.308	384.69
347.535	404.69
347.763	409.69
347.99	412.69
348.218	394.69
348.445	401.69
348.673	413.69
348.9	404.69
349.128	388.69
349.355	387.69
349.583	382.69
349.81	374.69
350.037	378.69
350.265	374.69
350.492	382.69
350.72	371.69
350.947	392.69
351.174	382.69
351.402	429.69
351.629	418.69
351.856	397.69
352.083	413.69
352.311	403.69
352.538	415.69
352.765	442.69
352.992	420.69
353.22	417.69
353.447	401.69
353.674	407.69
353.901	377.69
354.128	385.69
354.355	382.69
354.583	382.69
354.81	375.69
355.037	365.69
355.264	364.69
355.491	370.69
355.718	380.69
355.945	365.69
356.172	355.69
356.399	342.69
356.626	346.69
356.853	384.69
357.08	375.69
357.307	351.69
357.534	387.69
357.761	366.69
357.988	371.69
358.215	375.69
358.441	385.69
358.668	371.69
358.895	365.69
359.122	355.69
359.349	403.69
359.576	381.69
359.802	438.69
360.029	467.69
360.256	446.69
360.483	454.69
360.709	410.69
360.936	413.69
361.163	388.69
361.39	409.69
361.616	408.69
361.843	397.69
362.07	378.69
362.296	407.69
362.523	410.69
362.749	401.69
362.976	394.69
363.203	395.69
363.429	387.69
363.656	379.69
363.882	376.69
364.109	369.69
364.335	387.69
364.562	393.69
364.788	399.69
365.015	399.69
365.241	374.69
365.468	409.69
365.694	387.69
365.92	393.69
366.147	391.69
366.373	380.69
366.599	399.69
366.826	372.69
367.052	391.69
367.278	374.69
367.505	386.69
367.731	403.69
367.957	389.69
368.184	377.69
368.41	375.69
368.636	417.69
368.862	415.69
369.089	418.69
369.315	377.69
369.541	373.69
369.767	366.69
369.993	397.69
370.219	369.69
370.445	396.69
370.672	378.69
370.898	391.69
371.124	375.69
371.35	366.69
371.576	381.69
371.802	394.69
372.028	385.69
372.254	399.69
372.48	381.69
372.706	385.69
372.932	373.69
373.158	386.69
373.384	383.69
373.61	388.69
373.835	375.69
374.061	396.69
374.287	379.69
374.513	374.69
374.739	404.69
374.965	383.69
375.191	409.69
375.416	386.69
375.642	365.69
375.868	382.69
376.094	377.69
376.319	387.69
376.545	388.69
376.771	389.69
376.997	369.69
377.222	393.69
377.448	391.69
377.674	389.69
377.899	375.69
378.125	378.69
378.35	371.69
378.576	370.69
378.802	382.69
379.027	387.69
379.253	400.69
379.478	399.69
379.704	383.69
379.929	376.69
380.155	379.69
380.38	376.69
380.606	393.69
380.831	375.69
381.057	401.69
381.282	387.69
381.507	379.69
381.733	376.69
381.958	391.69
382.184	401.69
382.409	391.69
382.634	402.69
382.86	395.69
383.085	396.69
383.31	401.69
383.535	406.69
383.761	407.69
383.986	409.69
384.211	393.69
384.436	410.69
384.662	403.69
384.887	398.69
385.112	393.69
385.337	429.69
385.562	392.69
385.787	390.69
386.013	430.69
386.238	424.69
386.463	407.69
386.688	410.69
386.913	405.69
387.138	409.69
387.363	413.69
387.588	412.69
387.813	419.69
388.038	436.69
388.263	415.69
388.488	421.69
388.713	421.69
388.938	421.69
389.163	408.69
389.387	432.69
389.612	410.69
389.837	419.69
390.062	390.69
390.287	399.69
390.512	409.69
390.736	424.69
390.961	437.69
391.186	440.69
391.411	408.69
391.636	419.69
391.86	403.69
392.085	420.69
392.31	429.69
392.534	428.69
392.759	425.69
392.984	425.69
393.208	422.69
393.433	423.69
393.658	446.69
393.882	422.69
394.107	431.69
394.331	445.69
394.556	418.69
394.78	413.69
395.005	455.69
395.229	426.69
395.454	410.69
395.678	427.69
395.903	461.69
396.127	460.69
396.352	476.69
396.576	441.69
396.801	448.69
397.025	442.69
397.249	449.69
397.474	456.69
397.698	440.69
397.922	464.69
398.147	495.69
398.371	499.69
398.595	459.69
398.82	477.69
399.044	466.69
399.268	477.69
399.492	511.69
399.717	524.69
399.941	550.69
400.165	584.69
400.389	587.69
400.613	552.69
400.837	521.69
401.062	495.69
401.286	482.69
401.51	478.69
401.734	482.69
401.958	504.69
402.182	488.69
402.406	519.69
402.63	506.69
402.854	484.69
403.078	505.69
403.302	509.69
403.526	504.69
403.75	517.69
403.974	518.69
404.198	486.69
404.422	511.69
404.645	505.69
404.869	488.69
405.093	547.69
405.317	553.69
405.541	597.69
405.765	565.69
405.988	540.69
406.212	525.69
406.436	579.69
406.66	579.69
406.883	552.69
407.107	576.69
407.331	597.69
407.555	672.69
407.778	669.69
408.002	605.69
408.226	570.69
408.449	564.69
408.673	558.69
408.896	599.69
409.12	637.69
409.344	616.69
409.567	536.69
409.791	533.69
410.014	517.69
410.238	521.69
410.461	512.69
410.685	535.69
410.908	538.69
411.132	571.69
411.355	595.69
411.578	587.69
411.802	539.69
412.025	505.69
412.249	535.69
412.472	561.69
412.695	591.69
412.919	571.69
413.142	527.69
413.365	523.69
413.589	519.69
413.812	496.69
414.035	470.69
414.258	486.69
414.482	488.69
414.705	485.69
414.928	483.69
415.151	478.69
415.374	481.69
415.597	480.69
415.821	473.69
416.044	449.69
416.267	503.69
416.49	487.69
416.713	487.69
416.936	494.69
417.159	466.69
417.382	490.69
417.605	485.69
417.828	513.69
418.051	524.69
418.274	486.69
418.497	484.69
418.72	500.69
418.943	505.69
419.166	493.69
419.389	511.69
419.611	500.69
419.834	513.69
420.057	516.69
420.28	519.69
420.503	500.69
420.726	526.69
420.948	527.69
421.171	584.69
421.394	585.69
421.617	544.69
421.839	519.69
422.062	527.69
422.285	526.69
422.507	591.69
422.73	688.69
422.953	652.69
423.175	586.69
423.398	550.69
423.621	533.69
423.843	554.69
424.066	557.69
424.288	561.69
424.511	608.69
424.733	626.69
424.956	741.69
425.178	711.69
425.401	689.69
425.623	717.69
425.846	616.69
426.068	575.69
426.291	592.69
426.513	562.69
426.735	568.69
426.958	632.69
427.18	712.69
427.402	866.69
427.625	934.69
427.847	840.69
428.069	693.69
428.292	641.69
428.514	595.69
428.736	564.69
428.958	563.69
429.181	545.69
429.403	539.69
429.625	541.69
429.847	569.69
430.069	625.69
430.292	629.69
430.514	563.69
430.736	531.69
430.958	533.69
431.18	505.69
431.402	497.69
431.624	491.69
431.846	490.69
432.068	484.69
432.29	506.69
432.512	478.69
432.734	495.69
432.956	495.69
433.178	524.69
433.4	530.69
433.622	514.69
433.844	499.69
434.066	491.69
434.287	487.69
434.509	486.69
434.731	497.69
434.953	497.69
435.175	523.69
435.397	570.69
435.618	561.69
435.84	607.69
436.062	726.69
436.284	796.69
436.505	669.69
436.727	604.69
436.949	553.69
437.17	573.69
437.392	523.69
437.614	563.69
437.835	596.69
438.057	715.69
438.278	823.69
438.5	785.69
438.721	858.69
438.943	833.69
439.165	664.69
439.386	632.69
439.608	599.69
439.829	600.69
440.05	627.69
440.272	674.69
440.493	635.69
440.715	594.69
440.936	576.69
441.158	547.69
441.379	556.69
441.6	565.69
441.822	585.69
442.043	637.69
442.264	699.69
442.486	756.69
442.707	643.69
442.928	640.69
443.149	593.69
443.371	616.69
443.592	674.69
443.813	759.69
444.034	821.69
444.255	668.69
444.476	594.69
444.698	593.69
444.919	584.69
445.14	697.69
445.361	639.69
445.582	638.69
445.803	669.69
446.024	804.69
446.245	817.69
446.466	757.69
446.687	647.69
446.908	605.69
447.129	565.69
447.35	559.69
447.571	546.69
447.792	542.69
448.013	537.69
448.234	588.69
448.455	621.69
448.675	719.69
448.896	842.69
449.117	702.69
449.338	703.69
449.559	791.69
449.779	860.69
450	725.69
450.221	628.69
450.442	573.69
450.662	536.69
450.883	546.69
451.104	546.69
451.324	554.69
451.545	518.69
451.766	517.69
451.986	509.69
452.207	495.69
452.428	464.69
452.648	480.69
452.869	502.69
453.089	487.69
453.31	498.69
453.53	511.69
453.751	490.69
453.971	492.69
454.192	537.69
454.412	525.69
454.633	471.69
454.853	474.69
455.073	479.69
455.294	502.69
455.514	587.69
455.734	577.69
455.955	494.69
456.175	464.69
456.395	462.69
456.616	465.69
456.836	449.69
457.056	439.69
457.276	443.69
457.497	431.69
457.717	448.69
457.937	462.69
458.157	469.69
458.377	466.69
458.598	489.69
458.818	545.69
459.038	630.69
459.258	676.69
459.478	573.69
459.698	540.69
459.918	498.69
460.138	493.69
460.358	478.69
460.578	500.69
460.798	506.69
461.018	514.69
461.238	495.69
461.458	482.69
461.678	482.69
461.898	477.69
462.118	487.69
462.338	510.69
462.558	533.69
462.777	508.69
462.997	505.69
463.217	529.69
463.437	527.69
463.657	523.69
463.876	515.69
464.096	497.69
464.316	532.69
464.536	496.69
464.755	538.69
464.975	534.69
465.195	615.69
465.414	699.69
465.634	589.69
465.854	536.69
466.073	513.69
466.293	493.69
466.512	503.69
466.732	498.69
466.951	498.69
467.171	493.69
467.391	483.69
467.61	518.69
467.829	497.69
468.049	503.69
468.268	496.69
468.488	507.69
468.707	494.69
468.927	478.69
469.146	478.69
469.365	493.69
469.585	472.69
469.804	480.69
470.023	486.69
470.243	498.69
470.462	500.69
470.681	530.69
470.901	539.69
471.12	508.69
471.339	513.69
471.558	496.69
471.777	486.69
471.997	481.69
472.216	498.69
472.435	550.69
472.654	532.69
472.873	505.69
473.092	514.69
473.311	507.69
473.53	487.69
473.749	493.69
473.968	535.69
474.187	660.69
474.406	667.69
474.625	565.69
474.844	518.69
475.063	513.69
475.282	496.69
475.501	492.69
475.72	513.69
475.939	499.69
476.158	519.69
476.377	549.69
476.596	505.69
476.814	526.69
477.033	523.69
477.252	551.69
477.471	521.69
477.69	543.69
477.908	546.69
478.127	539.69
478.346	545.69
478.564	565.69
478.783	571.69
479.002	569.69
479.22	565.69
479.439	578.69
479.658	590.69
479.876	602.69
480.095	615.69
480.313	650.69
480.532	617.69
480.751	607.69
480.969	630.69
481.188	677.69
481.406	705.69
481.624	629.69
481.843	602.69
482.061	598.69
482.28	576.69
482.498	597.69
482.717	594.69
482.935	583.69
483.153	593.69
483.372	583.69
483.59	612.69
483.808	601.69
484.027	588.69
484.245	608.69
484.463	576.69
484.681	605.69
484.9	611.69
485.118	599.69
485.336	606.69
485.554	611.69
485.772	626.69
485.99	613.69
486.209	601.69
486.427	610.69
486.645	627.69
486.863	647.69
487.081	651.69
487.299	618.69
487.517	641.69
487.735	641.69
487.953	633.69
488.171	651.69
488.389	643.69
488.607	643.69
488.825	656.69
489.043	662.69
489.261	638.69
489.479	638.69
489.696	637.69
489.914	672.69
490.132	669.69
490.35	689.69
490.568	705.69
490.786	695.69
491.003	669.69
491.221	718.69
491.439	711.69
491.657	726.69
491.874	743.69
492.092	766.69
492.31	763.69
492.527	755.69
492.745	778.69
492.963	771.69
493.18	755.69
493.398	756.69
493.615	783.69
493.833	785.69
494.05	782.69
494.268	813.69
494.485	785.69
494.703	752.69
494.92	791.69
495.138	765.69
495.355	781.69
495.573	767.69
495.79	770.69
496.008	783.69
496.225	778.69
496.442	763.69
496.66	786.69
496.877	767.69
497.094	794.69
497.312	807.69
497.529	806.69
497.746	816.69
497.963	803.69
498.181	840.69
498.398	805.69
498.615	822.69
498.832	841.69
499.049	836.69
499.267	850.69
499.484	884.69
499.701	897.69
499.918	907.69
500.135	928.69
500.352	950.69
500.569	937.69
500.786	964.69
501.003	960.69
501.22	951.69
501.437	945.69
501.654	933.69
501.871	923.69
502.088	904.69
502.305	850.69
502.522	843.69
502.739	841.69
502.956	822.69
503.172	813.69
503.389	794.69
503.606	825.69
503.823	823.69
504.04	806.69
504.256	781.69
504.473	755.69
504.69	751.69
504.907	771.69
505.123	755.69
505.34	725.69
505.557	743.69
505.773	767.69
505.99	745.69
506.207	751.69
506.423	771.69
506.64	752.69
506.856	723.69
507.073	723.69
507.289	734.69
507.506	736.69
507.722	745.69
507.939	764.69
508.155	717.69
508.372	712.69
508.588	689.69
508.805	721.69
509.021	712.69
509.238	712.69
509.454	709.69
509.67	727.69
509.887	714.69
510.103	731.69
510.319	706.69
510.536	830.69
510.752	1415.69
510.968	1159.69
511.184	736.69
511.401	724.69
511.617	673.69
511.833	708.69
512.049	678.69
512.265	663.69
512.481	679.69
512.698	682.69
512.914	664.69
513.13	696.69
513.346	678.69
513.562	689.69
513.778	687.69
513.994	694.69
514.21	695.69
514.426	730.69
514.642	791.69
514.858	840.69
515.074	859.69
515.29	1073.69
515.506	1619.69
515.721	1281.69
515.937	894.69
516.153	784.69
516.369	730.69
516.585	694.69
516.801	706.69
517.016	695.69
517.232	689.69
517.448	696.69
517.664	690.69
517.879	663.69
518.095	677.69
518.311	685.69
518.527	672.69
518.742	687.69
518.958	674.69
519.173	672.69
519.389	675.69
519.605	674.69
519.82	692.69
520.036	712.69
520.251	726.69
520.467	780.69
520.682	760.69
520.898	768.69
521.113	813.69
521.329	851.69
521.544	929.69
521.76	1240.69
521.975	2135.69
522.19	2069.69
522.406	1101.69
522.621	836.69
522.836	722.69
523.052	694.69
523.267	673.69
523.482	663.69
523.698	637.69
523.913	641.69
524.128	649.69
524.343	633.69
524.559	616.69
524.774	609.69
524.989	609.69
525.204	608.69
525.419	617.69
525.634	600.69
525.849	592.69
526.064	579.69
526.28	557.69
526.495	566.69
526.71	535.69
526.925	546.69
527.14	534.69
527.355	529.69
527.57	540.69
527.785	539.69
527.999	570.69
528.214	553.69
528.429	557.69
528.644	543.69
528.859	553.69
529.074	573.69
529.289	599.69
529.503	702.69
529.718	657.69
529.933	599.69
530.148	591.69
530.363	564.69
530.577	543.69
530.792	543.69
531.007	545.69
531.221	536.69
531.436	533.69
531.651	524.69
531.865	505.69
532.08	513.69
532.295	528.69
532.509	531.69
532.724	512.69
532.938	515.69
533.153	517.69
533.367	506.69
533.582	493.69
533.796	541.69
534.011	519.69
534.225	488.69
534.44	513.69
534.654	512.69
534.868	483.69
535.083	518.69
535.297	513.69
535.511	527.69
535.726	527.69
535.94	528.69
536.154	545.69
536.369	519.69
536.583	490.69
536.797	496.69
537.011	505.69
537.225	514.69
537.44	488.69
537.654	507.69
537.868	496.69
538.082	496.69
538.296	505.69
538.51	495.69
538.724	515.69
538.938	485.69
539.153	515.69
539.367	522.69
539.581	525.69
539.795	495.69
540.009	486.69
540.222	504.69
540.436	493.69
540.65	501.69
540.864	517.69
541.078	514.69
541.292	526.69
541.506	501.69
541.72	484.69
541.934	521.69
542.147	499.69
542.361	511.69
542.575	502.69
542.789	516.69
543.002	477.69
543.216	471.69
543.43	520.69
543.644	486.69
543.857	495.69
544.071	503.69
544.285	495.69
544.498	512.69
544.712	487.69
544.925	502.69
545.139	476.69
545.352	490.69
545.566	464.69
545.779	463.69
545.993	474.69
546.206	507.69
546.42	496.69
546.633	496.69
546.847	480.69
547.06	465.69
547.274	450.69
547.487	488.69
547.7	458.69
547.914	486.69
548.127	478.69
548.34	458.69
548.554	478.69
548.767	486.69
548.98	493.69
549.193	487.69
549.407	471.69
549.62	484.69
549.833	466.69
550.046	457.69
550.259	454.69
550.473	432.69
550.686	454.69
550.899	466.69
551.112	464.69
551.325	457.69
551.538	471.69
551.751	448.69
551.964	456.69
552.177	451.69
552.39	459.69
552.603	488.69
552.816	464.69
553.029	482.69
553.242	456.69
553.455	495.69
553.667	485.69
553.88	483.69
554.093	505.69
554.306	481.69
554.519	456.69
554.732	455.69
554.944	479.69
555.157	452.69
555.37	453.69
555.583	442.69
555.795	457.69
556.008	455.69
556.221	437.69
556.433	466.69
556.646	456.69
556.859	429.69
557.071	437.69
557.284	427.69
557.496	423.69
557.709	436.69
557.921	430.69
558.134	433.69
558.346	408.69
558.559	421.69
558.771	418.69
558.984	429.69
559.196	441.69
559.409	419.69
559.621	402.69
559.833	419.69
560.046	412.69
560.258	419.69
560.47	419.69
560.683	400.69
560.895	383.69
561.107	408.69
561.32	413.69
561.532	414.69
561.744	406.69
561.956	408.69
562.168	426.69
562.381	393.69
562.593	420.69
562.805	419.69
563.017	416.69
563.229	414.69
563.441	431.69
563.653	411.69
563.865	413.69
564.077	436.69
564.289	406.69
564.501	394.69
564.713	427.69
564.925	430.69
565.137	455.69
565.349	428.69
565.561	417.69
565.773	422.69
565.985	456.69
566.197	456.69
566.408	457.69
566.62	471.69
566.832	469.69
567.044	459.69
567.255	475.69
567.467	484.69
567.679	472.69
567.891	485.69
568.102	465.69
568.314	471.69
568.526	469.69
568.737	434.69
568.949	442.69
569.161	433.69
569.372	415.69
569.584	425.69
569.795	392.69
570.007	432.69
570.218	476.69
570.43	447.69
570.641	426.69
570.853	401.69
571.064	390.69
571.276	408.69
571.487	398.69
571.698	384.69
571.91	373.69
572.121	347.69
572.333	362.69
572.544	375.69
572.755	381.69
572.966	384.69
573.178	365.69
573.389	365.69
573.6	360.69
573.811	351.69
574.023	358.69
574.234	346.69
574.445	343.69
574.656	353.69
574.867	347.69
575.078	348.69
575.289	333.69
575.501	353.69
575.712	366.69
575.923	351.69
576.134	354.69
576.345	351.69
576.556	354.69
576.767	346.69
576.978	353.69
577.188	361.69
577.399	347.69
577.61	345.69
577.821	338.69
578.032	346.69
578.243	402.69
578.454	687.69
578.665	485.69
578.875	353.69
579.086	352.69
579.297	328.69
579.508	324.69
579.718	343.69
579.929	350.69
580.14	347.69
580.35	326.69
580.561	335.69
580.772	321.69
580.982	330.69
581.193	323.69
581.403	340.69
581.614	325.69
581.825	325.69
582.035	330.69
582.246	306.69
582.456	325.69
582.667	322.69
582.877	328.69
583.087	327.69
583.298	326.69
583.508	313.69
583.719	314.69
583.929	311.69
584.139	321.69
584.35	312.69
584.56	317.69
584.77	320.69
584.981	305.69
585.191	310.69
585.401	324.69
585.611	309.69
585.821	335.69
586.032	330.69
586.242	291.69
586.452	307.69
586.662	317.69
586.872	299.69
587.082	295.69
587.292	299.69
587.502	315.69
587.713	319.69
587.923	302.69
588.133	301.69
588.343	302.69
588.553	295.69
588.762	295.69
588.972	320.69
589.182	310.69
589.392	299.69
589.602	313.69
589.812	307.69
590.022	308.69
590.232	313.69
590.441	306.69
590.651	296.69
590.861	302.69
591.071	304.69
591.281	303.69
591.49	310.69
591.7	322.69
591.91	312.69
592.119	293.69
592.329	321.69
592.539	313.69
592.748	325.69
592.958	306.69
593.167	322.69
593.377	317.69
593.587	319.69
593.796	323.69
594.006	323.69
594.215	317.69
594.424	314.69
594.634	309.69
594.843	310.69
595.053	305.69
595.262	301.69
595.472	309.69
595.681	298.69
595.89	293.69
596.1	282.69
596.309	293.69
596.518	283.69
596.727	285.69
596.937	296.69
597.146	282.69
597.355	293.69
597.564	283.69
597.774	285.69
597.983	286.69
598.192	258.69
598.401	291.69
598.61	282.69
598.819	288.69
599.028	282.69
599.237	271.69
599.446	272.69
599.655	274.69
599.864	279.69
600.073	288.69
600.282	286.69
600.491	271.69
600.7	279.69
600.909	282.69
601.118	260.69
601.327	261.69
601.536	242.69
601.745	275.69
601.953	278.69
602.162	259.69
602.371	263.69
602.58	280.69
602.789	262.69
602.997	258.69
603.206	279.69
603.415	241.69
603.623	265.69
603.832	263.69
604.041	266.69
604.249	250.69
604.458	264.69
604.666	253.69
604.875	259.69
605.084	265.69
605.292	250.69
605.501	246.69
605.709	261.69
605.918	274.69
606.126	248.69
606.334	268.69
606.543	234.69
606.751	265.69
606.96	251.69
607.168	246.69
607.376	247.69
607.585	260.69
607.793	251.69
608.001	245.69
608.21	266.69
608.418	255.69
608.626	242.69
608.834	259.69
609.043	278.69
609.251	253.69
609.459	267.69
609.667	281.69
609.875	269.69
610.083	266.69
610.291	260.69
610.499	259.69
610.707	269.69
610.916	263.69
611.124	248.69
611.332	280.69
611.54	254.69
611.748	253.69
611.955	262.69
612.163	253.69
612.371	258.69
612.579	257.69
612.787	270.69
612.995	246.69
613.203	246.69
613.411	254.69
613.618	261.69
613.826	253.69
614.034	253.69
614.242	265.69
614.449	255.69
614.657	252.69
614.865	266.69
615.072	264.69
615.28	261.69
615.488	241.69
615.695	255.69
615.903	242.69
616.111	261.69
616.318	254.69
616.526	261.69
616.733	241.69
616.941	248.69
617.148	253.69
617.356	249.69
617.563	241.69
617.771	238.69
617.978	241.69
618.185	253.69
618.393	245.69
618.6	261.69
618.807	241.69
619.015	242.69
619.222	230.69
619.429	257.69
619.637	247.69
619.844	237.69
620.051	248.69
620.258	242.69
620.466	222.69
620.673	223.69
620.88	246.69
621.087	252.69
621.294	235.69
621.501	231.69
621.708	251.69
621.915	235.69
622.122	242.69
622.329	225.69
622.536	251.69
622.743	226.69
622.95	233.69
623.157	229.69
623.364	229.69
623.571	234.69
623.778	236.69
623.985	222.69
624.192	222.69
624.399	216.69
624.606	243.69
624.812	221.69
625.019	217.69
625.226	220.69
625.433	208.69
625.639	203.69
625.846	222.69
626.053	201.69
626.259	200.69
626.466	202.69
626.673	213.69
626.879	192.69
627.086	221.69
627.293	209.69
627.499	227.69
627.706	222.69
627.912	199.69
628.119	223.69
628.325	226.69
628.532	231.69
628.738	218.69
628.945	214.69
629.151	210.69
629.357	209.69
629.564	227.69
629.77	218.69
629.976	226.69
630.183	192.69
630.389	190.69
630.595	205.69
630.802	194.69
631.008	203.69
631.214	209.69
631.42	202.69
631.627	197.69
631.833	207.69
632.039	195.69
632.245	209.69
632.451	189.69
632.657	185.69
632.863	184.69
633.069	186.69
633.275	196.69
633.481	197.69
633.688	206.69
633.893	184.69
634.099	193.69
634.305	207.69
634.511	193.69
634.717	199.69
634.923	193.69
635.129	192.69
635.335	192.69
635.541	198.69
635.747	196.69
635.952	192.69
636.158	189.69
636.364	178.69
636.57	203.69
636.775	187.69
636.981	197.69
637.187	178.69
637.392	181.69
637.598	185.69
637.804	176.69
638.009	195.69
638.215	194.69
638.421	199.69
638.626	173.69
638.832	182.69
639.037	183.69
639.243	178.69
639.448	180.69
639.654	181.69
639.859	173.69
640.065	186.69
640.27	183.69
640.475	179.69
640.681	193.69
640.886	158.69
641.091	177.69
641.297	177.69
641.502	179.69
641.707	177.69
641.913	167.69
642.118	166.69
642.323	190.69
642.528	171.69
642.733	182.69
642.939	177.69
643.144	171.69
643.349	176.69
643.554	175.69
643.759	176.69
643.964	162.69
644.169	179.69
644.374	170.69
644.579	175.69
644.784	174.69
644.989	186.69
645.194	170.69
645.399	184.69
645.604	163.69
645.809	186.69
646.014	155.69
646.219	163.69
646.423	154.69
646.628	169.69
646.833	173.69
647.038	174.69
647.243	189.69
647.447	153.69
647.652	182.69
647.857	183.69
648.062	167.69
648.266	177.69
648.471	168.69
648.676	170.69
648.88	183.69
649.085	184.69
649.289	175.69
649.494	183.69
649.698	198.69
649.903	183.69
650.107	189.69
650.312	160.69
650.516	163.69
650.721	169.69
650.925	171.69
651.13	162.69
651.334	163.69
651.539	138.69
651.743	159.69
651.947	164.69
652.152	153.69
652.356	142.69
652.56	152.69
652.764	140.69
652.969	133.69
653.173	147.69
653.377	160.69
653.581	130.69
653.785	153.69
653.99	141.69
654.194	157.69
654.398	132.69
654.602	138.69
654.806	133.69
655.01	137.69
655.214	134.69
655.418	123.69
655.622	131.69
655.826	131.69
656.03	130.69
656.234	139.69
656.438	133.69
656.642	117.69
656.846	121.69
657.049	129.69
657.253	120.69
657.457	89.69
657.661	119.69
657.865	99.69
658.068	110.69
658.272	111.69
658.476	100.69
658.68	104.69
658.883	88.69
659.087	113.69
659.291	88.69
659.494	108.69
659.698	96.69
659.901	91.69
660.105	79.69
660.309	100.69
660.512	84.69
660.716	88.69
660.919	83.69
661.123	98.69
661.326	96.69
661.53	67.69
661.733	72.69
661.936	76.69
662.14	76.69
662.343	78.69
662.546	86.69
662.75	90.69
662.953	86.69
663.156	90.69
663.36	67.69
663.563	77.69
663.766	87.69
663.969	74.69
664.173	77.69
664.376	74.69
664.579	77.69
664.782	81.69
664.985	71.69
665.188	77.69
665.391	74.69
665.594	68.69
665.797	71.69
666	68.69
666.203	81.69
666.406	67.69
666.609	66.69
666.812	85.69
667.015	57.69
667.218	88.69
667.421	92.69
667.624	71.69
667.827	70.69
668.03	75.69
668.232	102.69
668.435	73.69
668.638	84.69
668.841	78.69
669.043	68.69
669.246	81.69
669.449	66.69
669.651	77.69
669.854	72.69
670.057	73.69
670.259	84.69
670.462	67.69
670.665	77.69
670.867	85.69
671.07	77.69
671.272	78.69
671.475	73.69
671.677	74.69
671.88	83.69
672.082	86.69
672.284	92.69
672.487	67.69
672.689	82.69
672.892	80.69
