Data from 1971.PennyLincolnUp.Lamp.En5.5.200Scan.071719.P1.Scan 2. Changed Angle._HRD10591_15-25-21-843.txt Node
Date: Thu Jul 18 15:25:21 EDT 2019
User: cochatt
Spectrometer: HR+D1059
Trigger mode: 1
Integration Time (sec): 1.000000E-1
Scans to average: 1
Electric dark correction enabled: true
Nonlinearity correction enabled: false
Boxcar width: 0
XAxis mode: Wavelengths
Number of Pixels in Spectrum: 2048
>>>>>Begin Spectral Data<<<<<
223.165	-13.31
223.4	-13.31
223.635	-13.31
223.869	-31.31
224.104	-21.31
224.338	-8.31
224.573	-8.31
224.808	-11.31
225.042	-12.31
225.277	-11.31
225.511	6.69
225.746	8.69
225.98	8.69
226.215	9.69
226.449	9.69
226.683	10.69
226.918	22.69
227.152	40.69
227.387	31.69
227.621	28.69
227.856	19.69
228.09	49.69
228.324	50.69
228.559	56.69
228.793	57.69
229.027	109.69
229.262	119.69
229.496	117.69
229.73	148.69
229.964	174.69
230.199	145.69
230.433	126.69
230.667	127.69
230.901	131.69
231.136	124.69
231.37	113.69
231.604	119.69
231.838	123.69
232.072	122.69
232.306	109.69
232.541	106.69
232.775	121.69
233.009	129.69
233.243	124.69
233.477	119.69
233.711	113.69
233.945	108.69
234.179	117.69
234.413	125.69
234.647	133.69
234.881	122.69
235.115	111.69
235.349	116.69
235.583	120.69
235.817	119.69
236.051	122.69
236.285	141.69
236.519	153.69
236.753	138.69
236.987	174.69
237.221	208.69
237.455	273.69
237.689	234.69
237.922	157.69
238.156	151.69
238.39	140.69
238.624	127.69
238.858	127.69
239.091	127.69
239.325	125.69
239.559	139.69
239.793	129.69
240.027	137.69
240.26	158.69
240.494	174.69
240.728	159.69
240.961	164.69
241.195	153.69
241.429	151.69
241.662	141.69
241.896	146.69
242.13	130.69
242.363	145.69
242.597	135.69
242.83	154.69
243.064	136.69
243.298	161.69
243.531	152.69
243.765	149.69
243.998	138.69
244.232	148.69
244.465	147.69
244.699	147.69
244.932	155.69
245.166	148.69
245.399	157.69
245.633	172.69
245.866	147.69
246.099	149.69
246.333	153.69
246.566	149.69
246.8	165.69
247.033	160.69
247.266	173.69
247.5	201.69
247.733	177.69
247.966	179.69
248.2	182.69
248.433	194.69
248.666	171.69
248.899	228.69
249.133	209.69
249.366	235.69
249.599	217.69
249.832	202.69
250.066	181.69
250.299	192.69
250.532	202.69
250.765	218.69
250.998	219.69
251.231	228.69
251.465	222.69
251.698	237.69
251.931	226.69
252.164	217.69
252.397	213.69
252.63	226.69
252.863	242.69
253.096	240.69
253.329	253.69
253.562	242.69
253.795	259.69
254.028	226.69
254.261	234.69
254.494	257.69
254.727	289.69
254.96	320.69
255.193	299.69
255.426	299.69
255.659	265.69
255.892	248.69
256.124	259.69
256.357	250.69
256.59	249.69
256.823	243.69
257.056	228.69
257.289	231.69
257.521	233.69
257.754	238.69
257.987	222.69
258.22	215.69
258.452	238.69
258.685	216.69
258.918	225.69
259.151	233.69
259.383	257.69
259.616	246.69
259.849	239.69
260.081	242.69
260.314	282.69
260.547	270.69
260.779	292.69
261.012	259.69
261.244	246.69
261.477	226.69
261.71	249.69
261.942	265.69
262.175	245.69
262.407	257.69
262.64	223.69
262.872	223.69
263.105	207.69
263.337	225.69
263.57	218.69
263.802	239.69
264.035	218.69
264.267	219.69
264.499	220.69
264.732	217.69
264.964	230.69
265.197	219.69
265.429	204.69
265.661	226.69
265.894	213.69
266.126	231.69
266.358	234.69
266.591	225.69
266.823	224.69
267.055	226.69
267.287	234.69
267.52	226.69
267.752	233.69
267.984	242.69
268.216	230.69
268.448	231.69
268.681	243.69
268.913	268.69
269.145	280.69
269.377	282.69
269.609	302.69
269.841	288.69
270.073	299.69
270.306	329.69
270.538	332.69
270.77	338.69
271.002	320.69
271.234	312.69
271.466	326.69
271.698	346.69
271.93	346.69
272.162	357.69
272.394	351.69
272.626	342.69
272.858	331.69
273.09	297.69
273.322	295.69
273.553	270.69
273.785	268.69
274.017	291.69
274.249	277.69
274.481	272.69
274.713	287.69
274.945	283.69
275.176	278.69
275.408	297.69
275.64	281.69
275.872	276.69
276.104	273.69
276.335	261.69
276.567	274.69
276.799	305.69
277.031	340.69
277.262	338.69
277.494	347.69
277.726	323.69
277.957	310.69
278.189	271.69
278.421	292.69
278.652	275.69
278.884	279.69
279.115	273.69
279.347	260.69
279.579	282.69
279.81	261.69
280.042	262.69
280.273	263.69
280.505	257.69
280.736	277.69
280.968	263.69
281.199	277.69
281.431	271.69
281.662	264.69
281.894	278.69
282.125	270.69
282.356	276.69
282.588	317.69
282.819	321.69
283.051	283.69
283.282	268.69
283.513	273.69
283.745	273.69
283.976	282.69
284.207	298.69
284.439	284.69
284.67	266.69
284.901	282.69
285.132	276.69
285.364	274.69
285.595	281.69
285.826	257.69
286.057	285.69
286.288	274.69
286.52	261.69
286.751	280.69
286.982	285.69
287.213	286.69
287.444	284.69
287.675	287.69
287.906	273.69
288.138	306.69
288.369	309.69
288.6	292.69
288.831	297.69
289.062	298.69
289.293	301.69
289.524	297.69
289.755	277.69
289.986	293.69
290.217	281.69
290.448	276.69
290.679	297.69
290.91	290.69
291.141	285.69
291.371	305.69
291.602	279.69
291.833	286.69
292.064	278.69
292.295	303.69
292.526	298.69
292.757	290.69
292.987	293.69
293.218	283.69
293.449	299.69
293.68	286.69
293.91	269.69
294.141	277.69
294.372	287.69
294.603	287.69
294.833	291.69
295.064	309.69
295.295	298.69
295.525	277.69
295.756	301.69
295.987	312.69
296.217	336.69
296.448	357.69
296.679	309.69
296.909	277.69
297.14	270.69
297.37	307.69
297.601	283.69
297.831	310.69
298.062	272.69
298.292	275.69
298.523	308.69
298.753	309.69
298.984	294.69
299.214	292.69
299.445	306.69
299.675	317.69
299.905	315.69
300.136	316.69
300.366	309.69
300.597	315.69
300.827	307.69
301.057	324.69
301.288	323.69
301.518	334.69
301.748	294.69
301.979	302.69
302.209	334.69
302.439	321.69
302.669	325.69
302.9	327.69
303.13	329.69
303.36	333.69
303.59	316.69
303.82	330.69
304.051	315.69
304.281	312.69
304.511	309.69
304.741	324.69
304.971	328.69
305.201	303.69
305.431	318.69
305.661	307.69
305.891	310.69
306.121	321.69
306.352	326.69
306.582	334.69
306.812	331.69
307.042	338.69
307.272	325.69
307.502	321.69
307.731	334.69
307.961	327.69
308.191	330.69
308.421	322.69
308.651	353.69
308.881	317.69
309.111	346.69
309.341	363.69
309.571	376.69
309.8	373.69
310.03	365.69
310.26	390.69
310.49	399.69
310.72	397.69
310.949	406.69
311.179	417.69
311.409	403.69
311.639	398.69
311.868	385.69
312.098	407.69
312.328	420.69
312.557	425.69
312.787	438.69
313.017	431.69
313.246	409.69
313.476	381.69
313.706	394.69
313.935	408.69
314.165	411.69
314.394	403.69
314.624	409.69
314.853	407.69
315.083	413.69
315.312	377.69
315.542	414.69
315.771	373.69
316.001	370.69
316.23	390.69
316.46	386.69
316.689	402.69
316.919	388.69
317.148	409.69
317.377	394.69
317.607	406.69
317.836	384.69
318.065	389.69
318.295	387.69
318.524	391.69
318.753	377.69
318.983	381.69
319.212	398.69
319.441	396.69
319.67	394.69
319.9	403.69
320.129	393.69
320.358	396.69
320.587	406.69
320.816	380.69
321.046	415.69
321.275	410.69
321.504	426.69
321.733	423.69
321.962	429.69
322.191	445.69
322.42	463.69
322.649	477.69
322.878	510.69
323.108	522.69
323.337	524.69
323.566	565.69
323.795	625.69
324.024	686.69
324.253	865.69
324.482	1273.69
324.71	1937.69
324.939	2837.69
325.168	2368.69
325.397	1249.69
325.626	803.69
325.855	648.69
326.084	564.69
326.313	543.69
326.542	565.69
326.77	642.69
326.999	795.69
327.228	1113.69
327.457	1718.69
327.686	2093.69
327.914	1419.69
328.143	890.69
328.372	763.69
328.6	695.69
328.829	647.69
329.058	670.69
329.287	707.69
329.515	643.69
329.744	581.69
329.972	579.69
330.201	606.69
330.43	636.69
330.658	696.69
330.887	758.69
331.115	702.69
331.344	602.69
331.572	544.69
331.801	537.69
332.03	538.69
332.258	494.69
332.486	477.69
332.715	477.69
332.943	454.69
333.172	480.69
333.4	474.69
333.629	483.69
333.857	508.69
334.085	529.69
334.314	536.69
334.542	559.69
334.771	605.69
334.999	531.69
335.227	515.69
335.455	481.69
335.684	460.69
335.912	432.69
336.14	454.69
336.369	463.69
336.597	456.69
336.825	469.69
337.053	443.69
337.281	448.69
337.51	447.69
337.738	442.69
337.966	445.69
338.194	461.69
338.422	465.69
338.65	469.69
338.878	433.69
339.106	433.69
339.334	413.69
339.562	438.69
339.79	430.69
340.018	441.69
340.246	457.69
340.474	443.69
340.702	442.69
340.93	444.69
341.158	455.69
341.386	450.69
341.614	433.69
341.842	444.69
342.07	436.69
342.298	426.69
342.526	411.69
342.754	443.69
342.981	399.69
343.209	439.69
343.437	430.69
343.665	421.69
343.893	432.69
344.12	436.69
344.348	459.69
344.576	446.69
344.804	463.69
345.031	469.69
345.259	472.69
345.487	481.69
345.714	467.69
345.942	440.69
346.17	430.69
346.397	460.69
346.625	423.69
346.853	441.69
347.08	422.69
347.308	455.69
347.535	449.69
347.763	429.69
347.99	473.69
348.218	457.69
348.445	466.69
348.673	468.69
348.9	447.69
349.128	434.69
349.355	426.69
349.583	401.69
349.81	422.69
350.037	423.69
350.265	434.69
350.492	417.69
350.72	427.69
350.947	417.69
351.174	445.69
351.402	463.69
351.629	453.69
351.856	464.69
352.083	456.69
352.311	481.69
352.538	461.69
352.765	491.69
352.992	474.69
353.22	431.69
353.447	445.69
353.674	416.69
353.901	404.69
354.128	424.69
354.355	408.69
354.583	408.69
354.81	404.69
355.037	404.69
355.264	410.69
355.491	429.69
355.718	391.69
355.945	401.69
356.172	393.69
356.399	392.69
356.626	387.69
356.853	397.69
357.08	403.69
357.307	407.69
357.534	381.69
357.761	383.69
357.988	390.69
358.215	407.69
358.441	403.69
358.668	405.69
358.895	405.69
359.122	433.69
359.349	438.69
359.576	446.69
359.802	467.69
360.029	499.69
360.256	523.69
360.483	494.69
360.709	466.69
360.936	463.69
361.163	448.69
361.39	455.69
361.616	440.69
361.843	445.69
362.07	441.69
362.296	437.69
362.523	456.69
362.749	442.69
362.976	434.69
363.203	426.69
363.429	415.69
363.656	417.69
363.882	422.69
364.109	405.69
364.335	407.69
364.562	430.69
364.788	413.69
365.015	413.69
365.241	427.69
365.468	429.69
365.694	425.69
365.92	447.69
366.147	436.69
366.373	434.69
366.599	423.69
366.826	410.69
367.052	416.69
367.278	409.69
367.505	444.69
367.731	409.69
367.957	421.69
368.184	415.69
368.41	429.69
368.636	447.69
368.862	448.69
369.089	441.69
369.315	413.69
369.541	396.69
369.767	424.69
369.993	421.69
370.219	422.69
370.445	404.69
370.672	434.69
370.898	408.69
371.124	415.69
371.35	409.69
371.576	411.69
371.802	419.69
372.028	417.69
372.254	402.69
372.48	427.69
372.706	428.69
372.932	417.69
373.158	408.69
373.384	410.69
373.61	436.69
373.835	425.69
374.061	414.69
374.287	419.69
374.513	403.69
374.739	418.69
374.965	401.69
375.191	438.69
375.416	425.69
375.642	422.69
375.868	406.69
376.094	406.69
376.319	419.69
376.545	415.69
376.771	401.69
376.997	402.69
377.222	416.69
377.448	417.69
377.674	421.69
377.899	406.69
378.125	414.69
378.35	405.69
378.576	391.69
378.802	403.69
379.027	419.69
379.253	413.69
379.478	398.69
379.704	406.69
379.929	423.69
380.155	433.69
380.38	399.69
380.606	422.69
380.831	425.69
381.057	424.69
381.282	413.69
381.507	403.69
381.733	417.69
381.958	417.69
382.184	428.69
382.409	413.69
382.634	424.69
382.86	435.69
383.085	419.69
383.31	424.69
383.535	433.69
383.761	445.69
383.986	421.69
384.211	430.69
384.436	429.69
384.662	429.69
384.887	426.69
385.112	431.69
385.337	421.69
385.562	438.69
385.787	433.69
386.013	447.69
386.238	460.69
386.463	462.69
386.688	442.69
386.913	445.69
387.138	429.69
387.363	436.69
387.588	442.69
387.813	437.69
388.038	405.69
388.263	436.69
388.488	441.69
388.713	427.69
388.938	445.69
389.163	453.69
389.387	451.69
389.612	423.69
389.837	446.69
390.062	439.69
390.287	438.69
390.512	460.69
390.736	445.69
390.961	442.69
391.186	438.69
391.411	458.69
391.636	447.69
391.86	441.69
392.085	458.69
392.31	447.69
392.534	454.69
392.759	460.69
392.984	450.69
393.208	451.69
393.433	456.69
393.658	448.69
393.882	462.69
394.107	455.69
394.331	458.69
394.556	462.69
394.78	458.69
395.005	463.69
395.229	456.69
395.454	463.69
395.678	462.69
395.903	473.69
396.127	514.69
396.352	498.69
396.576	474.69
396.801	476.69
397.025	475.69
397.249	480.69
397.474	478.69
397.698	475.69
397.922	514.69
398.147	503.69
398.371	501.69
398.595	500.69
398.82	500.69
399.044	503.69
399.268	541.69
399.492	544.69
399.717	535.69
399.941	598.69
400.165	638.69
400.389	635.69
400.613	583.69
400.837	559.69
401.062	527.69
401.286	531.69
401.51	509.69
401.734	513.69
401.958	528.69
402.182	516.69
402.406	571.69
402.63	534.69
402.854	511.69
403.078	543.69
403.302	530.69
403.526	552.69
403.75	543.69
403.974	550.69
404.198	528.69
404.422	523.69
404.645	544.69
404.869	562.69
405.093	584.69
405.317	651.69
405.541	662.69
405.765	637.69
405.988	579.69
406.212	583.69
406.436	623.69
406.66	658.69
406.883	602.69
407.107	633.69
407.331	661.69
407.555	738.69
407.778	731.69
408.002	664.69
408.226	624.69
408.449	597.69
408.673	611.69
408.896	640.69
409.12	690.69
409.344	642.69
409.567	577.69
409.791	547.69
410.014	543.69
410.238	538.69
410.461	565.69
410.685	551.69
410.908	560.69
411.132	629.69
411.355	665.69
411.578	614.69
411.802	548.69
412.025	553.69
412.249	567.69
412.472	616.69
412.695	661.69
412.919	632.69
413.142	565.69
413.365	524.69
413.589	522.69
413.812	524.69
414.035	527.69
414.258	520.69
414.482	507.69
414.705	524.69
414.928	520.69
415.151	517.69
415.374	498.69
415.597	526.69
415.821	519.69
416.044	541.69
416.267	515.69
416.49	509.69
416.713	507.69
416.936	486.69
417.159	510.69
417.382	537.69
417.605	554.69
417.828	557.69
418.051	541.69
418.274	566.69
418.497	517.69
418.72	533.69
418.943	537.69
419.166	531.69
419.389	563.69
419.611	553.69
419.834	536.69
420.057	562.69
420.28	562.69
420.503	567.69
420.726	560.69
420.948	570.69
421.171	615.69
421.394	658.69
421.617	589.69
421.839	549.69
422.062	546.69
422.285	558.69
422.507	635.69
422.73	741.69
422.953	685.69
423.175	601.69
423.398	580.69
423.621	594.69
423.843	608.69
424.066	612.69
424.288	610.69
424.511	642.69
424.733	702.69
424.956	808.69
425.178	775.69
425.401	742.69
425.623	782.69
425.846	698.69
426.068	669.69
426.291	631.69
426.513	637.69
426.735	628.69
426.958	685.69
427.18	775.69
427.402	917.69
427.625	1013.69
427.847	942.69
428.069	793.69
428.292	693.69
428.514	667.69
428.736	607.69
428.958	577.69
429.181	576.69
429.403	582.69
429.625	603.69
429.847	641.69
430.069	719.69
430.292	701.69
430.514	612.69
430.736	571.69
430.958	562.69
431.18	569.69
431.402	529.69
431.624	537.69
431.846	537.69
432.068	534.69
432.29	571.69
432.512	531.69
432.734	547.69
432.956	564.69
433.178	551.69
433.4	561.69
433.622	541.69
433.844	544.69
434.066	522.69
434.287	542.69
434.509	557.69
434.731	543.69
434.953	544.69
435.175	574.69
435.397	618.69
435.618	633.69
435.84	663.69
436.062	772.69
436.284	883.69
436.505	737.69
436.727	637.69
436.949	592.69
437.17	575.69
437.392	581.69
437.614	605.69
437.835	647.69
438.057	747.69
438.278	891.69
438.5	873.69
438.721	921.69
438.943	879.69
439.165	723.69
439.386	688.69
439.608	677.69
439.829	672.69
440.05	705.69
440.272	753.69
440.493	682.69
440.715	654.69
440.936	601.69
441.158	595.69
441.379	611.69
441.6	618.69
441.822	646.69
442.043	689.69
442.264	772.69
442.486	833.69
442.707	699.69
442.928	659.69
443.149	678.69
443.371	685.69
443.592	745.69
443.813	827.69
444.034	891.69
444.255	749.69
444.476	629.69
444.698	642.69
444.919	604.69
445.14	715.69
445.361	695.69
445.582	679.69
445.803	754.69
446.024	886.69
446.245	886.69
446.466	818.69
446.687	706.69
446.908	650.69
447.129	594.69
447.35	588.69
447.571	600.69
447.792	592.69
448.013	587.69
448.234	618.69
448.455	703.69
448.675	786.69
448.896	921.69
449.117	804.69
449.338	774.69
449.559	886.69
449.779	961.69
450	789.69
450.221	658.69
450.442	627.69
450.662	589.69
450.883	607.69
451.104	608.69
451.324	594.69
451.545	560.69
451.766	561.69
451.986	549.69
452.207	540.69
452.428	511.69
452.648	517.69
452.869	526.69
453.089	547.69
453.31	544.69
453.53	524.69
453.751	503.69
453.971	523.69
454.192	546.69
454.412	541.69
454.633	537.69
454.853	533.69
455.073	504.69
455.294	549.69
455.514	636.69
455.734	616.69
455.955	518.69
456.175	497.69
456.395	507.69
456.616	481.69
456.836	497.69
457.056	482.69
457.276	462.69
457.497	465.69
457.717	474.69
457.937	493.69
458.157	497.69
458.377	485.69
458.598	542.69
458.818	612.69
459.038	697.69
459.258	734.69
459.478	612.69
459.698	566.69
459.918	514.69
460.138	526.69
460.358	535.69
460.578	520.69
460.798	536.69
461.018	536.69
461.238	542.69
461.458	517.69
461.678	523.69
461.898	530.69
462.118	539.69
462.338	540.69
462.558	520.69
462.777	524.69
462.997	542.69
463.217	538.69
463.437	559.69
463.657	546.69
463.876	563.69
464.096	567.69
464.316	566.69
464.536	547.69
464.755	579.69
464.975	587.69
465.195	649.69
465.414	743.69
465.634	670.69
465.854	610.69
466.073	566.69
466.293	534.69
466.512	553.69
466.732	517.69
466.951	545.69
467.171	533.69
467.391	531.69
467.61	544.69
467.829	572.69
468.049	538.69
468.268	549.69
468.488	531.69
468.707	509.69
468.927	502.69
469.146	525.69
469.365	538.69
469.585	506.69
469.804	518.69
470.023	523.69
470.243	529.69
470.462	557.69
470.681	569.69
470.901	561.69
471.12	527.69
471.339	547.69
471.558	516.69
471.777	540.69
471.997	543.69
472.216	548.69
472.435	595.69
472.654	567.69
472.873	529.69
473.092	526.69
473.311	525.69
473.53	536.69
473.749	546.69
473.968	597.69
474.187	752.69
474.406	759.69
474.625	632.69
474.844	565.69
475.063	564.69
475.282	525.69
475.501	558.69
475.72	568.69
475.939	540.69
476.158	569.69
476.377	565.69
476.596	559.69
476.814	562.69
477.033	561.69
477.252	542.69
477.471	563.69
477.69	563.69
477.908	593.69
478.127	585.69
478.346	565.69
478.564	591.69
478.783	574.69
479.002	602.69
479.22	613.69
479.439	619.69
479.658	659.69
479.876	635.69
480.095	646.69
480.313	673.69
480.532	660.69
480.751	633.69
480.969	679.69
481.188	751.69
481.406	808.69
481.624	710.69
481.843	632.69
482.061	659.69
482.28	676.69
482.498	656.69
482.717	652.69
482.935	666.69
483.153	651.69
483.372	649.69
483.59	652.69
483.808	653.69
484.027	647.69
484.245	652.69
484.463	659.69
484.681	664.69
484.9	658.69
485.118	651.69
485.336	645.69
485.554	648.69
485.772	663.69
485.99	662.69
486.209	661.69
486.427	674.69
486.645	678.69
486.863	711.69
487.081	705.69
487.299	715.69
487.517	711.69
487.735	701.69
487.953	708.69
488.171	700.69
488.389	703.69
488.607	730.69
488.825	703.69
489.043	719.69
489.261	707.69
489.479	723.69
489.696	745.69
489.914	730.69
490.132	734.69
490.35	750.69
490.568	759.69
490.786	758.69
491.003	801.69
491.221	791.69
491.439	781.69
491.657	829.69
491.874	828.69
492.092	831.69
492.31	826.69
492.527	829.69
492.745	811.69
492.963	837.69
493.18	845.69
493.398	847.69
493.615	861.69
493.833	861.69
494.05	870.69
494.268	863.69
494.485	857.69
494.703	842.69
494.92	848.69
495.138	842.69
495.355	850.69
495.573	854.69
495.79	853.69
496.008	849.69
496.225	856.69
496.442	848.69
496.66	865.69
496.877	842.69
497.094	835.69
497.312	862.69
497.529	869.69
497.746	866.69
497.963	879.69
498.181	929.69
498.398	908.69
498.615	925.69
498.832	885.69
499.049	880.69
499.267	922.69
499.484	939.69
499.701	959.69
499.918	971.69
500.135	1006.69
500.352	1023.69
500.569	1053.69
500.786	1025.69
501.003	1022.69
501.22	1035.69
501.437	976.69
501.654	994.69
501.871	1012.69
502.088	984.69
502.305	954.69
502.522	928.69
502.739	898.69
502.956	914.69
503.172	900.69
503.389	837.69
503.606	889.69
503.823	873.69
504.04	870.69
504.256	838.69
504.473	842.69
504.69	830.69
504.907	818.69
505.123	831.69
505.34	825.69
505.557	803.69
505.773	817.69
505.99	824.69
506.207	801.69
506.423	810.69
506.64	798.69
506.856	811.69
507.073	807.69
507.289	822.69
507.506	811.69
507.722	805.69
507.939	841.69
508.155	836.69
508.372	784.69
508.588	761.69
508.805	788.69
509.021	795.69
509.238	811.69
509.454	782.69
509.67	802.69
509.887	803.69
510.103	797.69
510.319	800.69
510.536	929.69
510.752	1621.69
510.968	1305.69
511.184	836.69
511.401	786.69
511.617	769.69
511.833	732.69
512.049	790.69
512.265	755.69
512.481	735.69
512.698	740.69
512.914	750.69
513.13	745.69
513.346	761.69
513.562	753.69
513.778	760.69
513.994	776.69
514.21	786.69
514.426	810.69
514.642	902.69
514.858	933.69
515.074	998.69
515.29	1206.69
515.506	1817.69
515.721	1425.69
515.937	961.69
516.153	879.69
516.369	842.69
516.585	807.69
516.801	758.69
517.016	771.69
517.232	746.69
517.448	745.69
517.664	787.69
517.879	768.69
518.095	738.69
518.311	771.69
518.527	735.69
518.742	729.69
518.958	727.69
519.173	742.69
519.389	713.69
519.605	764.69
519.82	762.69
520.036	774.69
520.251	799.69
520.467	850.69
520.682	862.69
520.898	866.69
521.113	886.69
521.329	959.69
521.544	1105.69
521.76	1408.69
521.975	2351.69
522.19	2323.69
522.406	1225.69
522.621	921.69
522.836	817.69
523.052	794.69
523.267	749.69
523.482	729.69
523.698	715.69
523.913	693.69
524.128	719.69
524.343	702.69
524.559	642.69
524.774	648.69
524.989	658.69
525.204	646.69
525.419	676.69
525.634	644.69
525.849	625.69
526.064	634.69
526.28	632.69
526.495	583.69
526.71	601.69
526.925	579.69
527.14	596.69
527.355	595.69
527.57	606.69
527.785	613.69
527.999	598.69
528.214	600.69
528.429	590.69
528.644	591.69
528.859	570.69
529.074	598.69
529.289	631.69
529.503	753.69
529.718	749.69
529.933	677.69
530.148	610.69
530.363	608.69
530.577	593.69
530.792	569.69
531.007	580.69
531.221	570.69
531.436	566.69
531.651	583.69
531.865	577.69
532.08	575.69
532.295	565.69
532.509	578.69
532.724	571.69
532.938	582.69
533.153	537.69
533.367	549.69
533.582	560.69
533.796	541.69
534.011	561.69
534.225	547.69
534.44	543.69
534.654	560.69
534.868	564.69
535.083	543.69
535.297	548.69
535.511	560.69
535.726	567.69
535.94	557.69
536.154	559.69
536.369	570.69
536.583	547.69
536.797	533.69
537.011	539.69
537.225	538.69
537.44	522.69
537.654	552.69
537.868	519.69
538.082	528.69
538.296	540.69
538.51	546.69
538.724	554.69
538.938	528.69
539.153	561.69
539.367	552.69
539.581	567.69
539.795	541.69
540.009	527.69
540.222	518.69
540.436	530.69
540.65	546.69
540.864	562.69
541.078	552.69
541.292	563.69
541.506	539.69
541.72	527.69
541.934	566.69
542.147	554.69
542.361	531.69
542.575	542.69
542.789	526.69
543.002	528.69
543.216	531.69
543.43	527.69
543.644	521.69
543.857	514.69
544.071	549.69
544.285	547.69
544.498	515.69
544.712	509.69
544.925	522.69
545.139	509.69
545.352	501.69
545.566	527.69
545.779	493.69
545.993	517.69
546.206	529.69
546.42	524.69
546.633	502.69
546.847	522.69
547.06	493.69
547.274	507.69
547.487	497.69
547.7	507.69
547.914	491.69
548.127	495.69
548.34	490.69
548.554	505.69
548.767	499.69
548.98	509.69
549.193	522.69
549.407	466.69
549.62	503.69
549.833	501.69
550.046	529.69
550.259	504.69
550.473	494.69
550.686	483.69
550.899	509.69
551.112	514.69
551.325	482.69
551.538	499.69
551.751	467.69
551.964	488.69
552.177	494.69
552.39	490.69
552.603	503.69
552.816	495.69
553.029	497.69
553.242	481.69
553.455	497.69
553.667	535.69
553.88	527.69
554.093	488.69
554.306	505.69
554.519	522.69
554.732	469.69
554.944	478.69
555.157	475.69
555.37	475.69
555.583	458.69
555.795	469.69
556.008	473.69
556.221	439.69
556.433	458.69
556.646	463.69
556.859	447.69
557.071	445.69
557.284	470.69
557.496	460.69
557.709	457.69
557.921	452.69
558.134	445.69
558.346	424.69
558.559	452.69
558.771	438.69
558.984	435.69
559.196	447.69
559.409	478.69
559.621	438.69
559.833	422.69
560.046	434.69
560.258	445.69
560.47	448.69
560.683	434.69
560.895	437.69
561.107	422.69
561.32	449.69
561.532	449.69
561.744	455.69
561.956	441.69
562.168	438.69
562.381	479.69
562.593	436.69
562.805	431.69
563.017	443.69
563.229	434.69
563.441	438.69
563.653	449.69
563.865	458.69
564.077	447.69
564.289	431.69
564.501	429.69
564.713	455.69
564.925	473.69
565.137	486.69
565.349	451.69
565.561	455.69
565.773	465.69
565.985	463.69
566.197	484.69
566.408	483.69
566.62	492.69
566.832	490.69
567.044	491.69
567.255	490.69
567.467	514.69
567.679	477.69
567.891	511.69
568.102	497.69
568.314	459.69
568.526	475.69
568.737	452.69
568.949	455.69
569.161	457.69
569.372	428.69
569.584	425.69
569.795	438.69
570.007	458.69
570.218	486.69
570.43	490.69
570.641	446.69
570.853	439.69
571.064	418.69
571.276	433.69
571.487	406.69
571.698	399.69
571.91	399.69
572.121	405.69
572.333	390.69
572.544	390.69
572.755	393.69
572.966	403.69
573.178	390.69
573.389	383.69
573.6	394.69
573.811	367.69
574.023	384.69
574.234	372.69
574.445	361.69
574.656	379.69
574.867	403.69
575.078	368.69
575.289	370.69
575.501	378.69
575.712	373.69
575.923	374.69
576.134	374.69
576.345	378.69
576.556	380.69
576.767	364.69
576.978	381.69
577.188	370.69
577.399	371.69
577.61	357.69
577.821	353.69
578.032	373.69
578.243	417.69
578.454	727.69
578.665	516.69
578.875	385.69
579.086	363.69
579.297	366.69
579.508	369.69
579.718	352.69
579.929	345.69
580.14	343.69
580.35	346.69
580.561	341.69
580.772	331.69
580.982	333.69
581.193	318.69
581.403	350.69
581.614	358.69
581.825	332.69
582.035	343.69
582.246	330.69
582.456	344.69
582.667	349.69
582.877	334.69
583.087	346.69
583.298	312.69
583.508	345.69
583.719	345.69
583.929	345.69
584.139	329.69
584.35	333.69
584.56	335.69
584.77	344.69
584.981	346.69
585.191	331.69
585.401	331.69
585.611	331.69
585.821	326.69
586.032	334.69
586.242	327.69
586.452	312.69
586.662	306.69
586.872	330.69
587.082	327.69
587.292	319.69
587.502	342.69
587.713	310.69
587.923	340.69
588.133	322.69
588.343	337.69
588.553	323.69
588.762	327.69
588.972	309.69
589.182	313.69
589.392	322.69
589.602	304.69
589.812	334.69
590.022	325.69
590.232	327.69
590.441	344.69
590.651	318.69
590.861	323.69
591.071	330.69
591.281	309.69
591.49	331.69
591.7	312.69
591.91	331.69
592.119	299.69
592.329	324.69
592.539	337.69
592.748	344.69
592.958	326.69
593.167	313.69
593.377	325.69
593.587	329.69
593.796	341.69
594.006	321.69
594.215	330.69
594.424	314.69
594.634	341.69
594.843	336.69
595.053	331.69
595.262	326.69
595.472	331.69
595.681	315.69
595.89	316.69
596.1	317.69
596.309	308.69
596.518	308.69
596.727	321.69
596.937	313.69
597.146	312.69
597.355	298.69
597.564	297.69
597.774	323.69
597.983	281.69
598.192	293.69
598.401	294.69
598.61	295.69
598.819	291.69
599.028	298.69
599.237	294.69
599.446	290.69
599.655	311.69
599.864	296.69
600.073	274.69
600.282	287.69
600.491	280.69
600.7	291.69
600.909	269.69
601.118	279.69
601.327	281.69
601.536	284.69
601.745	282.69
601.953	275.69
602.162	286.69
602.371	286.69
602.58	304.69
602.789	286.69
602.997	281.69
603.206	277.69
603.415	284.69
603.623	274.69
603.832	267.69
604.041	275.69
604.249	266.69
604.458	280.69
604.666	267.69
604.875	286.69
605.084	272.69
605.292	268.69
605.501	259.69
605.709	279.69
605.918	281.69
606.126	280.69
606.334	293.69
606.543	301.69
606.751	280.69
606.96	279.69
607.168	280.69
607.376	267.69
607.585	275.69
607.793	273.69
608.001	271.69
608.21	270.69
608.418	285.69
608.626	266.69
608.834	267.69
609.043	271.69
609.251	291.69
609.459	279.69
609.667	263.69
609.875	267.69
610.083	270.69
610.291	271.69
610.499	266.69
610.707	271.69
610.916	272.69
611.124	271.69
611.332	275.69
611.54	291.69
611.748	277.69
611.955	282.69
612.163	274.69
612.371	271.69
612.579	257.69
612.787	277.69
612.995	256.69
613.203	265.69
613.411	266.69
613.618	280.69
613.826	266.69
614.034	271.69
614.242	267.69
614.449	248.69
614.657	278.69
614.865	281.69
615.072	269.69
615.28	258.69
615.488	255.69
615.695	258.69
615.903	258.69
616.111	238.69
616.318	256.69
616.526	267.69
616.733	278.69
616.941	260.69
617.148	253.69
617.356	255.69
617.563	263.69
617.771	260.69
617.978	245.69
618.185	275.69
618.393	265.69
618.6	259.69
618.807	253.69
619.015	242.69
619.222	224.69
619.429	245.69
619.637	245.69
619.844	248.69
620.051	245.69
620.258	253.69
620.466	247.69
620.673	237.69
620.88	240.69
621.087	246.69
621.294	240.69
621.501	246.69
621.708	235.69
621.915	265.69
622.122	237.69
622.329	234.69
622.536	247.69
622.743	266.69
622.95	229.69
623.157	234.69
623.364	242.69
623.571	231.69
623.778	227.69
623.985	226.69
624.192	256.69
624.399	246.69
624.606	247.69
624.812	239.69
625.019	249.69
625.226	239.69
625.433	222.69
625.639	230.69
625.846	211.69
626.053	223.69
626.259	228.69
626.466	218.69
626.673	221.69
626.879	230.69
627.086	231.69
627.293	240.69
627.499	225.69
627.706	240.69
627.912	226.69
628.119	223.69
628.325	215.69
628.532	213.69
628.738	236.69
628.945	217.69
629.151	209.69
629.357	220.69
629.564	214.69
629.77	206.69
629.976	206.69
630.183	209.69
630.389	211.69
630.595	219.69
630.802	203.69
631.008	198.69
631.214	213.69
631.42	206.69
631.627	215.69
631.833	224.69
632.039	230.69
632.245	209.69
632.451	200.69
632.657	190.69
632.863	194.69
633.069	207.69
633.275	213.69
633.481	205.69
633.688	201.69
633.893	214.69
634.099	206.69
634.305	200.69
634.511	196.69
634.717	204.69
634.923	195.69
635.129	189.69
635.335	193.69
635.541	187.69
635.747	191.69
635.952	191.69
636.158	202.69
636.364	197.69
636.57	219.69
636.775	190.69
636.981	216.69
637.187	207.69
637.392	188.69
637.598	185.69
637.804	192.69
638.009	199.69
638.215	208.69
638.421	189.69
638.626	193.69
638.832	186.69
639.037	195.69
639.243	190.69
639.448	177.69
639.654	195.69
639.859	192.69
640.065	179.69
640.27	197.69
640.475	195.69
640.681	185.69
640.886	203.69
641.091	184.69
641.297	189.69
641.502	181.69
641.707	194.69
641.913	190.69
642.118	193.69
642.323	194.69
642.528	172.69
642.733	191.69
642.939	201.69
643.144	177.69
643.349	170.69
643.554	186.69
643.759	190.69
643.964	194.69
644.169	189.69
644.374	170.69
644.579	181.69
644.784	185.69
644.989	170.69
645.194	189.69
645.399	187.69
645.604	184.69
645.809	175.69
646.014	169.69
646.219	170.69
646.423	171.69
646.628	186.69
646.833	172.69
647.038	182.69
647.243	192.69
647.447	165.69
647.652	185.69
647.857	181.69
648.062	196.69
648.266	177.69
648.471	180.69
648.676	193.69
648.88	175.69
649.085	159.69
649.289	183.69
649.494	194.69
649.698	207.69
649.903	202.69
650.107	198.69
650.312	179.69
650.516	176.69
650.721	163.69
650.925	151.69
651.13	147.69
651.334	162.69
651.539	160.69
651.743	162.69
651.947	156.69
652.152	152.69
652.356	155.69
652.56	151.69
652.764	144.69
652.969	156.69
653.173	153.69
653.377	150.69
653.581	143.69
653.785	149.69
653.99	161.69
654.194	149.69
654.398	152.69
654.602	145.69
654.806	151.69
655.01	131.69
655.214	149.69
655.418	139.69
655.622	137.69
655.826	137.69
656.03	148.69
656.234	136.69
656.438	133.69
656.642	135.69
656.846	141.69
657.049	133.69
657.253	131.69
657.457	119.69
657.661	111.69
657.865	111.69
658.068	124.69
658.272	121.69
658.476	90.69
658.68	99.69
658.883	110.69
659.087	103.69
659.291	104.69
659.494	95.69
659.698	94.69
659.901	95.69
660.105	90.69
660.309	81.69
660.512	81.69
660.716	88.69
660.919	99.69
661.123	95.69
661.326	85.69
661.53	84.69
661.733	78.69
661.936	77.69
662.14	88.69
662.343	71.69
662.546	79.69
662.75	93.69
662.953	92.69
663.156	81.69
663.36	78.69
663.563	84.69
663.766	76.69
663.969	76.69
664.173	79.69
664.376	90.69
664.579	87.69
664.782	84.69
664.985	95.69
665.188	79.69
665.391	86.69
665.594	82.69
665.797	80.69
666	73.69
666.203	70.69
666.406	81.69
666.609	75.69
666.812	79.69
667.015	81.69
667.218	87.69
667.421	85.69
667.624	74.69
667.827	71.69
668.03	78.69
668.232	71.69
668.435	88.69
668.638	92.69
668.841	74.69
669.043	78.69
669.246	76.69
669.449	74.69
669.651	85.69
669.854	90.69
670.057	69.69
670.259	82.69
670.462	62.69
670.665	81.69
670.867	73.69
671.07	69.69
671.272	76.69
671.475	86.69
671.677	75.69
671.88	87.69
672.082	85.69
672.284	69.69
672.487	73.69
672.689	78.69
672.892	73.69
