Data from 1971.PennyLincolnUp.Lamp.En5.5.200Scan.071719.P1.Scan 2. Changed Angle._HRD10591_15-23-00-842.txt Node
Date: Thu Jul 18 15:23:00 EDT 2019
User: cochatt
Spectrometer: HR+D1059
Trigger mode: 1
Integration Time (sec): 1.000000E-1
Scans to average: 1
Electric dark correction enabled: true
Nonlinearity correction enabled: false
Boxcar width: 0
XAxis mode: Wavelengths
Number of Pixels in Spectrum: 2048
>>>>>Begin Spectral Data<<<<<
223.165	-11.94
223.4	-11.94
223.635	-11.94
223.869	-27.94
224.104	-11.94
224.338	-31.94
224.573	-12.94
224.808	-5.94
225.042	-2.94
225.277	0.06
225.511	-12.94
225.746	0.06
225.98	23.06
226.215	1.06
226.449	1.06
226.683	22.06
226.918	38.06
227.152	33.06
227.387	38.06
227.621	34.06
227.856	25.06
228.09	47.06
228.324	45.06
228.559	57.06
228.793	64.06
229.027	94.06
229.262	125.06
229.496	105.06
229.73	132.06
229.964	157.06
230.199	135.06
230.433	116.06
230.667	109.06
230.901	91.06
231.136	117.06
231.37	121.06
231.604	114.06
231.838	106.06
232.072	103.06
232.306	120.06
232.541	99.06
232.775	113.06
233.009	119.06
233.243	103.06
233.477	105.06
233.711	111.06
233.945	105.06
234.179	108.06
234.413	119.06
234.647	118.06
234.881	131.06
235.115	112.06
235.349	101.06
235.583	115.06
235.817	103.06
236.051	123.06
236.285	124.06
236.519	122.06
236.753	111.06
236.987	170.06
237.221	187.06
237.455	223.06
237.689	191.06
237.922	129.06
238.156	143.06
238.39	139.06
238.624	122.06
238.858	123.06
239.091	118.06
239.325	114.06
239.559	129.06
239.793	139.06
240.027	127.06
240.26	139.06
240.494	167.06
240.728	152.06
240.961	138.06
241.195	154.06
241.429	123.06
241.662	133.06
241.896	128.06
242.13	122.06
242.363	133.06
242.597	133.06
242.83	137.06
243.064	150.06
243.298	131.06
243.531	134.06
243.765	138.06
243.998	131.06
244.232	129.06
244.465	141.06
244.699	143.06
244.932	137.06
245.166	141.06
245.399	137.06
245.633	156.06
245.866	145.06
246.099	145.06
246.333	154.06
246.566	151.06
246.8	145.06
247.033	152.06
247.266	137.06
247.5	159.06
247.733	175.06
247.966	171.06
248.2	171.06
248.433	174.06
248.666	184.06
248.899	176.06
249.133	195.06
249.366	209.06
249.599	190.06
249.832	175.06
250.066	185.06
250.299	183.06
250.532	193.06
250.765	206.06
250.998	227.06
251.231	213.06
251.465	220.06
251.698	204.06
251.931	210.06
252.164	193.06
252.397	210.06
252.63	200.06
252.863	214.06
253.096	197.06
253.329	229.06
253.562	221.06
253.795	226.06
254.028	225.06
254.261	227.06
254.494	233.06
254.727	253.06
254.96	283.06
255.193	278.06
255.426	259.06
255.659	235.06
255.892	237.06
256.124	224.06
256.357	222.06
256.59	217.06
256.823	208.06
257.056	209.06
257.289	213.06
257.521	197.06
257.754	218.06
257.987	201.06
258.22	198.06
258.452	196.06
258.685	207.06
258.918	213.06
259.151	209.06
259.383	215.06
259.616	210.06
259.849	207.06
260.081	226.06
260.314	246.06
260.547	256.06
260.779	233.06
261.012	234.06
261.244	223.06
261.477	223.06
261.71	203.06
261.942	224.06
262.175	219.06
262.407	205.06
262.64	204.06
262.872	202.06
263.105	204.06
263.337	208.06
263.57	194.06
263.802	196.06
264.035	212.06
264.267	194.06
264.499	179.06
264.732	192.06
264.964	207.06
265.197	202.06
265.429	210.06
265.661	209.06
265.894	215.06
266.126	203.06
266.358	199.06
266.591	210.06
266.823	212.06
267.055	203.06
267.287	206.06
267.52	201.06
267.752	229.06
267.984	202.06
268.216	214.06
268.448	225.06
268.681	206.06
268.913	215.06
269.145	240.06
269.377	263.06
269.609	253.06
269.841	266.06
270.073	257.06
270.306	287.06
270.538	288.06
270.77	295.06
271.002	286.06
271.234	287.06
271.466	276.06
271.698	279.06
271.93	301.06
272.162	296.06
272.394	307.06
272.626	297.06
272.858	285.06
273.09	260.06
273.322	269.06
273.553	257.06
273.785	264.06
274.017	234.06
274.249	236.06
274.481	235.06
274.713	253.06
274.945	236.06
275.176	251.06
275.408	244.06
275.64	244.06
275.872	234.06
276.104	243.06
276.335	256.06
276.567	238.06
276.799	250.06
277.031	290.06
277.262	299.06
277.494	285.06
277.726	274.06
277.957	276.06
278.189	263.06
278.421	246.06
278.652	247.06
278.884	249.06
279.115	234.06
279.347	228.06
279.579	242.06
279.81	249.06
280.042	253.06
280.273	231.06
280.505	227.06
280.736	237.06
280.968	223.06
281.199	242.06
281.431	231.06
281.662	246.06
281.894	228.06
282.125	247.06
282.356	266.06
282.588	278.06
282.819	289.06
283.051	249.06
283.282	243.06
283.513	229.06
283.745	233.06
283.976	250.06
284.207	265.06
284.439	247.06
284.67	248.06
284.901	247.06
285.132	228.06
285.364	232.06
285.595	243.06
285.826	247.06
286.057	256.06
286.288	255.06
286.52	255.06
286.751	251.06
286.982	250.06
287.213	249.06
287.444	241.06
287.675	246.06
287.906	255.06
288.138	274.06
288.369	275.06
288.6	281.06
288.831	252.06
289.062	272.06
289.293	262.06
289.524	256.06
289.755	264.06
289.986	234.06
290.217	268.06
290.448	245.06
290.679	260.06
290.91	265.06
291.141	255.06
291.371	260.06
291.602	257.06
291.833	240.06
292.064	235.06
292.295	255.06
292.526	241.06
292.757	265.06
292.987	251.06
293.218	240.06
293.449	246.06
293.68	273.06
293.91	262.06
294.141	240.06
294.372	260.06
294.603	260.06
294.833	259.06
295.064	269.06
295.295	239.06
295.525	254.06
295.756	260.06
295.987	274.06
296.217	308.06
296.448	295.06
296.679	266.06
296.909	235.06
297.14	244.06
297.37	264.06
297.601	256.06
297.831	247.06
298.062	246.06
298.292	281.06
298.523	262.06
298.753	265.06
298.984	268.06
299.214	270.06
299.445	270.06
299.675	271.06
299.905	274.06
300.136	273.06
300.366	281.06
300.597	275.06
300.827	288.06
301.057	303.06
301.288	277.06
301.518	292.06
301.748	267.06
301.979	280.06
302.209	289.06
302.439	289.06
302.669	277.06
302.9	292.06
303.13	294.06
303.36	286.06
303.59	291.06
303.82	291.06
304.051	292.06
304.281	287.06
304.511	288.06
304.741	295.06
304.971	299.06
305.201	297.06
305.431	290.06
305.661	275.06
305.891	277.06
306.121	287.06
306.352	305.06
306.582	295.06
306.812	290.06
307.042	295.06
307.272	290.06
307.502	288.06
307.731	292.06
307.961	313.06
308.191	291.06
308.421	277.06
308.651	293.06
308.881	311.06
309.111	325.06
309.341	298.06
309.571	322.06
309.8	331.06
310.03	317.06
310.26	317.06
310.49	340.06
310.72	346.06
310.949	366.06
311.179	377.06
311.409	339.06
311.639	321.06
311.868	350.06
312.098	346.06
312.328	354.06
312.557	356.06
312.787	353.06
313.017	377.06
313.246	349.06
313.476	337.06
313.706	337.06
313.935	347.06
314.165	358.06
314.394	339.06
314.624	377.06
314.853	349.06
315.083	351.06
315.312	354.06
315.542	338.06
315.771	338.06
316.001	314.06
316.23	335.06
316.46	330.06
316.689	344.06
316.919	346.06
317.148	346.06
317.377	349.06
317.607	347.06
317.836	346.06
318.065	345.06
318.295	326.06
318.524	324.06
318.753	319.06
318.983	337.06
319.212	337.06
319.441	347.06
319.67	352.06
319.9	353.06
320.129	366.06
320.358	334.06
320.587	327.06
320.816	329.06
321.046	335.06
321.275	378.06
321.504	368.06
321.733	369.06
321.962	369.06
322.191	370.06
322.42	388.06
322.649	418.06
322.878	426.06
323.108	423.06
323.337	450.06
323.566	471.06
323.795	535.06
324.024	552.06
324.253	673.06
324.482	968.06
324.71	1487.06
324.939	2176.06
325.168	1909.06
325.397	961.06
325.626	655.06
325.855	539.06
326.084	485.06
326.313	450.06
326.542	474.06
326.77	513.06
326.999	601.06
327.228	846.06
327.457	1342.06
327.686	1622.06
327.914	1086.06
328.143	702.06
328.372	617.06
328.6	576.06
328.829	522.06
329.058	549.06
329.287	583.06
329.515	528.06
329.744	487.06
329.972	491.06
330.201	486.06
330.43	513.06
330.658	569.06
330.887	579.06
331.115	584.06
331.344	493.06
331.572	435.06
331.801	462.06
332.03	445.06
332.258	435.06
332.486	418.06
332.715	405.06
332.943	420.06
333.172	399.06
333.4	401.06
333.629	393.06
333.857	414.06
334.085	438.06
334.314	436.06
334.542	475.06
334.771	479.06
334.999	429.06
335.227	412.06
335.455	406.06
335.684	416.06
335.912	403.06
336.14	378.06
336.369	411.06
336.597	405.06
336.825	398.06
337.053	393.06
337.281	395.06
337.51	371.06
337.738	377.06
337.966	395.06
338.194	388.06
338.422	396.06
338.65	404.06
338.878	389.06
339.106	385.06
339.334	386.06
339.562	393.06
339.79	372.06
340.018	375.06
340.246	371.06
340.474	400.06
340.702	384.06
340.93	394.06
341.158	381.06
341.386	376.06
341.614	386.06
341.842	408.06
342.07	391.06
342.298	362.06
342.526	369.06
342.754	374.06
342.981	385.06
343.209	365.06
343.437	387.06
343.665	378.06
343.893	385.06
344.12	375.06
344.348	389.06
344.576	382.06
344.804	399.06
345.031	404.06
345.259	429.06
345.487	403.06
345.714	385.06
345.942	379.06
346.17	379.06
346.397	371.06
346.625	365.06
346.853	405.06
347.08	387.06
347.308	387.06
347.535	407.06
347.763	393.06
347.99	392.06
348.218	407.06
348.445	389.06
348.673	385.06
348.9	397.06
349.128	388.06
349.355	374.06
349.583	385.06
349.81	365.06
350.037	362.06
350.265	375.06
350.492	367.06
350.72	395.06
350.947	378.06
351.174	402.06
351.402	391.06
351.629	424.06
351.856	403.06
352.083	386.06
352.311	414.06
352.538	402.06
352.765	413.06
352.992	420.06
353.22	394.06
353.447	375.06
353.674	380.06
353.901	385.06
354.128	357.06
354.355	352.06
354.583	336.06
354.81	362.06
355.037	353.06
355.264	353.06
355.491	341.06
355.718	347.06
355.945	326.06
356.172	377.06
356.399	351.06
356.626	363.06
356.853	362.06
357.08	352.06
357.307	342.06
357.534	341.06
357.761	333.06
357.988	353.06
358.215	352.06
358.441	373.06
358.668	377.06
358.895	343.06
359.122	365.06
359.349	377.06
359.576	412.06
359.802	414.06
360.029	432.06
360.256	431.06
360.483	443.06
360.709	414.06
360.936	381.06
361.163	392.06
361.39	408.06
361.616	408.06
361.843	389.06
362.07	397.06
362.296	400.06
362.523	379.06
362.749	391.06
362.976	375.06
363.203	382.06
363.429	359.06
363.656	369.06
363.882	373.06
364.109	373.06
364.335	368.06
364.562	381.06
364.788	368.06
365.015	366.06
365.241	363.06
365.468	380.06
365.694	389.06
365.92	358.06
366.147	379.06
366.373	386.06
366.599	375.06
366.826	374.06
367.052	359.06
367.278	365.06
367.505	371.06
367.731	390.06
367.957	363.06
368.184	365.06
368.41	396.06
368.636	370.06
368.862	389.06
369.089	399.06
369.315	385.06
369.541	385.06
369.767	398.06
369.993	365.06
370.219	380.06
370.445	377.06
370.672	374.06
370.898	373.06
371.124	371.06
371.35	366.06
371.576	360.06
371.802	378.06
372.028	371.06
372.254	360.06
372.48	358.06
372.706	357.06
372.932	365.06
373.158	365.06
373.384	368.06
373.61	377.06
373.835	372.06
374.061	371.06
374.287	369.06
374.513	373.06
374.739	380.06
374.965	355.06
375.191	377.06
375.416	361.06
375.642	371.06
375.868	358.06
376.094	354.06
376.319	381.06
376.545	373.06
376.771	380.06
376.997	373.06
377.222	354.06
377.448	372.06
377.674	362.06
377.899	369.06
378.125	357.06
378.35	351.06
378.576	354.06
378.802	377.06
379.027	381.06
379.253	393.06
379.478	368.06
379.704	355.06
379.929	385.06
380.155	381.06
380.38	376.06
380.606	367.06
380.831	383.06
381.057	379.06
381.282	376.06
381.507	355.06
381.733	375.06
381.958	377.06
382.184	387.06
382.409	382.06
382.634	385.06
382.86	378.06
383.085	374.06
383.31	387.06
383.535	398.06
383.761	411.06
383.986	388.06
384.211	397.06
384.436	387.06
384.662	401.06
384.887	396.06
385.112	384.06
385.337	401.06
385.562	392.06
385.787	406.06
386.013	410.06
386.238	410.06
386.463	399.06
386.688	394.06
386.913	398.06
387.138	393.06
387.363	393.06
387.588	391.06
387.813	393.06
388.038	400.06
388.263	407.06
388.488	421.06
388.713	402.06
388.938	411.06
389.163	407.06
389.387	406.06
389.612	393.06
389.837	393.06
390.062	402.06
390.287	393.06
390.512	410.06
390.736	394.06
390.961	388.06
391.186	386.06
391.411	405.06
391.636	418.06
391.86	425.06
392.085	414.06
392.31	414.06
392.534	402.06
392.759	401.06
392.984	422.06
393.208	420.06
393.433	429.06
393.658	438.06
393.882	411.06
394.107	425.06
394.331	420.06
394.556	395.06
394.78	408.06
395.005	421.06
395.229	405.06
395.454	419.06
395.678	434.06
395.903	431.06
396.127	435.06
396.352	450.06
396.576	445.06
396.801	433.06
397.025	431.06
397.249	463.06
397.474	431.06
397.698	434.06
397.922	441.06
398.147	455.06
398.371	484.06
398.595	455.06
398.82	451.06
399.044	435.06
399.268	474.06
399.492	482.06
399.717	498.06
399.941	529.06
400.165	560.06
400.389	592.06
400.613	537.06
400.837	481.06
401.062	496.06
401.286	499.06
401.51	474.06
401.734	436.06
401.958	444.06
402.182	460.06
402.406	487.06
402.63	477.06
402.854	486.06
403.078	479.06
403.302	494.06
403.526	488.06
403.75	487.06
403.974	475.06
404.198	473.06
404.422	495.06
404.645	486.06
404.869	487.06
405.093	518.06
405.317	542.06
405.541	582.06
405.765	543.06
405.988	504.06
406.212	532.06
406.436	548.06
406.66	561.06
406.883	528.06
407.107	578.06
407.331	587.06
407.555	648.06
407.778	655.06
408.002	579.06
408.226	553.06
408.449	546.06
408.673	547.06
408.896	557.06
409.12	624.06
409.344	583.06
409.567	533.06
409.791	521.06
410.014	499.06
410.238	482.06
410.461	505.06
410.685	480.06
410.908	499.06
411.132	573.06
411.355	580.06
411.578	577.06
411.802	509.06
412.025	504.06
412.249	498.06
412.472	528.06
412.695	574.06
412.919	535.06
413.142	511.06
413.365	468.06
413.589	478.06
413.812	456.06
414.035	445.06
414.258	472.06
414.482	447.06
414.705	451.06
414.928	450.06
415.151	467.06
415.374	444.06
415.597	446.06
415.821	441.06
416.044	461.06
416.267	471.06
416.49	460.06
416.713	455.06
416.936	486.06
417.159	473.06
417.382	489.06
417.605	464.06
417.828	503.06
418.051	505.06
418.274	500.06
418.497	471.06
418.72	481.06
418.943	472.06
419.166	488.06
419.389	518.06
419.611	481.06
419.834	513.06
420.057	507.06
420.28	488.06
420.503	483.06
420.726	497.06
420.948	507.06
421.171	539.06
421.394	586.06
421.617	501.06
421.839	483.06
422.062	505.06
422.285	497.06
422.507	577.06
422.73	633.06
422.953	608.06
423.175	566.06
423.398	507.06
423.621	539.06
423.843	539.06
424.066	540.06
424.288	547.06
424.511	579.06
424.733	618.06
424.956	709.06
425.178	675.06
425.401	660.06
425.623	671.06
425.846	605.06
426.068	545.06
426.291	571.06
426.513	538.06
426.735	567.06
426.958	582.06
427.18	682.06
427.402	811.06
427.625	880.06
427.847	827.06
428.069	696.06
428.292	630.06
428.514	563.06
428.736	532.06
428.958	530.06
429.181	514.06
429.403	519.06
429.625	519.06
429.847	546.06
430.069	622.06
430.292	634.06
430.514	549.06
430.736	521.06
430.958	508.06
431.18	511.06
431.402	490.06
431.624	481.06
431.846	473.06
432.068	466.06
432.29	489.06
432.512	498.06
432.734	482.06
432.956	490.06
433.178	493.06
433.4	497.06
433.622	493.06
433.844	478.06
434.066	488.06
434.287	470.06
434.509	485.06
434.731	491.06
434.953	516.06
435.175	510.06
435.397	569.06
435.618	572.06
435.84	593.06
436.062	677.06
436.284	740.06
436.505	630.06
436.727	584.06
436.949	531.06
437.17	529.06
437.392	527.06
437.614	534.06
437.835	576.06
438.057	670.06
438.278	759.06
438.5	758.06
438.721	838.06
438.943	809.06
439.165	665.06
439.386	602.06
439.608	562.06
439.829	587.06
440.05	618.06
440.272	649.06
440.493	595.06
440.715	554.06
440.936	550.06
441.158	514.06
441.379	501.06
441.6	521.06
441.822	546.06
442.043	608.06
442.264	701.06
442.486	713.06
442.707	601.06
442.928	601.06
443.149	581.06
443.371	602.06
443.592	650.06
443.813	740.06
444.034	778.06
444.255	666.06
444.476	593.06
444.698	565.06
444.919	583.06
445.14	679.06
445.361	629.06
445.582	594.06
445.803	661.06
446.024	786.06
446.245	810.06
446.466	714.06
446.687	609.06
446.908	573.06
447.129	536.06
447.35	523.06
447.571	547.06
447.792	501.06
448.013	515.06
448.234	555.06
448.455	598.06
448.675	704.06
448.896	810.06
449.117	693.06
449.338	678.06
449.559	786.06
449.779	851.06
450	685.06
450.221	612.06
450.442	541.06
450.662	534.06
450.883	538.06
451.104	545.06
451.324	538.06
451.545	486.06
451.766	499.06
451.986	476.06
452.207	485.06
452.428	473.06
452.648	470.06
452.869	481.06
453.089	493.06
453.31	489.06
453.53	470.06
453.751	469.06
453.971	460.06
454.192	489.06
454.412	481.06
454.633	486.06
454.853	455.06
455.073	460.06
455.294	495.06
455.514	563.06
455.734	541.06
455.955	475.06
456.175	451.06
456.395	435.06
456.616	422.06
456.836	422.06
457.056	441.06
457.276	415.06
457.497	418.06
457.717	431.06
457.937	439.06
458.157	449.06
458.377	472.06
458.598	466.06
458.818	539.06
459.038	632.06
459.258	648.06
459.478	550.06
459.698	475.06
459.918	464.06
460.138	470.06
460.358	485.06
460.578	461.06
460.798	445.06
461.018	487.06
461.238	457.06
461.458	469.06
461.678	466.06
461.898	465.06
462.118	486.06
462.338	459.06
462.558	472.06
462.777	494.06
462.997	502.06
463.217	513.06
463.437	497.06
463.657	482.06
463.876	496.06
464.096	497.06
464.316	492.06
464.536	510.06
464.755	521.06
464.975	534.06
465.195	568.06
465.414	683.06
465.634	581.06
465.854	519.06
466.073	524.06
466.293	486.06
466.512	479.06
466.732	470.06
466.951	479.06
467.171	492.06
467.391	471.06
467.61	473.06
467.829	488.06
468.049	482.06
468.268	484.06
468.488	469.06
468.707	463.06
468.927	468.06
469.146	456.06
469.365	456.06
469.585	459.06
469.804	479.06
470.023	478.06
470.243	454.06
470.462	474.06
470.681	491.06
470.901	517.06
471.12	459.06
471.339	478.06
471.558	486.06
471.777	481.06
471.997	475.06
472.216	471.06
472.435	541.06
472.654	520.06
472.873	486.06
473.092	484.06
473.311	472.06
473.53	456.06
473.749	492.06
473.968	548.06
474.187	634.06
474.406	655.06
474.625	588.06
474.844	502.06
475.063	495.06
475.282	474.06
475.501	480.06
475.72	512.06
475.939	487.06
476.158	476.06
476.377	493.06
476.596	508.06
476.814	511.06
477.033	533.06
477.252	534.06
477.471	522.06
477.69	511.06
477.908	509.06
478.127	517.06
478.346	535.06
478.564	541.06
478.783	529.06
479.002	541.06
479.22	541.06
479.439	557.06
479.658	585.06
479.876	581.06
480.095	574.06
480.313	597.06
480.532	601.06
480.751	611.06
480.969	607.06
481.188	647.06
481.406	692.06
481.624	618.06
481.843	610.06
482.061	579.06
482.28	582.06
482.498	562.06
482.717	574.06
482.935	597.06
483.153	581.06
483.372	582.06
483.59	568.06
483.808	565.06
484.027	550.06
484.245	569.06
484.463	565.06
484.681	603.06
484.9	586.06
485.118	586.06
485.336	593.06
485.554	595.06
485.772	579.06
485.99	602.06
486.209	582.06
486.427	605.06
486.645	611.06
486.863	642.06
487.081	645.06
487.299	635.06
487.517	631.06
487.735	606.06
487.953	630.06
488.171	610.06
488.389	607.06
488.607	629.06
488.825	611.06
489.043	629.06
489.261	647.06
489.479	634.06
489.696	650.06
489.914	661.06
490.132	661.06
490.35	653.06
490.568	627.06
490.786	661.06
491.003	699.06
491.221	701.06
491.439	715.06
491.657	710.06
491.874	694.06
492.092	728.06
492.31	746.06
492.527	724.06
492.745	734.06
492.963	730.06
493.18	728.06
493.398	743.06
493.615	734.06
493.833	748.06
494.05	778.06
494.268	752.06
494.485	727.06
494.703	778.06
494.92	757.06
495.138	738.06
495.355	737.06
495.573	749.06
495.79	767.06
496.008	755.06
496.225	765.06
496.442	740.06
496.66	742.06
496.877	742.06
497.094	789.06
497.312	740.06
497.529	757.06
497.746	777.06
497.963	777.06
498.181	822.06
498.398	797.06
498.615	793.06
498.832	807.06
499.049	801.06
499.267	851.06
499.484	857.06
499.701	847.06
499.918	839.06
500.135	893.06
500.352	905.06
500.569	913.06
500.786	927.06
501.003	915.06
501.22	911.06
501.437	907.06
501.654	917.06
501.871	907.06
502.088	881.06
502.305	857.06
502.522	824.06
502.739	795.06
502.956	769.06
503.172	787.06
503.389	771.06
503.606	776.06
503.823	799.06
504.04	774.06
504.256	783.06
504.473	760.06
504.69	731.06
504.907	744.06
505.123	760.06
505.34	735.06
505.557	721.06
505.773	762.06
505.99	722.06
506.207	737.06
506.423	717.06
506.64	703.06
506.856	720.06
507.073	726.06
507.289	705.06
507.506	711.06
507.722	741.06
507.939	731.06
508.155	742.06
508.372	701.06
508.588	682.06
508.805	694.06
509.021	690.06
509.238	728.06
509.454	707.06
509.67	695.06
509.887	690.06
510.103	694.06
510.319	706.06
510.536	817.06
510.752	1366.06
510.968	1124.06
511.184	730.06
511.401	715.06
511.617	687.06
511.833	669.06
512.049	650.06
512.265	641.06
512.481	671.06
512.698	633.06
512.914	650.06
513.13	660.06
513.346	639.06
513.562	678.06
513.778	675.06
513.994	677.06
514.21	666.06
514.426	713.06
514.642	774.06
514.858	806.06
515.074	845.06
515.29	1034.06
515.506	1569.06
515.721	1210.06
515.937	834.06
516.153	744.06
516.369	730.06
516.585	674.06
516.801	699.06
517.016	678.06
517.232	674.06
517.448	685.06
517.664	669.06
517.879	660.06
518.095	673.06
518.311	666.06
518.527	652.06
518.742	637.06
518.958	635.06
519.173	657.06
519.389	645.06
519.605	636.06
519.82	656.06
520.036	688.06
520.251	707.06
520.467	736.06
520.682	747.06
520.898	737.06
521.113	765.06
521.329	848.06
521.544	923.06
521.76	1204.06
521.975	2048.06
522.19	2016.06
522.406	1065.06
522.621	767.06
522.836	695.06
523.052	697.06
523.267	662.06
523.482	615.06
523.698	616.06
523.913	623.06
524.128	599.06
524.343	605.06
524.559	589.06
524.774	574.06
524.989	559.06
525.204	581.06
525.419	594.06
525.634	582.06
525.849	559.06
526.064	543.06
526.28	563.06
526.495	533.06
526.71	538.06
526.925	526.06
527.14	515.06
527.355	540.06
527.57	536.06
527.785	537.06
527.999	519.06
528.214	522.06
528.429	534.06
528.644	522.06
528.859	517.06
529.074	542.06
529.289	567.06
529.503	669.06
529.718	647.06
529.933	595.06
530.148	556.06
530.363	556.06
530.577	553.06
530.792	545.06
531.007	516.06
531.221	525.06
531.436	509.06
531.651	519.06
531.865	496.06
532.08	513.06
532.295	498.06
532.509	497.06
532.724	512.06
532.938	504.06
533.153	498.06
533.367	487.06
533.582	505.06
533.796	483.06
534.011	496.06
534.225	499.06
534.44	470.06
534.654	474.06
534.868	497.06
535.083	497.06
535.297	496.06
535.511	517.06
535.726	501.06
535.94	513.06
536.154	513.06
536.369	495.06
536.583	493.06
536.797	504.06
537.011	504.06
537.225	472.06
537.44	491.06
537.654	477.06
537.868	470.06
538.082	466.06
538.296	478.06
538.51	483.06
538.724	478.06
538.938	494.06
539.153	506.06
539.367	518.06
539.581	502.06
539.795	486.06
540.009	490.06
540.222	476.06
540.436	471.06
540.65	488.06
540.864	497.06
541.078	511.06
541.292	495.06
541.506	501.06
541.72	484.06
541.934	498.06
542.147	493.06
542.361	488.06
542.575	467.06
542.789	467.06
543.002	482.06
543.216	473.06
543.43	488.06
543.644	499.06
543.857	490.06
544.071	479.06
544.285	487.06
544.498	478.06
544.712	497.06
544.925	457.06
545.139	477.06
545.352	462.06
545.566	481.06
545.779	471.06
545.993	478.06
546.206	501.06
546.42	481.06
546.633	458.06
546.847	454.06
547.06	450.06
547.274	465.06
547.487	477.06
547.7	466.06
547.914	448.06
548.127	469.06
548.34	450.06
548.554	440.06
548.767	446.06
548.98	445.06
549.193	426.06
549.407	457.06
549.62	470.06
549.833	457.06
550.046	467.06
550.259	442.06
550.473	440.06
550.686	466.06
550.899	470.06
551.112	450.06
551.325	443.06
551.538	455.06
551.751	434.06
551.964	431.06
552.177	450.06
552.39	437.06
552.603	447.06
552.816	456.06
553.029	456.06
553.242	459.06
553.455	457.06
553.667	479.06
553.88	474.06
554.093	454.06
554.306	453.06
554.519	463.06
554.732	445.06
554.944	440.06
555.157	432.06
555.37	457.06
555.583	445.06
555.795	444.06
556.008	431.06
556.221	429.06
556.433	426.06
556.646	417.06
556.859	414.06
557.071	401.06
557.284	416.06
557.496	415.06
557.709	396.06
557.921	435.06
558.134	413.06
558.346	422.06
558.559	393.06
558.771	389.06
558.984	405.06
559.196	405.06
559.409	401.06
559.621	416.06
559.833	405.06
560.046	395.06
560.258	407.06
560.47	406.06
560.683	390.06
560.895	394.06
561.107	408.06
561.32	392.06
561.532	398.06
561.744	407.06
561.956	404.06
562.168	401.06
562.381	392.06
562.593	414.06
562.805	409.06
563.017	393.06
563.229	413.06
563.441	410.06
563.653	377.06
563.865	420.06
564.077	418.06
564.289	406.06
564.501	429.06
564.713	403.06
564.925	407.06
565.137	418.06
565.349	410.06
565.561	429.06
565.773	438.06
565.985	435.06
566.197	442.06
566.408	429.06
566.62	446.06
566.832	429.06
567.044	452.06
567.255	453.06
567.467	448.06
567.679	469.06
567.891	477.06
568.102	473.06
568.314	456.06
568.526	465.06
568.737	434.06
568.949	414.06
569.161	402.06
569.372	418.06
569.584	441.06
569.795	400.06
570.007	413.06
570.218	455.06
570.43	448.06
570.641	391.06
570.853	381.06
571.064	375.06
571.276	391.06
571.487	372.06
571.698	383.06
571.91	384.06
572.121	374.06
572.333	358.06
572.544	361.06
572.755	358.06
572.966	367.06
573.178	356.06
573.389	358.06
573.6	361.06
573.811	349.06
574.023	343.06
574.234	366.06
574.445	339.06
574.656	333.06
574.867	342.06
575.078	345.06
575.289	346.06
575.501	355.06
575.712	337.06
575.923	345.06
576.134	339.06
576.345	368.06
576.556	350.06
576.767	345.06
576.978	341.06
577.188	334.06
577.399	338.06
577.61	333.06
577.821	319.06
578.032	340.06
578.243	377.06
578.454	652.06
578.665	506.06
578.875	336.06
579.086	335.06
579.297	331.06
579.508	320.06
579.718	329.06
579.929	332.06
580.14	312.06
580.35	311.06
580.561	334.06
580.772	324.06
580.982	307.06
581.193	312.06
581.403	313.06
581.614	312.06
581.825	321.06
582.035	322.06
582.246	315.06
582.456	314.06
582.667	299.06
582.877	325.06
583.087	321.06
583.298	306.06
583.508	319.06
583.719	328.06
583.929	319.06
584.139	318.06
584.35	319.06
584.56	306.06
584.77	322.06
584.981	306.06
585.191	320.06
585.401	296.06
585.611	299.06
585.821	301.06
586.032	323.06
586.242	313.06
586.452	307.06
586.662	305.06
586.872	281.06
587.082	311.06
587.292	304.06
587.502	301.06
587.713	311.06
587.923	299.06
588.133	285.06
588.343	292.06
588.553	296.06
588.762	297.06
588.972	304.06
589.182	279.06
589.392	285.06
589.602	283.06
589.812	313.06
590.022	302.06
590.232	304.06
590.441	299.06
590.651	309.06
590.861	294.06
591.071	313.06
591.281	305.06
591.49	303.06
591.7	304.06
591.91	289.06
592.119	294.06
592.329	310.06
592.539	302.06
592.748	304.06
592.958	304.06
593.167	307.06
593.377	309.06
593.587	305.06
593.796	325.06
594.006	286.06
594.215	290.06
594.424	299.06
594.634	309.06
594.843	283.06
595.053	298.06
595.262	301.06
595.472	290.06
595.681	265.06
595.89	292.06
596.1	283.06
596.309	289.06
596.518	284.06
596.727	286.06
596.937	294.06
597.146	292.06
597.355	303.06
597.564	266.06
597.774	285.06
597.983	277.06
598.192	273.06
598.401	259.06
598.61	277.06
598.819	269.06
599.028	264.06
599.237	259.06
599.446	271.06
599.655	261.06
599.864	273.06
600.073	269.06
600.282	278.06
600.491	263.06
600.7	262.06
600.909	269.06
601.118	250.06
601.327	270.06
601.536	261.06
601.745	260.06
601.953	262.06
602.162	274.06
602.371	258.06
602.58	248.06
602.789	270.06
602.997	247.06
603.206	290.06
603.415	287.06
603.623	266.06
603.832	253.06
604.041	258.06
604.249	254.06
604.458	267.06
604.666	241.06
604.875	240.06
605.084	240.06
605.292	264.06
605.501	253.06
605.709	264.06
605.918	265.06
606.126	250.06
606.334	267.06
606.543	259.06
606.751	269.06
606.96	244.06
607.168	241.06
607.376	237.06
607.585	252.06
607.793	256.06
608.001	259.06
608.21	263.06
608.418	251.06
608.626	261.06
608.834	243.06
609.043	264.06
609.251	257.06
609.459	251.06
609.667	255.06
609.875	261.06
610.083	249.06
610.291	242.06
610.499	253.06
610.707	242.06
610.916	239.06
611.124	258.06
611.332	250.06
611.54	274.06
611.748	256.06
611.955	245.06
612.163	235.06
612.371	253.06
612.579	247.06
612.787	240.06
612.995	254.06
613.203	265.06
613.411	254.06
613.618	250.06
613.826	258.06
614.034	242.06
614.242	266.06
614.449	256.06
614.657	242.06
614.865	257.06
615.072	239.06
615.28	236.06
615.488	249.06
615.695	234.06
615.903	233.06
616.111	255.06
616.318	263.06
616.526	245.06
616.733	228.06
616.941	246.06
617.148	238.06
617.356	246.06
617.563	243.06
617.771	252.06
617.978	217.06
618.185	245.06
618.393	232.06
618.6	255.06
618.807	244.06
619.015	222.06
619.222	225.06
619.429	233.06
619.637	231.06
619.844	232.06
620.051	234.06
620.258	227.06
620.466	228.06
620.673	217.06
620.88	218.06
621.087	231.06
621.294	236.06
621.501	226.06
621.708	216.06
621.915	232.06
622.122	233.06
622.329	238.06
622.536	223.06
622.743	237.06
622.95	216.06
623.157	211.06
623.364	239.06
623.571	217.06
623.778	232.06
623.985	226.06
624.192	228.06
624.399	223.06
624.606	216.06
624.812	219.06
625.019	221.06
625.226	221.06
625.433	217.06
625.639	215.06
625.846	226.06
626.053	203.06
626.259	212.06
626.466	206.06
626.673	213.06
626.879	192.06
627.086	213.06
627.293	213.06
627.499	214.06
627.706	218.06
627.912	211.06
628.119	223.06
628.325	206.06
628.532	206.06
628.738	216.06
628.945	215.06
629.151	202.06
629.357	211.06
629.564	210.06
629.77	203.06
629.976	207.06
630.183	207.06
630.389	193.06
630.595	207.06
630.802	202.06
631.008	213.06
631.214	197.06
631.42	203.06
631.627	206.06
631.833	213.06
632.039	189.06
632.245	196.06
632.451	187.06
632.657	199.06
632.863	193.06
633.069	194.06
633.275	188.06
633.481	178.06
633.688	201.06
633.893	197.06
634.099	184.06
634.305	192.06
634.511	203.06
634.717	189.06
634.923	193.06
635.129	182.06
635.335	195.06
635.541	199.06
635.747	188.06
635.952	196.06
636.158	184.06
636.364	191.06
636.57	189.06
636.775	194.06
636.981	198.06
637.187	199.06
637.392	203.06
637.598	174.06
637.804	162.06
638.009	191.06
638.215	170.06
638.421	183.06
638.626	175.06
638.832	178.06
639.037	181.06
639.243	185.06
639.448	181.06
639.654	177.06
639.859	166.06
640.065	169.06
640.27	176.06
640.475	175.06
640.681	167.06
640.886	161.06
641.091	170.06
641.297	188.06
641.502	183.06
641.707	173.06
641.913	177.06
642.118	182.06
642.323	173.06
642.528	167.06
642.733	185.06
642.939	181.06
643.144	166.06
643.349	168.06
643.554	166.06
643.759	173.06
643.964	167.06
644.169	168.06
644.374	178.06
644.579	178.06
644.784	185.06
644.989	181.06
645.194	170.06
645.399	174.06
645.604	169.06
645.809	163.06
646.014	162.06
646.219	190.06
646.423	175.06
646.628	165.06
646.833	169.06
647.038	184.06
647.243	161.06
647.447	176.06
647.652	167.06
647.857	165.06
648.062	163.06
648.266	172.06
648.471	182.06
648.676	167.06
648.88	179.06
649.085	166.06
649.289	177.06
649.494	179.06
649.698	200.06
649.903	190.06
650.107	167.06
650.312	161.06
650.516	161.06
650.721	155.06
650.925	169.06
651.13	158.06
651.334	163.06
651.539	158.06
651.743	152.06
651.947	160.06
652.152	147.06
652.356	146.06
652.56	139.06
652.764	132.06
652.969	151.06
653.173	143.06
653.377	145.06
653.581	153.06
653.785	145.06
653.99	138.06
654.194	141.06
654.398	144.06
654.602	147.06
654.806	135.06
655.01	137.06
655.214	127.06
655.418	129.06
655.622	122.06
655.826	124.06
656.03	122.06
656.234	141.06
656.438	132.06
656.642	134.06
656.846	117.06
657.049	118.06
657.253	139.06
657.457	114.06
657.661	109.06
657.865	109.06
658.068	115.06
658.272	106.06
658.476	107.06
658.68	114.06
658.883	103.06
659.087	94.06
659.291	104.06
659.494	91.06
659.698	98.06
659.901	94.06
660.105	98.06
660.309	116.06
660.512	83.06
660.716	94.06
660.919	94.06
661.123	86.06
661.326	92.06
661.53	74.06
661.733	83.06
661.936	93.06
662.14	74.06
662.343	76.06
662.546	78.06
662.75	87.06
662.953	94.06
663.156	91.06
663.36	73.06
663.563	76.06
663.766	75.06
663.969	75.06
664.173	84.06
664.376	65.06
664.579	65.06
664.782	91.06
664.985	79.06
665.188	76.06
665.391	79.06
665.594	73.06
665.797	69.06
666	78.06
666.203	72.06
666.406	64.06
666.609	98.06
666.812	81.06
667.015	98.06
667.218	72.06
667.421	62.06
667.624	82.06
667.827	75.06
668.03	77.06
668.232	87.06
668.435	75.06
668.638	79.06
668.841	84.06
669.043	70.06
669.246	83.06
669.449	80.06
669.651	85.06
669.854	59.06
670.057	82.06
670.259	74.06
670.462	86.06
670.665	88.06
670.867	71.06
671.07	77.06
671.272	90.06
671.475	84.06
671.677	86.06
671.88	74.06
672.082	62.06
672.284	81.06
672.487	77.06
672.689	74.06
672.892	77.06
