Data from 1971.PennyLincolnUp.Lamp.En5.5.200Scan.071719.P1.Scan 2. Changed Angle._HRD10591_15-24-23-842.txt Node
Date: Thu Jul 18 15:24:23 EDT 2019
User: cochatt
Spectrometer: HR+D1059
Trigger mode: 1
Integration Time (sec): 1.000000E-1
Scans to average: 1
Electric dark correction enabled: true
Nonlinearity correction enabled: false
Boxcar width: 0
XAxis mode: Wavelengths
Number of Pixels in Spectrum: 2048
>>>>>Begin Spectral Data<<<<<
223.165	-11.94
223.4	-11.94
223.635	-11.94
223.869	-20.94
224.104	-24.94
224.338	-11.94
224.573	-1.94
224.808	-11.94
225.042	-3.94
225.277	-4.94
225.511	-0.94
225.746	-10.94
225.98	-1.94
226.215	15.06
226.449	11.06
226.683	18.06
226.918	28.06
227.152	34.06
227.387	22.06
227.621	41.06
227.856	32.06
228.09	48.06
228.324	56.06
228.559	69.06
228.793	69.06
229.027	99.06
229.262	128.06
229.496	133.06
229.73	152.06
229.964	189.06
230.199	145.06
230.433	125.06
230.667	112.06
230.901	124.06
231.136	122.06
231.37	113.06
231.604	121.06
231.838	119.06
232.072	119.06
232.306	142.06
232.541	124.06
232.775	120.06
233.009	113.06
233.243	110.06
233.477	118.06
233.711	125.06
233.945	131.06
234.179	126.06
234.413	139.06
234.647	120.06
234.881	114.06
235.115	129.06
235.349	118.06
235.583	125.06
235.817	125.06
236.051	139.06
236.285	137.06
236.519	130.06
236.753	139.06
236.987	160.06
237.221	222.06
237.455	278.06
237.689	210.06
237.922	152.06
238.156	138.06
238.39	139.06
238.624	117.06
238.858	129.06
239.091	148.06
239.325	143.06
239.559	120.06
239.793	141.06
240.027	156.06
240.26	163.06
240.494	168.06
240.728	161.06
240.961	172.06
241.195	172.06
241.429	157.06
241.662	141.06
241.896	144.06
242.13	137.06
242.363	150.06
242.597	145.06
242.83	150.06
243.064	150.06
243.298	145.06
243.531	127.06
243.765	152.06
243.998	157.06
244.232	146.06
244.465	154.06
244.699	153.06
244.932	165.06
245.166	157.06
245.399	157.06
245.633	166.06
245.866	174.06
246.099	158.06
246.333	160.06
246.566	160.06
246.8	157.06
247.033	160.06
247.266	163.06
247.5	179.06
247.733	184.06
247.966	203.06
248.2	186.06
248.433	183.06
248.666	194.06
248.899	184.06
249.133	213.06
249.366	231.06
249.599	235.06
249.832	214.06
250.066	196.06
250.299	191.06
250.532	230.06
250.765	236.06
250.998	233.06
251.231	246.06
251.465	233.06
251.698	215.06
251.931	233.06
252.164	232.06
252.397	227.06
252.63	216.06
252.863	222.06
253.096	251.06
253.329	243.06
253.562	262.06
253.795	243.06
254.028	250.06
254.261	249.06
254.494	291.06
254.727	295.06
254.96	337.06
255.193	335.06
255.426	294.06
255.659	289.06
255.892	263.06
256.124	254.06
256.357	266.06
256.59	252.06
256.823	232.06
257.056	230.06
257.289	248.06
257.521	245.06
257.754	230.06
257.987	231.06
258.22	216.06
258.452	215.06
258.685	226.06
258.918	240.06
259.151	241.06
259.383	230.06
259.616	240.06
259.849	253.06
260.081	264.06
260.314	270.06
260.547	276.06
260.779	265.06
261.012	279.06
261.244	233.06
261.477	256.06
261.71	266.06
261.942	271.06
262.175	260.06
262.407	283.06
262.64	254.06
262.872	239.06
263.105	239.06
263.337	236.06
263.57	225.06
263.802	231.06
264.035	229.06
264.267	238.06
264.499	216.06
264.732	224.06
264.964	221.06
265.197	236.06
265.429	221.06
265.661	239.06
265.894	237.06
266.126	220.06
266.358	223.06
266.591	218.06
266.823	234.06
267.055	247.06
267.287	256.06
267.52	218.06
267.752	237.06
267.984	230.06
268.216	257.06
268.448	238.06
268.681	268.06
268.913	269.06
269.145	292.06
269.377	315.06
269.609	287.06
269.841	284.06
270.073	284.06
270.306	314.06
270.538	357.06
270.77	356.06
271.002	343.06
271.234	316.06
271.466	333.06
271.698	333.06
271.93	351.06
272.162	354.06
272.394	364.06
272.626	341.06
272.858	303.06
273.09	308.06
273.322	303.06
273.553	292.06
273.785	294.06
274.017	297.06
274.249	279.06
274.481	285.06
274.713	281.06
274.945	303.06
275.176	295.06
275.408	297.06
275.64	274.06
275.872	286.06
276.104	280.06
276.335	267.06
276.567	297.06
276.799	301.06
277.031	320.06
277.262	349.06
277.494	320.06
277.726	320.06
277.957	325.06
278.189	286.06
278.421	276.06
278.652	271.06
278.884	264.06
279.115	275.06
279.347	282.06
279.579	282.06
279.81	277.06
280.042	276.06
280.273	280.06
280.505	276.06
280.736	274.06
280.968	268.06
281.199	267.06
281.431	264.06
281.662	252.06
281.894	297.06
282.125	272.06
282.356	299.06
282.588	332.06
282.819	318.06
283.051	297.06
283.282	281.06
283.513	277.06
283.745	298.06
283.976	273.06
284.207	282.06
284.439	288.06
284.67	286.06
284.901	273.06
285.132	271.06
285.364	269.06
285.595	270.06
285.826	277.06
286.057	279.06
286.288	279.06
286.52	290.06
286.751	273.06
286.982	288.06
287.213	296.06
287.444	300.06
287.675	298.06
287.906	298.06
288.138	305.06
288.369	320.06
288.6	322.06
288.831	321.06
289.062	300.06
289.293	293.06
289.524	294.06
289.755	293.06
289.986	287.06
290.217	296.06
290.448	280.06
290.679	280.06
290.91	297.06
291.141	284.06
291.371	316.06
291.602	300.06
291.833	298.06
292.064	298.06
292.295	291.06
292.526	294.06
292.757	284.06
292.987	296.06
293.218	301.06
293.449	312.06
293.68	269.06
293.91	286.06
294.141	282.06
294.372	293.06
294.603	302.06
294.833	288.06
295.064	311.06
295.295	301.06
295.525	304.06
295.756	305.06
295.987	310.06
296.217	344.06
296.448	333.06
296.679	320.06
296.909	290.06
297.14	306.06
297.37	305.06
297.601	313.06
297.831	302.06
298.062	308.06
298.292	296.06
298.523	320.06
298.753	306.06
298.984	308.06
299.214	303.06
299.445	311.06
299.675	318.06
299.905	305.06
300.136	300.06
300.366	318.06
300.597	313.06
300.827	329.06
301.057	326.06
301.288	342.06
301.518	321.06
301.748	319.06
301.979	326.06
302.209	329.06
302.439	324.06
302.669	327.06
302.9	326.06
303.13	342.06
303.36	349.06
303.59	338.06
303.82	356.06
304.051	355.06
304.281	327.06
304.511	332.06
304.741	305.06
304.971	321.06
305.201	318.06
305.431	318.06
305.661	305.06
305.891	312.06
306.121	327.06
306.352	332.06
306.582	340.06
306.812	343.06
307.042	335.06
307.272	315.06
307.502	330.06
307.731	344.06
307.961	312.06
308.191	331.06
308.421	335.06
308.651	334.06
308.881	345.06
309.111	347.06
309.341	350.06
309.571	377.06
309.8	364.06
310.03	382.06
310.26	396.06
310.49	384.06
310.72	408.06
310.949	441.06
311.179	439.06
311.409	358.06
311.639	390.06
311.868	390.06
312.098	391.06
312.328	420.06
312.557	424.06
312.787	447.06
313.017	440.06
313.246	420.06
313.476	408.06
313.706	409.06
313.935	408.06
314.165	406.06
314.394	437.06
314.624	417.06
314.853	420.06
315.083	406.06
315.312	402.06
315.542	374.06
315.771	393.06
316.001	367.06
316.23	388.06
316.46	380.06
316.689	396.06
316.919	399.06
317.148	418.06
317.377	398.06
317.607	385.06
317.836	413.06
318.065	384.06
318.295	400.06
318.524	385.06
318.753	412.06
318.983	384.06
319.212	375.06
319.441	399.06
319.67	410.06
319.9	425.06
320.129	391.06
320.358	395.06
320.587	394.06
320.816	407.06
321.046	426.06
321.275	437.06
321.504	429.06
321.733	432.06
321.962	420.06
322.191	469.06
322.42	444.06
322.649	491.06
322.878	514.06
323.108	516.06
323.337	554.06
323.566	573.06
323.795	632.06
324.024	676.06
324.253	842.06
324.482	1245.06
324.71	1934.06
324.939	2795.06
325.168	2389.06
325.397	1252.06
325.626	836.06
325.855	657.06
326.084	597.06
326.313	584.06
326.542	588.06
326.77	660.06
326.999	792.06
327.228	1113.06
327.457	1722.06
327.686	2102.06
327.914	1359.06
328.143	902.06
328.372	785.06
328.6	716.06
328.829	658.06
329.058	670.06
329.287	717.06
329.515	627.06
329.744	595.06
329.972	576.06
330.201	610.06
330.43	666.06
330.658	704.06
330.887	724.06
331.115	717.06
331.344	617.06
331.572	551.06
331.801	535.06
332.03	552.06
332.258	524.06
332.486	495.06
332.715	468.06
332.943	465.06
333.172	471.06
333.4	480.06
333.629	489.06
333.857	489.06
334.085	496.06
334.314	529.06
334.542	604.06
334.771	608.06
334.999	531.06
335.227	491.06
335.455	472.06
335.684	468.06
335.912	468.06
336.14	455.06
336.369	463.06
336.597	484.06
336.825	487.06
337.053	454.06
337.281	450.06
337.51	461.06
337.738	455.06
337.966	470.06
338.194	493.06
338.422	492.06
338.65	463.06
338.878	460.06
339.106	454.06
339.334	445.06
339.562	444.06
339.79	444.06
340.018	452.06
340.246	430.06
340.474	452.06
340.702	453.06
340.93	446.06
341.158	428.06
341.386	450.06
341.614	473.06
341.842	459.06
342.07	438.06
342.298	428.06
342.526	436.06
342.754	427.06
342.981	424.06
343.209	437.06
343.437	447.06
343.665	450.06
343.893	439.06
344.12	446.06
344.348	461.06
344.576	441.06
344.804	452.06
345.031	467.06
345.259	484.06
345.487	480.06
345.714	461.06
345.942	449.06
346.17	439.06
346.397	451.06
346.625	440.06
346.853	459.06
347.08	448.06
347.308	443.06
347.535	451.06
347.763	459.06
347.99	470.06
348.218	471.06
348.445	477.06
348.673	482.06
348.9	457.06
349.128	448.06
349.355	433.06
349.583	443.06
349.81	440.06
350.037	429.06
350.265	428.06
350.492	458.06
350.72	438.06
350.947	453.06
351.174	449.06
351.402	469.06
351.629	442.06
351.856	441.06
352.083	471.06
352.311	460.06
352.538	496.06
352.765	494.06
352.992	467.06
353.22	463.06
353.447	448.06
353.674	450.06
353.901	442.06
354.128	424.06
354.355	401.06
354.583	423.06
354.81	426.06
355.037	404.06
355.264	415.06
355.491	388.06
355.718	414.06
355.945	406.06
356.172	396.06
356.399	381.06
356.626	396.06
356.853	395.06
357.08	395.06
357.307	395.06
357.534	410.06
357.761	408.06
357.988	415.06
358.215	413.06
358.441	433.06
358.668	426.06
358.895	422.06
359.122	398.06
359.349	437.06
359.576	461.06
359.802	485.06
360.029	535.06
360.256	547.06
360.483	514.06
360.709	480.06
360.936	463.06
361.163	464.06
361.39	472.06
361.616	458.06
361.843	444.06
362.07	457.06
362.296	452.06
362.523	460.06
362.749	462.06
362.976	440.06
363.203	440.06
363.429	466.06
363.656	438.06
363.882	431.06
364.109	422.06
364.335	428.06
364.562	431.06
364.788	430.06
365.015	425.06
365.241	428.06
365.468	418.06
365.694	448.06
365.92	428.06
366.147	438.06
366.373	452.06
366.599	445.06
366.826	407.06
367.052	430.06
367.278	425.06
367.505	425.06
367.731	406.06
367.957	407.06
368.184	437.06
368.41	444.06
368.636	463.06
368.862	440.06
369.089	424.06
369.315	407.06
369.541	413.06
369.767	410.06
369.993	415.06
370.219	412.06
370.445	426.06
370.672	440.06
370.898	434.06
371.124	419.06
371.35	419.06
371.576	425.06
371.802	433.06
372.028	379.06
372.254	410.06
372.48	422.06
372.706	413.06
372.932	424.06
373.158	411.06
373.384	431.06
373.61	406.06
373.835	410.06
374.061	411.06
374.287	420.06
374.513	432.06
374.739	436.06
374.965	439.06
375.191	431.06
375.416	424.06
375.642	408.06
375.868	429.06
376.094	429.06
376.319	450.06
376.545	423.06
376.771	394.06
376.997	426.06
377.222	431.06
377.448	428.06
377.674	436.06
377.899	405.06
378.125	432.06
378.35	429.06
378.576	410.06
378.802	402.06
379.027	428.06
379.253	422.06
379.478	430.06
379.704	423.06
379.929	440.06
380.155	438.06
380.38	449.06
380.606	430.06
380.831	414.06
381.057	431.06
381.282	432.06
381.507	425.06
381.733	437.06
381.958	416.06
382.184	440.06
382.409	423.06
382.634	437.06
382.86	429.06
383.085	412.06
383.31	436.06
383.535	433.06
383.761	430.06
383.986	443.06
384.211	430.06
384.436	436.06
384.662	449.06
384.887	450.06
385.112	442.06
385.337	439.06
385.562	464.06
385.787	474.06
386.013	469.06
386.238	469.06
386.463	446.06
386.688	467.06
386.913	429.06
387.138	461.06
387.363	454.06
387.588	476.06
387.813	454.06
388.038	438.06
388.263	449.06
388.488	467.06
388.713	456.06
388.938	448.06
389.163	465.06
389.387	459.06
389.612	458.06
389.837	462.06
390.062	460.06
390.287	442.06
390.512	411.06
390.736	432.06
390.961	442.06
391.186	446.06
391.411	444.06
391.636	470.06
391.86	452.06
392.085	459.06
392.31	471.06
392.534	472.06
392.759	471.06
392.984	471.06
393.208	454.06
393.433	460.06
393.658	457.06
393.882	481.06
394.107	452.06
394.331	482.06
394.556	469.06
394.78	486.06
395.005	465.06
395.229	471.06
395.454	458.06
395.678	460.06
395.903	480.06
396.127	481.06
396.352	502.06
396.576	481.06
396.801	486.06
397.025	472.06
397.249	489.06
397.474	477.06
397.698	490.06
397.922	495.06
398.147	524.06
398.371	503.06
398.595	502.06
398.82	501.06
399.044	522.06
399.268	522.06
399.492	538.06
399.717	557.06
399.941	595.06
400.165	640.06
400.389	648.06
400.613	586.06
400.837	554.06
401.062	547.06
401.286	552.06
401.51	513.06
401.734	545.06
401.958	543.06
402.182	542.06
402.406	561.06
402.63	544.06
402.854	535.06
403.078	530.06
403.302	539.06
403.526	572.06
403.75	552.06
403.974	540.06
404.198	556.06
404.422	548.06
404.645	542.06
404.869	565.06
405.093	619.06
405.317	634.06
405.541	684.06
405.765	612.06
405.988	603.06
406.212	590.06
406.436	626.06
406.66	650.06
406.883	625.06
407.107	638.06
407.331	668.06
407.555	735.06
407.778	752.06
408.002	662.06
408.226	624.06
408.449	628.06
408.673	613.06
408.896	652.06
409.12	702.06
409.344	650.06
409.567	607.06
409.791	595.06
410.014	558.06
410.238	566.06
410.461	551.06
410.685	570.06
410.908	599.06
411.132	616.06
411.355	668.06
411.578	630.06
411.802	570.06
412.025	547.06
412.249	556.06
412.472	591.06
412.695	652.06
412.919	617.06
413.142	568.06
413.365	549.06
413.589	540.06
413.812	550.06
414.035	545.06
414.258	521.06
414.482	526.06
414.705	526.06
414.928	527.06
415.151	505.06
415.374	510.06
415.597	504.06
415.821	507.06
416.044	527.06
416.267	533.06
416.49	518.06
416.713	534.06
416.936	546.06
417.159	523.06
417.382	530.06
417.605	541.06
417.828	542.06
418.051	571.06
418.274	567.06
418.497	548.06
418.72	542.06
418.943	540.06
419.166	551.06
419.389	558.06
419.611	575.06
419.834	553.06
420.057	576.06
420.28	580.06
420.503	558.06
420.726	562.06
420.948	600.06
421.171	654.06
421.394	664.06
421.617	601.06
421.839	560.06
422.062	567.06
422.285	611.06
422.507	652.06
422.73	739.06
422.953	712.06
423.175	625.06
423.398	592.06
423.621	624.06
423.843	640.06
424.066	624.06
424.288	620.06
424.511	642.06
424.733	694.06
424.956	805.06
425.178	794.06
425.401	759.06
425.623	786.06
425.846	696.06
426.068	628.06
426.291	634.06
426.513	619.06
426.735	604.06
426.958	692.06
427.18	780.06
427.402	934.06
427.625	1024.06
427.847	944.06
428.069	805.06
428.292	726.06
428.514	662.06
428.736	599.06
428.958	601.06
429.181	584.06
429.403	588.06
429.625	637.06
429.847	670.06
430.069	719.06
430.292	731.06
430.514	624.06
430.736	600.06
430.958	576.06
431.18	573.06
431.402	536.06
431.624	543.06
431.846	538.06
432.068	535.06
432.29	533.06
432.512	546.06
432.734	569.06
432.956	557.06
433.178	570.06
433.4	580.06
433.622	550.06
433.844	572.06
434.066	520.06
434.287	539.06
434.509	531.06
434.731	558.06
434.953	548.06
435.175	580.06
435.397	639.06
435.618	629.06
435.84	677.06
436.062	807.06
436.284	833.06
436.505	720.06
436.727	656.06
436.949	625.06
437.17	588.06
437.392	586.06
437.614	630.06
437.835	676.06
438.057	786.06
438.278	898.06
438.5	877.06
438.721	934.06
438.943	904.06
439.165	747.06
439.386	673.06
439.608	668.06
439.829	663.06
440.05	683.06
440.272	783.06
440.493	706.06
440.715	649.06
440.936	623.06
441.158	597.06
441.379	608.06
441.6	607.06
441.822	632.06
442.043	711.06
442.264	792.06
442.486	845.06
442.707	709.06
442.928	665.06
443.149	669.06
443.371	702.06
443.592	734.06
443.813	839.06
444.034	896.06
444.255	768.06
444.476	668.06
444.698	641.06
444.919	623.06
445.14	744.06
445.361	696.06
445.582	686.06
445.803	782.06
446.024	913.06
446.245	904.06
446.466	828.06
446.687	710.06
446.908	661.06
447.129	620.06
447.35	588.06
447.571	573.06
447.792	596.06
448.013	612.06
448.234	665.06
448.455	666.06
448.675	817.06
448.896	916.06
449.117	808.06
449.338	768.06
449.559	862.06
449.779	950.06
450	762.06
450.221	673.06
450.442	605.06
450.662	584.06
450.883	616.06
451.104	640.06
451.324	619.06
451.545	570.06
451.766	566.06
451.986	526.06
452.207	531.06
452.428	550.06
452.648	534.06
452.869	533.06
453.089	546.06
453.31	562.06
453.53	544.06
453.751	542.06
453.971	501.06
454.192	582.06
454.412	577.06
454.633	520.06
454.853	538.06
455.073	541.06
455.294	573.06
455.514	638.06
455.734	637.06
455.955	553.06
456.175	513.06
456.395	488.06
456.616	478.06
456.836	477.06
457.056	475.06
457.276	468.06
457.497	497.06
457.717	493.06
457.937	490.06
458.157	500.06
458.377	502.06
458.598	556.06
458.818	640.06
459.038	733.06
459.258	733.06
459.478	633.06
459.698	569.06
459.918	549.06
460.138	538.06
460.358	527.06
460.578	530.06
460.798	534.06
461.018	549.06
461.238	536.06
461.458	528.06
461.678	534.06
461.898	544.06
462.118	542.06
462.338	534.06
462.558	547.06
462.777	547.06
462.997	570.06
463.217	574.06
463.437	549.06
463.657	570.06
463.876	573.06
464.096	552.06
464.316	577.06
464.536	554.06
464.755	585.06
464.975	569.06
465.195	639.06
465.414	762.06
465.634	692.06
465.854	648.06
466.073	581.06
466.293	557.06
466.512	530.06
466.732	531.06
466.951	524.06
467.171	533.06
467.391	531.06
467.61	546.06
467.829	560.06
468.049	555.06
468.268	570.06
468.488	544.06
468.707	533.06
468.927	534.06
469.146	512.06
469.365	500.06
469.585	527.06
469.804	541.06
470.023	531.06
470.243	540.06
470.462	558.06
470.681	592.06
470.901	581.06
471.12	570.06
471.339	549.06
471.558	542.06
471.777	545.06
471.997	545.06
472.216	545.06
472.435	601.06
472.654	576.06
472.873	566.06
473.092	542.06
473.311	533.06
473.53	540.06
473.749	566.06
473.968	613.06
474.187	723.06
474.406	783.06
474.625	615.06
474.844	573.06
475.063	561.06
475.282	553.06
475.501	570.06
475.72	573.06
475.939	568.06
476.158	562.06
476.377	584.06
476.596	564.06
476.814	577.06
477.033	588.06
477.252	612.06
477.471	571.06
477.69	588.06
477.908	589.06
478.127	631.06
478.346	591.06
478.564	590.06
478.783	594.06
479.002	608.06
479.22	634.06
479.439	626.06
479.658	642.06
479.876	660.06
480.095	679.06
480.313	708.06
480.532	659.06
480.751	672.06
480.969	672.06
481.188	767.06
481.406	806.06
481.624	738.06
481.843	679.06
482.061	668.06
482.28	646.06
482.498	641.06
482.717	657.06
482.935	632.06
483.153	640.06
483.372	638.06
483.59	642.06
483.808	656.06
484.027	645.06
484.245	646.06
484.463	639.06
484.681	674.06
484.9	670.06
485.118	677.06
485.336	650.06
485.554	649.06
485.772	673.06
485.99	650.06
486.209	687.06
486.427	684.06
486.645	706.06
486.863	747.06
487.081	727.06
487.299	708.06
487.517	680.06
487.735	705.06
487.953	730.06
488.171	734.06
488.389	699.06
488.607	710.06
488.825	704.06
489.043	703.06
489.261	711.06
489.479	728.06
489.696	707.06
489.914	719.06
490.132	730.06
490.35	718.06
490.568	776.06
490.786	772.06
491.003	745.06
491.221	776.06
491.439	805.06
491.657	778.06
491.874	811.06
492.092	830.06
492.31	824.06
492.527	856.06
492.745	840.06
492.963	834.06
493.18	858.06
493.398	843.06
493.615	866.06
493.833	872.06
494.05	871.06
494.268	862.06
494.485	865.06
494.703	872.06
494.92	863.06
495.138	891.06
495.355	841.06
495.573	868.06
495.79	871.06
496.008	859.06
496.225	873.06
496.442	858.06
496.66	864.06
496.877	850.06
497.094	869.06
497.312	868.06
497.529	853.06
497.746	885.06
497.963	900.06
498.181	907.06
498.398	917.06
498.615	895.06
498.832	900.06
499.049	921.06
499.267	935.06
499.484	918.06
499.701	977.06
499.918	984.06
500.135	1027.06
500.352	1026.06
500.569	1040.06
500.786	1049.06
501.003	1055.06
501.22	1039.06
501.437	1032.06
501.654	1013.06
501.871	1016.06
502.088	978.06
502.305	960.06
502.522	939.06
502.739	914.06
502.956	907.06
503.172	870.06
503.389	862.06
503.606	891.06
503.823	888.06
504.04	868.06
504.256	831.06
504.473	829.06
504.69	867.06
504.907	838.06
505.123	834.06
505.34	814.06
505.557	829.06
505.773	841.06
505.99	830.06
506.207	833.06
506.423	826.06
506.64	799.06
506.856	832.06
507.073	822.06
507.289	836.06
507.506	814.06
507.722	847.06
507.939	850.06
508.155	830.06
508.372	793.06
508.588	820.06
508.805	783.06
509.021	801.06
509.238	798.06
509.454	808.06
509.67	826.06
509.887	810.06
510.103	785.06
510.319	822.06
510.536	954.06
510.752	1630.06
510.968	1322.06
511.184	848.06
511.401	778.06
511.617	782.06
511.833	763.06
512.049	756.06
512.265	761.06
512.481	761.06
512.698	729.06
512.914	753.06
513.13	757.06
513.346	725.06
513.562	722.06
513.778	763.06
513.994	782.06
514.21	800.06
514.426	842.06
514.642	884.06
514.858	931.06
515.074	1009.06
515.29	1205.06
515.506	1836.06
515.721	1454.06
515.937	982.06
516.153	866.06
516.369	838.06
516.585	798.06
516.801	741.06
517.016	768.06
517.232	763.06
517.448	772.06
517.664	750.06
517.879	760.06
518.095	757.06
518.311	741.06
518.527	724.06
518.742	744.06
518.958	746.06
519.173	763.06
519.389	747.06
519.605	751.06
519.82	761.06
520.036	778.06
520.251	818.06
520.467	855.06
520.682	838.06
520.898	887.06
521.113	886.06
521.329	964.06
521.544	1135.06
521.76	1413.06
521.975	2480.06
522.19	2378.06
522.406	1258.06
522.621	906.06
522.836	817.06
523.052	778.06
523.267	741.06
523.482	741.06
523.698	708.06
523.913	720.06
524.128	700.06
524.343	688.06
524.559	683.06
524.774	673.06
524.989	645.06
525.204	662.06
525.419	700.06
525.634	650.06
525.849	664.06
526.064	607.06
526.28	639.06
526.495	638.06
526.71	608.06
526.925	608.06
527.14	581.06
527.355	609.06
527.57	611.06
527.785	593.06
527.999	601.06
528.214	603.06
528.429	612.06
528.644	611.06
528.859	618.06
529.074	599.06
529.289	632.06
529.503	745.06
529.718	746.06
529.933	669.06
530.148	616.06
530.363	602.06
530.577	617.06
530.792	595.06
531.007	615.06
531.221	584.06
531.436	581.06
531.651	571.06
531.865	576.06
532.08	571.06
532.295	566.06
532.509	575.06
532.724	579.06
532.938	574.06
533.153	558.06
533.367	576.06
533.582	573.06
533.796	552.06
534.011	564.06
534.225	572.06
534.44	536.06
534.654	564.06
534.868	564.06
535.083	554.06
535.297	564.06
535.511	566.06
535.726	580.06
535.94	569.06
536.154	575.06
536.369	552.06
536.583	538.06
536.797	521.06
537.011	550.06
537.225	574.06
537.44	554.06
537.654	544.06
537.868	524.06
538.082	561.06
538.296	542.06
538.51	518.06
538.724	560.06
538.938	549.06
539.153	550.06
539.367	559.06
539.581	574.06
539.795	544.06
540.009	542.06
540.222	535.06
540.436	556.06
540.65	549.06
540.864	549.06
541.078	559.06
541.292	555.06
541.506	528.06
541.72	569.06
541.934	529.06
542.147	552.06
542.361	560.06
542.575	543.06
542.789	529.06
543.002	536.06
543.216	530.06
543.43	551.06
543.644	548.06
543.857	528.06
544.071	540.06
544.285	567.06
544.498	512.06
544.712	546.06
544.925	552.06
545.139	536.06
545.352	509.06
545.566	530.06
545.779	510.06
545.993	531.06
546.206	514.06
546.42	548.06
546.633	520.06
546.847	522.06
547.06	494.06
547.274	500.06
547.487	552.06
547.7	521.06
547.914	520.06
548.127	512.06
548.34	533.06
548.554	517.06
548.767	494.06
548.98	508.06
549.193	508.06
549.407	500.06
549.62	512.06
549.833	525.06
550.046	506.06
550.259	507.06
550.473	480.06
550.686	497.06
550.899	491.06
551.112	483.06
551.325	497.06
551.538	481.06
551.751	493.06
551.964	493.06
552.177	478.06
552.39	487.06
552.603	503.06
552.816	490.06
553.029	504.06
553.242	498.06
553.455	516.06
553.667	510.06
553.88	556.06
554.093	540.06
554.306	503.06
554.519	501.06
554.732	500.06
554.944	488.06
555.157	486.06
555.37	462.06
555.583	506.06
555.795	501.06
556.008	473.06
556.221	480.06
556.433	462.06
556.646	493.06
556.859	469.06
557.071	461.06
557.284	447.06
557.496	473.06
557.709	462.06
557.921	460.06
558.134	464.06
558.346	481.06
558.559	460.06
558.771	424.06
558.984	458.06
559.196	449.06
559.409	452.06
559.621	464.06
559.833	438.06
560.046	433.06
560.258	460.06
560.47	474.06
560.683	456.06
560.895	438.06
561.107	453.06
561.32	446.06
561.532	434.06
561.744	458.06
561.956	454.06
562.168	456.06
562.381	462.06
562.593	450.06
562.805	451.06
563.017	454.06
563.229	449.06
563.441	455.06
563.653	461.06
563.865	453.06
564.077	433.06
564.289	469.06
564.501	463.06
564.713	473.06
564.925	474.06
565.137	478.06
565.349	489.06
565.561	481.06
565.773	479.06
565.985	469.06
566.197	455.06
566.408	498.06
566.62	518.06
566.832	502.06
567.044	514.06
567.255	480.06
567.467	492.06
567.679	496.06
567.891	534.06
568.102	520.06
568.314	538.06
568.526	496.06
568.737	468.06
568.949	481.06
569.161	421.06
569.372	452.06
569.584	463.06
569.795	482.06
570.007	449.06
570.218	509.06
570.43	477.06
570.641	446.06
570.853	426.06
571.064	417.06
571.276	402.06
571.487	428.06
571.698	409.06
571.91	408.06
572.121	409.06
572.333	407.06
572.544	409.06
572.755	413.06
572.966	405.06
573.178	366.06
573.389	390.06
573.6	402.06
573.811	396.06
574.023	392.06
574.234	375.06
574.445	399.06
574.656	384.06
574.867	382.06
575.078	368.06
575.289	382.06
575.501	380.06
575.712	383.06
575.923	362.06
576.134	385.06
576.345	356.06
576.556	390.06
576.767	374.06
576.978	398.06
577.188	369.06
577.399	396.06
577.61	376.06
577.821	374.06
578.032	378.06
578.243	423.06
578.454	742.06
578.665	543.06
578.875	397.06
579.086	382.06
579.297	373.06
579.508	368.06
579.718	361.06
579.929	364.06
580.14	344.06
580.35	344.06
580.561	339.06
580.772	363.06
580.982	345.06
581.193	337.06
581.403	354.06
581.614	364.06
581.825	357.06
582.035	338.06
582.246	346.06
582.456	340.06
582.667	354.06
582.877	331.06
583.087	350.06
583.298	366.06
583.508	356.06
583.719	346.06
583.929	374.06
584.139	355.06
584.35	331.06
584.56	338.06
584.77	334.06
584.981	342.06
585.191	345.06
585.401	341.06
585.611	342.06
585.821	366.06
586.032	345.06
586.242	336.06
586.452	335.06
586.662	330.06
586.872	336.06
587.082	351.06
587.292	335.06
587.502	326.06
587.713	330.06
587.923	315.06
588.133	327.06
588.343	324.06
588.553	318.06
588.762	316.06
588.972	344.06
589.182	325.06
589.392	351.06
589.602	333.06
589.812	327.06
590.022	329.06
590.232	318.06
590.441	336.06
590.651	329.06
590.861	333.06
591.071	326.06
591.281	322.06
591.49	342.06
591.7	328.06
591.91	344.06
592.119	337.06
592.329	320.06
592.539	342.06
592.748	335.06
592.958	338.06
593.167	336.06
593.377	340.06
593.587	359.06
593.796	342.06
594.006	330.06
594.215	318.06
594.424	355.06
594.634	341.06
594.843	332.06
595.053	335.06
595.262	332.06
595.472	334.06
595.681	308.06
595.89	302.06
596.1	318.06
596.309	299.06
596.518	317.06
596.727	311.06
596.937	326.06
597.146	303.06
597.355	317.06
597.564	306.06
597.774	319.06
597.983	285.06
598.192	306.06
598.401	292.06
598.61	304.06
598.819	309.06
599.028	294.06
599.237	284.06
599.446	292.06
599.655	295.06
599.864	292.06
600.073	292.06
600.282	286.06
600.491	293.06
600.7	284.06
600.909	300.06
601.118	287.06
601.327	279.06
601.536	284.06
601.745	295.06
601.953	300.06
602.162	287.06
602.371	309.06
602.58	291.06
602.789	293.06
602.997	293.06
603.206	281.06
603.415	293.06
603.623	286.06
603.832	284.06
604.041	293.06
604.249	275.06
604.458	289.06
604.666	285.06
604.875	277.06
605.084	257.06
605.292	280.06
605.501	286.06
605.709	264.06
605.918	278.06
606.126	292.06
606.334	288.06
606.543	292.06
606.751	290.06
606.96	271.06
607.168	272.06
607.376	271.06
607.585	273.06
607.793	270.06
608.001	279.06
608.21	296.06
608.418	272.06
608.626	273.06
608.834	281.06
609.043	292.06
609.251	284.06
609.459	285.06
609.667	260.06
609.875	286.06
610.083	281.06
610.291	260.06
610.499	282.06
610.707	272.06
610.916	298.06
611.124	284.06
611.332	281.06
611.54	274.06
611.748	290.06
611.955	267.06
612.163	280.06
612.371	277.06
612.579	274.06
612.787	269.06
612.995	258.06
613.203	271.06
613.411	279.06
613.618	284.06
613.826	267.06
614.034	284.06
614.242	296.06
614.449	266.06
614.657	285.06
614.865	260.06
615.072	260.06
615.28	281.06
615.488	264.06
615.695	232.06
615.903	276.06
616.111	255.06
616.318	280.06
616.526	270.06
616.733	276.06
616.941	256.06
617.148	268.06
617.356	280.06
617.563	268.06
617.771	284.06
617.978	274.06
618.185	276.06
618.393	269.06
618.6	264.06
618.807	272.06
619.015	249.06
619.222	265.06
619.429	263.06
619.637	249.06
619.844	265.06
620.051	242.06
620.258	248.06
620.466	244.06
620.673	250.06
620.88	263.06
621.087	252.06
621.294	261.06
621.501	251.06
621.708	262.06
621.915	252.06
622.122	263.06
622.329	274.06
622.536	265.06
622.743	249.06
622.95	260.06
623.157	240.06
623.364	262.06
623.571	248.06
623.778	239.06
623.985	251.06
624.192	232.06
624.399	243.06
624.606	255.06
624.812	259.06
625.019	251.06
625.226	237.06
625.433	224.06
625.639	232.06
625.846	234.06
626.053	217.06
626.259	216.06
626.466	239.06
626.673	234.06
626.879	219.06
627.086	235.06
627.293	237.06
627.499	225.06
627.706	233.06
627.912	229.06
628.119	232.06
628.325	239.06
628.532	238.06
628.738	233.06
628.945	250.06
629.151	249.06
629.357	219.06
629.564	208.06
629.77	208.06
629.976	229.06
630.183	221.06
630.389	224.06
630.595	219.06
630.802	212.06
631.008	236.06
631.214	213.06
631.42	216.06
631.627	218.06
631.833	230.06
632.039	217.06
632.245	219.06
632.451	220.06
632.657	219.06
632.863	207.06
633.069	224.06
633.275	194.06
633.481	220.06
633.688	214.06
633.893	223.06
634.099	213.06
634.305	212.06
634.511	212.06
634.717	213.06
634.923	198.06
635.129	219.06
635.335	203.06
635.541	207.06
635.747	210.06
635.952	201.06
636.158	199.06
636.364	226.06
636.57	228.06
636.775	184.06
636.981	211.06
637.187	216.06
637.392	209.06
637.598	201.06
637.804	203.06
638.009	206.06
638.215	208.06
638.421	209.06
638.626	205.06
638.832	206.06
639.037	191.06
639.243	188.06
639.448	213.06
639.654	206.06
639.859	197.06
640.065	203.06
640.27	187.06
640.475	192.06
640.681	192.06
640.886	188.06
641.091	181.06
641.297	199.06
641.502	186.06
641.707	199.06
641.913	190.06
642.118	190.06
642.323	200.06
642.528	188.06
642.733	200.06
642.939	175.06
643.144	203.06
643.349	202.06
643.554	192.06
643.759	182.06
643.964	165.06
644.169	176.06
644.374	174.06
644.579	176.06
644.784	185.06
644.989	207.06
645.194	178.06
645.399	184.06
645.604	198.06
645.809	195.06
646.014	186.06
646.219	184.06
646.423	179.06
646.628	188.06
646.833	181.06
647.038	178.06
647.243	197.06
647.447	176.06
647.652	169.06
647.857	192.06
648.062	184.06
648.266	176.06
648.471	172.06
648.676	188.06
648.88	189.06
649.085	194.06
649.289	190.06
649.494	197.06
649.698	209.06
649.903	213.06
650.107	202.06
650.312	192.06
650.516	172.06
650.721	181.06
650.925	170.06
651.13	162.06
651.334	171.06
651.539	162.06
651.743	173.06
651.947	178.06
652.152	157.06
652.356	165.06
652.56	156.06
652.764	166.06
652.969	156.06
653.173	166.06
653.377	150.06
653.581	143.06
653.785	156.06
653.99	149.06
654.194	156.06
654.398	173.06
654.602	144.06
654.806	149.06
655.01	160.06
655.214	152.06
655.418	144.06
655.622	129.06
655.826	134.06
656.03	152.06
656.234	142.06
656.438	138.06
656.642	134.06
656.846	134.06
657.049	127.06
657.253	136.06
657.457	134.06
657.661	117.06
657.865	144.06
658.068	113.06
658.272	105.06
658.476	102.06
658.68	121.06
658.883	118.06
659.087	127.06
659.291	114.06
659.494	93.06
659.698	86.06
659.901	111.06
660.105	116.06
660.309	110.06
660.512	96.06
660.716	93.06
660.919	95.06
661.123	101.06
661.326	105.06
661.53	102.06
661.733	86.06
661.936	80.06
662.14	86.06
662.343	79.06
662.546	92.06
662.75	94.06
662.953	104.06
663.156	106.06
663.36	96.06
663.563	91.06
663.766	103.06
663.969	88.06
664.173	64.06
664.376	73.06
664.579	77.06
664.782	87.06
664.985	74.06
665.188	93.06
665.391	80.06
665.594	96.06
665.797	92.06
666	78.06
666.203	78.06
666.406	79.06
666.609	97.06
666.812	91.06
667.015	96.06
667.218	76.06
667.421	81.06
667.624	78.06
667.827	84.06
668.03	79.06
668.232	72.06
668.435	85.06
668.638	85.06
668.841	77.06
669.043	79.06
669.246	88.06
669.449	81.06
669.651	94.06
669.854	65.06
670.057	90.06
670.259	88.06
670.462	85.06
670.665	94.06
670.867	89.06
671.07	86.06
671.272	90.06
671.475	101.06
671.677	94.06
671.88	97.06
672.082	93.06
672.284	92.06
672.487	83.06
672.689	80.06
672.892	87.06
