Data from 1971.PennyLincolnUp.Lamp.En5.5.200Scan.071719.P1.Scan 2. Changed Angle._HRD10591_15-24-13-842.txt Node
Date: Thu Jul 18 15:24:13 EDT 2019
User: cochatt
Spectrometer: HR+D1059
Trigger mode: 1
Integration Time (sec): 1.000000E-1
Scans to average: 1
Electric dark correction enabled: true
Nonlinearity correction enabled: false
Boxcar width: 0
XAxis mode: Wavelengths
Number of Pixels in Spectrum: 2048
>>>>>Begin Spectral Data<<<<<
223.165	-7.94
223.4	-7.94
223.635	-7.94
223.869	-30.94
224.104	-12.94
224.338	-12.94
224.573	-20.94
224.808	-2.94
225.042	-23.94
225.277	0.06
225.511	3.06
225.746	-8.94
225.98	7.06
226.215	21.06
226.449	26.06
226.683	20.06
226.918	31.06
227.152	13.06
227.387	37.06
227.621	31.06
227.856	42.06
228.09	56.06
228.324	41.06
228.559	64.06
228.793	79.06
229.027	114.06
229.262	115.06
229.496	140.06
229.73	154.06
229.964	188.06
230.199	162.06
230.433	136.06
230.667	118.06
230.901	125.06
231.136	134.06
231.37	116.06
231.604	135.06
231.838	119.06
232.072	124.06
232.306	126.06
232.541	122.06
232.775	125.06
233.009	127.06
233.243	118.06
233.477	121.06
233.711	140.06
233.945	141.06
234.179	122.06
234.413	128.06
234.647	122.06
234.881	123.06
235.115	142.06
235.349	126.06
235.583	126.06
235.817	142.06
236.051	127.06
236.285	128.06
236.519	147.06
236.753	140.06
236.987	156.06
237.221	207.06
237.455	280.06
237.689	207.06
237.922	170.06
238.156	156.06
238.39	155.06
238.624	144.06
238.858	127.06
239.091	127.06
239.325	142.06
239.559	148.06
239.793	145.06
240.027	149.06
240.26	166.06
240.494	178.06
240.728	158.06
240.961	167.06
241.195	152.06
241.429	154.06
241.662	142.06
241.896	151.06
242.13	132.06
242.363	138.06
242.597	148.06
242.83	144.06
243.064	158.06
243.298	164.06
243.531	161.06
243.765	151.06
243.998	148.06
244.232	154.06
244.465	151.06
244.699	156.06
244.932	151.06
245.166	159.06
245.399	154.06
245.633	161.06
245.866	152.06
246.099	162.06
246.333	162.06
246.566	160.06
246.8	157.06
247.033	168.06
247.266	172.06
247.5	179.06
247.733	198.06
247.966	195.06
248.2	181.06
248.433	183.06
248.666	198.06
248.899	203.06
249.133	208.06
249.366	237.06
249.599	214.06
249.832	212.06
250.066	213.06
250.299	189.06
250.532	201.06
250.765	221.06
250.998	258.06
251.231	268.06
251.465	253.06
251.698	227.06
251.931	201.06
252.164	223.06
252.397	226.06
252.63	230.06
252.863	231.06
253.096	233.06
253.329	249.06
253.562	254.06
253.795	227.06
254.028	251.06
254.261	251.06
254.494	266.06
254.727	308.06
254.96	310.06
255.193	312.06
255.426	286.06
255.659	259.06
255.892	260.06
256.124	251.06
256.357	239.06
256.59	240.06
256.823	240.06
257.056	237.06
257.289	212.06
257.521	242.06
257.754	224.06
257.987	232.06
258.22	233.06
258.452	227.06
258.685	232.06
258.918	216.06
259.151	220.06
259.383	232.06
259.616	237.06
259.849	248.06
260.081	253.06
260.314	286.06
260.547	301.06
260.779	275.06
261.012	251.06
261.244	237.06
261.477	254.06
261.71	230.06
261.942	244.06
262.175	259.06
262.407	238.06
262.64	239.06
262.872	233.06
263.105	221.06
263.337	234.06
263.57	228.06
263.802	238.06
264.035	213.06
264.267	202.06
264.499	221.06
264.732	210.06
264.964	233.06
265.197	224.06
265.429	213.06
265.661	230.06
265.894	225.06
266.126	239.06
266.358	219.06
266.591	220.06
266.823	224.06
267.055	223.06
267.287	227.06
267.52	246.06
267.752	228.06
267.984	233.06
268.216	238.06
268.448	239.06
268.681	252.06
268.913	247.06
269.145	263.06
269.377	294.06
269.609	279.06
269.841	306.06
270.073	310.06
270.306	303.06
270.538	342.06
270.77	351.06
271.002	347.06
271.234	311.06
271.466	316.06
271.698	337.06
271.93	347.06
272.162	352.06
272.394	349.06
272.626	323.06
272.858	328.06
273.09	301.06
273.322	302.06
273.553	296.06
273.785	284.06
274.017	286.06
274.249	278.06
274.481	268.06
274.713	274.06
274.945	290.06
275.176	273.06
275.408	278.06
275.64	283.06
275.872	266.06
276.104	283.06
276.335	288.06
276.567	278.06
276.799	294.06
277.031	319.06
277.262	338.06
277.494	342.06
277.726	299.06
277.957	301.06
278.189	287.06
278.421	278.06
278.652	284.06
278.884	290.06
279.115	266.06
279.347	290.06
279.579	278.06
279.81	265.06
280.042	271.06
280.273	290.06
280.505	273.06
280.736	284.06
280.968	264.06
281.199	262.06
281.431	285.06
281.662	275.06
281.894	259.06
282.125	274.06
282.356	302.06
282.588	336.06
282.819	327.06
283.051	295.06
283.282	270.06
283.513	275.06
283.745	265.06
283.976	266.06
284.207	290.06
284.439	291.06
284.67	281.06
284.901	284.06
285.132	279.06
285.364	271.06
285.595	272.06
285.826	283.06
286.057	260.06
286.288	267.06
286.52	272.06
286.751	258.06
286.982	260.06
287.213	278.06
287.444	291.06
287.675	285.06
287.906	288.06
288.138	300.06
288.369	302.06
288.6	322.06
288.831	297.06
289.062	294.06
289.293	293.06
289.524	293.06
289.755	286.06
289.986	278.06
290.217	279.06
290.448	286.06
290.679	275.06
290.91	293.06
291.141	286.06
291.371	284.06
291.602	271.06
291.833	276.06
292.064	294.06
292.295	285.06
292.526	285.06
292.757	318.06
292.987	294.06
293.218	285.06
293.449	294.06
293.68	288.06
293.91	265.06
294.141	272.06
294.372	254.06
294.603	269.06
294.833	287.06
295.064	278.06
295.295	284.06
295.525	281.06
295.756	300.06
295.987	309.06
296.217	334.06
296.448	339.06
296.679	316.06
296.909	307.06
297.14	304.06
297.37	306.06
297.601	294.06
297.831	299.06
298.062	300.06
298.292	277.06
298.523	284.06
298.753	309.06
298.984	300.06
299.214	320.06
299.445	313.06
299.675	294.06
299.905	304.06
300.136	318.06
300.366	299.06
300.597	322.06
300.827	338.06
301.057	325.06
301.288	322.06
301.518	336.06
301.748	310.06
301.979	310.06
302.209	326.06
302.439	316.06
302.669	310.06
302.9	327.06
303.13	306.06
303.36	317.06
303.59	320.06
303.82	323.06
304.051	342.06
304.281	329.06
304.511	327.06
304.741	314.06
304.971	314.06
305.201	300.06
305.431	315.06
305.661	315.06
305.891	332.06
306.121	325.06
306.352	315.06
306.582	340.06
306.812	334.06
307.042	324.06
307.272	334.06
307.502	330.06
307.731	356.06
307.961	335.06
308.191	332.06
308.421	344.06
308.651	350.06
308.881	356.06
309.111	336.06
309.341	364.06
309.571	353.06
309.8	365.06
310.03	379.06
310.26	425.06
310.49	380.06
310.72	411.06
310.949	391.06
311.179	425.06
311.409	406.06
311.639	386.06
311.868	393.06
312.098	408.06
312.328	401.06
312.557	416.06
312.787	451.06
313.017	446.06
313.246	412.06
313.476	390.06
313.706	377.06
313.935	398.06
314.165	413.06
314.394	438.06
314.624	404.06
314.853	410.06
315.083	410.06
315.312	387.06
315.542	382.06
315.771	382.06
316.001	378.06
316.23	384.06
316.46	379.06
316.689	377.06
316.919	365.06
317.148	397.06
317.377	408.06
317.607	415.06
317.836	400.06
318.065	383.06
318.295	377.06
318.524	381.06
318.753	373.06
318.983	376.06
319.212	382.06
319.441	392.06
319.67	401.06
319.9	398.06
320.129	381.06
320.358	386.06
320.587	404.06
320.816	387.06
321.046	439.06
321.275	401.06
321.504	419.06
321.733	431.06
321.962	434.06
322.191	461.06
322.42	450.06
322.649	506.06
322.878	503.06
323.108	506.06
323.337	553.06
323.566	570.06
323.795	612.06
324.024	660.06
324.253	870.06
324.482	1242.06
324.71	1991.06
324.939	2829.06
325.168	2403.06
325.397	1248.06
325.626	807.06
325.855	639.06
326.084	590.06
326.313	551.06
326.542	585.06
326.77	654.06
326.999	777.06
327.228	1114.06
327.457	1692.06
327.686	2076.06
327.914	1394.06
328.143	900.06
328.372	779.06
328.6	698.06
328.829	664.06
329.058	684.06
329.287	696.06
329.515	642.06
329.744	575.06
329.972	558.06
330.201	592.06
330.43	678.06
330.658	701.06
330.887	733.06
331.115	700.06
331.344	572.06
331.572	533.06
331.801	549.06
332.03	537.06
332.258	510.06
332.486	474.06
332.715	478.06
332.943	453.06
333.172	493.06
333.4	462.06
333.629	480.06
333.857	508.06
334.085	505.06
334.314	518.06
334.542	562.06
334.771	581.06
334.999	538.06
335.227	488.06
335.455	472.06
335.684	460.06
335.912	454.06
336.14	469.06
336.369	439.06
336.597	462.06
336.825	469.06
337.053	447.06
337.281	436.06
337.51	439.06
337.738	468.06
337.966	445.06
338.194	438.06
338.422	484.06
338.65	454.06
338.878	432.06
339.106	429.06
339.334	440.06
339.562	442.06
339.79	442.06
340.018	438.06
340.246	453.06
340.474	451.06
340.702	430.06
340.93	429.06
341.158	442.06
341.386	446.06
341.614	467.06
341.842	432.06
342.07	417.06
342.298	430.06
342.526	426.06
342.754	434.06
342.981	424.06
343.209	412.06
343.437	442.06
343.665	426.06
343.893	456.06
344.12	442.06
344.348	444.06
344.576	462.06
344.804	434.06
345.031	479.06
345.259	486.06
345.487	465.06
345.714	457.06
345.942	448.06
346.17	450.06
346.397	436.06
346.625	446.06
346.853	435.06
347.08	427.06
347.308	450.06
347.535	476.06
347.763	461.06
347.99	478.06
348.218	462.06
348.445	450.06
348.673	453.06
348.9	459.06
349.128	421.06
349.355	428.06
349.583	417.06
349.81	443.06
350.037	425.06
350.265	417.06
350.492	425.06
350.72	422.06
350.947	412.06
351.174	437.06
351.402	452.06
351.629	449.06
351.856	456.06
352.083	447.06
352.311	471.06
352.538	490.06
352.765	479.06
352.992	447.06
353.22	472.06
353.447	462.06
353.674	435.06
353.901	432.06
354.128	422.06
354.355	402.06
354.583	414.06
354.81	411.06
355.037	400.06
355.264	423.06
355.491	393.06
355.718	390.06
355.945	408.06
356.172	404.06
356.399	414.06
356.626	407.06
356.853	416.06
357.08	387.06
357.307	402.06
357.534	392.06
357.761	398.06
357.988	416.06
358.215	390.06
358.441	394.06
358.668	396.06
358.895	397.06
359.122	421.06
359.349	442.06
359.576	451.06
359.802	484.06
360.029	512.06
360.256	529.06
360.483	482.06
360.709	459.06
360.936	465.06
361.163	466.06
361.39	451.06
361.616	441.06
361.843	454.06
362.07	464.06
362.296	463.06
362.523	460.06
362.749	447.06
362.976	456.06
363.203	455.06
363.429	419.06
363.656	423.06
363.882	434.06
364.109	425.06
364.335	416.06
364.562	424.06
364.788	421.06
365.015	425.06
365.241	429.06
365.468	446.06
365.694	438.06
365.92	450.06
366.147	421.06
366.373	422.06
366.599	421.06
366.826	400.06
367.052	423.06
367.278	410.06
367.505	418.06
367.731	423.06
367.957	407.06
368.184	422.06
368.41	418.06
368.636	430.06
368.862	455.06
369.089	446.06
369.315	416.06
369.541	434.06
369.767	414.06
369.993	421.06
370.219	423.06
370.445	420.06
370.672	407.06
370.898	423.06
371.124	397.06
371.35	419.06
371.576	430.06
371.802	419.06
372.028	388.06
372.254	396.06
372.48	403.06
372.706	436.06
372.932	410.06
373.158	404.06
373.384	411.06
373.61	423.06
373.835	427.06
374.061	430.06
374.287	419.06
374.513	438.06
374.739	434.06
374.965	433.06
375.191	425.06
375.416	418.06
375.642	389.06
375.868	431.06
376.094	406.06
376.319	406.06
376.545	418.06
376.771	413.06
376.997	406.06
377.222	412.06
377.448	404.06
377.674	412.06
377.899	404.06
378.125	410.06
378.35	422.06
378.576	408.06
378.802	389.06
379.027	406.06
379.253	414.06
379.478	441.06
379.704	406.06
379.929	434.06
380.155	415.06
380.38	428.06
380.606	425.06
380.831	427.06
381.057	428.06
381.282	428.06
381.507	420.06
381.733	419.06
381.958	408.06
382.184	411.06
382.409	424.06
382.634	416.06
382.86	434.06
383.085	434.06
383.31	428.06
383.535	420.06
383.761	423.06
383.986	435.06
384.211	432.06
384.436	427.06
384.662	432.06
384.887	436.06
385.112	431.06
385.337	450.06
385.562	439.06
385.787	477.06
386.013	446.06
386.238	475.06
386.463	455.06
386.688	457.06
386.913	436.06
387.138	445.06
387.363	436.06
387.588	442.06
387.813	467.06
388.038	442.06
388.263	467.06
388.488	460.06
388.713	445.06
388.938	454.06
389.163	439.06
389.387	429.06
389.612	458.06
389.837	456.06
390.062	444.06
390.287	435.06
390.512	443.06
390.736	443.06
390.961	465.06
391.186	428.06
391.411	439.06
391.636	460.06
391.86	479.06
392.085	475.06
392.31	463.06
392.534	436.06
392.759	457.06
392.984	447.06
393.208	446.06
393.433	454.06
393.658	470.06
393.882	474.06
394.107	463.06
394.331	457.06
394.556	472.06
394.78	461.06
395.005	453.06
395.229	462.06
395.454	463.06
395.678	479.06
395.903	476.06
396.127	484.06
396.352	512.06
396.576	470.06
396.801	488.06
397.025	483.06
397.249	461.06
397.474	485.06
397.698	500.06
397.922	497.06
398.147	527.06
398.371	524.06
398.595	487.06
398.82	489.06
399.044	500.06
399.268	524.06
399.492	541.06
399.717	576.06
399.941	589.06
400.165	623.06
400.389	627.06
400.613	577.06
400.837	523.06
401.062	538.06
401.286	540.06
401.51	519.06
401.734	488.06
401.958	530.06
402.182	514.06
402.406	568.06
402.63	551.06
402.854	549.06
403.078	538.06
403.302	541.06
403.526	540.06
403.75	546.06
403.974	548.06
404.198	528.06
404.422	515.06
404.645	547.06
404.869	548.06
405.093	582.06
405.317	629.06
405.541	655.06
405.765	643.06
405.988	589.06
406.212	614.06
406.436	596.06
406.66	630.06
406.883	587.06
407.107	617.06
407.331	693.06
407.555	742.06
407.778	726.06
408.002	654.06
408.226	626.06
408.449	600.06
408.673	608.06
408.896	651.06
409.12	680.06
409.344	645.06
409.567	573.06
409.791	570.06
410.014	533.06
410.238	564.06
410.461	537.06
410.685	554.06
410.908	574.06
411.132	616.06
411.355	644.06
411.578	643.06
411.802	568.06
412.025	555.06
412.249	551.06
412.472	578.06
412.695	634.06
412.919	615.06
413.142	572.06
413.365	558.06
413.589	544.06
413.812	524.06
414.035	522.06
414.258	535.06
414.482	522.06
414.705	502.06
414.928	539.06
415.151	518.06
415.374	509.06
415.597	499.06
415.821	516.06
416.044	495.06
416.267	526.06
416.49	503.06
416.713	500.06
416.936	522.06
417.159	530.06
417.382	527.06
417.605	532.06
417.828	534.06
418.051	540.06
418.274	551.06
418.497	539.06
418.72	527.06
418.943	523.06
419.166	553.06
419.389	558.06
419.611	576.06
419.834	548.06
420.057	566.06
420.28	584.06
420.503	535.06
420.726	557.06
420.948	595.06
421.171	639.06
421.394	634.06
421.617	576.06
421.839	594.06
422.062	577.06
422.285	568.06
422.507	654.06
422.73	717.06
422.953	697.06
423.175	626.06
423.398	599.06
423.621	591.06
423.843	635.06
424.066	613.06
424.288	600.06
424.511	638.06
424.733	723.06
424.956	788.06
425.178	760.06
425.401	756.06
425.623	783.06
425.846	665.06
426.068	605.06
426.291	597.06
426.513	624.06
426.735	652.06
426.958	664.06
427.18	774.06
427.402	932.06
427.625	991.06
427.847	938.06
428.069	797.06
428.292	691.06
428.514	632.06
428.736	596.06
428.958	592.06
429.181	585.06
429.403	594.06
429.625	579.06
429.847	626.06
430.069	703.06
430.292	720.06
430.514	592.06
430.736	579.06
430.958	559.06
431.18	543.06
431.402	536.06
431.624	560.06
431.846	513.06
432.068	520.06
432.29	525.06
432.512	533.06
432.734	558.06
432.956	583.06
433.178	562.06
433.4	562.06
433.622	549.06
433.844	548.06
434.066	520.06
434.287	529.06
434.509	545.06
434.731	575.06
434.953	565.06
435.175	593.06
435.397	586.06
435.618	620.06
435.84	671.06
436.062	794.06
436.284	849.06
436.505	727.06
436.727	649.06
436.949	614.06
437.17	591.06
437.392	600.06
437.614	588.06
437.835	669.06
438.057	783.06
438.278	876.06
438.5	874.06
438.721	944.06
438.943	889.06
439.165	739.06
439.386	658.06
439.608	645.06
439.829	652.06
440.05	700.06
440.272	752.06
440.493	704.06
440.715	630.06
440.936	627.06
441.158	607.06
441.379	626.06
441.6	607.06
441.822	632.06
442.043	684.06
442.264	790.06
442.486	807.06
442.707	722.06
442.928	663.06
443.149	668.06
443.371	681.06
443.592	729.06
443.813	825.06
444.034	909.06
444.255	734.06
444.476	648.06
444.698	636.06
444.919	606.06
445.14	712.06
445.361	700.06
445.582	684.06
445.803	764.06
446.024	876.06
446.245	882.06
446.466	828.06
446.687	696.06
446.908	635.06
447.129	594.06
447.35	608.06
447.571	588.06
447.792	553.06
448.013	582.06
448.234	608.06
448.455	680.06
448.675	780.06
448.896	922.06
449.117	804.06
449.338	727.06
449.559	856.06
449.779	967.06
450	810.06
450.221	655.06
450.442	593.06
450.662	586.06
450.883	591.06
451.104	617.06
451.324	602.06
451.545	580.06
451.766	566.06
451.986	527.06
452.207	538.06
452.428	515.06
452.648	528.06
452.869	523.06
453.089	528.06
453.31	565.06
453.53	539.06
453.751	530.06
453.971	539.06
454.192	572.06
454.412	548.06
454.633	557.06
454.853	525.06
455.073	517.06
455.294	598.06
455.514	627.06
455.734	615.06
455.955	546.06
456.175	512.06
456.395	480.06
456.616	475.06
456.836	453.06
457.056	461.06
457.276	463.06
457.497	478.06
457.717	477.06
457.937	515.06
458.157	495.06
458.377	515.06
458.598	553.06
458.818	612.06
459.038	742.06
459.258	736.06
459.478	602.06
459.698	594.06
459.918	571.06
460.138	531.06
460.358	531.06
460.578	503.06
460.798	536.06
461.018	525.06
461.238	551.06
461.458	516.06
461.678	503.06
461.898	533.06
462.118	548.06
462.338	551.06
462.558	544.06
462.777	542.06
462.997	536.06
463.217	542.06
463.437	573.06
463.657	536.06
463.876	536.06
464.096	559.06
464.316	549.06
464.536	577.06
464.755	589.06
464.975	574.06
465.195	642.06
465.414	780.06
465.634	673.06
465.854	612.06
466.073	569.06
466.293	564.06
466.512	551.06
466.732	551.06
466.951	543.06
467.171	529.06
467.391	518.06
467.61	569.06
467.829	583.06
468.049	566.06
468.268	546.06
468.488	528.06
468.707	510.06
468.927	540.06
469.146	503.06
469.365	518.06
469.585	525.06
469.804	522.06
470.023	542.06
470.243	531.06
470.462	548.06
470.681	556.06
470.901	568.06
471.12	567.06
471.339	555.06
471.558	550.06
471.777	566.06
471.997	562.06
472.216	538.06
472.435	569.06
472.654	580.06
472.873	574.06
473.092	542.06
473.311	538.06
473.53	553.06
473.749	568.06
473.968	600.06
474.187	719.06
474.406	772.06
474.625	617.06
474.844	569.06
475.063	552.06
475.282	566.06
475.501	559.06
475.72	548.06
475.939	566.06
476.158	571.06
476.377	568.06
476.596	556.06
476.814	591.06
477.033	576.06
477.252	566.06
477.471	564.06
477.69	584.06
477.908	578.06
478.127	597.06
478.346	604.06
478.564	590.06
478.783	589.06
479.002	602.06
479.22	626.06
479.439	598.06
479.658	663.06
479.876	668.06
480.095	647.06
480.313	684.06
480.532	667.06
480.751	667.06
480.969	671.06
481.188	780.06
481.406	804.06
481.624	710.06
481.843	650.06
482.061	680.06
482.28	661.06
482.498	635.06
482.717	650.06
482.935	640.06
483.153	652.06
483.372	619.06
483.59	650.06
483.808	644.06
484.027	652.06
484.245	646.06
484.463	649.06
484.681	669.06
484.9	654.06
485.118	665.06
485.336	658.06
485.554	670.06
485.772	654.06
485.99	639.06
486.209	678.06
486.427	669.06
486.645	696.06
486.863	713.06
487.081	726.06
487.299	699.06
487.517	691.06
487.735	698.06
487.953	698.06
488.171	707.06
488.389	707.06
488.607	709.06
488.825	715.06
489.043	717.06
489.261	696.06
489.479	722.06
489.696	717.06
489.914	735.06
490.132	735.06
490.35	726.06
490.568	742.06
490.786	761.06
491.003	774.06
491.221	792.06
491.439	794.06
491.657	826.06
491.874	836.06
492.092	827.06
492.31	839.06
492.527	827.06
492.745	837.06
492.963	845.06
493.18	832.06
493.398	864.06
493.615	846.06
493.833	860.06
494.05	846.06
494.268	847.06
494.485	839.06
494.703	834.06
494.92	837.06
495.138	848.06
495.355	850.06
495.573	844.06
495.79	838.06
496.008	819.06
496.225	853.06
496.442	835.06
496.66	845.06
496.877	837.06
497.094	867.06
497.312	863.06
497.529	875.06
497.746	883.06
497.963	898.06
498.181	892.06
498.398	886.06
498.615	881.06
498.832	913.06
499.049	941.06
499.267	925.06
499.484	929.06
499.701	954.06
499.918	975.06
500.135	986.06
500.352	1003.06
500.569	1038.06
500.786	1034.06
501.003	1034.06
501.22	1014.06
501.437	988.06
501.654	985.06
501.871	1023.06
502.088	958.06
502.305	937.06
502.522	926.06
502.739	892.06
502.956	874.06
503.172	891.06
503.389	868.06
503.606	865.06
503.823	888.06
504.04	845.06
504.256	857.06
504.473	818.06
504.69	826.06
504.907	820.06
505.123	827.06
505.34	828.06
505.557	812.06
505.773	822.06
505.99	821.06
506.207	798.06
506.423	812.06
506.64	833.06
506.856	837.06
507.073	802.06
507.289	813.06
507.506	837.06
507.722	818.06
507.939	850.06
508.155	827.06
508.372	764.06
508.588	822.06
508.805	785.06
509.021	790.06
509.238	816.06
509.454	818.06
509.67	794.06
509.887	791.06
510.103	760.06
510.319	800.06
510.536	935.06
510.752	1609.06
510.968	1300.06
511.184	875.06
511.401	754.06
511.617	778.06
511.833	761.06
512.049	757.06
512.265	741.06
512.481	756.06
512.698	735.06
512.914	732.06
513.13	770.06
513.346	741.06
513.562	730.06
513.778	758.06
513.994	755.06
514.21	778.06
514.426	818.06
514.642	871.06
514.858	918.06
515.074	985.06
515.29	1228.06
515.506	1827.06
515.721	1494.06
515.937	946.06
516.153	856.06
516.369	833.06
516.585	797.06
516.801	747.06
517.016	760.06
517.232	795.06
517.448	771.06
517.664	750.06
517.879	750.06
518.095	757.06
518.311	724.06
518.527	766.06
518.742	759.06
518.958	706.06
519.173	722.06
519.389	766.06
519.605	760.06
519.82	773.06
520.036	778.06
520.251	813.06
520.467	855.06
520.682	862.06
520.898	864.06
521.113	907.06
521.329	962.06
521.544	1123.06
521.76	1442.06
521.975	2460.06
522.19	2387.06
522.406	1276.06
522.621	948.06
522.836	839.06
523.052	786.06
523.267	736.06
523.482	733.06
523.698	701.06
523.913	738.06
524.128	706.06
524.343	698.06
524.559	671.06
524.774	653.06
524.989	665.06
525.204	664.06
525.419	646.06
525.634	650.06
525.849	629.06
526.064	614.06
526.28	613.06
526.495	627.06
526.71	603.06
526.925	601.06
527.14	603.06
527.355	591.06
527.57	619.06
527.785	595.06
527.999	619.06
528.214	609.06
528.429	611.06
528.644	612.06
528.859	595.06
529.074	597.06
529.289	635.06
529.503	770.06
529.718	751.06
529.933	663.06
530.148	635.06
530.363	614.06
530.577	605.06
530.792	559.06
531.007	571.06
531.221	574.06
531.436	586.06
531.651	569.06
531.865	576.06
532.08	588.06
532.295	540.06
532.509	548.06
532.724	576.06
532.938	556.06
533.153	563.06
533.367	554.06
533.582	575.06
533.796	558.06
534.011	571.06
534.225	582.06
534.44	527.06
534.654	559.06
534.868	532.06
535.083	552.06
535.297	578.06
535.511	559.06
535.726	544.06
535.94	568.06
536.154	570.06
536.369	570.06
536.583	564.06
536.797	540.06
537.011	541.06
537.225	558.06
537.44	558.06
537.654	553.06
537.868	522.06
538.082	519.06
538.296	542.06
538.51	541.06
538.724	531.06
538.938	520.06
539.153	556.06
539.367	568.06
539.581	546.06
539.795	543.06
540.009	548.06
540.222	546.06
540.436	539.06
540.65	518.06
540.864	545.06
541.078	564.06
541.292	542.06
541.506	547.06
541.72	564.06
541.934	556.06
542.147	564.06
542.361	525.06
542.575	526.06
542.789	527.06
543.002	529.06
543.216	532.06
543.43	532.06
543.644	518.06
543.857	539.06
544.071	540.06
544.285	520.06
544.498	529.06
544.712	514.06
544.925	519.06
545.139	551.06
545.352	517.06
545.566	526.06
545.779	506.06
545.993	533.06
546.206	517.06
546.42	530.06
546.633	519.06
546.847	522.06
547.06	492.06
547.274	486.06
547.487	496.06
547.7	506.06
547.914	502.06
548.127	502.06
548.34	492.06
548.554	464.06
548.767	491.06
548.98	500.06
549.193	495.06
549.407	517.06
549.62	470.06
549.833	493.06
550.046	494.06
550.259	474.06
550.473	498.06
550.686	496.06
550.899	480.06
551.112	476.06
551.325	477.06
551.538	502.06
551.751	489.06
551.964	508.06
552.177	486.06
552.39	481.06
552.603	483.06
552.816	513.06
553.029	517.06
553.242	511.06
553.455	510.06
553.667	527.06
553.88	538.06
554.093	505.06
554.306	479.06
554.519	522.06
554.732	518.06
554.944	477.06
555.157	475.06
555.37	476.06
555.583	468.06
555.795	485.06
556.008	459.06
556.221	462.06
556.433	477.06
556.646	456.06
556.859	437.06
557.071	457.06
557.284	459.06
557.496	473.06
557.709	472.06
557.921	423.06
558.134	438.06
558.346	453.06
558.559	451.06
558.771	439.06
558.984	475.06
559.196	444.06
559.409	474.06
559.621	468.06
559.833	448.06
560.046	434.06
560.258	444.06
560.47	440.06
560.683	458.06
560.895	438.06
561.107	425.06
561.32	438.06
561.532	441.06
561.744	455.06
561.956	454.06
562.168	443.06
562.381	438.06
562.593	427.06
562.805	443.06
563.017	450.06
563.229	452.06
563.441	441.06
563.653	444.06
563.865	454.06
564.077	462.06
564.289	437.06
564.501	440.06
564.713	442.06
564.925	448.06
565.137	475.06
565.349	482.06
565.561	462.06
565.773	475.06
565.985	479.06
566.197	491.06
566.408	470.06
566.62	477.06
566.832	486.06
567.044	492.06
567.255	483.06
567.467	480.06
567.679	502.06
567.891	520.06
568.102	512.06
568.314	502.06
568.526	486.06
568.737	475.06
568.949	458.06
569.161	463.06
569.372	491.06
569.584	445.06
569.795	444.06
570.007	452.06
570.218	519.06
570.43	488.06
570.641	444.06
570.853	406.06
571.064	416.06
571.276	400.06
571.487	399.06
571.698	403.06
571.91	416.06
572.121	406.06
572.333	406.06
572.544	387.06
572.755	373.06
572.966	382.06
573.178	381.06
573.389	388.06
573.6	377.06
573.811	378.06
574.023	375.06
574.234	367.06
574.445	364.06
574.656	377.06
574.867	377.06
575.078	373.06
575.289	380.06
575.501	382.06
575.712	376.06
575.923	372.06
576.134	392.06
576.345	380.06
576.556	375.06
576.767	366.06
576.978	372.06
577.188	376.06
577.399	366.06
577.61	369.06
577.821	382.06
578.032	357.06
578.243	436.06
578.454	757.06
578.665	543.06
578.875	394.06
579.086	356.06
579.297	375.06
579.508	352.06
579.718	360.06
579.929	368.06
580.14	352.06
580.35	350.06
580.561	363.06
580.772	350.06
580.982	344.06
581.193	350.06
581.403	353.06
581.614	348.06
581.825	355.06
582.035	326.06
582.246	348.06
582.456	348.06
582.667	341.06
582.877	341.06
583.087	327.06
583.298	335.06
583.508	335.06
583.719	345.06
583.929	339.06
584.139	351.06
584.35	330.06
584.56	354.06
584.77	333.06
584.981	335.06
585.191	348.06
585.401	360.06
585.611	351.06
585.821	352.06
586.032	349.06
586.242	331.06
586.452	348.06
586.662	323.06
586.872	321.06
587.082	336.06
587.292	331.06
587.502	312.06
587.713	322.06
587.923	323.06
588.133	343.06
588.343	332.06
588.553	299.06
588.762	302.06
588.972	330.06
589.182	322.06
589.392	326.06
589.602	337.06
589.812	316.06
590.022	332.06
590.232	297.06
590.441	338.06
590.651	299.06
590.861	327.06
591.071	324.06
591.281	313.06
591.49	319.06
591.7	336.06
591.91	345.06
592.119	292.06
592.329	353.06
592.539	347.06
592.748	349.06
592.958	319.06
593.167	320.06
593.377	314.06
593.587	333.06
593.796	315.06
594.006	339.06
594.215	335.06
594.424	328.06
594.634	319.06
594.843	331.06
595.053	351.06
595.262	326.06
595.472	332.06
595.681	320.06
595.89	304.06
596.1	299.06
596.309	299.06
596.518	329.06
596.727	324.06
596.937	295.06
597.146	298.06
597.355	308.06
597.564	302.06
597.774	317.06
597.983	308.06
598.192	299.06
598.401	299.06
598.61	315.06
598.819	314.06
599.028	295.06
599.237	299.06
599.446	309.06
599.655	310.06
599.864	311.06
600.073	288.06
600.282	296.06
600.491	310.06
600.7	299.06
600.909	290.06
601.118	312.06
601.327	303.06
601.536	278.06
601.745	286.06
601.953	302.06
602.162	316.06
602.371	292.06
602.58	285.06
602.789	305.06
602.997	266.06
603.206	279.06
603.415	278.06
603.623	274.06
603.832	263.06
604.041	288.06
604.249	275.06
604.458	278.06
604.666	302.06
604.875	291.06
605.084	282.06
605.292	285.06
605.501	302.06
605.709	296.06
605.918	264.06
606.126	278.06
606.334	288.06
606.543	255.06
606.751	267.06
606.96	266.06
607.168	294.06
607.376	284.06
607.585	295.06
607.793	282.06
608.001	286.06
608.21	277.06
608.418	272.06
608.626	264.06
608.834	282.06
609.043	274.06
609.251	278.06
609.459	263.06
609.667	273.06
609.875	287.06
610.083	275.06
610.291	277.06
610.499	262.06
610.707	282.06
610.916	289.06
611.124	288.06
611.332	289.06
611.54	273.06
611.748	276.06
611.955	272.06
612.163	276.06
612.371	253.06
612.579	271.06
612.787	276.06
612.995	273.06
613.203	274.06
613.411	271.06
613.618	258.06
613.826	260.06
614.034	267.06
614.242	262.06
614.449	279.06
614.657	269.06
614.865	278.06
615.072	257.06
615.28	255.06
615.488	270.06
615.695	277.06
615.903	279.06
616.111	276.06
616.318	279.06
616.526	270.06
616.733	268.06
616.941	272.06
617.148	267.06
617.356	269.06
617.563	272.06
617.771	251.06
617.978	264.06
618.185	251.06
618.393	257.06
618.6	264.06
618.807	254.06
619.015	249.06
619.222	276.06
619.429	254.06
619.637	263.06
619.844	276.06
620.051	259.06
620.258	260.06
620.466	258.06
620.673	240.06
620.88	248.06
621.087	261.06
621.294	238.06
621.501	247.06
621.708	251.06
621.915	254.06
622.122	261.06
622.329	259.06
622.536	245.06
622.743	263.06
622.95	247.06
623.157	247.06
623.364	250.06
623.571	236.06
623.778	266.06
623.985	231.06
624.192	230.06
624.399	252.06
624.606	226.06
624.812	248.06
625.019	252.06
625.226	253.06
625.433	246.06
625.639	255.06
625.846	234.06
626.053	232.06
626.259	233.06
626.466	225.06
626.673	228.06
626.879	219.06
627.086	239.06
627.293	235.06
627.499	219.06
627.706	250.06
627.912	228.06
628.119	247.06
628.325	214.06
628.532	227.06
628.738	245.06
628.945	222.06
629.151	209.06
629.357	219.06
629.564	220.06
629.77	221.06
629.976	229.06
630.183	222.06
630.389	240.06
630.595	217.06
630.802	222.06
631.008	214.06
631.214	216.06
631.42	203.06
631.627	220.06
631.833	207.06
632.039	207.06
632.245	219.06
632.451	208.06
632.657	199.06
632.863	207.06
633.069	220.06
633.275	195.06
633.481	216.06
633.688	211.06
633.893	200.06
634.099	210.06
634.305	200.06
634.511	221.06
634.717	213.06
634.923	216.06
635.129	207.06
635.335	203.06
635.541	205.06
635.747	205.06
635.952	195.06
636.158	198.06
636.364	207.06
636.57	206.06
636.775	211.06
636.981	206.06
637.187	205.06
637.392	204.06
637.598	196.06
637.804	210.06
638.009	187.06
638.215	203.06
638.421	191.06
638.626	199.06
638.832	190.06
639.037	193.06
639.243	182.06
639.448	199.06
639.654	204.06
639.859	214.06
640.065	175.06
640.27	202.06
640.475	209.06
640.681	191.06
640.886	189.06
641.091	202.06
641.297	188.06
641.502	201.06
641.707	205.06
641.913	200.06
642.118	179.06
642.323	187.06
642.528	185.06
642.733	182.06
642.939	183.06
643.144	181.06
643.349	193.06
643.554	187.06
643.759	174.06
643.964	178.06
644.169	191.06
644.374	184.06
644.579	185.06
644.784	174.06
644.989	178.06
645.194	182.06
645.399	184.06
645.604	165.06
645.809	189.06
646.014	172.06
646.219	184.06
646.423	189.06
646.628	181.06
646.833	180.06
647.038	182.06
647.243	198.06
647.447	201.06
647.652	182.06
647.857	164.06
648.062	176.06
648.266	183.06
648.471	196.06
648.676	187.06
648.88	200.06
649.085	188.06
649.289	194.06
649.494	197.06
649.698	209.06
649.903	184.06
650.107	186.06
650.312	168.06
650.516	178.06
650.721	173.06
650.925	158.06
651.13	168.06
651.334	173.06
651.539	176.06
651.743	158.06
651.947	168.06
652.152	170.06
652.356	163.06
652.56	162.06
652.764	170.06
652.969	150.06
653.173	152.06
653.377	135.06
653.581	154.06
653.785	142.06
653.99	139.06
654.194	153.06
654.398	152.06
654.602	151.06
654.806	151.06
655.01	137.06
655.214	150.06
655.418	150.06
655.622	132.06
655.826	144.06
656.03	141.06
656.234	138.06
656.438	136.06
656.642	135.06
656.846	141.06
657.049	143.06
657.253	127.06
657.457	111.06
657.661	121.06
657.865	112.06
658.068	145.06
658.272	96.06
658.476	119.06
658.68	114.06
658.883	114.06
659.087	117.06
659.291	104.06
659.494	112.06
659.698	100.06
659.901	87.06
660.105	117.06
660.309	109.06
660.512	104.06
660.716	114.06
660.919	102.06
661.123	103.06
661.326	90.06
661.53	92.06
661.733	91.06
661.936	99.06
662.14	86.06
662.343	94.06
662.546	82.06
662.75	86.06
662.953	90.06
663.156	65.06
663.36	103.06
663.563	81.06
663.766	86.06
663.969	92.06
664.173	92.06
664.376	70.06
664.579	97.06
664.782	87.06
664.985	78.06
665.188	88.06
665.391	83.06
665.594	102.06
665.797	93.06
666	78.06
666.203	84.06
666.406	86.06
666.609	89.06
666.812	88.06
667.015	85.06
667.218	80.06
667.421	87.06
667.624	91.06
667.827	86.06
668.03	69.06
668.232	79.06
668.435	83.06
668.638	81.06
668.841	90.06
669.043	96.06
669.246	74.06
669.449	87.06
669.651	93.06
669.854	87.06
670.057	86.06
670.259	94.06
670.462	82.06
670.665	83.06
670.867	78.06
671.07	78.06
671.272	82.06
671.475	90.06
671.677	86.06
671.88	81.06
672.082	97.06
672.284	94.06
672.487	74.06
672.689	82.06
672.892	95.06
