Data from 1971.PennyLincolnUp.Lamp.En5.5.200Scan.071719.P1._HRD10591_15-18-24-842.txt Node
Date: Thu Jul 18 15:18:24 EDT 2019
User: cochatt
Spectrometer: HR+D1059
Trigger mode: 1
Integration Time (sec): 1.000000E-1
Scans to average: 1
Electric dark correction enabled: true
Nonlinearity correction enabled: false
Boxcar width: 0
XAxis mode: Wavelengths
Number of Pixels in Spectrum: 2048
>>>>>Begin Spectral Data<<<<<
223.165	-12.31
223.4	-12.31
223.635	-12.31
223.869	-27.31
224.104	-22.31
224.338	-8.31
224.573	9.69
224.808	-6.31
225.042	-5.31
225.277	-12.31
225.511	-5.31
225.746	16.69
225.98	6.69
226.215	1.69
226.449	2.69
226.683	11.69
226.918	23.69
227.152	26.69
227.387	39.69
227.621	53.69
227.856	43.69
228.09	48.69
228.324	53.69
228.559	54.69
228.793	69.69
229.027	91.69
229.262	88.69
229.496	101.69
229.73	112.69
229.964	129.69
230.199	108.69
230.433	103.69
230.667	105.69
230.901	116.69
231.136	110.69
231.37	105.69
231.604	104.69
231.838	107.69
232.072	101.69
232.306	119.69
232.541	115.69
232.775	102.69
233.009	121.69
233.243	120.69
233.477	113.69
233.711	115.69
233.945	105.69
234.179	115.69
234.413	118.69
234.647	115.69
234.881	123.69
235.115	117.69
235.349	114.69
235.583	113.69
235.817	103.69
236.051	115.69
236.285	120.69
236.519	115.69
236.753	123.69
236.987	127.69
237.221	155.69
237.455	197.69
237.689	167.69
237.922	130.69
238.156	128.69
238.39	129.69
238.624	116.69
238.858	111.69
239.091	103.69
239.325	114.69
239.559	123.69
239.793	115.69
240.027	128.69
240.26	127.69
240.494	127.69
240.728	140.69
240.961	151.69
241.195	136.69
241.429	133.69
241.662	133.69
241.896	136.69
242.13	129.69
242.363	123.69
242.597	135.69
242.83	135.69
243.064	123.69
243.298	133.69
243.531	144.69
243.765	146.69
243.998	153.69
244.232	141.69
244.465	140.69
244.699	135.69
244.932	131.69
245.166	150.69
245.399	148.69
245.633	132.69
245.866	143.69
246.099	128.69
246.333	150.69
246.566	150.69
246.8	158.69
247.033	120.69
247.266	151.69
247.5	157.69
247.733	169.69
247.966	173.69
248.2	160.69
248.433	139.69
248.666	163.69
248.899	172.69
249.133	213.69
249.366	214.69
249.599	183.69
249.832	179.69
250.066	176.69
250.299	185.69
250.532	194.69
250.765	195.69
250.998	215.69
251.231	220.69
251.465	216.69
251.698	200.69
251.931	192.69
252.164	192.69
252.397	190.69
252.63	192.69
252.863	195.69
253.096	201.69
253.329	218.69
253.562	220.69
253.795	220.69
254.028	213.69
254.261	207.69
254.494	230.69
254.727	237.69
254.96	258.69
255.193	238.69
255.426	237.69
255.659	225.69
255.892	230.69
256.124	232.69
256.357	226.69
256.59	214.69
256.823	213.69
257.056	195.69
257.289	224.69
257.521	203.69
257.754	205.69
257.987	195.69
258.22	213.69
258.452	215.69
258.685	203.69
258.918	218.69
259.151	217.69
259.383	219.69
259.616	218.69
259.849	208.69
260.081	233.69
260.314	254.69
260.547	252.69
260.779	247.69
261.012	237.69
261.244	217.69
261.477	230.69
261.71	218.69
261.942	209.69
262.175	221.69
262.407	225.69
262.64	215.69
262.872	228.69
263.105	205.69
263.337	204.69
263.57	208.69
263.802	215.69
264.035	197.69
264.267	212.69
264.499	200.69
264.732	202.69
264.964	207.69
265.197	241.69
265.429	217.69
265.661	220.69
265.894	208.69
266.126	220.69
266.358	225.69
266.591	220.69
266.823	224.69
267.055	229.69
267.287	218.69
267.52	216.69
267.752	217.69
267.984	211.69
268.216	235.69
268.448	216.69
268.681	236.69
268.913	252.69
269.145	234.69
269.377	254.69
269.609	263.69
269.841	258.69
270.073	252.69
270.306	290.69
270.538	285.69
270.77	311.69
271.002	282.69
271.234	278.69
271.466	284.69
271.698	299.69
271.93	312.69
272.162	292.69
272.394	303.69
272.626	296.69
272.858	283.69
273.09	272.69
273.322	261.69
273.553	259.69
273.785	254.69
274.017	233.69
274.249	247.69
274.481	273.69
274.713	284.69
274.945	255.69
275.176	251.69
275.408	269.69
275.64	265.69
275.872	260.69
276.104	265.69
276.335	237.69
276.567	258.69
276.799	283.69
277.031	286.69
277.262	298.69
277.494	293.69
277.726	279.69
277.957	283.69
278.189	273.69
278.421	263.69
278.652	267.69
278.884	260.69
279.115	277.69
279.347	261.69
279.579	274.69
279.81	285.69
280.042	254.69
280.273	251.69
280.505	241.69
280.736	255.69
280.968	268.69
281.199	264.69
281.431	268.69
281.662	260.69
281.894	256.69
282.125	273.69
282.356	272.69
282.588	275.69
282.819	281.69
283.051	279.69
283.282	266.69
283.513	279.69
283.745	261.69
283.976	284.69
284.207	279.69
284.439	289.69
284.67	284.69
284.901	277.69
285.132	271.69
285.364	263.69
285.595	280.69
285.826	278.69
286.057	269.69
286.288	275.69
286.52	276.69
286.751	276.69
286.982	264.69
287.213	275.69
287.444	271.69
287.675	292.69
287.906	274.69
288.138	296.69
288.369	279.69
288.6	307.69
288.831	291.69
289.062	279.69
289.293	305.69
289.524	289.69
289.755	282.69
289.986	276.69
290.217	270.69
290.448	279.69
290.679	300.69
290.91	275.69
291.141	273.69
291.371	277.69
291.602	278.69
291.833	273.69
292.064	261.69
292.295	287.69
292.526	296.69
292.757	286.69
292.987	281.69
293.218	258.69
293.449	288.69
293.68	282.69
293.91	305.69
294.141	282.69
294.372	295.69
294.603	277.69
294.833	281.69
295.064	276.69
295.295	270.69
295.525	302.69
295.756	294.69
295.987	295.69
296.217	307.69
296.448	319.69
296.679	294.69
296.909	300.69
297.14	300.69
297.37	304.69
297.601	295.69
297.831	283.69
298.062	307.69
298.292	288.69
298.523	283.69
298.753	318.69
298.984	288.69
299.214	293.69
299.445	306.69
299.675	303.69
299.905	304.69
300.136	301.69
300.366	301.69
300.597	298.69
300.827	318.69
301.057	297.69
301.288	336.69
301.518	302.69
301.748	327.69
301.979	315.69
302.209	309.69
302.439	310.69
302.669	309.69
302.9	305.69
303.13	291.69
303.36	318.69
303.59	333.69
303.82	315.69
304.051	316.69
304.281	332.69
304.511	323.69
304.741	307.69
304.971	311.69
305.201	323.69
305.431	304.69
305.661	331.69
305.891	302.69
306.121	312.69
306.352	321.69
306.582	327.69
306.812	340.69
307.042	331.69
307.272	316.69
307.502	325.69
307.731	313.69
307.961	316.69
308.191	329.69
308.421	329.69
308.651	336.69
308.881	339.69
309.111	341.69
309.341	332.69
309.571	347.69
309.8	335.69
310.03	347.69
310.26	368.69
310.49	356.69
310.72	355.69
310.949	351.69
311.179	371.69
311.409	344.69
311.639	360.69
311.868	346.69
312.098	355.69
312.328	362.69
312.557	363.69
312.787	387.69
313.017	368.69
313.246	364.69
313.476	327.69
313.706	369.69
313.935	373.69
314.165	382.69
314.394	364.69
314.624	391.69
314.853	367.69
315.083	369.69
315.312	353.69
315.542	354.69
315.771	350.69
316.001	338.69
316.23	347.69
316.46	373.69
316.689	365.69
316.919	365.69
317.148	378.69
317.377	375.69
317.607	341.69
317.836	375.69
318.065	348.69
318.295	391.69
318.524	363.69
318.753	348.69
318.983	372.69
319.212	358.69
319.441	366.69
319.67	376.69
319.9	361.69
320.129	355.69
320.358	357.69
320.587	359.69
320.816	381.69
321.046	373.69
321.275	364.69
321.504	365.69
321.733	374.69
321.962	368.69
322.191	391.69
322.42	412.69
322.649	403.69
322.878	423.69
323.108	417.69
323.337	452.69
323.566	451.69
323.795	464.69
324.024	511.69
324.253	616.69
324.482	880.69
324.71	1239.69
324.939	1739.69
325.168	1467.69
325.397	779.69
325.626	555.69
325.855	465.69
326.084	459.69
326.313	457.69
326.542	463.69
326.77	505.69
326.999	573.69
327.228	798.69
327.457	1088.69
327.686	1264.69
327.914	880.69
328.143	599.69
328.372	539.69
328.6	500.69
328.829	481.69
329.058	516.69
329.287	527.69
329.515	464.69
329.744	448.69
329.972	459.69
330.201	476.69
330.43	487.69
330.658	493.69
330.887	517.69
331.115	521.69
331.344	446.69
331.572	432.69
331.801	429.69
332.03	443.69
332.258	450.69
332.486	406.69
332.715	420.69
332.943	410.69
333.172	402.69
333.4	419.69
333.629	407.69
333.857	449.69
334.085	439.69
334.314	440.69
334.542	469.69
334.771	467.69
334.999	440.69
335.227	412.69
335.455	417.69
335.684	423.69
335.912	406.69
336.14	413.69
336.369	429.69
336.597	428.69
336.825	439.69
337.053	413.69
337.281	385.69
337.51	416.69
337.738	389.69
337.966	387.69
338.194	413.69
338.422	398.69
338.65	408.69
338.878	400.69
339.106	407.69
339.334	401.69
339.562	399.69
339.79	384.69
340.018	396.69
340.246	401.69
340.474	407.69
340.702	400.69
340.93	376.69
341.158	383.69
341.386	399.69
341.614	395.69
341.842	397.69
342.07	398.69
342.298	386.69
342.526	390.69
342.754	380.69
342.981	389.69
343.209	368.69
343.437	383.69
343.665	379.69
343.893	404.69
344.12	382.69
344.348	405.69
344.576	407.69
344.804	402.69
345.031	422.69
345.259	409.69
345.487	395.69
345.714	399.69
345.942	385.69
346.17	387.69
346.397	374.69
346.625	385.69
346.853	391.69
347.08	351.69
347.308	377.69
347.535	383.69
347.763	385.69
347.99	400.69
348.218	391.69
348.445	388.69
348.673	403.69
348.9	383.69
349.128	369.69
349.355	369.69
349.583	360.69
349.81	385.69
350.037	367.69
350.265	360.69
350.492	349.69
350.72	348.69
350.947	362.69
351.174	377.69
351.402	382.69
351.629	375.69
351.856	387.69
352.083	381.69
352.311	403.69
352.538	383.69
352.765	365.69
352.992	350.69
353.22	387.69
353.447	363.69
353.674	372.69
353.901	360.69
354.128	369.69
354.355	360.69
354.583	350.69
354.81	340.69
355.037	363.69
355.264	369.69
355.491	337.69
355.718	340.69
355.945	352.69
356.172	351.69
356.399	355.69
356.626	362.69
356.853	356.69
357.08	344.69
357.307	352.69
357.534	356.69
357.761	349.69
357.988	355.69
358.215	339.69
358.441	359.69
358.668	356.69
358.895	347.69
359.122	342.69
359.349	352.69
359.576	364.69
359.802	379.69
360.029	396.69
360.256	407.69
360.483	371.69
360.709	358.69
360.936	364.69
361.163	354.69
361.39	355.69
361.616	358.69
361.843	354.69
362.07	362.69
362.296	342.69
362.523	343.69
362.749	337.69
362.976	358.69
363.203	345.69
363.429	353.69
363.656	342.69
363.882	345.69
364.109	350.69
364.335	349.69
364.562	331.69
364.788	336.69
365.015	344.69
365.241	356.69
365.468	359.69
365.694	350.69
365.92	333.69
366.147	341.69
366.373	339.69
366.599	332.69
366.826	340.69
367.052	350.69
367.278	352.69
367.505	347.69
367.731	342.69
367.957	344.69
368.184	344.69
368.41	341.69
368.636	352.69
368.862	361.69
369.089	344.69
369.315	341.69
369.541	336.69
369.767	355.69
369.993	343.69
370.219	328.69
370.445	335.69
370.672	348.69
370.898	328.69
371.124	341.69
371.35	328.69
371.576	340.69
371.802	328.69
372.028	341.69
372.254	340.69
372.48	337.69
372.706	331.69
372.932	348.69
373.158	335.69
373.384	351.69
373.61	326.69
373.835	339.69
374.061	342.69
374.287	362.69
374.513	359.69
374.739	345.69
374.965	344.69
375.191	355.69
375.416	352.69
375.642	341.69
375.868	350.69
376.094	357.69
376.319	349.69
376.545	341.69
376.771	319.69
376.997	336.69
377.222	358.69
377.448	352.69
377.674	336.69
377.899	339.69
378.125	327.69
378.35	338.69
378.576	321.69
378.802	335.69
379.027	348.69
379.253	351.69
379.478	342.69
379.704	327.69
379.929	319.69
380.155	328.69
380.38	332.69
380.606	327.69
380.831	360.69
381.057	326.69
381.282	330.69
381.507	345.69
381.733	355.69
381.958	334.69
382.184	333.69
382.409	367.69
382.634	349.69
382.86	340.69
383.085	348.69
383.31	343.69
383.535	355.69
383.761	361.69
383.986	347.69
384.211	334.69
384.436	342.69
384.662	324.69
384.887	371.69
385.112	358.69
385.337	357.69
385.562	360.69
385.787	359.69
386.013	377.69
386.238	368.69
386.463	356.69
386.688	358.69
386.913	347.69
387.138	341.69
387.363	364.69
387.588	372.69
387.813	355.69
388.038	349.69
388.263	366.69
388.488	342.69
388.713	351.69
388.938	358.69
389.163	343.69
389.387	360.69
389.612	369.69
389.837	372.69
390.062	369.69
390.287	366.69
390.512	343.69
390.736	371.69
390.961	364.69
391.186	365.69
391.411	364.69
391.636	356.69
391.86	363.69
392.085	353.69
392.31	347.69
392.534	363.69
392.759	352.69
392.984	369.69
393.208	367.69
393.433	373.69
393.658	362.69
393.882	361.69
394.107	335.69
394.331	336.69
394.556	349.69
394.78	356.69
395.005	351.69
395.229	355.69
395.454	372.69
395.678	373.69
395.903	372.69
396.127	375.69
396.352	397.69
396.576	365.69
396.801	358.69
397.025	377.69
397.249	368.69
397.474	371.69
397.698	377.69
397.922	389.69
398.147	402.69
398.371	397.69
398.595	388.69
398.82	391.69
399.044	415.69
399.268	401.69
399.492	407.69
399.717	440.69
399.941	457.69
400.165	491.69
400.389	489.69
400.613	428.69
400.837	412.69
401.062	415.69
401.286	396.69
401.51	401.69
401.734	391.69
401.958	404.69
402.182	381.69
402.406	393.69
402.63	406.69
402.854	405.69
403.078	384.69
403.302	396.69
403.526	411.69
403.75	432.69
403.974	407.69
404.198	399.69
404.422	423.69
404.645	407.69
404.869	397.69
405.093	444.69
405.317	463.69
405.541	492.69
405.765	458.69
405.988	418.69
406.212	462.69
406.436	448.69
406.66	455.69
406.883	421.69
407.107	456.69
407.331	483.69
407.555	509.69
407.778	531.69
408.002	488.69
408.226	465.69
408.449	459.69
408.673	439.69
408.896	456.69
409.12	495.69
409.344	462.69
409.567	437.69
409.791	410.69
410.014	429.69
410.238	402.69
410.461	411.69
410.685	413.69
410.908	407.69
411.132	443.69
411.355	480.69
411.578	437.69
411.802	406.69
412.025	425.69
412.249	426.69
412.472	415.69
412.695	437.69
412.919	435.69
413.142	393.69
413.365	419.69
413.589	385.69
413.812	384.69
414.035	377.69
414.258	383.69
414.482	376.69
414.705	386.69
414.928	381.69
415.151	379.69
415.374	375.69
415.597	366.69
415.821	377.69
416.044	399.69
416.267	392.69
416.49	388.69
416.713	374.69
416.936	375.69
417.159	364.69
417.382	381.69
417.605	387.69
417.828	393.69
418.051	394.69
418.274	409.69
418.497	395.69
418.72	409.69
418.943	404.69
419.166	392.69
419.389	413.69
419.611	424.69
419.834	384.69
420.057	397.69
420.28	412.69
420.503	405.69
420.726	400.69
420.948	420.69
421.171	419.69
421.394	451.69
421.617	422.69
421.839	427.69
422.062	416.69
422.285	424.69
422.507	461.69
422.73	516.69
422.953	511.69
423.175	438.69
423.398	426.69
423.621	410.69
423.843	441.69
424.066	411.69
424.288	423.69
424.511	449.69
424.733	476.69
424.956	561.69
425.178	520.69
425.401	519.69
425.623	531.69
425.846	461.69
426.068	427.69
426.291	419.69
426.513	417.69
426.735	420.69
426.958	471.69
427.18	526.69
427.402	631.69
427.625	675.69
427.847	587.69
428.069	530.69
428.292	475.69
428.514	412.69
428.736	401.69
428.958	398.69
429.181	414.69
429.403	395.69
429.625	416.69
429.847	428.69
430.069	461.69
430.292	491.69
430.514	400.69
430.736	405.69
430.958	393.69
431.18	381.69
431.402	377.69
431.624	366.69
431.846	354.69
432.068	366.69
432.29	390.69
432.512	391.69
432.734	371.69
432.956	372.69
433.178	389.69
433.4	376.69
433.622	372.69
433.844	379.69
434.066	362.69
434.287	371.69
434.509	384.69
434.731	393.69
434.953	398.69
435.175	409.69
435.397	422.69
435.618	423.69
435.84	445.69
436.062	500.69
436.284	575.69
436.505	465.69
436.727	439.69
436.949	404.69
437.17	412.69
437.392	397.69
437.614	409.69
437.835	446.69
438.057	483.69
438.278	570.69
438.5	574.69
438.721	623.69
438.943	593.69
439.165	472.69
439.386	439.69
439.608	439.69
439.829	433.69
440.05	458.69
440.272	473.69
440.493	453.69
440.715	444.69
440.936	410.69
441.158	430.69
441.379	406.69
441.6	414.69
441.822	426.69
442.043	463.69
442.264	537.69
442.486	563.69
442.707	453.69
442.928	430.69
443.149	444.69
443.371	470.69
443.592	491.69
443.813	543.69
444.034	591.69
444.255	496.69
444.476	443.69
444.698	421.69
444.919	410.69
445.14	577.69
445.361	505.69
445.582	459.69
445.803	495.69
446.024	580.69
446.245	590.69
446.466	522.69
446.687	465.69
446.908	431.69
447.129	422.69
447.35	415.69
447.571	397.69
447.792	389.69
448.013	380.69
448.234	437.69
448.455	465.69
448.675	555.69
448.896	612.69
449.117	512.69
449.338	505.69
449.559	573.69
449.779	627.69
450	507.69
450.221	440.69
450.442	413.69
450.662	391.69
450.883	389.69
451.104	414.69
451.324	404.69
451.545	355.69
451.766	365.69
451.986	350.69
452.207	337.69
452.428	360.69
452.648	350.69
452.869	352.69
453.089	340.69
453.31	351.69
453.53	359.69
453.751	376.69
453.971	351.69
454.192	366.69
454.412	355.69
454.633	339.69
454.853	345.69
455.073	344.69
455.294	399.69
455.514	417.69
455.734	403.69
455.955	354.69
456.175	372.69
456.395	340.69
456.616	355.69
456.836	326.69
457.056	335.69
457.276	324.69
457.497	329.69
457.717	331.69
457.937	335.69
458.157	340.69
458.377	347.69
458.598	352.69
458.818	405.69
459.038	451.69
459.258	453.69
459.478	384.69
459.698	366.69
459.918	359.69
460.138	376.69
460.358	365.69
460.578	379.69
460.798	368.69
461.018	385.69
461.238	371.69
461.458	388.69
461.678	377.69
461.898	375.69
462.118	384.69
462.338	368.69
462.558	387.69
462.777	368.69
462.997	383.69
463.217	397.69
463.437	402.69
463.657	384.69
463.876	383.69
464.096	390.69
464.316	393.69
464.536	401.69
464.755	394.69
464.975	393.69
465.195	421.69
465.414	458.69
465.634	413.69
465.854	397.69
466.073	373.69
466.293	360.69
466.512	380.69
466.732	373.69
466.951	372.69
467.171	344.69
467.391	375.69
467.61	363.69
467.829	364.69
468.049	377.69
468.268	372.69
468.488	348.69
468.707	330.69
468.927	341.69
469.146	345.69
469.365	335.69
469.585	366.69
469.804	367.69
470.023	366.69
470.243	365.69
470.462	363.69
470.681	372.69
470.901	379.69
471.12	384.69
471.339	372.69
471.558	363.69
471.777	378.69
471.997	359.69
472.216	357.69
472.435	365.69
472.654	377.69
472.873	359.69
473.092	360.69
473.311	359.69
473.53	365.69
473.749	369.69
473.968	414.69
474.187	483.69
474.406	486.69
474.625	405.69
474.844	395.69
475.063	358.69
475.282	379.69
475.501	365.69
475.72	361.69
475.939	378.69
476.158	391.69
476.377	359.69
476.596	377.69
476.814	368.69
477.033	391.69
477.252	389.69
477.471	385.69
477.69	358.69
477.908	381.69
478.127	415.69
478.346	394.69
478.564	410.69
478.783	381.69
479.002	397.69
479.22	408.69
479.439	427.69
479.658	432.69
479.876	423.69
480.095	433.69
480.313	450.69
480.532	437.69
480.751	443.69
480.969	422.69
481.188	471.69
481.406	447.69
481.624	446.69
481.843	425.69
482.061	397.69
482.28	417.69
482.498	419.69
482.717	421.69
482.935	411.69
483.153	407.69
483.372	392.69
483.59	431.69
483.808	413.69
484.027	412.69
484.245	421.69
484.463	433.69
484.681	436.69
484.9	415.69
485.118	419.69
485.336	447.69
485.554	421.69
485.772	413.69
485.99	407.69
486.209	441.69
486.427	432.69
486.645	423.69
486.863	452.69
487.081	447.69
487.299	451.69
487.517	460.69
487.735	446.69
487.953	453.69
488.171	432.69
488.389	446.69
488.607	443.69
488.825	463.69
489.043	461.69
489.261	479.69
489.479	472.69
489.696	453.69
489.914	467.69
490.132	451.69
490.35	455.69
490.568	463.69
490.786	485.69
491.003	505.69
491.221	490.69
491.439	502.69
491.657	505.69
491.874	504.69
492.092	521.69
492.31	505.69
492.527	525.69
492.745	512.69
492.963	527.69
493.18	507.69
493.398	523.69
493.615	515.69
493.833	543.69
494.05	534.69
494.268	509.69
494.485	539.69
494.703	523.69
494.92	536.69
495.138	528.69
495.355	539.69
495.573	538.69
495.79	542.69
496.008	501.69
496.225	523.69
496.442	523.69
496.66	553.69
496.877	546.69
497.094	531.69
497.312	532.69
497.529	565.69
497.746	527.69
497.963	583.69
498.181	564.69
498.398	567.69
498.615	556.69
498.832	588.69
499.049	616.69
499.267	624.69
499.484	618.69
499.701	643.69
499.918	645.69
500.135	681.69
500.352	728.69
500.569	713.69
500.786	705.69
501.003	734.69
501.22	707.69
501.437	665.69
501.654	672.69
501.871	634.69
502.088	640.69
502.305	614.69
502.522	577.69
502.739	592.69
502.956	579.69
503.172	558.69
503.389	540.69
503.606	549.69
503.823	551.69
504.04	552.69
504.256	535.69
504.473	537.69
504.69	530.69
504.907	524.69
505.123	505.69
505.34	492.69
505.557	515.69
505.773	493.69
505.99	527.69
506.207	498.69
506.423	498.69
506.64	503.69
506.856	483.69
507.073	490.69
507.289	502.69
507.506	484.69
507.722	495.69
507.939	499.69
508.155	501.69
508.372	462.69
508.588	483.69
508.805	469.69
509.021	476.69
509.238	497.69
509.454	489.69
509.67	474.69
509.887	483.69
510.103	480.69
510.319	477.69
510.536	542.69
510.752	836.69
510.968	656.69
511.184	487.69
511.401	485.69
511.617	461.69
511.833	489.69
512.049	455.69
512.265	443.69
512.481	445.69
512.698	454.69
512.914	463.69
513.13	454.69
513.346	454.69
513.562	457.69
513.778	445.69
513.994	445.69
514.21	432.69
514.426	457.69
514.642	490.69
514.858	518.69
515.074	538.69
515.29	609.69
515.506	835.69
515.721	705.69
515.937	530.69
516.153	476.69
516.369	476.69
516.585	481.69
516.801	465.69
517.016	455.69
517.232	462.69
517.448	459.69
517.664	462.69
517.879	464.69
518.095	468.69
518.311	460.69
518.527	470.69
518.742	473.69
518.958	447.69
519.173	445.69
519.389	461.69
519.605	453.69
519.82	436.69
520.036	455.69
520.251	463.69
520.467	479.69
520.682	479.69
520.898	475.69
521.113	502.69
521.329	503.69
521.544	579.69
521.76	685.69
521.975	1067.69
522.19	1019.69
522.406	620.69
522.621	509.69
522.836	439.69
523.052	439.69
523.267	422.69
523.482	432.69
523.698	425.69
523.913	419.69
524.128	400.69
524.343	397.69
524.559	397.69
524.774	371.69
524.989	387.69
525.204	406.69
525.419	384.69
525.634	394.69
525.849	386.69
526.064	379.69
526.28	393.69
526.495	367.69
526.71	379.69
526.925	375.69
527.14	374.69
527.355	357.69
527.57	379.69
527.785	363.69
527.999	363.69
528.214	369.69
528.429	382.69
528.644	360.69
528.859	375.69
529.074	380.69
529.289	396.69
529.503	426.69
529.718	428.69
529.933	412.69
530.148	385.69
530.363	367.69
530.577	396.69
530.792	353.69
531.007	339.69
531.221	364.69
531.436	350.69
531.651	347.69
531.865	376.69
532.08	355.69
532.295	356.69
532.509	357.69
532.724	371.69
532.938	361.69
533.153	339.69
533.367	344.69
533.582	336.69
533.796	342.69
534.011	348.69
534.225	343.69
534.44	355.69
534.654	334.69
534.868	336.69
535.083	363.69
535.297	350.69
535.511	353.69
535.726	359.69
535.94	344.69
536.154	368.69
536.369	359.69
536.583	352.69
536.797	349.69
537.011	343.69
537.225	344.69
537.44	362.69
537.654	356.69
537.868	329.69
538.082	341.69
538.296	364.69
538.51	356.69
538.724	354.69
538.938	359.69
539.153	347.69
539.367	357.69
539.581	350.69
539.795	344.69
540.009	352.69
540.222	352.69
540.436	350.69
540.65	344.69
540.864	362.69
541.078	351.69
541.292	371.69
541.506	358.69
541.72	363.69
541.934	352.69
542.147	359.69
542.361	379.69
542.575	352.69
542.789	334.69
543.002	331.69
543.216	371.69
543.43	341.69
543.644	374.69
543.857	373.69
544.071	353.69
544.285	364.69
544.498	348.69
544.712	357.69
544.925	348.69
545.139	352.69
545.352	339.69
545.566	351.69
545.779	374.69
545.993	362.69
546.206	357.69
546.42	342.69
546.633	331.69
546.847	327.69
547.06	349.69
547.274	353.69
547.487	341.69
547.7	329.69
547.914	348.69
548.127	332.69
548.34	328.69
548.554	336.69
548.767	323.69
548.98	331.69
549.193	328.69
549.407	339.69
549.62	335.69
549.833	339.69
550.046	328.69
550.259	337.69
550.473	338.69
550.686	343.69
550.899	332.69
551.112	326.69
551.325	318.69
551.538	329.69
551.751	326.69
551.964	311.69
552.177	323.69
552.39	329.69
552.603	331.69
552.816	319.69
553.029	330.69
553.242	344.69
553.455	354.69
553.667	343.69
553.88	332.69
554.093	348.69
554.306	335.69
554.519	342.69
554.732	333.69
554.944	341.69
555.157	344.69
555.37	335.69
555.583	330.69
555.795	310.69
556.008	307.69
556.221	326.69
556.433	300.69
556.646	309.69
556.859	316.69
557.071	292.69
557.284	328.69
557.496	299.69
557.709	309.69
557.921	317.69
558.134	289.69
558.346	311.69
558.559	301.69
558.771	301.69
558.984	300.69
559.196	307.69
559.409	316.69
559.621	303.69
559.833	293.69
560.046	293.69
560.258	293.69
560.47	295.69
560.683	283.69
560.895	290.69
561.107	303.69
561.32	291.69
561.532	307.69
561.744	304.69
561.956	296.69
562.168	285.69
562.381	293.69
562.593	297.69
562.805	297.69
563.017	291.69
563.229	307.69
563.441	296.69
563.653	301.69
563.865	287.69
564.077	288.69
564.289	307.69
564.501	304.69
564.713	317.69
564.925	315.69
565.137	331.69
565.349	311.69
565.561	326.69
565.773	317.69
565.985	309.69
566.197	327.69
566.408	319.69
566.62	363.69
566.832	361.69
567.044	354.69
567.255	356.69
567.467	359.69
567.679	351.69
567.891	357.69
568.102	353.69
568.314	347.69
568.526	339.69
568.737	317.69
568.949	310.69
569.161	304.69
569.372	303.69
569.584	313.69
569.795	299.69
570.007	297.69
570.218	335.69
570.43	301.69
570.641	297.69
570.853	284.69
571.064	269.69
571.276	293.69
571.487	276.69
571.698	287.69
571.91	287.69
572.121	260.69
572.333	267.69
572.544	271.69
572.755	276.69
572.966	266.69
573.178	272.69
573.389	251.69
573.6	248.69
573.811	264.69
574.023	271.69
574.234	265.69
574.445	259.69
574.656	255.69
574.867	251.69
575.078	257.69
575.289	249.69
575.501	263.69
575.712	245.69
575.923	235.69
576.134	261.69
576.345	258.69
576.556	264.69
576.767	245.69
576.978	235.69
577.188	272.69
577.399	253.69
577.61	244.69
577.821	247.69
578.032	258.69
578.243	264.69
578.454	388.69
578.665	298.69
578.875	250.69
579.086	238.69
579.297	241.69
579.508	242.69
579.718	233.69
579.929	229.69
580.14	227.69
580.35	229.69
580.561	221.69
580.772	237.69
580.982	211.69
581.193	227.69
581.403	236.69
581.614	205.69
581.825	236.69
582.035	238.69
582.246	235.69
582.456	228.69
582.667	244.69
582.877	237.69
583.087	254.69
583.298	243.69
583.508	228.69
583.719	230.69
583.929	240.69
584.139	224.69
584.35	236.69
584.56	225.69
584.77	240.69
584.981	234.69
585.191	227.69
585.401	202.69
585.611	220.69
585.821	229.69
586.032	226.69
586.242	247.69
586.452	222.69
586.662	205.69
586.872	234.69
587.082	213.69
587.292	209.69
587.502	233.69
587.713	231.69
587.923	219.69
588.133	223.69
588.343	221.69
588.553	240.69
588.762	223.69
588.972	213.69
589.182	238.69
589.392	231.69
589.602	229.69
589.812	220.69
590.022	229.69
590.232	235.69
590.441	221.69
590.651	219.69
590.861	227.69
591.071	227.69
591.281	229.69
591.49	227.69
591.7	225.69
591.91	229.69
592.119	220.69
592.329	224.69
592.539	234.69
592.748	215.69
592.958	232.69
593.167	233.69
593.377	263.69
593.587	235.69
593.796	243.69
594.006	229.69
594.215	228.69
594.424	225.69
594.634	221.69
594.843	233.69
595.053	218.69
595.262	238.69
595.472	238.69
595.681	223.69
595.89	224.69
596.1	224.69
596.309	209.69
596.518	225.69
596.727	222.69
596.937	212.69
597.146	210.69
597.355	205.69
597.564	201.69
597.774	218.69
597.983	219.69
598.192	205.69
598.401	207.69
598.61	204.69
598.819	207.69
599.028	209.69
599.237	213.69
599.446	208.69
599.655	212.69
599.864	215.69
600.073	208.69
600.282	195.69
600.491	201.69
600.7	203.69
600.909	204.69
601.118	218.69
601.327	207.69
601.536	215.69
601.745	201.69
601.953	209.69
602.162	204.69
602.371	205.69
602.58	202.69
602.789	211.69
602.997	208.69
603.206	216.69
603.415	193.69
603.623	193.69
603.832	203.69
604.041	214.69
604.249	200.69
604.458	202.69
604.666	204.69
604.875	189.69
605.084	205.69
605.292	200.69
605.501	208.69
605.709	193.69
605.918	195.69
606.126	207.69
606.334	210.69
606.543	207.69
606.751	192.69
606.96	198.69
607.168	217.69
607.376	201.69
607.585	191.69
607.793	201.69
608.001	202.69
608.21	195.69
608.418	182.69
608.626	202.69
608.834	179.69
609.043	193.69
609.251	193.69
609.459	204.69
609.667	212.69
609.875	189.69
610.083	194.69
610.291	207.69
610.499	214.69
610.707	193.69
610.916	193.69
611.124	206.69
611.332	215.69
611.54	199.69
611.748	209.69
611.955	203.69
612.163	212.69
612.371	197.69
612.579	199.69
612.787	193.69
612.995	202.69
613.203	196.69
613.411	201.69
613.618	194.69
613.826	189.69
614.034	186.69
614.242	195.69
614.449	209.69
614.657	182.69
614.865	209.69
615.072	193.69
615.28	195.69
615.488	204.69
615.695	194.69
615.903	189.69
616.111	187.69
616.318	198.69
616.526	217.69
616.733	192.69
616.941	184.69
617.148	183.69
617.356	200.69
617.563	170.69
617.771	191.69
617.978	189.69
618.185	193.69
618.393	177.69
618.6	197.69
618.807	199.69
619.015	185.69
619.222	197.69
619.429	206.69
619.637	187.69
619.844	164.69
620.051	175.69
620.258	185.69
620.466	193.69
620.673	180.69
620.88	187.69
621.087	198.69
621.294	186.69
621.501	180.69
621.708	192.69
621.915	178.69
622.122	200.69
622.329	191.69
622.536	184.69
622.743	193.69
622.95	199.69
623.157	184.69
623.364	166.69
623.571	177.69
623.778	183.69
623.985	181.69
624.192	183.69
624.399	181.69
624.606	179.69
624.812	162.69
625.019	187.69
625.226	185.69
625.433	191.69
625.639	179.69
625.846	181.69
626.053	176.69
626.259	172.69
626.466	163.69
626.673	160.69
626.879	159.69
627.086	160.69
627.293	176.69
627.499	172.69
627.706	182.69
627.912	197.69
628.119	186.69
628.325	156.69
628.532	166.69
628.738	172.69
628.945	181.69
629.151	176.69
629.357	166.69
629.564	171.69
629.77	172.69
629.976	180.69
630.183	167.69
630.389	177.69
630.595	183.69
630.802	158.69
631.008	176.69
631.214	161.69
631.42	166.69
631.627	165.69
631.833	187.69
632.039	150.69
632.245	165.69
632.451	178.69
632.657	153.69
632.863	161.69
633.069	155.69
633.275	161.69
633.481	153.69
633.688	170.69
633.893	165.69
634.099	170.69
634.305	152.69
634.511	165.69
634.717	173.69
634.923	153.69
635.129	153.69
635.335	164.69
635.541	161.69
635.747	166.69
635.952	151.69
636.158	156.69
636.364	158.69
636.57	157.69
636.775	159.69
636.981	142.69
637.187	154.69
637.392	161.69
637.598	169.69
637.804	159.69
638.009	154.69
638.215	163.69
638.421	147.69
638.626	164.69
638.832	153.69
639.037	155.69
639.243	158.69
639.448	152.69
639.654	154.69
639.859	152.69
640.065	152.69
640.27	146.69
640.475	141.69
640.681	154.69
640.886	155.69
641.091	138.69
641.297	165.69
641.502	145.69
641.707	150.69
641.913	152.69
642.118	149.69
642.323	156.69
642.528	155.69
642.733	154.69
642.939	153.69
643.144	140.69
643.349	146.69
643.554	159.69
643.759	152.69
643.964	134.69
644.169	160.69
644.374	151.69
644.579	137.69
644.784	145.69
644.989	143.69
645.194	129.69
645.399	153.69
645.604	144.69
645.809	146.69
646.014	145.69
646.219	139.69
646.423	142.69
646.628	143.69
646.833	155.69
647.038	142.69
647.243	160.69
647.447	146.69
647.652	142.69
647.857	142.69
648.062	145.69
648.266	148.69
648.471	139.69
648.676	143.69
648.88	146.69
649.085	145.69
649.289	152.69
649.494	152.69
649.698	155.69
649.903	162.69
650.107	145.69
650.312	138.69
650.516	139.69
650.721	138.69
650.925	136.69
651.13	133.69
651.334	130.69
651.539	129.69
651.743	129.69
651.947	126.69
652.152	123.69
652.356	129.69
652.56	139.69
652.764	133.69
652.969	128.69
653.173	120.69
653.377	122.69
653.581	131.69
653.785	129.69
653.99	127.69
654.194	140.69
654.398	123.69
654.602	123.69
654.806	129.69
655.01	133.69
655.214	139.69
655.418	136.69
655.622	113.69
655.826	136.69
656.03	117.69
656.234	126.69
656.438	124.69
656.642	130.69
656.846	123.69
657.049	112.69
657.253	125.69
657.457	112.69
657.661	113.69
657.865	110.69
658.068	119.69
658.272	111.69
658.476	108.69
658.68	99.69
658.883	107.69
659.087	97.69
659.291	101.69
659.494	102.69
659.698	106.69
659.901	97.69
660.105	86.69
660.309	101.69
660.512	89.69
660.716	110.69
660.919	81.69
661.123	92.69
661.326	89.69
661.53	93.69
661.733	78.69
661.936	104.69
662.14	88.69
662.343	85.69
662.546	92.69
662.75	91.69
662.953	82.69
663.156	76.69
663.36	95.69
663.563	69.69
663.766	93.69
663.969	88.69
664.173	91.69
664.376	80.69
664.579	93.69
664.782	95.69
664.985	95.69
665.188	80.69
665.391	79.69
665.594	77.69
665.797	89.69
666	94.69
666.203	85.69
666.406	76.69
666.609	83.69
666.812	82.69
667.015	89.69
667.218	76.69
667.421	89.69
667.624	81.69
667.827	88.69
668.03	91.69
668.232	75.69
668.435	75.69
668.638	84.69
668.841	87.69
669.043	69.69
669.246	80.69
669.449	79.69
669.651	86.69
669.854	89.69
670.057	97.69
670.259	96.69
670.462	71.69
670.665	87.69
670.867	79.69
671.07	90.69
671.272	81.69
671.475	84.69
671.677	82.69
671.88	77.69
672.082	87.69
672.284	86.69
672.487	93.69
672.689	87.69
672.892	87.69
