Data from 1971.PennyLincolnUp.Lamp.En5.5.200Scan.071719.P1.Scan 2. Changed Angle._HRD10591_15-24-35-843.txt Node
Date: Thu Jul 18 15:24:35 EDT 2019
User: cochatt
Spectrometer: HR+D1059
Trigger mode: 1
Integration Time (sec): 1.000000E-1
Scans to average: 1
Electric dark correction enabled: true
Nonlinearity correction enabled: false
Boxcar width: 0
XAxis mode: Wavelengths
Number of Pixels in Spectrum: 2048
>>>>>Begin Spectral Data<<<<<
223.165	-5.75
223.4	-5.75
223.635	-5.75
223.869	-18.75
224.104	-24.75
224.338	-20.75
224.573	-17.75
224.808	-8.75
225.042	-10.75
225.277	-5.75
225.511	-4.75
225.746	15.25
225.98	-0.75
226.215	11.25
226.449	10.25
226.683	25.25
226.918	23.25
227.152	33.25
227.387	29.25
227.621	39.25
227.856	45.25
228.09	35.25
228.324	44.25
228.559	58.25
228.793	79.25
229.027	118.25
229.262	132.25
229.496	134.25
229.73	169.25
229.964	172.25
230.199	164.25
230.433	134.25
230.667	131.25
230.901	119.25
231.136	121.25
231.37	124.25
231.604	122.25
231.838	142.25
232.072	119.25
232.306	114.25
232.541	125.25
232.775	123.25
233.009	139.25
233.243	113.25
233.477	120.25
233.711	124.25
233.945	124.25
234.179	136.25
234.413	123.25
234.647	122.25
234.881	120.25
235.115	126.25
235.349	129.25
235.583	128.25
235.817	120.25
236.051	136.25
236.285	151.25
236.519	125.25
236.753	139.25
236.987	171.25
237.221	209.25
237.455	266.25
237.689	215.25
237.922	164.25
238.156	148.25
238.39	137.25
238.624	131.25
238.858	143.25
239.091	136.25
239.325	140.25
239.559	129.25
239.793	141.25
240.027	143.25
240.26	147.25
240.494	190.25
240.728	163.25
240.961	178.25
241.195	161.25
241.429	148.25
241.662	143.25
241.896	157.25
242.13	143.25
242.363	151.25
242.597	149.25
242.83	146.25
243.064	137.25
243.298	149.25
243.531	147.25
243.765	148.25
243.998	148.25
244.232	145.25
244.465	152.25
244.699	154.25
244.932	153.25
245.166	157.25
245.399	162.25
245.633	149.25
245.866	147.25
246.099	163.25
246.333	149.25
246.566	162.25
246.8	160.25
247.033	167.25
247.266	168.25
247.5	187.25
247.733	189.25
247.966	188.25
248.2	192.25
248.433	182.25
248.666	196.25
248.899	199.25
249.133	220.25
249.366	255.25
249.599	220.25
249.832	207.25
250.066	179.25
250.299	186.25
250.532	198.25
250.765	227.25
250.998	245.25
251.231	280.25
251.465	247.25
251.698	236.25
251.931	229.25
252.164	229.25
252.397	215.25
252.63	219.25
252.863	219.25
253.096	239.25
253.329	247.25
253.562	255.25
253.795	251.25
254.028	249.25
254.261	258.25
254.494	255.25
254.727	286.25
254.96	327.25
255.193	314.25
255.426	293.25
255.659	275.25
255.892	265.25
256.124	244.25
256.357	255.25
256.59	247.25
256.823	234.25
257.056	247.25
257.289	242.25
257.521	216.25
257.754	222.25
257.987	237.25
258.22	226.25
258.452	223.25
258.685	217.25
258.918	233.25
259.151	228.25
259.383	247.25
259.616	235.25
259.849	250.25
260.081	273.25
260.314	274.25
260.547	270.25
260.779	253.25
261.012	278.25
261.244	277.25
261.477	256.25
261.71	233.25
261.942	245.25
262.175	269.25
262.407	250.25
262.64	242.25
262.872	234.25
263.105	232.25
263.337	223.25
263.57	211.25
263.802	224.25
264.035	219.25
264.267	224.25
264.499	226.25
264.732	224.25
264.964	222.25
265.197	217.25
265.429	234.25
265.661	214.25
265.894	204.25
266.126	222.25
266.358	230.25
266.591	224.25
266.823	237.25
267.055	224.25
267.287	250.25
267.52	226.25
267.752	253.25
267.984	219.25
268.216	226.25
268.448	239.25
268.681	253.25
268.913	251.25
269.145	280.25
269.377	296.25
269.609	301.25
269.841	292.25
270.073	307.25
270.306	331.25
270.538	364.25
270.77	354.25
271.002	321.25
271.234	309.25
271.466	334.25
271.698	348.25
271.93	335.25
272.162	374.25
272.394	335.25
272.626	321.25
272.858	317.25
273.09	304.25
273.322	304.25
273.553	293.25
273.785	274.25
274.017	287.25
274.249	279.25
274.481	273.25
274.713	274.25
274.945	296.25
275.176	286.25
275.408	294.25
275.64	291.25
275.872	276.25
276.104	294.25
276.335	289.25
276.567	297.25
276.799	298.25
277.031	331.25
277.262	341.25
277.494	348.25
277.726	322.25
277.957	313.25
278.189	291.25
278.421	275.25
278.652	294.25
278.884	275.25
279.115	272.25
279.347	283.25
279.579	277.25
279.81	277.25
280.042	281.25
280.273	274.25
280.505	291.25
280.736	265.25
280.968	263.25
281.199	268.25
281.431	285.25
281.662	278.25
281.894	284.25
282.125	270.25
282.356	299.25
282.588	320.25
282.819	325.25
283.051	290.25
283.282	289.25
283.513	283.25
283.745	283.25
283.976	290.25
284.207	280.25
284.439	292.25
284.67	282.25
284.901	272.25
285.132	294.25
285.364	285.25
285.595	274.25
285.826	272.25
286.057	281.25
286.288	272.25
286.52	272.25
286.751	295.25
286.982	285.25
287.213	279.25
287.444	282.25
287.675	284.25
287.906	288.25
288.138	300.25
288.369	306.25
288.6	294.25
288.831	306.25
289.062	295.25
289.293	285.25
289.524	286.25
289.755	283.25
289.986	301.25
290.217	294.25
290.448	292.25
290.679	304.25
290.91	284.25
291.141	275.25
291.371	297.25
291.602	288.25
291.833	302.25
292.064	316.25
292.295	289.25
292.526	299.25
292.757	300.25
292.987	293.25
293.218	295.25
293.449	274.25
293.68	273.25
293.91	297.25
294.141	283.25
294.372	289.25
294.603	298.25
294.833	290.25
295.064	283.25
295.295	285.25
295.525	287.25
295.756	295.25
295.987	314.25
296.217	345.25
296.448	344.25
296.679	305.25
296.909	315.25
297.14	280.25
297.37	288.25
297.601	307.25
297.831	305.25
298.062	304.25
298.292	311.25
298.523	315.25
298.753	289.25
298.984	305.25
299.214	289.25
299.445	311.25
299.675	313.25
299.905	306.25
300.136	327.25
300.366	312.25
300.597	322.25
300.827	312.25
301.057	333.25
301.288	336.25
301.518	319.25
301.748	329.25
301.979	340.25
302.209	333.25
302.439	312.25
302.669	322.25
302.9	338.25
303.13	333.25
303.36	328.25
303.59	337.25
303.82	366.25
304.051	347.25
304.281	336.25
304.511	311.25
304.741	314.25
304.971	330.25
305.201	325.25
305.431	313.25
305.661	350.25
305.891	334.25
306.121	321.25
306.352	343.25
306.582	332.25
306.812	333.25
307.042	337.25
307.272	331.25
307.502	346.25
307.731	339.25
307.961	336.25
308.191	338.25
308.421	342.25
308.651	329.25
308.881	330.25
309.111	334.25
309.341	357.25
309.571	365.25
309.8	368.25
310.03	391.25
310.26	423.25
310.49	385.25
310.72	387.25
310.949	424.25
311.179	419.25
311.409	386.25
311.639	400.25
311.868	398.25
312.098	401.25
312.328	429.25
312.557	424.25
312.787	423.25
313.017	434.25
313.246	426.25
313.476	409.25
313.706	395.25
313.935	389.25
314.165	413.25
314.394	437.25
314.624	421.25
314.853	409.25
315.083	429.25
315.312	392.25
315.542	399.25
315.771	401.25
316.001	383.25
316.23	396.25
316.46	386.25
316.689	377.25
316.919	401.25
317.148	400.25
317.377	426.25
317.607	399.25
317.836	401.25
318.065	383.25
318.295	381.25
318.524	381.25
318.753	367.25
318.983	381.25
319.212	385.25
319.441	397.25
319.67	419.25
319.9	392.25
320.129	388.25
320.358	404.25
320.587	385.25
320.816	392.25
321.046	414.25
321.275	406.25
321.504	432.25
321.733	413.25
321.962	439.25
322.191	445.25
322.42	474.25
322.649	473.25
322.878	486.25
323.108	535.25
323.337	554.25
323.566	587.25
323.795	609.25
324.024	681.25
324.253	837.25
324.482	1227.25
324.71	1950.25
324.939	2821.25
325.168	2406.25
325.397	1234.25
325.626	827.25
325.855	659.25
326.084	595.25
326.313	580.25
326.542	585.25
326.77	634.25
326.999	754.25
327.228	1084.25
327.457	1673.25
327.686	2079.25
327.914	1361.25
328.143	919.25
328.372	783.25
328.6	695.25
328.829	682.25
329.058	703.25
329.287	691.25
329.515	630.25
329.744	583.25
329.972	585.25
330.201	577.25
330.43	668.25
330.658	694.25
330.887	714.25
331.115	721.25
331.344	600.25
331.572	548.25
331.801	567.25
332.03	551.25
332.258	523.25
332.486	485.25
332.715	482.25
332.943	469.25
333.172	468.25
333.4	485.25
333.629	486.25
333.857	503.25
334.085	511.25
334.314	534.25
334.542	579.25
334.771	574.25
334.999	535.25
335.227	514.25
335.455	504.25
335.684	467.25
335.912	461.25
336.14	442.25
336.369	447.25
336.597	478.25
336.825	453.25
337.053	465.25
337.281	463.25
337.51	461.25
337.738	449.25
337.966	441.25
338.194	479.25
338.422	463.25
338.65	457.25
338.878	439.25
339.106	456.25
339.334	462.25
339.562	427.25
339.79	442.25
340.018	448.25
340.246	443.25
340.474	459.25
340.702	458.25
340.93	443.25
341.158	453.25
341.386	441.25
341.614	458.25
341.842	457.25
342.07	450.25
342.298	421.25
342.526	442.25
342.754	432.25
342.981	439.25
343.209	435.25
343.437	445.25
343.665	449.25
343.893	437.25
344.12	457.25
344.348	433.25
344.576	444.25
344.804	445.25
345.031	471.25
345.259	513.25
345.487	470.25
345.714	477.25
345.942	452.25
346.17	433.25
346.397	442.25
346.625	443.25
346.853	458.25
347.08	453.25
347.308	438.25
347.535	453.25
347.763	463.25
347.99	465.25
348.218	427.25
348.445	467.25
348.673	461.25
348.9	429.25
349.128	459.25
349.355	443.25
349.583	431.25
349.81	417.25
350.037	427.25
350.265	429.25
350.492	421.25
350.72	429.25
350.947	449.25
351.174	458.25
351.402	469.25
351.629	457.25
351.856	437.25
352.083	457.25
352.311	457.25
352.538	479.25
352.765	496.25
352.992	476.25
353.22	459.25
353.447	428.25
353.674	461.25
353.901	427.25
354.128	433.25
354.355	419.25
354.583	404.25
354.81	445.25
355.037	413.25
355.264	402.25
355.491	396.25
355.718	421.25
355.945	419.25
356.172	414.25
356.399	412.25
356.626	413.25
356.853	401.25
357.08	423.25
357.307	401.25
357.534	399.25
357.761	397.25
357.988	414.25
358.215	407.25
358.441	398.25
358.668	404.25
358.895	413.25
359.122	424.25
359.349	437.25
359.576	452.25
359.802	515.25
360.029	512.25
360.256	527.25
360.483	505.25
360.709	453.25
360.936	453.25
361.163	441.25
361.39	474.25
361.616	467.25
361.843	464.25
362.07	465.25
362.296	448.25
362.523	439.25
362.749	450.25
362.976	435.25
363.203	420.25
363.429	425.25
363.656	424.25
363.882	445.25
364.109	433.25
364.335	440.25
364.562	438.25
364.788	412.25
365.015	422.25
365.241	449.25
365.468	441.25
365.694	446.25
365.92	433.25
366.147	454.25
366.373	418.25
366.599	407.25
366.826	415.25
367.052	397.25
367.278	438.25
367.505	423.25
367.731	439.25
367.957	424.25
368.184	416.25
368.41	434.25
368.636	425.25
368.862	455.25
369.089	426.25
369.315	412.25
369.541	403.25
369.767	422.25
369.993	429.25
370.219	412.25
370.445	431.25
370.672	435.25
370.898	411.25
371.124	429.25
371.35	414.25
371.576	415.25
371.802	415.25
372.028	408.25
372.254	409.25
372.48	412.25
372.706	407.25
372.932	421.25
373.158	423.25
373.384	420.25
373.61	401.25
373.835	437.25
374.061	415.25
374.287	435.25
374.513	422.25
374.739	404.25
374.965	437.25
375.191	414.25
375.416	425.25
375.642	407.25
375.868	408.25
376.094	421.25
376.319	418.25
376.545	409.25
376.771	411.25
376.997	447.25
377.222	433.25
377.448	413.25
377.674	417.25
377.899	419.25
378.125	421.25
378.35	435.25
378.576	404.25
378.802	409.25
379.027	416.25
379.253	421.25
379.478	413.25
379.704	422.25
379.929	438.25
380.155	435.25
380.38	422.25
380.606	406.25
380.831	451.25
381.057	431.25
381.282	415.25
381.507	441.25
381.733	428.25
381.958	419.25
382.184	415.25
382.409	425.25
382.634	431.25
382.86	426.25
383.085	416.25
383.31	424.25
383.535	430.25
383.761	429.25
383.986	438.25
384.211	437.25
384.436	444.25
384.662	442.25
384.887	428.25
385.112	437.25
385.337	437.25
385.562	430.25
385.787	456.25
386.013	441.25
386.238	471.25
386.463	466.25
386.688	476.25
386.913	441.25
387.138	469.25
387.363	458.25
387.588	445.25
387.813	448.25
388.038	441.25
388.263	442.25
388.488	454.25
388.713	448.25
388.938	426.25
389.163	445.25
389.387	455.25
389.612	468.25
389.837	443.25
390.062	446.25
390.287	449.25
390.512	449.25
390.736	425.25
390.961	450.25
391.186	458.25
391.411	446.25
391.636	467.25
391.86	451.25
392.085	449.25
392.31	470.25
392.534	463.25
392.759	469.25
392.984	462.25
393.208	474.25
393.433	472.25
393.658	456.25
393.882	459.25
394.107	443.25
394.331	460.25
394.556	460.25
394.78	463.25
395.005	459.25
395.229	450.25
395.454	451.25
395.678	473.25
395.903	492.25
396.127	504.25
396.352	517.25
396.576	507.25
396.801	467.25
397.025	462.25
397.249	480.25
397.474	493.25
397.698	495.25
397.922	509.25
398.147	510.25
398.371	547.25
398.595	547.25
398.82	498.25
399.044	541.25
399.268	528.25
399.492	549.25
399.717	571.25
399.941	596.25
400.165	613.25
400.389	660.25
400.613	592.25
400.837	565.25
401.062	550.25
401.286	531.25
401.51	508.25
401.734	518.25
401.958	531.25
402.182	535.25
402.406	559.25
402.63	542.25
402.854	536.25
403.078	542.25
403.302	539.25
403.526	544.25
403.75	541.25
403.974	540.25
404.198	551.25
404.422	567.25
404.645	568.25
404.869	559.25
405.093	605.25
405.317	647.25
405.541	677.25
405.765	630.25
405.988	598.25
406.212	600.25
406.436	601.25
406.66	654.25
406.883	592.25
407.107	636.25
407.331	686.25
407.555	735.25
407.778	720.25
408.002	683.25
408.226	633.25
408.449	605.25
408.673	613.25
408.896	645.25
409.12	696.25
409.344	657.25
409.567	596.25
409.791	559.25
410.014	555.25
410.238	565.25
410.461	571.25
410.685	577.25
410.908	584.25
411.132	633.25
411.355	656.25
411.578	639.25
411.802	582.25
412.025	567.25
412.249	578.25
412.472	602.25
412.695	623.25
412.919	623.25
413.142	571.25
413.365	549.25
413.589	524.25
413.812	543.25
414.035	529.25
414.258	532.25
414.482	511.25
414.705	510.25
414.928	538.25
415.151	508.25
415.374	515.25
415.597	545.25
415.821	513.25
416.044	529.25
416.267	544.25
416.49	539.25
416.713	515.25
416.936	516.25
417.159	528.25
417.382	530.25
417.605	559.25
417.828	541.25
418.051	576.25
418.274	549.25
418.497	533.25
418.72	528.25
418.943	528.25
419.166	546.25
419.389	584.25
419.611	564.25
419.834	550.25
420.057	565.25
420.28	574.25
420.503	551.25
420.726	575.25
420.948	581.25
421.171	619.25
421.394	657.25
421.617	576.25
421.839	573.25
422.062	562.25
422.285	584.25
422.507	668.25
422.73	727.25
422.953	690.25
423.175	613.25
423.398	601.25
423.621	597.25
423.843	626.25
424.066	634.25
424.288	597.25
424.511	637.25
424.733	703.25
424.956	793.25
425.178	775.25
425.401	776.25
425.623	792.25
425.846	679.25
426.068	628.25
426.291	626.25
426.513	645.25
426.735	630.25
426.958	685.25
427.18	777.25
427.402	911.25
427.625	1013.25
427.847	940.25
428.069	776.25
428.292	703.25
428.514	648.25
428.736	635.25
428.958	611.25
429.181	594.25
429.403	584.25
429.625	582.25
429.847	645.25
430.069	723.25
430.292	697.25
430.514	603.25
430.736	581.25
430.958	581.25
431.18	570.25
431.402	539.25
431.624	538.25
431.846	512.25
432.068	532.25
432.29	538.25
432.512	570.25
432.734	549.25
432.956	554.25
433.178	571.25
433.4	591.25
433.622	584.25
433.844	549.25
434.066	526.25
434.287	530.25
434.509	532.25
434.731	546.25
434.953	560.25
435.175	581.25
435.397	613.25
435.618	657.25
435.84	719.25
436.062	791.25
436.284	872.25
436.505	743.25
436.727	676.25
436.949	621.25
437.17	592.25
437.392	596.25
437.614	607.25
437.835	641.25
438.057	758.25
438.278	889.25
438.5	875.25
438.721	992.25
438.943	913.25
439.165	728.25
439.386	676.25
439.608	669.25
439.829	656.25
440.05	676.25
440.272	742.25
440.493	701.25
440.715	630.25
440.936	613.25
441.158	580.25
441.379	563.25
441.6	603.25
441.822	629.25
442.043	702.25
442.264	794.25
442.486	816.25
442.707	694.25
442.928	677.25
443.149	689.25
443.371	673.25
443.592	738.25
443.813	848.25
444.034	889.25
444.255	739.25
444.476	657.25
444.698	638.25
444.919	638.25
445.14	765.25
445.361	740.25
445.582	687.25
445.803	771.25
446.024	908.25
446.245	868.25
446.466	849.25
446.687	688.25
446.908	643.25
447.129	590.25
447.35	599.25
447.571	602.25
447.792	577.25
448.013	612.25
448.234	619.25
448.455	704.25
448.675	811.25
448.896	945.25
449.117	822.25
449.338	747.25
449.559	868.25
449.779	986.25
450	801.25
450.221	669.25
450.442	617.25
450.662	595.25
450.883	575.25
451.104	627.25
451.324	624.25
451.545	584.25
451.766	543.25
451.986	550.25
452.207	522.25
452.428	532.25
452.648	536.25
452.869	538.25
453.089	551.25
453.31	579.25
453.53	553.25
453.751	534.25
453.971	527.25
454.192	578.25
454.412	573.25
454.633	530.25
454.853	527.25
455.073	529.25
455.294	570.25
455.514	657.25
455.734	595.25
455.955	507.25
456.175	506.25
456.395	506.25
456.616	499.25
456.836	487.25
457.056	499.25
457.276	489.25
457.497	498.25
457.717	462.25
457.937	482.25
458.157	513.25
458.377	534.25
458.598	541.25
458.818	615.25
459.038	733.25
459.258	741.25
459.478	627.25
459.698	551.25
459.918	550.25
460.138	529.25
460.358	557.25
460.578	514.25
460.798	526.25
461.018	556.25
461.238	546.25
461.458	538.25
461.678	523.25
461.898	523.25
462.118	513.25
462.338	536.25
462.558	555.25
462.777	525.25
462.997	539.25
463.217	571.25
463.437	555.25
463.657	565.25
463.876	550.25
464.096	561.25
464.316	531.25
464.536	576.25
464.755	582.25
464.975	586.25
465.195	650.25
465.414	755.25
465.634	664.25
465.854	606.25
466.073	562.25
466.293	556.25
466.512	538.25
466.732	548.25
466.951	530.25
467.171	506.25
467.391	533.25
467.61	555.25
467.829	591.25
468.049	569.25
468.268	546.25
468.488	549.25
468.707	538.25
468.927	527.25
469.146	539.25
469.365	544.25
469.585	530.25
469.804	544.25
470.023	567.25
470.243	551.25
470.462	531.25
470.681	593.25
470.901	583.25
471.12	542.25
471.339	537.25
471.558	558.25
471.777	525.25
471.997	531.25
472.216	535.25
472.435	597.25
472.654	569.25
472.873	512.25
473.092	549.25
473.311	542.25
473.53	569.25
473.749	564.25
473.968	630.25
474.187	757.25
474.406	748.25
474.625	631.25
474.844	589.25
475.063	553.25
475.282	550.25
475.501	558.25
475.72	540.25
475.939	557.25
476.158	566.25
476.377	573.25
476.596	555.25
476.814	570.25
477.033	582.25
477.252	586.25
477.471	606.25
477.69	592.25
477.908	574.25
478.127	587.25
478.346	576.25
478.564	599.25
478.783	597.25
479.002	626.25
479.22	636.25
479.439	637.25
479.658	681.25
479.876	660.25
480.095	659.25
480.313	702.25
480.532	675.25
480.751	660.25
480.969	707.25
481.188	776.25
481.406	810.25
481.624	706.25
481.843	697.25
482.061	670.25
482.28	657.25
482.498	638.25
482.717	659.25
482.935	644.25
483.153	648.25
483.372	645.25
483.59	649.25
483.808	651.25
484.027	654.25
484.245	641.25
484.463	626.25
484.681	665.25
484.9	653.25
485.118	673.25
485.336	677.25
485.554	647.25
485.772	670.25
485.99	660.25
486.209	670.25
486.427	667.25
486.645	695.25
486.863	724.25
487.081	733.25
487.299	723.25
487.517	715.25
487.735	719.25
487.953	703.25
488.171	702.25
488.389	705.25
488.607	707.25
488.825	702.25
489.043	711.25
489.261	708.25
489.479	729.25
489.696	705.25
489.914	723.25
490.132	735.25
490.35	779.25
490.568	765.25
490.786	757.25
491.003	769.25
491.221	797.25
491.439	796.25
491.657	818.25
491.874	809.25
492.092	837.25
492.31	835.25
492.527	839.25
492.745	848.25
492.963	847.25
493.18	838.25
493.398	860.25
493.615	851.25
493.833	833.25
494.05	857.25
494.268	866.25
494.485	858.25
494.703	834.25
494.92	853.25
495.138	863.25
495.355	823.25
495.573	846.25
495.79	866.25
496.008	870.25
496.225	846.25
496.442	859.25
496.66	846.25
496.877	841.25
497.094	874.25
497.312	862.25
497.529	861.25
497.746	888.25
497.963	909.25
498.181	903.25
498.398	885.25
498.615	916.25
498.832	886.25
499.049	921.25
499.267	920.25
499.484	956.25
499.701	951.25
499.918	998.25
500.135	1000.25
500.352	1034.25
500.569	1021.25
500.786	1024.25
501.003	1024.25
501.22	1036.25
501.437	983.25
501.654	1009.25
501.871	991.25
502.088	999.25
502.305	943.25
502.522	920.25
502.739	923.25
502.956	886.25
503.172	885.25
503.389	877.25
503.606	893.25
503.823	902.25
504.04	850.25
504.256	862.25
504.473	827.25
504.69	844.25
504.907	832.25
505.123	838.25
505.34	831.25
505.557	820.25
505.773	818.25
505.99	831.25
506.207	825.25
506.423	833.25
506.64	806.25
506.856	808.25
507.073	801.25
507.289	793.25
507.506	810.25
507.722	833.25
507.939	875.25
508.155	830.25
508.372	805.25
508.588	793.25
508.805	764.25
509.021	783.25
509.238	799.25
509.454	829.25
509.67	818.25
509.887	779.25
510.103	786.25
510.319	809.25
510.536	939.25
510.752	1578.25
510.968	1279.25
511.184	837.25
511.401	796.25
511.617	807.25
511.833	757.25
512.049	762.25
512.265	755.25
512.481	750.25
512.698	731.25
512.914	750.25
513.13	731.25
513.346	770.25
513.562	746.25
513.778	757.25
513.994	781.25
514.21	791.25
514.426	813.25
514.642	876.25
514.858	912.25
515.074	961.25
515.29	1223.25
515.506	1829.25
515.721	1480.25
515.937	959.25
516.153	867.25
516.369	833.25
516.585	780.25
516.801	758.25
517.016	750.25
517.232	764.25
517.448	769.25
517.664	768.25
517.879	756.25
518.095	727.25
518.311	743.25
518.527	743.25
518.742	729.25
518.958	733.25
519.173	748.25
519.389	738.25
519.605	746.25
519.82	763.25
520.036	783.25
520.251	808.25
520.467	831.25
520.682	878.25
520.898	882.25
521.113	898.25
521.329	929.25
521.544	1101.25
521.76	1415.25
521.975	2493.25
522.19	2382.25
522.406	1289.25
522.621	931.25
522.836	814.25
523.052	765.25
523.267	761.25
523.482	705.25
523.698	720.25
523.913	730.25
524.128	685.25
524.343	667.25
524.559	670.25
524.774	656.25
524.989	647.25
525.204	673.25
525.419	680.25
525.634	649.25
525.849	633.25
526.064	608.25
526.28	601.25
526.495	601.25
526.71	617.25
526.925	603.25
527.14	607.25
527.355	593.25
527.57	617.25
527.785	563.25
527.999	607.25
528.214	593.25
528.429	607.25
528.644	598.25
528.859	618.25
529.074	610.25
529.289	625.25
529.503	776.25
529.718	757.25
529.933	644.25
530.148	617.25
530.363	604.25
530.577	617.25
530.792	582.25
531.007	579.25
531.221	589.25
531.436	567.25
531.651	559.25
531.865	567.25
532.08	557.25
532.295	558.25
532.509	572.25
532.724	578.25
532.938	570.25
533.153	581.25
533.367	575.25
533.582	564.25
533.796	597.25
534.011	578.25
534.225	543.25
534.44	546.25
534.654	530.25
534.868	555.25
535.083	542.25
535.297	527.25
535.511	568.25
535.726	574.25
535.94	569.25
536.154	541.25
536.369	569.25
536.583	539.25
536.797	541.25
537.011	558.25
537.225	542.25
537.44	556.25
537.654	542.25
537.868	544.25
538.082	530.25
538.296	524.25
538.51	546.25
538.724	554.25
538.938	531.25
539.153	553.25
539.367	565.25
539.581	583.25
539.795	516.25
540.009	557.25
540.222	542.25
540.436	539.25
540.65	542.25
540.864	546.25
541.078	566.25
541.292	575.25
541.506	550.25
541.72	556.25
541.934	535.25
542.147	550.25
542.361	557.25
542.575	536.25
542.789	555.25
543.002	527.25
543.216	545.25
543.43	556.25
543.644	551.25
543.857	542.25
544.071	529.25
544.285	527.25
544.498	535.25
544.712	541.25
544.925	535.25
545.139	532.25
545.352	522.25
545.566	517.25
545.779	519.25
545.993	522.25
546.206	538.25
546.42	514.25
546.633	526.25
546.847	513.25
547.06	510.25
547.274	508.25
547.487	502.25
547.7	513.25
547.914	517.25
548.127	506.25
548.34	531.25
548.554	509.25
548.767	521.25
548.98	495.25
549.193	522.25
549.407	502.25
549.62	498.25
549.833	501.25
550.046	490.25
550.259	500.25
550.473	501.25
550.686	494.25
550.899	481.25
551.112	496.25
551.325	495.25
551.538	490.25
551.751	504.25
551.964	503.25
552.177	498.25
552.39	506.25
552.603	507.25
552.816	516.25
553.029	534.25
553.242	520.25
553.455	498.25
553.667	485.25
553.88	546.25
554.093	541.25
554.306	502.25
554.519	510.25
554.732	499.25
554.944	488.25
555.157	487.25
555.37	495.25
555.583	493.25
555.795	489.25
556.008	466.25
556.221	479.25
556.433	475.25
556.646	467.25
556.859	471.25
557.071	473.25
557.284	457.25
557.496	478.25
557.709	476.25
557.921	471.25
558.134	463.25
558.346	453.25
558.559	450.25
558.771	413.25
558.984	449.25
559.196	455.25
559.409	442.25
559.621	462.25
559.833	446.25
560.046	454.25
560.258	441.25
560.47	455.25
560.683	450.25
560.895	437.25
561.107	447.25
561.32	443.25
561.532	432.25
561.744	448.25
561.956	458.25
562.168	452.25
562.381	449.25
562.593	437.25
562.805	452.25
563.017	449.25
563.229	462.25
563.441	449.25
563.653	451.25
563.865	438.25
564.077	449.25
564.289	463.25
564.501	469.25
564.713	457.25
564.925	454.25
565.137	470.25
565.349	488.25
565.561	475.25
565.773	477.25
565.985	477.25
566.197	474.25
566.408	492.25
566.62	488.25
566.832	498.25
567.044	499.25
567.255	528.25
567.467	506.25
567.679	513.25
567.891	534.25
568.102	501.25
568.314	502.25
568.526	484.25
568.737	483.25
568.949	466.25
569.161	460.25
569.372	461.25
569.584	455.25
569.795	454.25
570.007	470.25
570.218	496.25
570.43	486.25
570.641	450.25
570.853	431.25
571.064	419.25
571.276	419.25
571.487	424.25
571.698	415.25
571.91	395.25
572.121	419.25
572.333	414.25
572.544	396.25
572.755	379.25
572.966	383.25
573.178	384.25
573.389	413.25
573.6	407.25
573.811	395.25
574.023	379.25
574.234	383.25
574.445	386.25
574.656	377.25
574.867	396.25
575.078	389.25
575.289	400.25
575.501	399.25
575.712	394.25
575.923	374.25
576.134	381.25
576.345	374.25
576.556	350.25
576.767	377.25
576.978	368.25
577.188	375.25
577.399	381.25
577.61	378.25
577.821	382.25
578.032	375.25
578.243	441.25
578.454	745.25
578.665	546.25
578.875	389.25
579.086	364.25
579.297	361.25
579.508	373.25
579.718	363.25
579.929	360.25
580.14	350.25
580.35	357.25
580.561	375.25
580.772	370.25
580.982	351.25
581.193	350.25
581.403	339.25
581.614	334.25
581.825	353.25
582.035	348.25
582.246	353.25
582.456	346.25
582.667	361.25
582.877	349.25
583.087	359.25
583.298	345.25
583.508	330.25
583.719	361.25
583.929	359.25
584.139	337.25
584.35	330.25
584.56	339.25
584.77	347.25
584.981	341.25
585.191	334.25
585.401	332.25
585.611	358.25
585.821	338.25
586.032	331.25
586.242	333.25
586.452	329.25
586.662	330.25
586.872	344.25
587.082	323.25
587.292	343.25
587.502	327.25
587.713	318.25
587.923	335.25
588.133	327.25
588.343	331.25
588.553	331.25
588.762	347.25
588.972	327.25
589.182	335.25
589.392	325.25
589.602	327.25
589.812	335.25
590.022	335.25
590.232	306.25
590.441	348.25
590.651	332.25
590.861	341.25
591.071	329.25
591.281	326.25
591.49	322.25
591.7	325.25
591.91	340.25
592.119	336.25
592.329	333.25
592.539	333.25
592.748	346.25
592.958	322.25
593.167	327.25
593.377	334.25
593.587	331.25
593.796	346.25
594.006	332.25
594.215	322.25
594.424	327.25
594.634	345.25
594.843	327.25
595.053	337.25
595.262	334.25
595.472	320.25
595.681	324.25
595.89	308.25
596.1	296.25
596.309	310.25
596.518	311.25
596.727	318.25
596.937	321.25
597.146	304.25
597.355	329.25
597.564	310.25
597.774	322.25
597.983	295.25
598.192	306.25
598.401	299.25
598.61	305.25
598.819	297.25
599.028	298.25
599.237	285.25
599.446	303.25
599.655	298.25
599.864	296.25
600.073	311.25
600.282	293.25
600.491	309.25
600.7	310.25
600.909	300.25
601.118	301.25
601.327	295.25
601.536	292.25
601.745	307.25
601.953	301.25
602.162	303.25
602.371	290.25
602.58	303.25
602.789	305.25
602.997	303.25
603.206	295.25
603.415	294.25
603.623	289.25
603.832	296.25
604.041	265.25
604.249	304.25
604.458	276.25
604.666	292.25
604.875	282.25
605.084	273.25
605.292	274.25
605.501	281.25
605.709	284.25
605.918	289.25
606.126	296.25
606.334	281.25
606.543	278.25
606.751	277.25
606.96	252.25
607.168	274.25
607.376	268.25
607.585	273.25
607.793	282.25
608.001	273.25
608.21	279.25
608.418	281.25
608.626	271.25
608.834	297.25
609.043	285.25
609.251	281.25
609.459	285.25
609.667	286.25
609.875	274.25
610.083	285.25
610.291	257.25
610.499	261.25
610.707	271.25
610.916	269.25
611.124	295.25
611.332	282.25
611.54	283.25
611.748	286.25
611.955	289.25
612.163	273.25
612.371	291.25
612.579	263.25
612.787	267.25
612.995	279.25
613.203	278.25
613.411	277.25
613.618	274.25
613.826	292.25
614.034	271.25
614.242	267.25
614.449	281.25
614.657	285.25
614.865	249.25
615.072	278.25
615.28	281.25
615.488	269.25
615.695	265.25
615.903	264.25
616.111	266.25
616.318	276.25
616.526	257.25
616.733	278.25
616.941	256.25
617.148	263.25
617.356	279.25
617.563	263.25
617.771	255.25
617.978	252.25
618.185	265.25
618.393	267.25
618.6	264.25
618.807	250.25
619.015	272.25
619.222	250.25
619.429	265.25
619.637	245.25
619.844	261.25
620.051	240.25
620.258	255.25
620.466	263.25
620.673	236.25
620.88	242.25
621.087	253.25
621.294	250.25
621.501	254.25
621.708	242.25
621.915	265.25
622.122	247.25
622.329	256.25
622.536	230.25
622.743	265.25
622.95	226.25
623.157	249.25
623.364	249.25
623.571	232.25
623.778	266.25
623.985	250.25
624.192	239.25
624.399	267.25
624.606	236.25
624.812	228.25
625.019	237.25
625.226	246.25
625.433	237.25
625.639	236.25
625.846	218.25
626.053	240.25
626.259	235.25
626.466	249.25
626.673	224.25
626.879	236.25
627.086	221.25
627.293	235.25
627.499	244.25
627.706	245.25
627.912	245.25
628.119	226.25
628.325	238.25
628.532	237.25
628.738	237.25
628.945	233.25
629.151	249.25
629.357	215.25
629.564	230.25
629.77	225.25
629.976	240.25
630.183	225.25
630.389	219.25
630.595	224.25
630.802	236.25
631.008	214.25
631.214	203.25
631.42	227.25
631.627	245.25
631.833	210.25
632.039	203.25
632.245	208.25
632.451	216.25
632.657	213.25
632.863	207.25
633.069	222.25
633.275	211.25
633.481	209.25
633.688	212.25
633.893	222.25
634.099	200.25
634.305	212.25
634.511	208.25
634.717	216.25
634.923	212.25
635.129	217.25
635.335	196.25
635.541	200.25
635.747	196.25
635.952	214.25
636.158	212.25
636.364	206.25
636.57	203.25
636.775	204.25
636.981	208.25
637.187	191.25
637.392	209.25
637.598	198.25
637.804	199.25
638.009	196.25
638.215	199.25
638.421	188.25
638.626	191.25
638.832	182.25
639.037	196.25
639.243	196.25
639.448	185.25
639.654	199.25
639.859	196.25
640.065	203.25
640.27	184.25
640.475	201.25
640.681	182.25
640.886	200.25
641.091	218.25
641.297	212.25
641.502	192.25
641.707	189.25
641.913	198.25
642.118	197.25
642.323	181.25
642.528	182.25
642.733	189.25
642.939	183.25
643.144	183.25
643.349	197.25
643.554	187.25
643.759	178.25
643.964	166.25
644.169	182.25
644.374	203.25
644.579	202.25
644.784	189.25
644.989	175.25
645.194	181.25
645.399	181.25
645.604	186.25
645.809	191.25
646.014	181.25
646.219	175.25
646.423	166.25
646.628	165.25
646.833	190.25
647.038	178.25
647.243	183.25
647.447	181.25
647.652	182.25
647.857	175.25
648.062	189.25
648.266	182.25
648.471	191.25
648.676	183.25
648.88	173.25
649.085	175.25
649.289	187.25
649.494	170.25
649.698	225.25
649.903	208.25
650.107	177.25
650.312	185.25
650.516	171.25
650.721	168.25
650.925	178.25
651.13	183.25
651.334	169.25
651.539	157.25
651.743	146.25
651.947	166.25
652.152	177.25
652.356	157.25
652.56	158.25
652.764	157.25
652.969	157.25
653.173	156.25
653.377	148.25
653.581	147.25
653.785	143.25
653.99	151.25
654.194	165.25
654.398	150.25
654.602	130.25
654.806	149.25
655.01	153.25
655.214	147.25
655.418	139.25
655.622	137.25
655.826	129.25
656.03	148.25
656.234	141.25
656.438	139.25
656.642	148.25
656.846	146.25
657.049	127.25
657.253	138.25
657.457	113.25
657.661	121.25
657.865	128.25
658.068	122.25
658.272	120.25
658.476	124.25
658.68	114.25
658.883	99.25
659.087	98.25
659.291	95.25
659.494	94.25
659.698	92.25
659.901	100.25
660.105	102.25
660.309	91.25
660.512	87.25
660.716	93.25
660.919	97.25
661.123	93.25
661.326	98.25
661.53	93.25
661.733	87.25
661.936	94.25
662.14	99.25
662.343	87.25
662.546	80.25
662.75	106.25
662.953	86.25
663.156	101.25
663.36	94.25
663.563	80.25
663.766	95.25
663.969	103.25
664.173	88.25
664.376	89.25
664.579	83.25
664.782	76.25
664.985	95.25
665.188	82.25
665.391	77.25
665.594	97.25
665.797	84.25
666	80.25
666.203	85.25
666.406	98.25
666.609	83.25
666.812	81.25
667.015	96.25
667.218	78.25
667.421	90.25
667.624	83.25
667.827	76.25
668.03	79.25
668.232	80.25
668.435	81.25
668.638	96.25
668.841	68.25
669.043	80.25
669.246	86.25
669.449	73.25
669.651	87.25
669.854	77.25
670.057	99.25
670.259	91.25
670.462	98.25
670.665	90.25
670.867	83.25
671.07	93.25
671.272	88.25
671.475	76.25
671.677	69.25
671.88	73.25
672.082	87.25
672.284	95.25
672.487	93.25
672.689	77.25
672.892	79.25
