Data from 1971.PennyLincolnUp.Lamp.En5.5.200Scan.071719.P1._HRD10591_15-19-31-841.txt Node
Date: Thu Jul 18 15:19:31 EDT 2019
User: cochatt
Spectrometer: HR+D1059
Trigger mode: 1
Integration Time (sec): 1.000000E-1
Scans to average: 1
Electric dark correction enabled: true
Nonlinearity correction enabled: false
Boxcar width: 0
XAxis mode: Wavelengths
Number of Pixels in Spectrum: 2048
>>>>>Begin Spectral Data<<<<<
223.165	-1.94
223.4	-1.94
223.635	-1.94
223.869	-14.94
224.104	-25.94
224.338	-23.94
224.573	-9.94
224.808	-23.94
225.042	-10.94
225.277	-11.94
225.511	12.06
225.746	5.06
225.98	11.06
226.215	6.06
226.449	12.06
226.683	21.06
226.918	21.06
227.152	35.06
227.387	46.06
227.621	41.06
227.856	36.06
228.09	34.06
228.324	45.06
228.559	41.06
228.793	70.06
229.027	89.06
229.262	92.06
229.496	119.06
229.73	126.06
229.964	138.06
230.199	126.06
230.433	123.06
230.667	122.06
230.901	102.06
231.136	113.06
231.37	121.06
231.604	106.06
231.838	117.06
232.072	98.06
232.306	111.06
232.541	109.06
232.775	103.06
233.009	118.06
233.243	120.06
233.477	110.06
233.711	110.06
233.945	104.06
234.179	117.06
234.413	122.06
234.647	118.06
234.881	105.06
235.115	106.06
235.349	109.06
235.583	130.06
235.817	106.06
236.051	119.06
236.285	134.06
236.519	138.06
236.753	120.06
236.987	142.06
237.221	172.06
237.455	213.06
237.689	177.06
237.922	132.06
238.156	141.06
238.39	134.06
238.624	123.06
238.858	124.06
239.091	129.06
239.325	117.06
239.559	106.06
239.793	117.06
240.027	123.06
240.26	142.06
240.494	150.06
240.728	143.06
240.961	149.06
241.195	131.06
241.429	143.06
241.662	127.06
241.896	131.06
242.13	138.06
242.363	125.06
242.597	129.06
242.83	133.06
243.064	139.06
243.298	137.06
243.531	153.06
243.765	126.06
243.998	145.06
244.232	143.06
244.465	133.06
244.699	128.06
244.932	140.06
245.166	156.06
245.399	153.06
245.633	131.06
245.866	145.06
246.099	140.06
246.333	143.06
246.566	142.06
246.8	138.06
247.033	161.06
247.266	159.06
247.5	166.06
247.733	167.06
247.966	186.06
248.2	151.06
248.433	159.06
248.666	163.06
248.899	197.06
249.133	213.06
249.366	207.06
249.599	191.06
249.832	187.06
250.066	188.06
250.299	205.06
250.532	198.06
250.765	202.06
250.998	207.06
251.231	228.06
251.465	195.06
251.698	206.06
251.931	205.06
252.164	193.06
252.397	221.06
252.63	177.06
252.863	204.06
253.096	228.06
253.329	228.06
253.562	221.06
253.795	222.06
254.028	220.06
254.261	215.06
254.494	225.06
254.727	259.06
254.96	275.06
255.193	267.06
255.426	260.06
255.659	243.06
255.892	218.06
256.124	244.06
256.357	222.06
256.59	228.06
256.823	239.06
257.056	208.06
257.289	225.06
257.521	219.06
257.754	223.06
257.987	221.06
258.22	218.06
258.452	219.06
258.685	201.06
258.918	211.06
259.151	233.06
259.383	223.06
259.616	213.06
259.849	229.06
260.081	249.06
260.314	244.06
260.547	251.06
260.779	263.06
261.012	233.06
261.244	242.06
261.477	227.06
261.71	232.06
261.942	235.06
262.175	256.06
262.407	235.06
262.64	222.06
262.872	225.06
263.105	199.06
263.337	230.06
263.57	219.06
263.802	214.06
264.035	226.06
264.267	212.06
264.499	215.06
264.732	214.06
264.964	219.06
265.197	218.06
265.429	229.06
265.661	191.06
265.894	211.06
266.126	223.06
266.358	207.06
266.591	203.06
266.823	213.06
267.055	236.06
267.287	235.06
267.52	226.06
267.752	235.06
267.984	239.06
268.216	234.06
268.448	244.06
268.681	241.06
268.913	258.06
269.145	277.06
269.377	275.06
269.609	269.06
269.841	271.06
270.073	294.06
270.306	296.06
270.538	317.06
270.77	343.06
271.002	313.06
271.234	303.06
271.466	303.06
271.698	326.06
271.93	337.06
272.162	333.06
272.394	311.06
272.626	315.06
272.858	298.06
273.09	268.06
273.322	271.06
273.553	273.06
273.785	277.06
274.017	278.06
274.249	276.06
274.481	280.06
274.713	271.06
274.945	268.06
275.176	247.06
275.408	276.06
275.64	256.06
275.872	268.06
276.104	264.06
276.335	268.06
276.567	285.06
276.799	285.06
277.031	317.06
277.262	333.06
277.494	305.06
277.726	316.06
277.957	308.06
278.189	295.06
278.421	280.06
278.652	289.06
278.884	261.06
279.115	270.06
279.347	277.06
279.579	260.06
279.81	292.06
280.042	271.06
280.273	268.06
280.505	260.06
280.736	271.06
280.968	277.06
281.199	285.06
281.431	262.06
281.662	277.06
281.894	272.06
282.125	281.06
282.356	295.06
282.588	331.06
282.819	306.06
283.051	287.06
283.282	281.06
283.513	277.06
283.745	268.06
283.976	275.06
284.207	296.06
284.439	282.06
284.67	292.06
284.901	299.06
285.132	303.06
285.364	276.06
285.595	296.06
285.826	275.06
286.057	279.06
286.288	305.06
286.52	289.06
286.751	281.06
286.982	288.06
287.213	278.06
287.444	288.06
287.675	298.06
287.906	302.06
288.138	314.06
288.369	329.06
288.6	314.06
288.831	292.06
289.062	307.06
289.293	315.06
289.524	295.06
289.755	308.06
289.986	290.06
290.217	299.06
290.448	301.06
290.679	304.06
290.91	289.06
291.141	292.06
291.371	294.06
291.602	308.06
291.833	305.06
292.064	309.06
292.295	299.06
292.526	293.06
292.757	325.06
292.987	286.06
293.218	281.06
293.449	295.06
293.68	296.06
293.91	289.06
294.141	309.06
294.372	302.06
294.603	296.06
294.833	308.06
295.064	293.06
295.295	313.06
295.525	309.06
295.756	308.06
295.987	314.06
296.217	346.06
296.448	322.06
296.679	301.06
296.909	293.06
297.14	299.06
297.37	319.06
297.601	305.06
297.831	317.06
298.062	291.06
298.292	295.06
298.523	328.06
298.753	309.06
298.984	317.06
299.214	320.06
299.445	326.06
299.675	301.06
299.905	311.06
300.136	320.06
300.366	316.06
300.597	333.06
300.827	335.06
301.057	325.06
301.288	341.06
301.518	330.06
301.748	341.06
301.979	318.06
302.209	339.06
302.439	335.06
302.669	330.06
302.9	347.06
303.13	312.06
303.36	348.06
303.59	335.06
303.82	345.06
304.051	337.06
304.281	330.06
304.511	334.06
304.741	333.06
304.971	334.06
305.201	325.06
305.431	312.06
305.661	351.06
305.891	321.06
306.121	334.06
306.352	346.06
306.582	348.06
306.812	322.06
307.042	324.06
307.272	340.06
307.502	330.06
307.731	344.06
307.961	339.06
308.191	334.06
308.421	349.06
308.651	350.06
308.881	332.06
309.111	349.06
309.341	344.06
309.571	371.06
309.8	389.06
310.03	384.06
310.26	393.06
310.49	371.06
310.72	371.06
310.949	393.06
311.179	392.06
311.409	387.06
311.639	366.06
311.868	384.06
312.098	387.06
312.328	403.06
312.557	388.06
312.787	417.06
313.017	403.06
313.246	394.06
313.476	364.06
313.706	373.06
313.935	387.06
314.165	369.06
314.394	425.06
314.624	403.06
314.853	393.06
315.083	358.06
315.312	371.06
315.542	387.06
315.771	377.06
316.001	389.06
316.23	359.06
316.46	364.06
316.689	383.06
316.919	381.06
317.148	380.06
317.377	397.06
317.607	377.06
317.836	386.06
318.065	371.06
318.295	375.06
318.524	385.06
318.753	376.06
318.983	398.06
319.212	373.06
319.441	385.06
319.67	414.06
319.9	409.06
320.129	388.06
320.358	387.06
320.587	409.06
320.816	392.06
321.046	421.06
321.275	434.06
321.504	416.06
321.733	413.06
321.962	425.06
322.191	450.06
322.42	444.06
322.649	424.06
322.878	462.06
323.108	471.06
323.337	478.06
323.566	498.06
323.795	525.06
324.024	582.06
324.253	692.06
324.482	969.06
324.71	1461.06
324.939	1993.06
325.168	1661.06
325.397	869.06
325.626	603.06
325.855	504.06
326.084	505.06
326.313	481.06
326.542	505.06
326.77	523.06
326.999	677.06
327.228	887.06
327.457	1253.06
327.686	1443.06
327.914	970.06
328.143	676.06
328.372	599.06
328.6	579.06
328.829	534.06
329.058	542.06
329.287	549.06
329.515	519.06
329.744	486.06
329.972	503.06
330.201	538.06
330.43	547.06
330.658	581.06
330.887	561.06
331.115	557.06
331.344	511.06
331.572	473.06
331.801	471.06
332.03	493.06
332.258	453.06
332.486	443.06
332.715	436.06
332.943	451.06
333.172	427.06
333.4	449.06
333.629	455.06
333.857	466.06
334.085	485.06
334.314	485.06
334.542	475.06
334.771	503.06
334.999	468.06
335.227	476.06
335.455	464.06
335.684	435.06
335.912	431.06
336.14	428.06
336.369	442.06
336.597	439.06
336.825	447.06
337.053	428.06
337.281	437.06
337.51	446.06
337.738	441.06
337.966	448.06
338.194	436.06
338.422	449.06
338.65	443.06
338.878	433.06
339.106	435.06
339.334	418.06
339.562	441.06
339.79	435.06
340.018	423.06
340.246	409.06
340.474	427.06
340.702	422.06
340.93	423.06
341.158	419.06
341.386	414.06
341.614	424.06
341.842	416.06
342.07	405.06
342.298	397.06
342.526	427.06
342.754	405.06
342.981	405.06
343.209	384.06
343.437	421.06
343.665	409.06
343.893	419.06
344.12	409.06
344.348	421.06
344.576	395.06
344.804	428.06
345.031	442.06
345.259	406.06
345.487	407.06
345.714	396.06
345.942	405.06
346.17	391.06
346.397	401.06
346.625	404.06
346.853	396.06
347.08	392.06
347.308	403.06
347.535	427.06
347.763	418.06
347.99	417.06
348.218	413.06
348.445	407.06
348.673	418.06
348.9	418.06
349.128	407.06
349.355	390.06
349.583	398.06
349.81	393.06
350.037	386.06
350.265	406.06
350.492	398.06
350.72	374.06
350.947	380.06
351.174	386.06
351.402	408.06
351.629	405.06
351.856	390.06
352.083	397.06
352.311	405.06
352.538	395.06
352.765	408.06
352.992	400.06
353.22	412.06
353.447	394.06
353.674	375.06
353.901	396.06
354.128	394.06
354.355	371.06
354.583	374.06
354.81	377.06
355.037	376.06
355.264	381.06
355.491	373.06
355.718	356.06
355.945	351.06
356.172	377.06
356.399	361.06
356.626	354.06
356.853	359.06
357.08	356.06
357.307	383.06
357.534	366.06
357.761	374.06
357.988	382.06
358.215	354.06
358.441	373.06
358.668	379.06
358.895	380.06
359.122	394.06
359.349	393.06
359.576	399.06
359.802	395.06
360.029	421.06
360.256	444.06
360.483	410.06
360.709	408.06
360.936	382.06
361.163	383.06
361.39	388.06
361.616	397.06
361.843	398.06
362.07	379.06
362.296	401.06
362.523	385.06
362.749	389.06
362.976	392.06
363.203	373.06
363.429	352.06
363.656	382.06
363.882	355.06
364.109	362.06
364.335	367.06
364.562	362.06
364.788	373.06
365.015	370.06
365.241	365.06
365.468	376.06
365.694	376.06
365.92	354.06
366.147	373.06
366.373	355.06
366.599	385.06
366.826	355.06
367.052	363.06
367.278	376.06
367.505	385.06
367.731	369.06
367.957	356.06
368.184	363.06
368.41	349.06
368.636	396.06
368.862	399.06
369.089	383.06
369.315	367.06
369.541	343.06
369.767	350.06
369.993	341.06
370.219	355.06
370.445	361.06
370.672	366.06
370.898	361.06
371.124	362.06
371.35	375.06
371.576	355.06
371.802	352.06
372.028	371.06
372.254	347.06
372.48	342.06
372.706	385.06
372.932	361.06
373.158	360.06
373.384	362.06
373.61	358.06
373.835	369.06
374.061	362.06
374.287	357.06
374.513	367.06
374.739	373.06
374.965	355.06
375.191	365.06
375.416	357.06
375.642	363.06
375.868	357.06
376.094	359.06
376.319	357.06
376.545	361.06
376.771	360.06
376.997	369.06
377.222	359.06
377.448	355.06
377.674	357.06
377.899	348.06
378.125	353.06
378.35	373.06
378.576	360.06
378.802	337.06
379.027	335.06
379.253	369.06
379.478	352.06
379.704	361.06
379.929	350.06
380.155	349.06
380.38	365.06
380.606	364.06
380.831	349.06
381.057	343.06
381.282	359.06
381.507	341.06
381.733	345.06
381.958	327.06
382.184	353.06
382.409	362.06
382.634	359.06
382.86	338.06
383.085	361.06
383.31	360.06
383.535	354.06
383.761	357.06
383.986	370.06
384.211	375.06
384.436	365.06
384.662	366.06
384.887	350.06
385.112	373.06
385.337	353.06
385.562	357.06
385.787	365.06
386.013	389.06
386.238	395.06
386.463	377.06
386.688	381.06
386.913	379.06
387.138	366.06
387.363	378.06
387.588	366.06
387.813	383.06
388.038	369.06
388.263	375.06
388.488	355.06
388.713	371.06
388.938	387.06
389.163	364.06
389.387	373.06
389.612	371.06
389.837	386.06
390.062	380.06
390.287	369.06
390.512	372.06
390.736	363.06
390.961	374.06
391.186	387.06
391.411	373.06
391.636	387.06
391.86	364.06
392.085	381.06
392.31	386.06
392.534	377.06
392.759	391.06
392.984	369.06
393.208	370.06
393.433	374.06
393.658	370.06
393.882	383.06
394.107	372.06
394.331	371.06
394.556	365.06
394.78	387.06
395.005	382.06
395.229	351.06
395.454	377.06
395.678	385.06
395.903	371.06
396.127	389.06
396.352	399.06
396.576	387.06
396.801	376.06
397.025	383.06
397.249	393.06
397.474	407.06
397.698	403.06
397.922	399.06
398.147	428.06
398.371	411.06
398.595	394.06
398.82	424.06
399.044	434.06
399.268	416.06
399.492	427.06
399.717	462.06
399.941	489.06
400.165	483.06
400.389	503.06
400.613	458.06
400.837	417.06
401.062	430.06
401.286	400.06
401.51	415.06
401.734	409.06
401.958	426.06
402.182	425.06
402.406	439.06
402.63	426.06
402.854	435.06
403.078	434.06
403.302	425.06
403.526	433.06
403.75	430.06
403.974	424.06
404.198	409.06
404.422	456.06
404.645	450.06
404.869	435.06
405.093	458.06
405.317	479.06
405.541	514.06
405.765	481.06
405.988	423.06
406.212	442.06
406.436	470.06
406.66	490.06
406.883	478.06
407.107	477.06
407.331	513.06
407.555	570.06
407.778	543.06
408.002	502.06
408.226	483.06
408.449	466.06
408.673	471.06
408.896	490.06
409.12	517.06
409.344	477.06
409.567	444.06
409.791	423.06
410.014	426.06
410.238	428.06
410.461	412.06
410.685	444.06
410.908	433.06
411.132	475.06
411.355	477.06
411.578	470.06
411.802	462.06
412.025	427.06
412.249	446.06
412.472	451.06
412.695	507.06
412.919	455.06
413.142	451.06
413.365	403.06
413.589	421.06
413.812	410.06
414.035	399.06
414.258	384.06
414.482	391.06
414.705	401.06
414.928	378.06
415.151	403.06
415.374	400.06
415.597	372.06
415.821	400.06
416.044	393.06
416.267	412.06
416.49	381.06
416.713	391.06
416.936	396.06
417.159	406.06
417.382	411.06
417.605	419.06
417.828	411.06
418.051	418.06
418.274	419.06
418.497	418.06
418.72	395.06
418.943	391.06
419.166	418.06
419.389	453.06
419.611	411.06
419.834	421.06
420.057	418.06
420.28	405.06
420.503	405.06
420.726	413.06
420.948	431.06
421.171	456.06
421.394	489.06
421.617	452.06
421.839	425.06
422.062	428.06
422.285	431.06
422.507	502.06
422.73	529.06
422.953	506.06
423.175	448.06
423.398	431.06
423.621	427.06
423.843	461.06
424.066	449.06
424.288	452.06
424.511	463.06
424.733	509.06
424.956	571.06
425.178	557.06
425.401	555.06
425.623	567.06
425.846	479.06
426.068	455.06
426.291	454.06
426.513	447.06
426.735	479.06
426.958	488.06
427.18	550.06
427.402	669.06
427.625	712.06
427.847	618.06
428.069	561.06
428.292	486.06
428.514	448.06
428.736	430.06
428.958	431.06
429.181	407.06
429.403	433.06
429.625	447.06
429.847	482.06
430.069	513.06
430.292	491.06
430.514	447.06
430.736	419.06
430.958	408.06
431.18	423.06
431.402	396.06
431.624	386.06
431.846	389.06
432.068	393.06
432.29	391.06
432.512	390.06
432.734	409.06
432.956	409.06
433.178	398.06
433.4	420.06
433.622	421.06
433.844	389.06
434.066	407.06
434.287	393.06
434.509	399.06
434.731	393.06
434.953	414.06
435.175	405.06
435.397	444.06
435.618	447.06
435.84	488.06
436.062	579.06
436.284	630.06
436.505	517.06
436.727	472.06
436.949	426.06
437.17	418.06
437.392	418.06
437.614	423.06
437.835	476.06
438.057	549.06
438.278	637.06
438.5	622.06
438.721	668.06
438.943	637.06
439.165	514.06
439.386	484.06
439.608	447.06
439.829	448.06
440.05	482.06
440.272	517.06
440.493	487.06
440.715	452.06
440.936	435.06
441.158	424.06
441.379	439.06
441.6	427.06
441.822	438.06
442.043	493.06
442.264	555.06
442.486	622.06
442.707	499.06
442.928	463.06
443.149	498.06
443.371	487.06
443.592	533.06
443.813	583.06
444.034	636.06
444.255	535.06
444.476	472.06
444.698	443.06
444.919	442.06
445.14	568.06
445.361	502.06
445.582	495.06
445.803	537.06
446.024	614.06
446.245	638.06
446.466	578.06
446.687	497.06
446.908	450.06
447.129	441.06
447.35	438.06
447.571	427.06
447.792	405.06
448.013	421.06
448.234	436.06
448.455	466.06
448.675	566.06
448.896	661.06
449.117	540.06
449.338	539.06
449.559	620.06
449.779	673.06
450	555.06
450.221	462.06
450.442	414.06
450.662	399.06
450.883	426.06
451.104	428.06
451.324	400.06
451.545	390.06
451.766	370.06
451.986	363.06
452.207	389.06
452.428	378.06
452.648	367.06
452.869	379.06
453.089	383.06
453.31	385.06
453.53	362.06
453.751	378.06
453.971	360.06
454.192	383.06
454.412	365.06
454.633	374.06
454.853	358.06
455.073	350.06
455.294	388.06
455.514	452.06
455.734	418.06
455.955	376.06
456.175	365.06
456.395	348.06
456.616	370.06
456.836	353.06
457.056	355.06
457.276	346.06
457.497	344.06
457.717	347.06
457.937	359.06
458.157	349.06
458.377	356.06
458.598	375.06
458.818	404.06
459.038	486.06
459.258	493.06
459.478	405.06
459.698	402.06
459.918	400.06
460.138	383.06
460.358	395.06
460.578	392.06
460.798	381.06
461.018	383.06
461.238	376.06
461.458	395.06
461.678	391.06
461.898	383.06
462.118	378.06
462.338	386.06
462.558	403.06
462.777	398.06
462.997	395.06
463.217	407.06
463.437	413.06
463.657	404.06
463.876	411.06
464.096	414.06
464.316	434.06
464.536	419.06
464.755	425.06
464.975	400.06
465.195	445.06
465.414	483.06
465.634	437.06
465.854	400.06
466.073	381.06
466.293	391.06
466.512	357.06
466.732	375.06
466.951	359.06
467.171	349.06
467.391	367.06
467.61	381.06
467.829	385.06
468.049	376.06
468.268	365.06
468.488	369.06
468.707	361.06
468.927	367.06
469.146	356.06
469.365	384.06
469.585	369.06
469.804	373.06
470.023	378.06
470.243	395.06
470.462	404.06
470.681	409.06
470.901	389.06
471.12	372.06
471.339	403.06
471.558	379.06
471.777	391.06
471.997	369.06
472.216	393.06
472.435	386.06
472.654	398.06
472.873	386.06
473.092	377.06
473.311	388.06
473.53	392.06
473.749	387.06
473.968	427.06
474.187	525.06
474.406	515.06
474.625	423.06
474.844	415.06
475.063	363.06
475.282	379.06
475.501	403.06
475.72	389.06
475.939	375.06
476.158	402.06
476.377	389.06
476.596	404.06
476.814	405.06
477.033	392.06
477.252	414.06
477.471	398.06
477.69	407.06
477.908	429.06
478.127	423.06
478.346	402.06
478.564	413.06
478.783	423.06
479.002	424.06
479.22	455.06
479.439	441.06
479.658	431.06
479.876	454.06
480.095	458.06
480.313	502.06
480.532	476.06
480.751	439.06
480.969	473.06
481.188	495.06
481.406	523.06
481.624	476.06
481.843	419.06
482.061	447.06
482.28	467.06
482.498	448.06
482.717	435.06
482.935	443.06
483.153	428.06
483.372	440.06
483.59	448.06
483.808	425.06
484.027	438.06
484.245	443.06
484.463	436.06
484.681	453.06
484.9	464.06
485.118	464.06
485.336	466.06
485.554	438.06
485.772	434.06
485.99	456.06
486.209	463.06
486.427	459.06
486.645	469.06
486.863	470.06
487.081	458.06
487.299	462.06
487.517	459.06
487.735	461.06
487.953	478.06
488.171	484.06
488.389	497.06
488.607	481.06
488.825	451.06
489.043	476.06
489.261	481.06
489.479	490.06
489.696	486.06
489.914	473.06
490.132	503.06
490.35	509.06
490.568	511.06
490.786	502.06
491.003	494.06
491.221	531.06
491.439	554.06
491.657	527.06
491.874	544.06
492.092	562.06
492.31	543.06
492.527	564.06
492.745	555.06
492.963	569.06
493.18	548.06
493.398	547.06
493.615	572.06
493.833	588.06
494.05	574.06
494.268	577.06
494.485	566.06
494.703	580.06
494.92	557.06
495.138	570.06
495.355	557.06
495.573	561.06
495.79	570.06
496.008	541.06
496.225	557.06
496.442	564.06
496.66	565.06
496.877	556.06
497.094	576.06
497.312	610.06
497.529	576.06
497.746	589.06
497.963	598.06
498.181	618.06
498.398	587.06
498.615	596.06
498.832	606.06
499.049	596.06
499.267	634.06
499.484	655.06
499.701	662.06
499.918	726.06
500.135	712.06
500.352	719.06
500.569	731.06
500.786	733.06
501.003	736.06
501.22	718.06
501.437	689.06
501.654	706.06
501.871	698.06
502.088	683.06
502.305	627.06
502.522	624.06
502.739	601.06
502.956	598.06
503.172	609.06
503.389	582.06
503.606	585.06
503.823	588.06
504.04	567.06
504.256	549.06
504.473	578.06
504.69	560.06
504.907	542.06
505.123	551.06
505.34	546.06
505.557	554.06
505.773	525.06
505.99	549.06
506.207	538.06
506.423	543.06
506.64	546.06
506.856	515.06
507.073	529.06
507.289	520.06
507.506	524.06
507.722	540.06
507.939	548.06
508.155	519.06
508.372	516.06
508.588	502.06
508.805	503.06
509.021	509.06
509.238	523.06
509.454	538.06
509.67	511.06
509.887	533.06
510.103	519.06
510.319	545.06
510.536	600.06
510.752	877.06
510.968	731.06
511.184	519.06
511.401	502.06
511.617	508.06
511.833	489.06
512.049	484.06
512.265	477.06
512.481	480.06
512.698	484.06
512.914	482.06
513.13	497.06
513.346	478.06
513.562	501.06
513.778	476.06
513.994	472.06
514.21	489.06
514.426	502.06
514.642	506.06
514.858	540.06
515.074	561.06
515.29	647.06
515.506	925.06
515.721	760.06
515.937	564.06
516.153	526.06
516.369	519.06
516.585	509.06
516.801	479.06
517.016	488.06
517.232	479.06
517.448	492.06
517.664	475.06
517.879	482.06
518.095	501.06
518.311	467.06
518.527	476.06
518.742	497.06
518.958	461.06
519.173	475.06
519.389	460.06
519.605	458.06
519.82	483.06
520.036	476.06
520.251	493.06
520.467	516.06
520.682	513.06
520.898	529.06
521.113	536.06
521.329	555.06
521.544	602.06
521.76	767.06
521.975	1190.06
522.19	1161.06
522.406	667.06
522.621	528.06
522.836	489.06
523.052	461.06
523.267	446.06
523.482	462.06
523.698	437.06
523.913	433.06
524.128	453.06
524.343	452.06
524.559	427.06
524.774	405.06
524.989	416.06
525.204	393.06
525.419	418.06
525.634	409.06
525.849	402.06
526.064	384.06
526.28	391.06
526.495	388.06
526.71	399.06
526.925	397.06
527.14	387.06
527.355	403.06
527.57	377.06
527.785	393.06
527.999	401.06
528.214	375.06
528.429	392.06
528.644	395.06
528.859	386.06
529.074	399.06
529.289	430.06
529.503	437.06
529.718	457.06
529.933	417.06
530.148	400.06
530.363	419.06
530.577	391.06
530.792	405.06
531.007	387.06
531.221	385.06
531.436	356.06
531.651	385.06
531.865	359.06
532.08	377.06
532.295	378.06
532.509	344.06
532.724	371.06
532.938	354.06
533.153	375.06
533.367	361.06
533.582	351.06
533.796	375.06
534.011	364.06
534.225	353.06
534.44	367.06
534.654	372.06
534.868	358.06
535.083	362.06
535.297	363.06
535.511	368.06
535.726	357.06
535.94	370.06
536.154	381.06
536.369	385.06
536.583	355.06
536.797	347.06
537.011	352.06
537.225	353.06
537.44	364.06
537.654	357.06
537.868	344.06
538.082	360.06
538.296	346.06
538.51	369.06
538.724	356.06
538.938	350.06
539.153	359.06
539.367	356.06
539.581	361.06
539.795	370.06
540.009	360.06
540.222	361.06
540.436	345.06
540.65	360.06
540.864	361.06
541.078	368.06
541.292	369.06
541.506	370.06
541.72	362.06
541.934	380.06
542.147	397.06
542.361	378.06
542.575	377.06
542.789	358.06
543.002	353.06
543.216	367.06
543.43	373.06
543.644	381.06
543.857	362.06
544.071	391.06
544.285	382.06
544.498	389.06
544.712	388.06
544.925	383.06
545.139	372.06
545.352	358.06
545.566	363.06
545.779	360.06
545.993	373.06
546.206	371.06
546.42	355.06
546.633	381.06
546.847	364.06
547.06	369.06
547.274	361.06
547.487	369.06
547.7	349.06
547.914	350.06
548.127	352.06
548.34	345.06
548.554	357.06
548.767	360.06
548.98	338.06
549.193	327.06
549.407	341.06
549.62	349.06
549.833	348.06
550.046	329.06
550.259	330.06
550.473	337.06
550.686	343.06
550.899	357.06
551.112	350.06
551.325	346.06
551.538	336.06
551.751	345.06
551.964	316.06
552.177	345.06
552.39	349.06
552.603	323.06
552.816	358.06
553.029	341.06
553.242	334.06
553.455	358.06
553.667	365.06
553.88	376.06
554.093	348.06
554.306	342.06
554.519	357.06
554.732	342.06
554.944	344.06
555.157	323.06
555.37	342.06
555.583	320.06
555.795	343.06
556.008	322.06
556.221	342.06
556.433	314.06
556.646	313.06
556.859	330.06
557.071	316.06
557.284	338.06
557.496	319.06
557.709	327.06
557.921	331.06
558.134	327.06
558.346	333.06
558.559	324.06
558.771	308.06
558.984	297.06
559.196	300.06
559.409	299.06
559.621	303.06
559.833	319.06
560.046	317.06
560.258	320.06
560.47	301.06
560.683	316.06
560.895	299.06
561.107	302.06
561.32	299.06
561.532	309.06
561.744	317.06
561.956	306.06
562.168	309.06
562.381	317.06
562.593	314.06
562.805	331.06
563.017	298.06
563.229	306.06
563.441	315.06
563.653	315.06
563.865	306.06
564.077	302.06
564.289	315.06
564.501	301.06
564.713	322.06
564.925	310.06
565.137	323.06
565.349	322.06
565.561	340.06
565.773	319.06
565.985	325.06
566.197	331.06
566.408	327.06
566.62	334.06
566.832	339.06
567.044	376.06
567.255	354.06
567.467	375.06
567.679	362.06
567.891	355.06
568.102	368.06
568.314	367.06
568.526	334.06
568.737	331.06
568.949	331.06
569.161	332.06
569.372	349.06
569.584	298.06
569.795	293.06
570.007	306.06
570.218	329.06
570.43	328.06
570.641	309.06
570.853	301.06
571.064	297.06
571.276	297.06
571.487	280.06
571.698	277.06
571.91	295.06
572.121	285.06
572.333	277.06
572.544	278.06
572.755	276.06
572.966	271.06
573.178	277.06
573.389	272.06
573.6	267.06
573.811	263.06
574.023	256.06
574.234	255.06
574.445	279.06
574.656	262.06
574.867	257.06
575.078	262.06
575.289	254.06
575.501	262.06
575.712	257.06
575.923	261.06
576.134	244.06
576.345	260.06
576.556	269.06
576.767	262.06
576.978	262.06
577.188	269.06
577.399	257.06
577.61	264.06
577.821	258.06
578.032	257.06
578.243	283.06
578.454	421.06
578.665	333.06
578.875	254.06
579.086	263.06
579.297	259.06
579.508	243.06
579.718	246.06
579.929	259.06
580.14	251.06
580.35	264.06
580.561	238.06
580.772	252.06
580.982	251.06
581.193	250.06
581.403	247.06
581.614	242.06
581.825	230.06
582.035	257.06
582.246	246.06
582.456	245.06
582.667	246.06
582.877	234.06
583.087	241.06
583.298	230.06
583.508	241.06
583.719	238.06
583.929	229.06
584.139	251.06
584.35	233.06
584.56	241.06
584.77	230.06
584.981	265.06
585.191	222.06
585.401	237.06
585.611	227.06
585.821	219.06
586.032	254.06
586.242	252.06
586.452	213.06
586.662	218.06
586.872	235.06
587.082	241.06
587.292	220.06
587.502	238.06
587.713	228.06
587.923	242.06
588.133	235.06
588.343	234.06
588.553	228.06
588.762	214.06
588.972	224.06
589.182	237.06
589.392	222.06
589.602	220.06
589.812	241.06
590.022	253.06
590.232	224.06
590.441	238.06
590.651	227.06
590.861	218.06
591.071	233.06
591.281	225.06
591.49	214.06
591.7	220.06
591.91	229.06
592.119	223.06
592.329	232.06
592.539	243.06
592.748	245.06
592.958	258.06
593.167	218.06
593.377	236.06
593.587	252.06
593.796	256.06
594.006	244.06
594.215	245.06
594.424	224.06
594.634	243.06
594.843	226.06
595.053	250.06
595.262	227.06
595.472	222.06
595.681	229.06
595.89	228.06
596.1	229.06
596.309	234.06
596.518	222.06
596.727	214.06
596.937	229.06
597.146	234.06
597.355	217.06
597.564	240.06
597.774	207.06
597.983	218.06
598.192	209.06
598.401	202.06
598.61	210.06
598.819	209.06
599.028	215.06
599.237	205.06
599.446	222.06
599.655	221.06
599.864	216.06
600.073	204.06
600.282	211.06
600.491	196.06
600.7	207.06
600.909	203.06
601.118	205.06
601.327	206.06
601.536	218.06
601.745	211.06
601.953	198.06
602.162	210.06
602.371	201.06
602.58	207.06
602.789	207.06
602.997	211.06
603.206	202.06
603.415	198.06
603.623	212.06
603.832	207.06
604.041	200.06
604.249	197.06
604.458	193.06
604.666	198.06
604.875	190.06
605.084	204.06
605.292	211.06
605.501	207.06
605.709	203.06
605.918	206.06
606.126	202.06
606.334	199.06
606.543	204.06
606.751	213.06
606.96	211.06
607.168	210.06
607.376	205.06
607.585	197.06
607.793	195.06
608.001	179.06
608.21	196.06
608.418	218.06
608.626	193.06
608.834	193.06
609.043	211.06
609.251	211.06
609.459	208.06
609.667	208.06
609.875	192.06
610.083	203.06
610.291	194.06
610.499	205.06
610.707	187.06
610.916	213.06
611.124	201.06
611.332	201.06
611.54	215.06
611.748	211.06
611.955	214.06
612.163	199.06
612.371	206.06
612.579	202.06
612.787	208.06
612.995	198.06
613.203	205.06
613.411	208.06
613.618	214.06
613.826	212.06
614.034	200.06
614.242	186.06
614.449	205.06
614.657	208.06
614.865	212.06
615.072	204.06
615.28	214.06
615.488	179.06
615.695	207.06
615.903	199.06
616.111	191.06
616.318	217.06
616.526	194.06
616.733	209.06
616.941	193.06
617.148	195.06
617.356	196.06
617.563	191.06
617.771	195.06
617.978	173.06
618.185	189.06
618.393	197.06
618.6	195.06
618.807	195.06
619.015	189.06
619.222	199.06
619.429	190.06
619.637	192.06
619.844	195.06
620.051	190.06
620.258	185.06
620.466	190.06
620.673	191.06
620.88	188.06
621.087	186.06
621.294	200.06
621.501	191.06
621.708	197.06
621.915	211.06
622.122	202.06
622.329	189.06
622.536	199.06
622.743	189.06
622.95	174.06
623.157	179.06
623.364	199.06
623.571	175.06
623.778	168.06
623.985	186.06
624.192	197.06
624.399	188.06
624.606	178.06
624.812	182.06
625.019	180.06
625.226	171.06
625.433	181.06
625.639	166.06
625.846	185.06
626.053	149.06
626.259	169.06
626.466	167.06
626.673	171.06
626.879	162.06
627.086	162.06
627.293	168.06
627.499	164.06
627.706	183.06
627.912	172.06
628.119	181.06
628.325	167.06
628.532	159.06
628.738	174.06
628.945	171.06
629.151	161.06
629.357	162.06
629.564	166.06
629.77	165.06
629.976	170.06
630.183	150.06
630.389	146.06
630.595	160.06
630.802	160.06
631.008	175.06
631.214	171.06
631.42	186.06
631.627	173.06
631.833	159.06
632.039	151.06
632.245	163.06
632.451	178.06
632.657	166.06
632.863	160.06
633.069	169.06
633.275	157.06
633.481	151.06
633.688	174.06
633.893	167.06
634.099	153.06
634.305	163.06
634.511	162.06
634.717	157.06
634.923	151.06
635.129	162.06
635.335	167.06
635.541	155.06
635.747	156.06
635.952	164.06
636.158	174.06
636.364	162.06
636.57	153.06
636.775	161.06
636.981	154.06
637.187	166.06
637.392	155.06
637.598	161.06
637.804	149.06
638.009	144.06
638.215	145.06
638.421	149.06
638.626	163.06
638.832	165.06
639.037	162.06
639.243	152.06
639.448	153.06
639.654	148.06
639.859	133.06
640.065	141.06
640.27	146.06
640.475	174.06
640.681	130.06
640.886	159.06
641.091	151.06
641.297	154.06
641.502	137.06
641.707	149.06
641.913	148.06
642.118	152.06
642.323	155.06
642.528	153.06
642.733	146.06
642.939	147.06
643.144	153.06
643.349	143.06
643.554	151.06
643.759	133.06
643.964	148.06
644.169	149.06
644.374	163.06
644.579	148.06
644.784	146.06
644.989	137.06
645.194	140.06
645.399	158.06
645.604	139.06
645.809	158.06
646.014	151.06
646.219	159.06
646.423	160.06
646.628	141.06
646.833	141.06
647.038	148.06
647.243	157.06
647.447	152.06
647.652	157.06
647.857	133.06
648.062	138.06
648.266	147.06
648.471	135.06
648.676	157.06
648.88	152.06
649.085	143.06
649.289	149.06
649.494	156.06
649.698	181.06
649.903	174.06
650.107	147.06
650.312	150.06
650.516	142.06
650.721	131.06
650.925	131.06
651.13	136.06
651.334	130.06
651.539	138.06
651.743	123.06
651.947	134.06
652.152	151.06
652.356	121.06
652.56	141.06
652.764	133.06
652.969	111.06
653.173	131.06
653.377	137.06
653.581	134.06
653.785	125.06
653.99	119.06
654.194	133.06
654.398	124.06
654.602	122.06
654.806	135.06
655.01	133.06
655.214	135.06
655.418	113.06
655.622	115.06
655.826	138.06
656.03	128.06
656.234	119.06
656.438	131.06
656.642	124.06
656.846	122.06
657.049	123.06
657.253	111.06
657.457	121.06
657.661	102.06
657.865	110.06
658.068	88.06
658.272	110.06
658.476	92.06
658.68	118.06
658.883	99.06
659.087	100.06
659.291	110.06
659.494	100.06
659.698	92.06
659.901	109.06
660.105	95.06
660.309	99.06
660.512	90.06
660.716	96.06
660.919	97.06
661.123	92.06
661.326	96.06
661.53	94.06
661.733	92.06
661.936	95.06
662.14	94.06
662.343	89.06
662.546	79.06
662.75	78.06
662.953	104.06
663.156	91.06
663.36	83.06
663.563	81.06
663.766	84.06
663.969	79.06
664.173	87.06
664.376	84.06
664.579	85.06
664.782	67.06
664.985	85.06
665.188	82.06
665.391	96.06
665.594	80.06
665.797	78.06
666	75.06
666.203	86.06
666.406	81.06
666.609	76.06
666.812	100.06
667.015	79.06
667.218	78.06
667.421	82.06
667.624	75.06
667.827	87.06
668.03	86.06
668.232	88.06
668.435	83.06
668.638	78.06
668.841	92.06
669.043	85.06
669.246	87.06
669.449	71.06
669.651	84.06
669.854	87.06
670.057	80.06
670.259	77.06
670.462	81.06
670.665	72.06
670.867	85.06
671.07	75.06
671.272	81.06
671.475	83.06
671.677	98.06
671.88	79.06
672.082	75.06
672.284	68.06
672.487	59.06
672.689	88.06
672.892	79.06
