Data from 1971.PennyLincolnUp.Lamp.En5.5.200Scan.071719.P1.Scan 2. Changed Angle._HRD10591_15-24-45-842.txt Node
Date: Thu Jul 18 15:24:45 EDT 2019
User: cochatt
Spectrometer: HR+D1059
Trigger mode: 1
Integration Time (sec): 1.000000E-1
Scans to average: 1
Electric dark correction enabled: true
Nonlinearity correction enabled: false
Boxcar width: 0
XAxis mode: Wavelengths
Number of Pixels in Spectrum: 2048
>>>>>Begin Spectral Data<<<<<
223.165	-6.5
223.4	-6.5
223.635	-6.5
223.869	-14.5
224.104	-14.5
224.338	-11.5
224.573	-14.5
224.808	-8.5
225.042	-19.5
225.277	-13.5
225.511	2.5
225.746	-0.5
225.98	-0.5
226.215	14.5
226.449	20.5
226.683	18.5
226.918	32.5
227.152	15.5
227.387	17.5
227.621	37.5
227.856	42.5
228.09	35.5
228.324	44.5
228.559	35.5
228.793	78.5
229.027	101.5
229.262	135.5
229.496	127.5
229.73	156.5
229.964	184.5
230.199	127.5
230.433	129.5
230.667	136.5
230.901	122.5
231.136	130.5
231.37	115.5
231.604	127.5
231.838	128.5
232.072	124.5
232.306	113.5
232.541	121.5
232.775	108.5
233.009	107.5
233.243	106.5
233.477	115.5
233.711	115.5
233.945	130.5
234.179	126.5
234.413	123.5
234.647	111.5
234.881	127.5
235.115	121.5
235.349	114.5
235.583	132.5
235.817	143.5
236.051	131.5
236.285	141.5
236.519	135.5
236.753	137.5
236.987	164.5
237.221	218.5
237.455	277.5
237.689	210.5
237.922	171.5
238.156	135.5
238.39	131.5
238.624	133.5
238.858	130.5
239.091	117.5
239.325	118.5
239.559	138.5
239.793	142.5
240.027	147.5
240.26	155.5
240.494	173.5
240.728	168.5
240.961	171.5
241.195	164.5
241.429	148.5
241.662	163.5
241.896	152.5
242.13	155.5
242.363	127.5
242.597	151.5
242.83	160.5
243.064	159.5
243.298	141.5
243.531	130.5
243.765	145.5
243.998	160.5
244.232	141.5
244.465	145.5
244.699	145.5
244.932	150.5
245.166	152.5
245.399	138.5
245.633	157.5
245.866	159.5
246.099	159.5
246.333	163.5
246.566	165.5
246.8	174.5
247.033	160.5
247.266	165.5
247.5	168.5
247.733	179.5
247.966	166.5
248.2	180.5
248.433	183.5
248.666	185.5
248.899	186.5
249.133	232.5
249.366	255.5
249.599	223.5
249.832	198.5
250.066	195.5
250.299	200.5
250.532	211.5
250.765	239.5
250.998	258.5
251.231	263.5
251.465	232.5
251.698	250.5
251.931	220.5
252.164	219.5
252.397	219.5
252.63	208.5
252.863	215.5
253.096	232.5
253.329	259.5
253.562	267.5
253.795	241.5
254.028	233.5
254.261	228.5
254.494	254.5
254.727	287.5
254.96	306.5
255.193	325.5
255.426	262.5
255.659	267.5
255.892	262.5
256.124	262.5
256.357	240.5
256.59	253.5
256.823	225.5
257.056	230.5
257.289	234.5
257.521	239.5
257.754	234.5
257.987	226.5
258.22	245.5
258.452	229.5
258.685	244.5
258.918	236.5
259.151	238.5
259.383	241.5
259.616	233.5
259.849	261.5
260.081	272.5
260.314	295.5
260.547	296.5
260.779	267.5
261.012	271.5
261.244	246.5
261.477	247.5
261.71	258.5
261.942	256.5
262.175	248.5
262.407	252.5
262.64	233.5
262.872	230.5
263.105	223.5
263.337	222.5
263.57	209.5
263.802	223.5
264.035	211.5
264.267	233.5
264.499	221.5
264.732	215.5
264.964	230.5
265.197	242.5
265.429	215.5
265.661	213.5
265.894	221.5
266.126	221.5
266.358	235.5
266.591	227.5
266.823	237.5
267.055	240.5
267.287	259.5
267.52	226.5
267.752	236.5
267.984	238.5
268.216	243.5
268.448	223.5
268.681	247.5
268.913	241.5
269.145	262.5
269.377	301.5
269.609	296.5
269.841	280.5
270.073	285.5
270.306	289.5
270.538	349.5
270.77	346.5
271.002	336.5
271.234	342.5
271.466	312.5
271.698	342.5
271.93	353.5
272.162	359.5
272.394	359.5
272.626	346.5
272.858	315.5
273.09	286.5
273.322	291.5
273.553	286.5
273.785	299.5
274.017	298.5
274.249	284.5
274.481	273.5
274.713	291.5
274.945	278.5
275.176	278.5
275.408	310.5
275.64	280.5
275.872	275.5
276.104	282.5
276.335	268.5
276.567	293.5
276.799	317.5
277.031	354.5
277.262	355.5
277.494	318.5
277.726	319.5
277.957	299.5
278.189	290.5
278.421	297.5
278.652	288.5
278.884	286.5
279.115	287.5
279.347	264.5
279.579	281.5
279.81	288.5
280.042	262.5
280.273	274.5
280.505	299.5
280.736	263.5
280.968	284.5
281.199	266.5
281.431	273.5
281.662	289.5
281.894	297.5
282.125	264.5
282.356	293.5
282.588	333.5
282.819	329.5
283.051	300.5
283.282	279.5
283.513	273.5
283.745	280.5
283.976	298.5
284.207	285.5
284.439	291.5
284.67	275.5
284.901	288.5
285.132	281.5
285.364	300.5
285.595	285.5
285.826	276.5
286.057	276.5
286.288	283.5
286.52	284.5
286.751	257.5
286.982	278.5
287.213	291.5
287.444	293.5
287.675	294.5
287.906	288.5
288.138	307.5
288.369	302.5
288.6	313.5
288.831	277.5
289.062	295.5
289.293	297.5
289.524	302.5
289.755	293.5
289.986	275.5
290.217	272.5
290.448	287.5
290.679	297.5
290.91	299.5
291.141	298.5
291.371	280.5
291.602	292.5
291.833	277.5
292.064	289.5
292.295	292.5
292.526	277.5
292.757	282.5
292.987	283.5
293.218	283.5
293.449	286.5
293.68	284.5
293.91	303.5
294.141	268.5
294.372	273.5
294.603	290.5
294.833	292.5
295.064	295.5
295.295	282.5
295.525	283.5
295.756	307.5
295.987	304.5
296.217	329.5
296.448	339.5
296.679	311.5
296.909	290.5
297.14	284.5
297.37	289.5
297.601	298.5
297.831	295.5
298.062	308.5
298.292	287.5
298.523	288.5
298.753	305.5
298.984	319.5
299.214	304.5
299.445	297.5
299.675	329.5
299.905	312.5
300.136	311.5
300.366	300.5
300.597	305.5
300.827	301.5
301.057	327.5
301.288	329.5
301.518	312.5
301.748	311.5
301.979	329.5
302.209	324.5
302.439	330.5
302.669	323.5
302.9	315.5
303.13	332.5
303.36	325.5
303.59	331.5
303.82	336.5
304.051	330.5
304.281	319.5
304.511	321.5
304.741	329.5
304.971	320.5
305.201	309.5
305.431	313.5
305.661	317.5
305.891	312.5
306.121	323.5
306.352	348.5
306.582	338.5
306.812	330.5
307.042	342.5
307.272	320.5
307.502	330.5
307.731	355.5
307.961	343.5
308.191	325.5
308.421	336.5
308.651	346.5
308.881	319.5
309.111	349.5
309.341	354.5
309.571	356.5
309.8	349.5
310.03	380.5
310.26	379.5
310.49	414.5
310.72	403.5
310.949	435.5
311.179	416.5
311.409	386.5
311.639	385.5
311.868	385.5
312.098	398.5
312.328	399.5
312.557	439.5
312.787	436.5
313.017	413.5
313.246	401.5
313.476	394.5
313.706	397.5
313.935	405.5
314.165	418.5
314.394	411.5
314.624	427.5
314.853	417.5
315.083	415.5
315.312	400.5
315.542	392.5
315.771	384.5
316.001	367.5
316.23	375.5
316.46	381.5
316.689	377.5
316.919	401.5
317.148	375.5
317.377	408.5
317.607	412.5
317.836	410.5
318.065	383.5
318.295	379.5
318.524	380.5
318.753	390.5
318.983	380.5
319.212	386.5
319.441	401.5
319.67	389.5
319.9	395.5
320.129	398.5
320.358	394.5
320.587	403.5
320.816	416.5
321.046	417.5
321.275	428.5
321.504	431.5
321.733	424.5
321.962	436.5
322.191	436.5
322.42	468.5
322.649	483.5
322.878	481.5
323.108	521.5
323.337	537.5
323.566	561.5
323.795	617.5
324.024	699.5
324.253	860.5
324.482	1249.5
324.71	1954.5
324.939	2863.5
325.168	2472.5
325.397	1251.5
325.626	829.5
325.855	653.5
326.084	587.5
326.313	583.5
326.542	581.5
326.77	649.5
326.999	802.5
327.228	1097.5
327.457	1736.5
327.686	2125.5
327.914	1423.5
328.143	886.5
328.372	761.5
328.6	715.5
328.829	658.5
329.058	703.5
329.287	707.5
329.515	650.5
329.744	604.5
329.972	583.5
330.201	608.5
330.43	690.5
330.658	679.5
330.887	720.5
331.115	713.5
331.344	592.5
331.572	544.5
331.801	545.5
332.03	553.5
332.258	506.5
332.486	483.5
332.715	468.5
332.943	469.5
333.172	480.5
333.4	478.5
333.629	474.5
333.857	504.5
334.085	504.5
334.314	528.5
334.542	561.5
334.771	585.5
334.999	530.5
335.227	488.5
335.455	467.5
335.684	474.5
335.912	470.5
336.14	473.5
336.369	475.5
336.597	468.5
336.825	475.5
337.053	472.5
337.281	456.5
337.51	450.5
337.738	435.5
337.966	457.5
338.194	444.5
338.422	459.5
338.65	443.5
338.878	473.5
339.106	428.5
339.334	443.5
339.562	451.5
339.79	451.5
340.018	448.5
340.246	454.5
340.474	462.5
340.702	458.5
340.93	458.5
341.158	444.5
341.386	450.5
341.614	473.5
341.842	439.5
342.07	441.5
342.298	429.5
342.526	432.5
342.754	421.5
342.981	410.5
343.209	412.5
343.437	431.5
343.665	435.5
343.893	438.5
344.12	471.5
344.348	449.5
344.576	456.5
344.804	460.5
345.031	478.5
345.259	495.5
345.487	477.5
345.714	458.5
345.942	437.5
346.17	445.5
346.397	452.5
346.625	424.5
346.853	439.5
347.08	428.5
347.308	464.5
347.535	453.5
347.763	457.5
347.99	460.5
348.218	468.5
348.445	453.5
348.673	453.5
348.9	453.5
349.128	442.5
349.355	449.5
349.583	404.5
349.81	410.5
350.037	434.5
350.265	417.5
350.492	434.5
350.72	429.5
350.947	438.5
351.174	451.5
351.402	473.5
351.629	452.5
351.856	475.5
352.083	460.5
352.311	490.5
352.538	455.5
352.765	467.5
352.992	456.5
353.22	459.5
353.447	462.5
353.674	441.5
353.901	420.5
354.128	433.5
354.355	417.5
354.583	406.5
354.81	431.5
355.037	411.5
355.264	401.5
355.491	393.5
355.718	392.5
355.945	393.5
356.172	396.5
356.399	426.5
356.626	402.5
356.853	380.5
357.08	405.5
357.307	400.5
357.534	438.5
357.761	391.5
357.988	401.5
358.215	410.5
358.441	404.5
358.668	404.5
358.895	435.5
359.122	447.5
359.349	443.5
359.576	483.5
359.802	485.5
360.029	540.5
360.256	529.5
360.483	509.5
360.709	460.5
360.936	454.5
361.163	438.5
361.39	456.5
361.616	480.5
361.843	443.5
362.07	461.5
362.296	461.5
362.523	438.5
362.749	450.5
362.976	446.5
363.203	450.5
363.429	426.5
363.656	432.5
363.882	434.5
364.109	441.5
364.335	443.5
364.562	454.5
364.788	439.5
365.015	434.5
365.241	411.5
365.468	447.5
365.694	431.5
365.92	439.5
366.147	407.5
366.373	426.5
366.599	437.5
366.826	407.5
367.052	423.5
367.278	428.5
367.505	425.5
367.731	442.5
367.957	417.5
368.184	436.5
368.41	401.5
368.636	433.5
368.862	465.5
369.089	441.5
369.315	403.5
369.541	393.5
369.767	404.5
369.993	412.5
370.219	449.5
370.445	433.5
370.672	407.5
370.898	416.5
371.124	405.5
371.35	419.5
371.576	406.5
371.802	415.5
372.028	426.5
372.254	414.5
372.48	420.5
372.706	411.5
372.932	392.5
373.158	420.5
373.384	411.5
373.61	415.5
373.835	418.5
374.061	405.5
374.287	449.5
374.513	429.5
374.739	429.5
374.965	419.5
375.191	419.5
375.416	411.5
375.642	409.5
375.868	424.5
376.094	419.5
376.319	412.5
376.545	428.5
376.771	440.5
376.997	428.5
377.222	414.5
377.448	424.5
377.674	423.5
377.899	398.5
378.125	421.5
378.35	418.5
378.576	426.5
378.802	414.5
379.027	411.5
379.253	415.5
379.478	417.5
379.704	408.5
379.929	421.5
380.155	407.5
380.38	415.5
380.606	421.5
380.831	437.5
381.057	412.5
381.282	409.5
381.507	441.5
381.733	440.5
381.958	423.5
382.184	417.5
382.409	433.5
382.634	421.5
382.86	440.5
383.085	431.5
383.31	437.5
383.535	442.5
383.761	435.5
383.986	435.5
384.211	440.5
384.436	425.5
384.662	438.5
384.887	450.5
385.112	439.5
385.337	456.5
385.562	442.5
385.787	468.5
386.013	483.5
386.238	470.5
386.463	467.5
386.688	444.5
386.913	426.5
387.138	457.5
387.363	451.5
387.588	435.5
387.813	446.5
388.038	429.5
388.263	443.5
388.488	451.5
388.713	456.5
388.938	474.5
389.163	440.5
389.387	451.5
389.612	449.5
389.837	461.5
390.062	462.5
390.287	441.5
390.512	428.5
390.736	454.5
390.961	459.5
391.186	442.5
391.411	447.5
391.636	463.5
391.86	471.5
392.085	459.5
392.31	468.5
392.534	457.5
392.759	466.5
392.984	473.5
393.208	456.5
393.433	464.5
393.658	460.5
393.882	444.5
394.107	458.5
394.331	436.5
394.556	450.5
394.78	443.5
395.005	467.5
395.229	450.5
395.454	456.5
395.678	469.5
395.903	488.5
396.127	519.5
396.352	511.5
396.576	476.5
396.801	469.5
397.025	479.5
397.249	492.5
397.474	476.5
397.698	475.5
397.922	499.5
398.147	521.5
398.371	516.5
398.595	495.5
398.82	521.5
399.044	513.5
399.268	525.5
399.492	543.5
399.717	554.5
399.941	592.5
400.165	639.5
400.389	622.5
400.613	578.5
400.837	550.5
401.062	545.5
401.286	540.5
401.51	535.5
401.734	510.5
401.958	515.5
402.182	509.5
402.406	523.5
402.63	541.5
402.854	529.5
403.078	520.5
403.302	532.5
403.526	543.5
403.75	559.5
403.974	522.5
404.198	561.5
404.422	585.5
404.645	545.5
404.869	577.5
405.093	596.5
405.317	630.5
405.541	675.5
405.765	627.5
405.988	595.5
406.212	595.5
406.436	628.5
406.66	628.5
406.883	602.5
407.107	637.5
407.331	671.5
407.555	739.5
407.778	743.5
408.002	662.5
408.226	620.5
408.449	616.5
408.673	617.5
408.896	649.5
409.12	677.5
409.344	636.5
409.567	575.5
409.791	559.5
410.014	570.5
410.238	569.5
410.461	555.5
410.685	581.5
410.908	604.5
411.132	620.5
411.355	652.5
411.578	610.5
411.802	571.5
412.025	553.5
412.249	575.5
412.472	556.5
412.695	643.5
412.919	637.5
413.142	576.5
413.365	547.5
413.589	561.5
413.812	523.5
414.035	509.5
414.258	515.5
414.482	521.5
414.705	526.5
414.928	521.5
415.151	514.5
415.374	523.5
415.597	525.5
415.821	533.5
416.044	529.5
416.267	545.5
416.49	516.5
416.713	519.5
416.936	505.5
417.159	535.5
417.382	530.5
417.605	537.5
417.828	565.5
418.051	562.5
418.274	541.5
418.497	544.5
418.72	538.5
418.943	509.5
419.166	542.5
419.389	575.5
419.611	568.5
419.834	559.5
420.057	582.5
420.28	559.5
420.503	563.5
420.726	570.5
420.948	601.5
421.171	611.5
421.394	663.5
421.617	636.5
421.839	559.5
422.062	579.5
422.285	602.5
422.507	674.5
422.73	753.5
422.953	731.5
423.175	650.5
423.398	593.5
423.621	595.5
423.843	628.5
424.066	635.5
424.288	628.5
424.511	643.5
424.733	702.5
424.956	801.5
425.178	762.5
425.401	760.5
425.623	782.5
425.846	685.5
426.068	630.5
426.291	609.5
426.513	623.5
426.735	657.5
426.958	703.5
427.18	776.5
427.402	943.5
427.625	1031.5
427.847	923.5
428.069	812.5
428.292	681.5
428.514	640.5
428.736	630.5
428.958	604.5
429.181	627.5
429.403	602.5
429.625	611.5
429.847	635.5
430.069	720.5
430.292	721.5
430.514	612.5
430.736	589.5
430.958	591.5
431.18	570.5
431.402	557.5
431.624	533.5
431.846	515.5
432.068	533.5
432.29	540.5
432.512	540.5
432.734	570.5
432.956	547.5
433.178	580.5
433.4	580.5
433.622	572.5
433.844	539.5
434.066	563.5
434.287	543.5
434.509	533.5
434.731	561.5
434.953	556.5
435.175	547.5
435.397	599.5
435.618	610.5
435.84	689.5
436.062	799.5
436.284	888.5
436.505	753.5
436.727	651.5
436.949	607.5
437.17	598.5
437.392	597.5
437.614	632.5
437.835	653.5
438.057	791.5
438.278	874.5
438.5	891.5
438.721	970.5
438.943	913.5
439.165	746.5
439.386	681.5
439.608	658.5
439.829	657.5
440.05	710.5
440.272	740.5
440.493	695.5
440.715	642.5
440.936	600.5
441.158	609.5
441.379	602.5
441.6	615.5
441.822	629.5
442.043	678.5
442.264	795.5
442.486	837.5
442.707	699.5
442.928	660.5
443.149	675.5
443.371	680.5
443.592	743.5
443.813	835.5
444.034	915.5
444.255	759.5
444.476	646.5
444.698	621.5
444.919	631.5
445.14	768.5
445.361	727.5
445.582	687.5
445.803	771.5
446.024	877.5
446.245	899.5
446.466	829.5
446.687	698.5
446.908	664.5
447.129	609.5
447.35	614.5
447.571	610.5
447.792	583.5
448.013	602.5
448.234	632.5
448.455	689.5
448.675	817.5
448.896	938.5
449.117	799.5
449.338	758.5
449.559	890.5
449.779	953.5
450	795.5
450.221	695.5
450.442	615.5
450.662	615.5
450.883	589.5
451.104	617.5
451.324	612.5
451.545	589.5
451.766	549.5
451.986	558.5
452.207	525.5
452.428	520.5
452.648	540.5
452.869	519.5
453.089	548.5
453.31	571.5
453.53	531.5
453.751	540.5
453.971	530.5
454.192	557.5
454.412	552.5
454.633	543.5
454.853	540.5
455.073	519.5
455.294	581.5
455.514	649.5
455.734	639.5
455.955	537.5
456.175	509.5
456.395	470.5
456.616	496.5
456.836	497.5
457.056	497.5
457.276	489.5
457.497	495.5
457.717	488.5
457.937	497.5
458.157	487.5
458.377	503.5
458.598	538.5
458.818	636.5
459.038	725.5
459.258	727.5
459.478	617.5
459.698	581.5
459.918	540.5
460.138	529.5
460.358	557.5
460.578	550.5
460.798	557.5
461.018	535.5
461.238	524.5
461.458	525.5
461.678	533.5
461.898	532.5
462.118	523.5
462.338	528.5
462.558	539.5
462.777	553.5
462.997	549.5
463.217	569.5
463.437	604.5
463.657	563.5
463.876	563.5
464.096	576.5
464.316	550.5
464.536	565.5
464.755	581.5
464.975	577.5
465.195	673.5
465.414	765.5
465.634	665.5
465.854	583.5
466.073	571.5
466.293	548.5
466.512	543.5
466.732	536.5
466.951	509.5
467.171	549.5
467.391	549.5
467.61	568.5
467.829	554.5
468.049	544.5
468.268	556.5
468.488	533.5
468.707	536.5
468.927	525.5
469.146	519.5
469.365	527.5
469.585	522.5
469.804	534.5
470.023	550.5
470.243	561.5
470.462	554.5
470.681	581.5
470.901	570.5
471.12	553.5
471.339	537.5
471.558	555.5
471.777	533.5
471.997	538.5
472.216	551.5
472.435	604.5
472.654	570.5
472.873	536.5
473.092	570.5
473.311	563.5
473.53	543.5
473.749	562.5
473.968	625.5
474.187	735.5
474.406	782.5
474.625	632.5
474.844	578.5
475.063	553.5
475.282	550.5
475.501	552.5
475.72	564.5
475.939	566.5
476.158	571.5
476.377	564.5
476.596	550.5
476.814	588.5
477.033	579.5
477.252	597.5
477.471	552.5
477.69	553.5
477.908	586.5
478.127	578.5
478.346	580.5
478.564	596.5
478.783	596.5
479.002	603.5
479.22	610.5
479.439	618.5
479.658	653.5
479.876	680.5
480.095	659.5
480.313	690.5
480.532	678.5
480.751	677.5
480.969	683.5
481.188	752.5
481.406	819.5
481.624	689.5
481.843	672.5
482.061	673.5
482.28	661.5
482.498	639.5
482.717	627.5
482.935	661.5
483.153	633.5
483.372	651.5
483.59	661.5
483.808	677.5
484.027	665.5
484.245	670.5
484.463	671.5
484.681	689.5
484.9	690.5
485.118	654.5
485.336	673.5
485.554	690.5
485.772	667.5
485.99	681.5
486.209	683.5
486.427	656.5
486.645	701.5
486.863	704.5
487.081	726.5
487.299	723.5
487.517	699.5
487.735	714.5
487.953	717.5
488.171	719.5
488.389	714.5
488.607	721.5
488.825	734.5
489.043	717.5
489.261	729.5
489.479	709.5
489.696	726.5
489.914	728.5
490.132	737.5
490.35	732.5
490.568	778.5
490.786	763.5
491.003	767.5
491.221	808.5
491.439	802.5
491.657	790.5
491.874	815.5
492.092	845.5
492.31	823.5
492.527	844.5
492.745	854.5
492.963	854.5
493.18	851.5
493.398	875.5
493.615	877.5
493.833	836.5
494.05	841.5
494.268	863.5
494.485	819.5
494.703	857.5
494.92	883.5
495.138	863.5
495.355	866.5
495.573	834.5
495.79	848.5
496.008	849.5
496.225	858.5
496.442	860.5
496.66	860.5
496.877	865.5
497.094	856.5
497.312	846.5
497.529	879.5
497.746	888.5
497.963	884.5
498.181	914.5
498.398	923.5
498.615	899.5
498.832	909.5
499.049	909.5
499.267	938.5
499.484	941.5
499.701	978.5
499.918	959.5
500.135	1003.5
500.352	1024.5
500.569	1038.5
500.786	1060.5
501.003	1050.5
501.22	999.5
501.437	1022.5
501.654	1035.5
501.871	1060.5
502.088	1001.5
502.305	953.5
502.522	962.5
502.739	899.5
502.956	898.5
503.172	880.5
503.389	875.5
503.606	895.5
503.823	887.5
504.04	861.5
504.256	892.5
504.473	852.5
504.69	845.5
504.907	851.5
505.123	831.5
505.34	849.5
505.557	810.5
505.773	825.5
505.99	849.5
506.207	804.5
506.423	832.5
506.64	811.5
506.856	831.5
507.073	797.5
507.289	836.5
507.506	799.5
507.722	799.5
507.939	848.5
508.155	804.5
508.372	796.5
508.588	794.5
508.805	780.5
509.021	808.5
509.238	817.5
509.454	827.5
509.67	810.5
509.887	787.5
510.103	810.5
510.319	823.5
510.536	955.5
510.752	1596.5
510.968	1294.5
511.184	864.5
511.401	802.5
511.617	791.5
511.833	773.5
512.049	748.5
512.265	751.5
512.481	752.5
512.698	768.5
512.914	762.5
513.13	744.5
513.346	743.5
513.562	739.5
513.778	761.5
513.994	779.5
514.21	799.5
514.426	815.5
514.642	905.5
514.858	913.5
515.074	971.5
515.29	1199.5
515.506	1833.5
515.721	1471.5
515.937	948.5
516.153	888.5
516.369	818.5
516.585	798.5
516.801	761.5
517.016	771.5
517.232	741.5
517.448	764.5
517.664	743.5
517.879	757.5
518.095	753.5
518.311	769.5
518.527	739.5
518.742	746.5
518.958	744.5
519.173	749.5
519.389	741.5
519.605	752.5
519.82	776.5
520.036	790.5
520.251	800.5
520.467	845.5
520.682	858.5
520.898	868.5
521.113	899.5
521.329	993.5
521.544	1093.5
521.76	1437.5
521.975	2434.5
522.19	2342.5
522.406	1294.5
522.621	940.5
522.836	838.5
523.052	774.5
523.267	719.5
523.482	727.5
523.698	701.5
523.913	700.5
524.128	676.5
524.343	703.5
524.559	664.5
524.774	684.5
524.989	674.5
525.204	695.5
525.419	653.5
525.634	623.5
525.849	645.5
526.064	638.5
526.28	641.5
526.495	587.5
526.71	599.5
526.925	634.5
527.14	612.5
527.355	598.5
527.57	606.5
527.785	600.5
527.999	595.5
528.214	621.5
528.429	608.5
528.644	595.5
528.859	617.5
529.074	603.5
529.289	641.5
529.503	759.5
529.718	722.5
529.933	644.5
530.148	654.5
530.363	610.5
530.577	603.5
530.792	599.5
531.007	583.5
531.221	599.5
531.436	588.5
531.651	570.5
531.865	543.5
532.08	599.5
532.295	573.5
532.509	544.5
532.724	560.5
532.938	555.5
533.153	563.5
533.367	553.5
533.582	570.5
533.796	540.5
534.011	560.5
534.225	583.5
534.44	557.5
534.654	549.5
534.868	536.5
535.083	559.5
535.297	535.5
535.511	553.5
535.726	556.5
535.94	580.5
536.154	558.5
536.369	549.5
536.583	548.5
536.797	551.5
537.011	523.5
537.225	544.5
537.44	539.5
537.654	527.5
537.868	545.5
538.082	544.5
538.296	551.5
538.51	519.5
538.724	536.5
538.938	523.5
539.153	552.5
539.367	579.5
539.581	571.5
539.795	573.5
540.009	561.5
540.222	530.5
540.436	546.5
540.65	539.5
540.864	551.5
541.078	566.5
541.292	543.5
541.506	543.5
541.72	529.5
541.934	558.5
542.147	547.5
542.361	537.5
542.575	548.5
542.789	574.5
543.002	551.5
543.216	532.5
543.43	535.5
543.644	555.5
543.857	513.5
544.071	549.5
544.285	560.5
544.498	538.5
544.712	548.5
544.925	541.5
545.139	521.5
545.352	526.5
545.566	524.5
545.779	516.5
545.993	527.5
546.206	521.5
546.42	522.5
546.633	521.5
546.847	505.5
547.06	501.5
547.274	525.5
547.487	513.5
547.7	521.5
547.914	510.5
548.127	495.5
548.34	497.5
548.554	520.5
548.767	517.5
548.98	525.5
549.193	498.5
549.407	507.5
549.62	490.5
549.833	488.5
550.046	498.5
550.259	495.5
550.473	490.5
550.686	492.5
550.899	493.5
551.112	491.5
551.325	483.5
551.538	513.5
551.751	484.5
551.964	489.5
552.177	481.5
552.39	480.5
552.603	525.5
552.816	491.5
553.029	503.5
553.242	507.5
553.455	498.5
553.667	491.5
553.88	515.5
554.093	515.5
554.306	522.5
554.519	511.5
554.732	497.5
554.944	489.5
555.157	481.5
555.37	463.5
555.583	489.5
555.795	491.5
556.008	461.5
556.221	465.5
556.433	466.5
556.646	444.5
556.859	469.5
557.071	451.5
557.284	464.5
557.496	466.5
557.709	467.5
557.921	459.5
558.134	439.5
558.346	443.5
558.559	460.5
558.771	443.5
558.984	453.5
559.196	413.5
559.409	432.5
559.621	437.5
559.833	432.5
560.046	433.5
560.258	435.5
560.47	452.5
560.683	435.5
560.895	449.5
561.107	460.5
561.32	447.5
561.532	458.5
561.744	453.5
561.956	437.5
562.168	431.5
562.381	448.5
562.593	457.5
562.805	445.5
563.017	440.5
563.229	441.5
563.441	449.5
563.653	452.5
563.865	449.5
564.077	437.5
564.289	453.5
564.501	448.5
564.713	460.5
564.925	479.5
565.137	469.5
565.349	473.5
565.561	480.5
565.773	465.5
565.985	483.5
566.197	474.5
566.408	489.5
566.62	491.5
566.832	484.5
567.044	510.5
567.255	492.5
567.467	523.5
567.679	512.5
567.891	521.5
568.102	514.5
568.314	490.5
568.526	464.5
568.737	461.5
568.949	443.5
569.161	470.5
569.372	461.5
569.584	445.5
569.795	449.5
570.007	419.5
570.218	497.5
570.43	484.5
570.641	436.5
570.853	441.5
571.064	421.5
571.276	428.5
571.487	418.5
571.698	415.5
571.91	442.5
572.121	387.5
572.333	402.5
572.544	394.5
572.755	379.5
572.966	396.5
573.178	408.5
573.389	390.5
573.6	381.5
573.811	382.5
574.023	377.5
574.234	383.5
574.445	380.5
574.656	385.5
574.867	375.5
575.078	377.5
575.289	371.5
575.501	376.5
575.712	383.5
575.923	378.5
576.134	382.5
576.345	354.5
576.556	368.5
576.767	369.5
576.978	378.5
577.188	366.5
577.399	376.5
577.61	353.5
577.821	367.5
578.032	374.5
578.243	420.5
578.454	736.5
578.665	549.5
578.875	395.5
579.086	381.5
579.297	346.5
579.508	356.5
579.718	358.5
579.929	362.5
580.14	347.5
580.35	347.5
580.561	343.5
580.772	350.5
580.982	343.5
581.193	357.5
581.403	349.5
581.614	339.5
581.825	337.5
582.035	329.5
582.246	356.5
582.456	345.5
582.667	356.5
582.877	344.5
583.087	337.5
583.298	331.5
583.508	359.5
583.719	355.5
583.929	370.5
584.139	349.5
584.35	348.5
584.56	332.5
584.77	339.5
584.981	360.5
585.191	343.5
585.401	343.5
585.611	344.5
585.821	332.5
586.032	359.5
586.242	335.5
586.452	334.5
586.662	344.5
586.872	335.5
587.082	332.5
587.292	341.5
587.502	314.5
587.713	333.5
587.923	339.5
588.133	338.5
588.343	325.5
588.553	323.5
588.762	336.5
588.972	325.5
589.182	320.5
589.392	326.5
589.602	320.5
589.812	319.5
590.022	321.5
590.232	310.5
590.441	331.5
590.651	324.5
590.861	335.5
591.071	319.5
591.281	330.5
591.49	320.5
591.7	314.5
591.91	341.5
592.119	317.5
592.329	320.5
592.539	330.5
592.748	335.5
592.958	332.5
593.167	339.5
593.377	317.5
593.587	343.5
593.796	345.5
594.006	335.5
594.215	332.5
594.424	323.5
594.634	329.5
594.843	317.5
595.053	313.5
595.262	322.5
595.472	295.5
595.681	310.5
595.89	313.5
596.1	320.5
596.309	324.5
596.518	305.5
596.727	305.5
596.937	324.5
597.146	309.5
597.355	322.5
597.564	292.5
597.774	280.5
597.983	304.5
598.192	285.5
598.401	293.5
598.61	289.5
598.819	313.5
599.028	282.5
599.237	323.5
599.446	287.5
599.655	304.5
599.864	298.5
600.073	291.5
600.282	298.5
600.491	293.5
600.7	282.5
600.909	283.5
601.118	293.5
601.327	283.5
601.536	288.5
601.745	280.5
601.953	292.5
602.162	297.5
602.371	308.5
602.58	291.5
602.789	298.5
602.997	281.5
603.206	280.5
603.415	288.5
603.623	288.5
603.832	282.5
604.041	258.5
604.249	270.5
604.458	276.5
604.666	283.5
604.875	279.5
605.084	269.5
605.292	273.5
605.501	271.5
605.709	294.5
605.918	289.5
606.126	256.5
606.334	257.5
606.543	282.5
606.751	271.5
606.96	283.5
607.168	284.5
607.376	274.5
607.585	296.5
607.793	305.5
608.001	262.5
608.21	275.5
608.418	281.5
608.626	276.5
608.834	292.5
609.043	272.5
609.251	276.5
609.459	274.5
609.667	277.5
609.875	266.5
610.083	264.5
610.291	276.5
610.499	291.5
610.707	291.5
610.916	269.5
611.124	294.5
611.332	293.5
611.54	288.5
611.748	285.5
611.955	290.5
612.163	271.5
612.371	279.5
612.579	267.5
612.787	273.5
612.995	263.5
613.203	283.5
613.411	261.5
613.618	290.5
613.826	272.5
614.034	257.5
614.242	269.5
614.449	258.5
614.657	280.5
614.865	273.5
615.072	287.5
615.28	263.5
615.488	285.5
615.695	259.5
615.903	235.5
616.111	269.5
616.318	264.5
616.526	273.5
616.733	282.5
616.941	269.5
617.148	259.5
617.356	272.5
617.563	266.5
617.771	264.5
617.978	240.5
618.185	284.5
618.393	259.5
618.6	253.5
618.807	274.5
619.015	264.5
619.222	244.5
619.429	263.5
619.637	241.5
619.844	260.5
620.051	263.5
620.258	265.5
620.466	245.5
620.673	240.5
620.88	238.5
621.087	234.5
621.294	243.5
621.501	257.5
621.708	244.5
621.915	246.5
622.122	252.5
622.329	260.5
622.536	256.5
622.743	264.5
622.95	239.5
623.157	241.5
623.364	259.5
623.571	267.5
623.778	243.5
623.985	245.5
624.192	249.5
624.399	225.5
624.606	240.5
624.812	228.5
625.019	239.5
625.226	220.5
625.433	233.5
625.639	226.5
625.846	225.5
626.053	236.5
626.259	233.5
626.466	235.5
626.673	240.5
626.879	224.5
627.086	230.5
627.293	216.5
627.499	233.5
627.706	239.5
627.912	255.5
628.119	230.5
628.325	240.5
628.532	251.5
628.738	224.5
628.945	222.5
629.151	211.5
629.357	216.5
629.564	213.5
629.77	218.5
629.976	205.5
630.183	219.5
630.389	219.5
630.595	203.5
630.802	217.5
631.008	210.5
631.214	219.5
631.42	211.5
631.627	208.5
631.833	206.5
632.039	208.5
632.245	210.5
632.451	210.5
632.657	199.5
632.863	209.5
633.069	191.5
633.275	216.5
633.481	211.5
633.688	198.5
633.893	209.5
634.099	188.5
634.305	223.5
634.511	199.5
634.717	205.5
634.923	195.5
635.129	196.5
635.335	201.5
635.541	199.5
635.747	203.5
635.952	205.5
636.158	196.5
636.364	193.5
636.57	196.5
636.775	205.5
636.981	198.5
637.187	186.5
637.392	212.5
637.598	198.5
637.804	187.5
638.009	211.5
638.215	192.5
638.421	200.5
638.626	189.5
638.832	211.5
639.037	193.5
639.243	188.5
639.448	198.5
639.654	197.5
639.859	175.5
640.065	195.5
640.27	210.5
640.475	192.5
640.681	191.5
640.886	201.5
641.091	203.5
641.297	196.5
641.502	193.5
641.707	173.5
641.913	184.5
642.118	195.5
642.323	186.5
642.528	185.5
642.733	182.5
642.939	198.5
643.144	184.5
643.349	176.5
643.554	187.5
643.759	198.5
643.964	165.5
644.169	187.5
644.374	188.5
644.579	179.5
644.784	182.5
644.989	181.5
645.194	164.5
645.399	187.5
645.604	185.5
645.809	180.5
646.014	177.5
646.219	176.5
646.423	172.5
646.628	177.5
646.833	191.5
647.038	195.5
647.243	183.5
647.447	193.5
647.652	180.5
647.857	176.5
648.062	170.5
648.266	181.5
648.471	194.5
648.676	192.5
648.88	168.5
649.085	189.5
649.289	186.5
649.494	196.5
649.698	207.5
649.903	214.5
650.107	171.5
650.312	188.5
650.516	174.5
650.721	173.5
650.925	174.5
651.13	141.5
651.334	172.5
651.539	159.5
651.743	181.5
651.947	167.5
652.152	156.5
652.356	160.5
652.56	151.5
652.764	146.5
652.969	161.5
653.173	149.5
653.377	141.5
653.581	152.5
653.785	142.5
653.99	130.5
654.194	170.5
654.398	155.5
654.602	154.5
654.806	146.5
655.01	140.5
655.214	141.5
655.418	163.5
655.622	132.5
655.826	152.5
656.03	141.5
656.234	140.5
656.438	144.5
656.642	133.5
656.846	127.5
657.049	122.5
657.253	135.5
657.457	117.5
657.661	104.5
657.865	120.5
658.068	120.5
658.272	115.5
658.476	119.5
658.68	115.5
658.883	103.5
659.087	108.5
659.291	118.5
659.494	102.5
659.698	93.5
659.901	94.5
660.105	107.5
660.309	88.5
660.512	94.5
660.716	110.5
660.919	96.5
661.123	100.5
661.326	96.5
661.53	89.5
661.733	97.5
661.936	97.5
662.14	81.5
662.343	84.5
662.546	85.5
662.75	85.5
662.953	94.5
663.156	91.5
663.36	87.5
663.563	96.5
663.766	95.5
663.969	83.5
664.173	81.5
664.376	82.5
664.579	93.5
664.782	87.5
664.985	81.5
665.188	75.5
665.391	93.5
665.594	78.5
665.797	86.5
666	81.5
666.203	78.5
666.406	74.5
666.609	82.5
666.812	75.5
667.015	88.5
667.218	80.5
667.421	81.5
667.624	89.5
667.827	80.5
668.03	83.5
668.232	74.5
668.435	76.5
668.638	86.5
668.841	75.5
669.043	72.5
669.246	73.5
669.449	71.5
669.651	90.5
669.854	86.5
670.057	81.5
670.259	79.5
670.462	87.5
670.665	81.5
670.867	79.5
671.07	94.5
671.272	80.5
671.475	83.5
671.677	84.5
671.88	79.5
672.082	87.5
672.284	81.5
672.487	72.5
672.689	67.5
672.892	77.5
