Data from 1971.PennyLincolnUp.Lamp.En5.5.200Scan.071719.P1._HRD10591_15-19-02-841.txt Node
Date: Thu Jul 18 15:19:02 EDT 2019
User: cochatt
Spectrometer: HR+D1059
Trigger mode: 1
Integration Time (sec): 1.000000E-1
Scans to average: 1
Electric dark correction enabled: true
Nonlinearity correction enabled: false
Boxcar width: 0
XAxis mode: Wavelengths
Number of Pixels in Spectrum: 2048
>>>>>Begin Spectral Data<<<<<
223.165	-18.12
223.4	-18.12
223.635	-18.12
223.869	-24.12
224.104	-15.12
224.338	-14.12
224.573	7.88
224.808	-12.12
225.042	0.88
225.277	-20.12
225.511	-21.12
225.746	19.88
225.98	7.88
226.215	5.88
226.449	7.88
226.683	25.88
226.918	24.88
227.152	23.88
227.387	39.88
227.621	35.88
227.856	48.88
228.09	47.88
228.324	45.88
228.559	67.88
228.793	56.88
229.027	97.88
229.262	118.88
229.496	107.88
229.73	127.88
229.964	133.88
230.199	117.88
230.433	109.88
230.667	120.88
230.901	123.88
231.136	115.88
231.37	122.88
231.604	92.88
231.838	105.88
232.072	117.88
232.306	121.88
232.541	105.88
232.775	125.88
233.009	113.88
233.243	110.88
233.477	131.88
233.711	119.88
233.945	105.88
234.179	124.88
234.413	115.88
234.647	115.88
234.881	120.88
235.115	121.88
235.349	111.88
235.583	106.88
235.817	107.88
236.051	113.88
236.285	121.88
236.519	125.88
236.753	146.88
236.987	134.88
237.221	162.88
237.455	217.88
237.689	185.88
237.922	134.88
238.156	138.88
238.39	134.88
238.624	124.88
238.858	128.88
239.091	140.88
239.325	135.88
239.559	135.88
239.793	136.88
240.027	149.88
240.26	141.88
240.494	150.88
240.728	149.88
240.961	133.88
241.195	135.88
241.429	132.88
241.662	153.88
241.896	132.88
242.13	131.88
242.363	137.88
242.597	141.88
242.83	139.88
243.064	143.88
243.298	141.88
243.531	130.88
243.765	157.88
243.998	147.88
244.232	145.88
244.465	131.88
244.699	160.88
244.932	170.88
245.166	152.88
245.399	155.88
245.633	125.88
245.866	163.88
246.099	147.88
246.333	133.88
246.566	148.88
246.8	154.88
247.033	145.88
247.266	161.88
247.5	154.88
247.733	154.88
247.966	173.88
248.2	164.88
248.433	172.88
248.666	173.88
248.899	175.88
249.133	196.88
249.366	220.88
249.599	206.88
249.832	183.88
250.066	201.88
250.299	186.88
250.532	195.88
250.765	191.88
250.998	237.88
251.231	246.88
251.465	219.88
251.698	214.88
251.931	203.88
252.164	219.88
252.397	202.88
252.63	200.88
252.863	206.88
253.096	215.88
253.329	210.88
253.562	230.88
253.795	215.88
254.028	221.88
254.261	219.88
254.494	216.88
254.727	259.88
254.96	282.88
255.193	291.88
255.426	265.88
255.659	234.88
255.892	235.88
256.124	248.88
256.357	231.88
256.59	239.88
256.823	222.88
257.056	219.88
257.289	227.88
257.521	190.88
257.754	222.88
257.987	218.88
258.22	218.88
258.452	207.88
258.685	227.88
258.918	209.88
259.151	217.88
259.383	234.88
259.616	220.88
259.849	224.88
260.081	255.88
260.314	249.88
260.547	249.88
260.779	272.88
261.012	248.88
261.244	241.88
261.477	229.88
261.71	244.88
261.942	243.88
262.175	253.88
262.407	229.88
262.64	231.88
262.872	196.88
263.105	212.88
263.337	223.88
263.57	201.88
263.802	207.88
264.035	231.88
264.267	223.88
264.499	218.88
264.732	208.88
264.964	238.88
265.197	212.88
265.429	228.88
265.661	222.88
265.894	217.88
266.126	215.88
266.358	217.88
266.591	229.88
266.823	223.88
267.055	236.88
267.287	224.88
267.52	224.88
267.752	220.88
267.984	227.88
268.216	230.88
268.448	240.88
268.681	251.88
268.913	251.88
269.145	252.88
269.377	291.88
269.609	307.88
269.841	287.88
270.073	276.88
270.306	318.88
270.538	321.88
270.77	316.88
271.002	328.88
271.234	293.88
271.466	312.88
271.698	313.88
271.93	330.88
272.162	317.88
272.394	329.88
272.626	317.88
272.858	298.88
273.09	284.88
273.322	278.88
273.553	268.88
273.785	271.88
274.017	264.88
274.249	268.88
274.481	287.88
274.713	265.88
274.945	278.88
275.176	270.88
275.408	274.88
275.64	263.88
275.872	268.88
276.104	273.88
276.335	277.88
276.567	285.88
276.799	293.88
277.031	303.88
277.262	308.88
277.494	321.88
277.726	304.88
277.957	309.88
278.189	283.88
278.421	280.88
278.652	278.88
278.884	281.88
279.115	272.88
279.347	282.88
279.579	291.88
279.81	282.88
280.042	273.88
280.273	247.88
280.505	285.88
280.736	286.88
280.968	283.88
281.199	272.88
281.431	267.88
281.662	295.88
281.894	288.88
282.125	285.88
282.356	296.88
282.588	304.88
282.819	305.88
283.051	286.88
283.282	279.88
283.513	280.88
283.745	277.88
283.976	284.88
284.207	300.88
284.439	284.88
284.67	286.88
284.901	299.88
285.132	283.88
285.364	296.88
285.595	273.88
285.826	286.88
286.057	277.88
286.288	288.88
286.52	289.88
286.751	289.88
286.982	294.88
287.213	283.88
287.444	295.88
287.675	300.88
287.906	304.88
288.138	308.88
288.369	318.88
288.6	318.88
288.831	300.88
289.062	299.88
289.293	291.88
289.524	284.88
289.755	300.88
289.986	303.88
290.217	323.88
290.448	288.88
290.679	295.88
290.91	295.88
291.141	282.88
291.371	309.88
291.602	304.88
291.833	286.88
292.064	296.88
292.295	307.88
292.526	299.88
292.757	301.88
292.987	290.88
293.218	279.88
293.449	303.88
293.68	293.88
293.91	307.88
294.141	291.88
294.372	287.88
294.603	303.88
294.833	314.88
295.064	310.88
295.295	295.88
295.525	293.88
295.756	315.88
295.987	299.88
296.217	325.88
296.448	330.88
296.679	319.88
296.909	305.88
297.14	313.88
297.37	324.88
297.601	304.88
297.831	313.88
298.062	307.88
298.292	301.88
298.523	314.88
298.753	316.88
298.984	303.88
299.214	316.88
299.445	315.88
299.675	320.88
299.905	310.88
300.136	321.88
300.366	321.88
300.597	332.88
300.827	315.88
301.057	307.88
301.288	331.88
301.518	330.88
301.748	333.88
301.979	313.88
302.209	328.88
302.439	329.88
302.669	339.88
302.9	334.88
303.13	326.88
303.36	339.88
303.59	323.88
303.82	353.88
304.051	328.88
304.281	320.88
304.511	338.88
304.741	345.88
304.971	336.88
305.201	337.88
305.431	349.88
305.661	332.88
305.891	316.88
306.121	329.88
306.352	353.88
306.582	340.88
306.812	323.88
307.042	317.88
307.272	323.88
307.502	358.88
307.731	363.88
307.961	347.88
308.191	327.88
308.421	347.88
308.651	345.88
308.881	329.88
309.111	345.88
309.341	357.88
309.571	344.88
309.8	339.88
310.03	388.88
310.26	395.88
310.49	379.88
310.72	384.88
310.949	403.88
311.179	375.88
311.409	380.88
311.639	382.88
311.868	384.88
312.098	391.88
312.328	393.88
312.557	389.88
312.787	387.88
313.017	396.88
313.246	407.88
313.476	371.88
313.706	361.88
313.935	391.88
314.165	385.88
314.394	376.88
314.624	395.88
314.853	381.88
315.083	354.88
315.312	396.88
315.542	371.88
315.771	373.88
316.001	365.88
316.23	378.88
316.46	368.88
316.689	383.88
316.919	373.88
317.148	379.88
317.377	413.88
317.607	411.88
317.836	397.88
318.065	379.88
318.295	377.88
318.524	373.88
318.753	372.88
318.983	388.88
319.212	392.88
319.441	394.88
319.67	394.88
319.9	406.88
320.129	387.88
320.358	387.88
320.587	414.88
320.816	397.88
321.046	393.88
321.275	379.88
321.504	404.88
321.733	398.88
321.962	407.88
322.191	430.88
322.42	433.88
322.649	453.88
322.878	446.88
323.108	457.88
323.337	461.88
323.566	508.88
323.795	515.88
324.024	567.88
324.253	661.88
324.482	957.88
324.71	1390.88
324.939	1881.88
325.168	1603.88
325.397	871.88
325.626	606.88
325.855	517.88
326.084	511.88
326.313	491.88
326.542	505.88
326.77	521.88
326.999	640.88
327.228	863.88
327.457	1232.88
327.686	1417.88
327.914	959.88
328.143	675.88
328.372	592.88
328.6	551.88
328.829	547.88
329.058	563.88
329.287	537.88
329.515	526.88
329.744	489.88
329.972	503.88
330.201	509.88
330.43	530.88
330.658	555.88
330.887	583.88
331.115	549.88
331.344	491.88
331.572	484.88
331.801	487.88
332.03	458.88
332.258	453.88
332.486	437.88
332.715	433.88
332.943	433.88
333.172	453.88
333.4	446.88
333.629	463.88
333.857	455.88
334.085	487.88
334.314	490.88
334.542	474.88
334.771	484.88
334.999	485.88
335.227	456.88
335.455	459.88
335.684	429.88
335.912	428.88
336.14	411.88
336.369	419.88
336.597	422.88
336.825	452.88
337.053	419.88
337.281	437.88
337.51	426.88
337.738	431.88
337.966	433.88
338.194	432.88
338.422	439.88
338.65	411.88
338.878	399.88
339.106	378.88
339.334	425.88
339.562	426.88
339.79	420.88
340.018	439.88
340.246	414.88
340.474	436.88
340.702	425.88
340.93	419.88
341.158	425.88
341.386	424.88
341.614	413.88
341.842	424.88
342.07	405.88
342.298	412.88
342.526	423.88
342.754	396.88
342.981	405.88
343.209	413.88
343.437	406.88
343.665	392.88
343.893	418.88
344.12	428.88
344.348	429.88
344.576	443.88
344.804	442.88
345.031	431.88
345.259	428.88
345.487	416.88
345.714	419.88
345.942	410.88
346.17	393.88
346.397	412.88
346.625	387.88
346.853	401.88
347.08	404.88
347.308	399.88
347.535	399.88
347.763	408.88
347.99	398.88
348.218	405.88
348.445	424.88
348.673	430.88
348.9	397.88
349.128	380.88
349.355	387.88
349.583	393.88
349.81	389.88
350.037	398.88
350.265	391.88
350.492	403.88
350.72	371.88
350.947	393.88
351.174	402.88
351.402	397.88
351.629	407.88
351.856	407.88
352.083	434.88
352.311	431.88
352.538	411.88
352.765	407.88
352.992	409.88
353.22	401.88
353.447	375.88
353.674	379.88
353.901	397.88
354.128	375.88
354.355	381.88
354.583	379.88
354.81	380.88
355.037	373.88
355.264	371.88
355.491	372.88
355.718	380.88
355.945	353.88
356.172	362.88
356.399	365.88
356.626	341.88
356.853	366.88
357.08	367.88
357.307	358.88
357.534	364.88
357.761	362.88
357.988	386.88
358.215	373.88
358.441	378.88
358.668	346.88
358.895	366.88
359.122	385.88
359.349	391.88
359.576	378.88
359.802	398.88
360.029	409.88
360.256	437.88
360.483	401.88
360.709	393.88
360.936	383.88
361.163	400.88
361.39	394.88
361.616	401.88
361.843	383.88
362.07	394.88
362.296	387.88
362.523	368.88
362.749	385.88
362.976	383.88
363.203	361.88
363.429	368.88
363.656	388.88
363.882	357.88
364.109	372.88
364.335	373.88
364.562	362.88
364.788	379.88
365.015	364.88
365.241	372.88
365.468	368.88
365.694	358.88
365.92	355.88
366.147	378.88
366.373	379.88
366.599	362.88
366.826	362.88
367.052	356.88
367.278	356.88
367.505	373.88
367.731	368.88
367.957	360.88
368.184	362.88
368.41	370.88
368.636	394.88
368.862	381.88
369.089	358.88
369.315	376.88
369.541	371.88
369.767	349.88
369.993	375.88
370.219	374.88
370.445	367.88
370.672	365.88
370.898	348.88
371.124	359.88
371.35	365.88
371.576	387.88
371.802	358.88
372.028	331.88
372.254	375.88
372.48	365.88
372.706	363.88
372.932	377.88
373.158	354.88
373.384	377.88
373.61	378.88
373.835	365.88
374.061	356.88
374.287	353.88
374.513	356.88
374.739	377.88
374.965	367.88
375.191	364.88
375.416	358.88
375.642	368.88
375.868	369.88
376.094	359.88
376.319	352.88
376.545	351.88
376.771	342.88
376.997	354.88
377.222	345.88
377.448	347.88
377.674	358.88
377.899	355.88
378.125	353.88
378.35	355.88
378.576	350.88
378.802	337.88
379.027	352.88
379.253	349.88
379.478	347.88
379.704	356.88
379.929	342.88
380.155	337.88
380.38	356.88
380.606	359.88
380.831	350.88
381.057	336.88
381.282	350.88
381.507	356.88
381.733	369.88
381.958	356.88
382.184	365.88
382.409	357.88
382.634	352.88
382.86	344.88
383.085	374.88
383.31	357.88
383.535	359.88
383.761	363.88
383.986	364.88
384.211	379.88
384.436	348.88
384.662	381.88
384.887	370.88
385.112	361.88
385.337	382.88
385.562	389.88
385.787	396.88
386.013	367.88
386.238	366.88
386.463	385.88
386.688	368.88
386.913	355.88
387.138	379.88
387.363	364.88
387.588	376.88
387.813	380.88
388.038	360.88
388.263	365.88
388.488	375.88
388.713	379.88
388.938	370.88
389.163	371.88
389.387	361.88
389.612	371.88
389.837	374.88
390.062	380.88
390.287	369.88
390.512	368.88
390.736	376.88
390.961	390.88
391.186	392.88
391.411	380.88
391.636	380.88
391.86	375.88
392.085	398.88
392.31	381.88
392.534	382.88
392.759	392.88
392.984	375.88
393.208	381.88
393.433	373.88
393.658	372.88
393.882	366.88
394.107	366.88
394.331	396.88
394.556	387.88
394.78	387.88
395.005	351.88
395.229	384.88
395.454	389.88
395.678	372.88
395.903	417.88
396.127	403.88
396.352	383.88
396.576	395.88
396.801	385.88
397.025	405.88
397.249	401.88
397.474	385.88
397.698	398.88
397.922	421.88
398.147	405.88
398.371	428.88
398.595	407.88
398.82	404.88
399.044	418.88
399.268	447.88
399.492	455.88
399.717	462.88
399.941	491.88
400.165	505.88
400.389	515.88
400.613	461.88
400.837	451.88
401.062	419.88
401.286	415.88
401.51	404.88
401.734	409.88
401.958	431.88
402.182	420.88
402.406	431.88
402.63	413.88
402.854	406.88
403.078	410.88
403.302	436.88
403.526	422.88
403.75	429.88
403.974	406.88
404.198	429.88
404.422	425.88
404.645	448.88
404.869	463.88
405.093	448.88
405.317	477.88
405.541	532.88
405.765	461.88
405.988	456.88
406.212	453.88
406.436	471.88
406.66	459.88
406.883	461.88
407.107	474.88
407.331	518.88
407.555	581.88
407.778	550.88
408.002	527.88
408.226	460.88
408.449	441.88
408.673	470.88
408.896	494.88
409.12	528.88
409.344	504.88
409.567	425.88
409.791	426.88
410.014	424.88
410.238	427.88
410.461	425.88
410.685	440.88
410.908	445.88
411.132	469.88
411.355	490.88
411.578	471.88
411.802	420.88
412.025	437.88
412.249	427.88
412.472	460.88
412.695	478.88
412.919	469.88
413.142	445.88
413.365	432.88
413.589	414.88
413.812	417.88
414.035	384.88
414.258	414.88
414.482	385.88
414.705	390.88
414.928	407.88
415.151	406.88
415.374	401.88
415.597	399.88
415.821	395.88
416.044	381.88
416.267	400.88
416.49	400.88
416.713	402.88
416.936	383.88
417.159	378.88
417.382	411.88
417.605	404.88
417.828	408.88
418.051	420.88
418.274	436.88
418.497	408.88
418.72	413.88
418.943	411.88
419.166	405.88
419.389	423.88
419.611	416.88
419.834	417.88
420.057	428.88
420.28	436.88
420.503	419.88
420.726	443.88
420.948	453.88
421.171	465.88
421.394	478.88
421.617	451.88
421.839	418.88
422.062	416.88
422.285	447.88
422.507	456.88
422.73	528.88
422.953	517.88
423.175	446.88
423.398	451.88
423.621	441.88
423.843	448.88
424.066	460.88
424.288	445.88
424.511	469.88
424.733	525.88
424.956	564.88
425.178	557.88
425.401	565.88
425.623	557.88
425.846	485.88
426.068	462.88
426.291	437.88
426.513	438.88
426.735	466.88
426.958	504.88
427.18	573.88
427.402	651.88
427.625	719.88
427.847	616.88
428.069	531.88
428.292	485.88
428.514	430.88
428.736	417.88
428.958	411.88
429.181	420.88
429.403	414.88
429.625	413.88
429.847	452.88
430.069	491.88
430.292	501.88
430.514	437.88
430.736	413.88
430.958	423.88
431.18	400.88
431.402	409.88
431.624	394.88
431.846	395.88
432.068	395.88
432.29	393.88
432.512	409.88
432.734	412.88
432.956	402.88
433.178	409.88
433.4	392.88
433.622	411.88
433.844	389.88
434.066	394.88
434.287	374.88
434.509	391.88
434.731	377.88
434.953	414.88
435.175	398.88
435.397	437.88
435.618	450.88
435.84	496.88
436.062	580.88
436.284	611.88
436.505	501.88
436.727	466.88
436.949	445.88
437.17	425.88
437.392	427.88
437.614	456.88
437.835	465.88
438.057	541.88
438.278	615.88
438.5	588.88
438.721	647.88
438.943	628.88
439.165	521.88
439.386	463.88
439.608	471.88
439.829	464.88
440.05	493.88
440.272	519.88
440.493	472.88
440.715	460.88
440.936	423.88
441.158	441.88
441.379	417.88
441.6	426.88
441.822	445.88
442.043	480.88
442.264	564.88
442.486	548.88
442.707	501.88
442.928	449.88
443.149	458.88
443.371	490.88
443.592	529.88
443.813	576.88
444.034	637.88
444.255	527.88
444.476	486.88
444.698	452.88
444.919	456.88
445.14	582.88
445.361	515.88
445.582	476.88
445.803	559.88
446.024	598.88
446.245	603.88
446.466	572.88
446.687	477.88
446.908	452.88
447.129	424.88
447.35	412.88
447.571	428.88
447.792	401.88
448.013	396.88
448.234	426.88
448.455	477.88
448.675	575.88
448.896	659.88
449.117	564.88
449.338	540.88
449.559	614.88
449.779	709.88
450	553.88
450.221	430.88
450.442	432.88
450.662	400.88
450.883	384.88
451.104	412.88
451.324	400.88
451.545	389.88
451.766	392.88
451.986	397.88
452.207	379.88
452.428	359.88
452.648	359.88
452.869	379.88
453.089	393.88
453.31	389.88
453.53	396.88
453.751	383.88
453.971	376.88
454.192	385.88
454.412	381.88
454.633	366.88
454.853	371.88
455.073	366.88
455.294	413.88
455.514	439.88
455.734	435.88
455.955	364.88
456.175	365.88
456.395	353.88
456.616	347.88
456.836	352.88
457.056	355.88
457.276	348.88
457.497	349.88
457.717	327.88
457.937	340.88
458.157	362.88
458.377	342.88
458.598	390.88
458.818	392.88
459.038	479.88
459.258	475.88
459.478	415.88
459.698	381.88
459.918	389.88
460.138	380.88
460.358	368.88
460.578	381.88
460.798	387.88
461.018	410.88
461.238	399.88
461.458	367.88
461.678	382.88
461.898	394.88
462.118	383.88
462.338	396.88
462.558	391.88
462.777	410.88
462.997	417.88
463.217	423.88
463.437	415.88
463.657	408.88
463.876	392.88
464.096	404.88
464.316	420.88
464.536	427.88
464.755	419.88
464.975	408.88
465.195	436.88
465.414	469.88
465.634	437.88
465.854	422.88
466.073	411.88
466.293	395.88
466.512	364.88
466.732	382.88
466.951	375.88
467.171	376.88
467.391	384.88
467.61	383.88
467.829	386.88
468.049	388.88
468.268	382.88
468.488	366.88
468.707	371.88
468.927	369.88
469.146	387.88
469.365	373.88
469.585	355.88
469.804	377.88
470.023	382.88
470.243	386.88
470.462	390.88
470.681	405.88
470.901	397.88
471.12	379.88
471.339	377.88
471.558	373.88
471.777	402.88
471.997	368.88
472.216	379.88
472.435	395.88
472.654	391.88
472.873	377.88
473.092	377.88
473.311	390.88
473.53	394.88
473.749	408.88
473.968	419.88
474.187	515.88
474.406	519.88
474.625	438.88
474.844	416.88
475.063	387.88
475.282	379.88
475.501	397.88
475.72	390.88
475.939	393.88
476.158	417.88
476.377	400.88
476.596	392.88
476.814	384.88
477.033	398.88
477.252	401.88
477.471	410.88
477.69	414.88
477.908	417.88
478.127	408.88
478.346	415.88
478.564	425.88
478.783	413.88
479.002	417.88
479.22	427.88
479.439	426.88
479.658	456.88
479.876	444.88
480.095	445.88
480.313	485.88
480.532	466.88
480.751	464.88
480.969	469.88
481.188	509.88
481.406	512.88
481.624	474.88
481.843	451.88
482.061	455.88
482.28	439.88
482.498	445.88
482.717	450.88
482.935	442.88
483.153	463.88
483.372	454.88
483.59	439.88
483.808	443.88
484.027	443.88
484.245	457.88
484.463	443.88
484.681	462.88
484.9	453.88
485.118	447.88
485.336	434.88
485.554	447.88
485.772	456.88
485.99	454.88
486.209	450.88
486.427	447.88
486.645	449.88
486.863	472.88
487.081	455.88
487.299	480.88
487.517	465.88
487.735	471.88
487.953	467.88
488.171	480.88
488.389	481.88
488.607	474.88
488.825	483.88
489.043	471.88
489.261	468.88
489.479	472.88
489.696	487.88
489.914	503.88
490.132	484.88
490.35	479.88
490.568	483.88
490.786	521.88
491.003	519.88
491.221	521.88
491.439	499.88
491.657	535.88
491.874	544.88
492.092	550.88
492.31	568.88
492.527	549.88
492.745	562.88
492.963	570.88
493.18	557.88
493.398	544.88
493.615	560.88
493.833	561.88
494.05	565.88
494.268	559.88
494.485	554.88
494.703	555.88
494.92	578.88
495.138	558.88
495.355	568.88
495.573	564.88
495.79	569.88
496.008	557.88
496.225	564.88
496.442	570.88
496.66	584.88
496.877	556.88
497.094	575.88
497.312	573.88
497.529	562.88
497.746	561.88
497.963	587.88
498.181	590.88
498.398	595.88
498.615	600.88
498.832	615.88
499.049	631.88
499.267	641.88
499.484	628.88
499.701	668.88
499.918	693.88
500.135	712.88
500.352	751.88
500.569	720.88
500.786	727.88
501.003	732.88
501.22	727.88
501.437	719.88
501.654	715.88
501.871	714.88
502.088	672.88
502.305	633.88
502.522	615.88
502.739	617.88
502.956	615.88
503.172	593.88
503.389	588.88
503.606	584.88
503.823	574.88
504.04	573.88
504.256	557.88
504.473	553.88
504.69	545.88
504.907	576.88
505.123	537.88
505.34	522.88
505.557	550.88
505.773	569.88
505.99	550.88
506.207	513.88
506.423	515.88
506.64	519.88
506.856	514.88
507.073	521.88
507.289	519.88
507.506	520.88
507.722	537.88
507.939	558.88
508.155	533.88
508.372	496.88
508.588	513.88
508.805	506.88
509.021	528.88
509.238	513.88
509.454	538.88
509.67	515.88
509.887	508.88
510.103	505.88
510.319	530.88
510.536	565.88
510.752	889.88
510.968	717.88
511.184	520.88
511.401	485.88
511.617	493.88
511.833	471.88
512.049	490.88
512.265	493.88
512.481	491.88
512.698	469.88
512.914	495.88
513.13	470.88
513.346	473.88
513.562	456.88
513.778	475.88
513.994	480.88
514.21	483.88
514.426	485.88
514.642	519.88
514.858	530.88
515.074	565.88
515.29	660.88
515.506	942.88
515.721	778.88
515.937	581.88
516.153	526.88
516.369	521.88
516.585	489.88
516.801	500.88
517.016	474.88
517.232	495.88
517.448	487.88
517.664	480.88
517.879	481.88
518.095	481.88
518.311	486.88
518.527	481.88
518.742	464.88
518.958	471.88
519.173	485.88
519.389	491.88
519.605	475.88
519.82	471.88
520.036	473.88
520.251	488.88
520.467	504.88
520.682	533.88
520.898	514.88
521.113	527.88
521.329	543.88
521.544	624.88
521.76	764.88
521.975	1160.88
522.19	1129.88
522.406	677.88
522.621	524.88
522.836	515.88
523.052	457.88
523.267	449.88
523.482	449.88
523.698	428.88
523.913	437.88
524.128	433.88
524.343	415.88
524.559	425.88
524.774	416.88
524.989	402.88
525.204	424.88
525.419	431.88
525.634	413.88
525.849	416.88
526.064	393.88
526.28	400.88
526.495	404.88
526.71	388.88
526.925	402.88
527.14	384.88
527.355	405.88
527.57	379.88
527.785	397.88
527.999	380.88
528.214	374.88
528.429	381.88
528.644	380.88
528.859	382.88
529.074	392.88
529.289	411.88
529.503	450.88
529.718	447.88
529.933	397.88
530.148	389.88
530.363	388.88
530.577	384.88
530.792	391.88
531.007	371.88
531.221	385.88
531.436	385.88
531.651	376.88
531.865	399.88
532.08	366.88
532.295	356.88
532.509	383.88
532.724	393.88
532.938	362.88
533.153	376.88
533.367	379.88
533.582	369.88
533.796	371.88
534.011	364.88
534.225	383.88
534.44	384.88
534.654	355.88
534.868	364.88
535.083	375.88
535.297	371.88
535.511	364.88
535.726	389.88
535.94	380.88
536.154	368.88
536.369	343.88
536.583	354.88
536.797	350.88
537.011	371.88
537.225	347.88
537.44	355.88
537.654	357.88
537.868	358.88
538.082	349.88
538.296	363.88
538.51	364.88
538.724	363.88
538.938	364.88
539.153	378.88
539.367	377.88
539.581	372.88
539.795	382.88
540.009	351.88
540.222	363.88
540.436	365.88
540.65	385.88
540.864	373.88
541.078	380.88
541.292	373.88
541.506	373.88
541.72	363.88
541.934	373.88
542.147	379.88
542.361	367.88
542.575	378.88
542.789	371.88
543.002	362.88
543.216	374.88
543.43	371.88
543.644	363.88
543.857	364.88
544.071	364.88
544.285	365.88
544.498	373.88
544.712	351.88
544.925	359.88
545.139	347.88
545.352	363.88
545.566	361.88
545.779	352.88
545.993	353.88
546.206	362.88
546.42	351.88
546.633	351.88
546.847	364.88
547.06	362.88
547.274	359.88
547.487	368.88
547.7	359.88
547.914	349.88
548.127	340.88
548.34	360.88
548.554	335.88
548.767	363.88
548.98	334.88
549.193	363.88
549.407	347.88
549.62	332.88
549.833	337.88
550.046	354.88
550.259	357.88
550.473	342.88
550.686	337.88
550.899	351.88
551.112	359.88
551.325	349.88
551.538	328.88
551.751	342.88
551.964	342.88
552.177	332.88
552.39	363.88
552.603	347.88
552.816	350.88
553.029	344.88
553.242	333.88
553.455	351.88
553.667	363.88
553.88	357.88
554.093	351.88
554.306	343.88
554.519	345.88
554.732	347.88
554.944	355.88
555.157	344.88
555.37	330.88
555.583	335.88
555.795	319.88
556.008	327.88
556.221	326.88
556.433	322.88
556.646	312.88
556.859	310.88
557.071	321.88
557.284	330.88
557.496	323.88
557.709	325.88
557.921	318.88
558.134	329.88
558.346	300.88
558.559	316.88
558.771	313.88
558.984	315.88
559.196	331.88
559.409	318.88
559.621	310.88
559.833	318.88
560.046	309.88
560.258	309.88
560.47	320.88
560.683	298.88
560.895	302.88
561.107	300.88
561.32	302.88
561.532	319.88
561.744	291.88
561.956	326.88
562.168	312.88
562.381	331.88
562.593	323.88
562.805	308.88
563.017	308.88
563.229	321.88
563.441	303.88
563.653	316.88
563.865	315.88
564.077	300.88
564.289	312.88
564.501	343.88
564.713	325.88
564.925	332.88
565.137	325.88
565.349	324.88
565.561	325.88
565.773	349.88
565.985	348.88
566.197	339.88
566.408	334.88
566.62	345.88
566.832	353.88
567.044	366.88
567.255	365.88
567.467	359.88
567.679	368.88
567.891	361.88
568.102	358.88
568.314	345.88
568.526	353.88
568.737	311.88
568.949	338.88
569.161	316.88
569.372	317.88
569.584	316.88
569.795	326.88
570.007	313.88
570.218	354.88
570.43	327.88
570.641	301.88
570.853	309.88
571.064	295.88
571.276	287.88
571.487	283.88
571.698	285.88
571.91	288.88
572.121	277.88
572.333	287.88
572.544	263.88
572.755	273.88
572.966	273.88
573.178	265.88
573.389	262.88
573.6	263.88
573.811	251.88
574.023	253.88
574.234	270.88
574.445	255.88
574.656	247.88
574.867	263.88
575.078	264.88
575.289	265.88
575.501	268.88
575.712	259.88
575.923	261.88
576.134	268.88
576.345	247.88
576.556	263.88
576.767	263.88
576.978	263.88
577.188	272.88
577.399	245.88
577.61	247.88
577.821	263.88
578.032	258.88
578.243	296.88
578.454	439.88
578.665	317.88
578.875	273.88
579.086	240.88
579.297	265.88
579.508	264.88
579.718	259.88
579.929	227.88
580.14	243.88
580.35	234.88
580.561	232.88
580.772	247.88
580.982	254.88
581.193	251.88
581.403	234.88
581.614	231.88
581.825	254.88
582.035	233.88
582.246	240.88
582.456	240.88
582.667	244.88
582.877	246.88
583.087	244.88
583.298	271.88
583.508	240.88
583.719	231.88
583.929	216.88
584.139	237.88
584.35	237.88
584.56	260.88
584.77	232.88
584.981	232.88
585.191	235.88
585.401	234.88
585.611	236.88
585.821	245.88
586.032	241.88
586.242	240.88
586.452	224.88
586.662	226.88
586.872	250.88
587.082	246.88
587.292	237.88
587.502	234.88
587.713	222.88
587.923	224.88
588.133	241.88
588.343	236.88
588.553	223.88
588.762	224.88
588.972	231.88
589.182	248.88
589.392	237.88
589.602	228.88
589.812	238.88
590.022	230.88
590.232	238.88
590.441	233.88
590.651	227.88
590.861	216.88
591.071	232.88
591.281	227.88
591.49	245.88
591.7	240.88
591.91	249.88
592.119	210.88
592.329	231.88
592.539	248.88
592.748	238.88
592.958	220.88
593.167	233.88
593.377	245.88
593.587	253.88
593.796	250.88
594.006	250.88
594.215	260.88
594.424	233.88
594.634	234.88
594.843	251.88
595.053	240.88
595.262	235.88
595.472	246.88
595.681	239.88
595.89	231.88
596.1	226.88
596.309	245.88
596.518	225.88
596.727	225.88
596.937	223.88
597.146	219.88
597.355	220.88
597.564	209.88
597.774	225.88
597.983	208.88
598.192	226.88
598.401	212.88
598.61	212.88
598.819	207.88
599.028	213.88
599.237	208.88
599.446	213.88
599.655	208.88
599.864	203.88
600.073	220.88
600.282	220.88
600.491	203.88
600.7	222.88
600.909	203.88
601.118	200.88
601.327	207.88
601.536	208.88
601.745	220.88
601.953	221.88
602.162	205.88
602.371	199.88
602.58	213.88
602.789	216.88
602.997	219.88
603.206	216.88
603.415	208.88
603.623	206.88
603.832	218.88
604.041	208.88
604.249	190.88
604.458	207.88
604.666	193.88
604.875	205.88
605.084	184.88
605.292	194.88
605.501	202.88
605.709	215.88
605.918	190.88
606.126	202.88
606.334	200.88
606.543	212.88
606.751	193.88
606.96	202.88
607.168	191.88
607.376	198.88
607.585	224.88
607.793	202.88
608.001	200.88
608.21	219.88
608.418	203.88
608.626	202.88
608.834	204.88
609.043	210.88
609.251	208.88
609.459	210.88
609.667	219.88
609.875	202.88
610.083	206.88
610.291	199.88
610.499	225.88
610.707	218.88
610.916	220.88
611.124	202.88
611.332	215.88
611.54	218.88
611.748	210.88
611.955	213.88
612.163	201.88
612.371	203.88
612.579	179.88
612.787	203.88
612.995	217.88
613.203	213.88
613.411	185.88
613.618	205.88
613.826	204.88
614.034	204.88
614.242	188.88
614.449	195.88
614.657	207.88
614.865	206.88
615.072	205.88
615.28	196.88
615.488	188.88
615.695	204.88
615.903	186.88
616.111	208.88
616.318	195.88
616.526	191.88
616.733	206.88
616.941	200.88
617.148	201.88
617.356	209.88
617.563	196.88
617.771	194.88
617.978	197.88
618.185	180.88
618.393	182.88
618.6	197.88
618.807	207.88
619.015	202.88
619.222	194.88
619.429	206.88
619.637	186.88
619.844	187.88
620.051	191.88
620.258	201.88
620.466	197.88
620.673	187.88
620.88	187.88
621.087	192.88
621.294	196.88
621.501	183.88
621.708	205.88
621.915	196.88
622.122	183.88
622.329	186.88
622.536	197.88
622.743	203.88
622.95	175.88
623.157	195.88
623.364	199.88
623.571	190.88
623.778	186.88
623.985	189.88
624.192	177.88
624.399	183.88
624.606	192.88
624.812	191.88
625.019	196.88
625.226	180.88
625.433	184.88
625.639	170.88
625.846	185.88
626.053	169.88
626.259	184.88
626.466	185.88
626.673	168.88
626.879	185.88
627.086	182.88
627.293	199.88
627.499	188.88
627.706	185.88
627.912	181.88
628.119	187.88
628.325	184.88
628.532	168.88
628.738	167.88
628.945	183.88
629.151	169.88
629.357	181.88
629.564	177.88
629.77	192.88
629.976	169.88
630.183	169.88
630.389	166.88
630.595	165.88
630.802	185.88
631.008	180.88
631.214	173.88
631.42	159.88
631.627	158.88
631.833	187.88
632.039	175.88
632.245	167.88
632.451	170.88
632.657	168.88
632.863	169.88
633.069	162.88
633.275	154.88
633.481	156.88
633.688	155.88
633.893	159.88
634.099	160.88
634.305	163.88
634.511	159.88
634.717	166.88
634.923	153.88
635.129	154.88
635.335	146.88
635.541	167.88
635.747	162.88
635.952	163.88
636.158	166.88
636.364	161.88
636.57	161.88
636.775	169.88
636.981	175.88
637.187	153.88
637.392	151.88
637.598	161.88
637.804	151.88
638.009	163.88
638.215	156.88
638.421	142.88
638.626	171.88
638.832	163.88
639.037	164.88
639.243	160.88
639.448	144.88
639.654	160.88
639.859	160.88
640.065	155.88
640.27	152.88
640.475	156.88
640.681	134.88
640.886	163.88
641.091	179.88
641.297	161.88
641.502	163.88
641.707	168.88
641.913	141.88
642.118	150.88
642.323	147.88
642.528	146.88
642.733	151.88
642.939	140.88
643.144	153.88
643.349	150.88
643.554	158.88
643.759	149.88
643.964	143.88
644.169	148.88
644.374	129.88
644.579	173.88
644.784	142.88
644.989	134.88
645.194	169.88
645.399	146.88
645.604	137.88
645.809	155.88
646.014	153.88
646.219	153.88
646.423	159.88
646.628	137.88
646.833	155.88
647.038	142.88
647.243	159.88
647.447	149.88
647.652	152.88
647.857	150.88
648.062	148.88
648.266	162.88
648.471	143.88
648.676	139.88
648.88	151.88
649.085	164.88
649.289	140.88
649.494	139.88
649.698	170.88
649.903	163.88
650.107	141.88
650.312	141.88
650.516	140.88
650.721	147.88
650.925	139.88
651.13	145.88
651.334	130.88
651.539	151.88
651.743	135.88
651.947	149.88
652.152	139.88
652.356	141.88
652.56	136.88
652.764	123.88
652.969	125.88
653.173	138.88
653.377	116.88
653.581	131.88
653.785	128.88
653.99	131.88
654.194	127.88
654.398	125.88
654.602	126.88
654.806	130.88
655.01	151.88
655.214	133.88
655.418	113.88
655.622	125.88
655.826	107.88
656.03	121.88
656.234	117.88
656.438	128.88
656.642	125.88
656.846	129.88
657.049	131.88
657.253	118.88
657.457	121.88
657.661	126.88
657.865	112.88
658.068	108.88
658.272	116.88
658.476	105.88
658.68	119.88
658.883	96.88
659.087	112.88
659.291	103.88
659.494	101.88
659.698	106.88
659.901	90.88
660.105	110.88
660.309	103.88
660.512	89.88
660.716	90.88
660.919	95.88
661.123	103.88
661.326	98.88
661.53	101.88
661.733	89.88
661.936	87.88
662.14	76.88
662.343	82.88
662.546	80.88
662.75	89.88
662.953	96.88
663.156	87.88
663.36	77.88
663.563	82.88
663.766	102.88
663.969	88.88
664.173	79.88
664.376	75.88
664.579	80.88
664.782	76.88
664.985	101.88
665.188	88.88
665.391	84.88
665.594	89.88
665.797	87.88
666	96.88
666.203	84.88
666.406	89.88
666.609	69.88
666.812	73.88
667.015	78.88
667.218	96.88
667.421	102.88
667.624	77.88
667.827	92.88
668.03	96.88
668.232	90.88
668.435	77.88
668.638	89.88
668.841	89.88
669.043	62.88
669.246	79.88
669.449	94.88
669.651	94.88
669.854	88.88
670.057	76.88
670.259	73.88
670.462	91.88
670.665	69.88
670.867	99.88
671.07	87.88
671.272	80.88
671.475	85.88
671.677	68.88
671.88	95.88
672.082	87.88
672.284	82.88
672.487	87.88
672.689	87.88
672.892	94.88
