Data from 1971.PennyLincolnUp.Lamp.En5.5.200Scan.071719.P1._HRD10591_15-18-54-841.txt Node
Date: Thu Jul 18 15:18:54 EDT 2019
User: cochatt
Spectrometer: HR+D1059
Trigger mode: 1
Integration Time (sec): 1.000000E-1
Scans to average: 1
Electric dark correction enabled: true
Nonlinearity correction enabled: false
Boxcar width: 0
XAxis mode: Wavelengths
Number of Pixels in Spectrum: 2048
>>>>>Begin Spectral Data<<<<<
223.165	-20.94
223.4	-20.94
223.635	-20.94
223.869	-17.94
224.104	-17.94
224.338	-16.94
224.573	-13.94
224.808	8.06
225.042	-9.94
225.277	-3.94
225.511	-6.94
225.746	-7.94
225.98	12.06
226.215	17.06
226.449	15.06
226.683	13.06
226.918	24.06
227.152	27.06
227.387	28.06
227.621	38.06
227.856	53.06
228.09	48.06
228.324	44.06
228.559	40.06
228.793	61.06
229.027	79.06
229.262	79.06
229.496	118.06
229.73	114.06
229.964	152.06
230.199	117.06
230.433	114.06
230.667	100.06
230.901	114.06
231.136	114.06
231.37	108.06
231.604	121.06
231.838	118.06
232.072	96.06
232.306	112.06
232.541	116.06
232.775	102.06
233.009	114.06
233.243	112.06
233.477	104.06
233.711	114.06
233.945	103.06
234.179	107.06
234.413	126.06
234.647	102.06
234.881	120.06
235.115	134.06
235.349	108.06
235.583	125.06
235.817	114.06
236.051	119.06
236.285	126.06
236.519	119.06
236.753	118.06
236.987	132.06
237.221	168.06
237.455	203.06
237.689	178.06
237.922	139.06
238.156	114.06
238.39	122.06
238.624	127.06
238.858	126.06
239.091	125.06
239.325	112.06
239.559	116.06
239.793	122.06
240.027	125.06
240.26	122.06
240.494	139.06
240.728	141.06
240.961	161.06
241.195	128.06
241.429	134.06
241.662	133.06
241.896	130.06
242.13	122.06
242.363	134.06
242.597	133.06
242.83	141.06
243.064	127.06
243.298	146.06
243.531	130.06
243.765	133.06
243.998	144.06
244.232	137.06
244.465	134.06
244.699	135.06
244.932	151.06
245.166	142.06
245.399	134.06
245.633	144.06
245.866	151.06
246.099	148.06
246.333	169.06
246.566	169.06
246.8	139.06
247.033	172.06
247.266	160.06
247.5	149.06
247.733	169.06
247.966	169.06
248.2	159.06
248.433	173.06
248.666	171.06
248.899	171.06
249.133	184.06
249.366	197.06
249.599	171.06
249.832	190.06
250.066	180.06
250.299	175.06
250.532	184.06
250.765	205.06
250.998	222.06
251.231	219.06
251.465	195.06
251.698	207.06
251.931	180.06
252.164	200.06
252.397	191.06
252.63	203.06
252.863	213.06
253.096	207.06
253.329	230.06
253.562	205.06
253.795	239.06
254.028	236.06
254.261	219.06
254.494	228.06
254.727	254.06
254.96	262.06
255.193	246.06
255.426	259.06
255.659	223.06
255.892	236.06
256.124	219.06
256.357	223.06
256.59	220.06
256.823	227.06
257.056	218.06
257.289	202.06
257.521	221.06
257.754	209.06
257.987	222.06
258.22	212.06
258.452	191.06
258.685	203.06
258.918	212.06
259.151	226.06
259.383	209.06
259.616	207.06
259.849	225.06
260.081	229.06
260.314	254.06
260.547	251.06
260.779	232.06
261.012	230.06
261.244	223.06
261.477	214.06
261.71	220.06
261.942	226.06
262.175	226.06
262.407	214.06
262.64	199.06
262.872	208.06
263.105	207.06
263.337	218.06
263.57	205.06
263.802	210.06
264.035	217.06
264.267	222.06
264.499	216.06
264.732	206.06
264.964	211.06
265.197	218.06
265.429	206.06
265.661	215.06
265.894	208.06
266.126	222.06
266.358	221.06
266.591	215.06
266.823	223.06
267.055	218.06
267.287	216.06
267.52	215.06
267.752	245.06
267.984	237.06
268.216	219.06
268.448	232.06
268.681	236.06
268.913	252.06
269.145	259.06
269.377	259.06
269.609	272.06
269.841	265.06
270.073	279.06
270.306	287.06
270.538	305.06
270.77	298.06
271.002	314.06
271.234	283.06
271.466	295.06
271.698	288.06
271.93	322.06
272.162	314.06
272.394	309.06
272.626	292.06
272.858	302.06
273.09	270.06
273.322	281.06
273.553	260.06
273.785	262.06
274.017	244.06
274.249	277.06
274.481	243.06
274.713	282.06
274.945	275.06
275.176	283.06
275.408	274.06
275.64	264.06
275.872	263.06
276.104	269.06
276.335	265.06
276.567	275.06
276.799	284.06
277.031	299.06
277.262	296.06
277.494	314.06
277.726	306.06
277.957	272.06
278.189	290.06
278.421	274.06
278.652	274.06
278.884	258.06
279.115	268.06
279.347	251.06
279.579	262.06
279.81	276.06
280.042	245.06
280.273	248.06
280.505	271.06
280.736	271.06
280.968	265.06
281.199	261.06
281.431	264.06
281.662	275.06
281.894	263.06
282.125	277.06
282.356	310.06
282.588	291.06
282.819	283.06
283.051	262.06
283.282	285.06
283.513	298.06
283.745	290.06
283.976	287.06
284.207	272.06
284.439	263.06
284.67	276.06
284.901	268.06
285.132	273.06
285.364	258.06
285.595	279.06
285.826	286.06
286.057	278.06
286.288	265.06
286.52	276.06
286.751	278.06
286.982	266.06
287.213	280.06
287.444	272.06
287.675	278.06
287.906	307.06
288.138	282.06
288.369	299.06
288.6	297.06
288.831	285.06
289.062	284.06
289.293	282.06
289.524	290.06
289.755	300.06
289.986	301.06
290.217	256.06
290.448	294.06
290.679	293.06
290.91	292.06
291.141	285.06
291.371	287.06
291.602	270.06
291.833	282.06
292.064	292.06
292.295	285.06
292.526	290.06
292.757	306.06
292.987	294.06
293.218	292.06
293.449	298.06
293.68	291.06
293.91	290.06
294.141	287.06
294.372	290.06
294.603	299.06
294.833	296.06
295.064	301.06
295.295	278.06
295.525	290.06
295.756	291.06
295.987	281.06
296.217	306.06
296.448	312.06
296.679	308.06
296.909	271.06
297.14	287.06
297.37	278.06
297.601	295.06
297.831	286.06
298.062	296.06
298.292	298.06
298.523	322.06
298.753	302.06
298.984	291.06
299.214	292.06
299.445	295.06
299.675	319.06
299.905	319.06
300.136	315.06
300.366	310.06
300.597	286.06
300.827	294.06
301.057	310.06
301.288	313.06
301.518	330.06
301.748	317.06
301.979	318.06
302.209	315.06
302.439	318.06
302.669	319.06
302.9	331.06
303.13	316.06
303.36	328.06
303.59	325.06
303.82	339.06
304.051	344.06
304.281	317.06
304.511	335.06
304.741	308.06
304.971	326.06
305.201	332.06
305.431	329.06
305.661	338.06
305.891	326.06
306.121	323.06
306.352	317.06
306.582	327.06
306.812	313.06
307.042	322.06
307.272	323.06
307.502	340.06
307.731	322.06
307.961	329.06
308.191	320.06
308.421	327.06
308.651	315.06
308.881	340.06
309.111	331.06
309.341	332.06
309.571	360.06
309.8	362.06
310.03	352.06
310.26	359.06
310.49	352.06
310.72	361.06
310.949	382.06
311.179	384.06
311.409	383.06
311.639	343.06
311.868	365.06
312.098	371.06
312.328	356.06
312.557	379.06
312.787	386.06
313.017	387.06
313.246	381.06
313.476	351.06
313.706	359.06
313.935	371.06
314.165	376.06
314.394	396.06
314.624	386.06
314.853	381.06
315.083	378.06
315.312	365.06
315.542	343.06
315.771	358.06
316.001	367.06
316.23	362.06
316.46	360.06
316.689	373.06
316.919	372.06
317.148	360.06
317.377	381.06
317.607	382.06
317.836	381.06
318.065	361.06
318.295	378.06
318.524	388.06
318.753	375.06
318.983	351.06
319.212	380.06
319.441	390.06
319.67	384.06
319.9	382.06
320.129	364.06
320.358	356.06
320.587	378.06
320.816	370.06
321.046	392.06
321.275	392.06
321.504	396.06
321.733	391.06
321.962	386.06
322.191	381.06
322.42	404.06
322.649	425.06
322.878	440.06
323.108	440.06
323.337	449.06
323.566	470.06
323.795	495.06
324.024	550.06
324.253	626.06
324.482	912.06
324.71	1337.06
324.939	1798.06
325.168	1511.06
325.397	826.06
325.626	572.06
325.855	516.06
326.084	500.06
326.313	484.06
326.542	469.06
326.77	526.06
326.999	602.06
327.228	832.06
327.457	1182.06
327.686	1356.06
327.914	900.06
328.143	635.06
328.372	580.06
328.6	544.06
328.829	535.06
329.058	517.06
329.287	534.06
329.515	503.06
329.744	484.06
329.972	469.06
330.201	492.06
330.43	534.06
330.658	535.06
330.887	538.06
331.115	540.06
331.344	478.06
331.572	450.06
331.801	440.06
332.03	455.06
332.258	447.06
332.486	442.06
332.715	425.06
332.943	416.06
333.172	434.06
333.4	413.06
333.629	431.06
333.857	451.06
334.085	468.06
334.314	455.06
334.542	500.06
334.771	490.06
334.999	460.06
335.227	441.06
335.455	410.06
335.684	421.06
335.912	439.06
336.14	412.06
336.369	400.06
336.597	414.06
336.825	431.06
337.053	426.06
337.281	407.06
337.51	408.06
337.738	417.06
337.966	412.06
338.194	421.06
338.422	422.06
338.65	398.06
338.878	426.06
339.106	394.06
339.334	370.06
339.562	396.06
339.79	402.06
340.018	414.06
340.246	393.06
340.474	416.06
340.702	406.06
340.93	392.06
341.158	403.06
341.386	397.06
341.614	421.06
341.842	390.06
342.07	383.06
342.298	400.06
342.526	374.06
342.754	383.06
342.981	391.06
343.209	381.06
343.437	390.06
343.665	393.06
343.893	420.06
344.12	405.06
344.348	402.06
344.576	394.06
344.804	417.06
345.031	418.06
345.259	418.06
345.487	409.06
345.714	409.06
345.942	389.06
346.17	397.06
346.397	396.06
346.625	400.06
346.853	385.06
347.08	375.06
347.308	372.06
347.535	377.06
347.763	390.06
347.99	376.06
348.218	402.06
348.445	394.06
348.673	383.06
348.9	395.06
349.128	367.06
349.355	389.06
349.583	378.06
349.81	379.06
350.037	381.06
350.265	386.06
350.492	364.06
350.72	379.06
350.947	378.06
351.174	358.06
351.402	376.06
351.629	392.06
351.856	397.06
352.083	390.06
352.311	380.06
352.538	392.06
352.765	391.06
352.992	384.06
353.22	390.06
353.447	387.06
353.674	372.06
353.901	352.06
354.128	365.06
354.355	376.06
354.583	368.06
354.81	366.06
355.037	362.06
355.264	335.06
355.491	375.06
355.718	361.06
355.945	344.06
356.172	356.06
356.399	353.06
356.626	343.06
356.853	367.06
357.08	356.06
357.307	359.06
357.534	338.06
357.761	361.06
357.988	346.06
358.215	349.06
358.441	348.06
358.668	369.06
358.895	356.06
359.122	364.06
359.349	355.06
359.576	384.06
359.802	394.06
360.029	401.06
360.256	422.06
360.483	391.06
360.709	365.06
360.936	374.06
361.163	383.06
361.39	359.06
361.616	385.06
361.843	381.06
362.07	375.06
362.296	353.06
362.523	352.06
362.749	380.06
362.976	351.06
363.203	364.06
363.429	376.06
363.656	354.06
363.882	354.06
364.109	349.06
364.335	350.06
364.562	350.06
364.788	357.06
365.015	380.06
365.241	361.06
365.468	352.06
365.694	377.06
365.92	360.06
366.147	367.06
366.373	362.06
366.599	351.06
366.826	355.06
367.052	353.06
367.278	330.06
367.505	341.06
367.731	348.06
367.957	354.06
368.184	375.06
368.41	354.06
368.636	358.06
368.862	376.06
369.089	360.06
369.315	351.06
369.541	363.06
369.767	350.06
369.993	353.06
370.219	345.06
370.445	355.06
370.672	347.06
370.898	339.06
371.124	340.06
371.35	348.06
371.576	358.06
371.802	333.06
372.028	355.06
372.254	333.06
372.48	346.06
372.706	366.06
372.932	366.06
373.158	344.06
373.384	338.06
373.61	352.06
373.835	356.06
374.061	354.06
374.287	338.06
374.513	346.06
374.739	336.06
374.965	348.06
375.191	349.06
375.416	349.06
375.642	349.06
375.868	364.06
376.094	373.06
376.319	342.06
376.545	334.06
376.771	320.06
376.997	356.06
377.222	356.06
377.448	342.06
377.674	330.06
377.899	337.06
378.125	345.06
378.35	348.06
378.576	339.06
378.802	330.06
379.027	339.06
379.253	366.06
379.478	340.06
379.704	337.06
379.929	353.06
380.155	331.06
380.38	359.06
380.606	344.06
380.831	338.06
381.057	336.06
381.282	326.06
381.507	347.06
381.733	359.06
381.958	339.06
382.184	332.06
382.409	343.06
382.634	342.06
382.86	351.06
383.085	347.06
383.31	343.06
383.535	370.06
383.761	341.06
383.986	359.06
384.211	328.06
384.436	350.06
384.662	352.06
384.887	350.06
385.112	364.06
385.337	365.06
385.562	354.06
385.787	360.06
386.013	379.06
386.238	379.06
386.463	374.06
386.688	374.06
386.913	348.06
387.138	377.06
387.363	345.06
387.588	342.06
387.813	367.06
388.038	355.06
388.263	360.06
388.488	364.06
388.713	370.06
388.938	368.06
389.163	384.06
389.387	378.06
389.612	350.06
389.837	350.06
390.062	364.06
390.287	334.06
390.512	368.06
390.736	351.06
390.961	346.06
391.186	342.06
391.411	358.06
391.636	355.06
391.86	382.06
392.085	357.06
392.31	389.06
392.534	374.06
392.759	380.06
392.984	365.06
393.208	361.06
393.433	369.06
393.658	367.06
393.882	350.06
394.107	342.06
394.331	333.06
394.556	365.06
394.78	359.06
395.005	363.06
395.229	376.06
395.454	346.06
395.678	378.06
395.903	382.06
396.127	393.06
396.352	378.06
396.576	373.06
396.801	386.06
397.025	386.06
397.249	374.06
397.474	394.06
397.698	357.06
397.922	394.06
398.147	412.06
398.371	408.06
398.595	400.06
398.82	382.06
399.044	404.06
399.268	400.06
399.492	450.06
399.717	457.06
399.941	484.06
400.165	485.06
400.389	498.06
400.613	434.06
400.837	427.06
401.062	415.06
401.286	406.06
401.51	411.06
401.734	394.06
401.958	394.06
402.182	411.06
402.406	415.06
402.63	420.06
402.854	398.06
403.078	392.06
403.302	402.06
403.526	419.06
403.75	407.06
403.974	407.06
404.198	423.06
404.422	408.06
404.645	414.06
404.869	432.06
405.093	438.06
405.317	467.06
405.541	500.06
405.765	450.06
405.988	428.06
406.212	448.06
406.436	462.06
406.66	459.06
406.883	474.06
407.107	467.06
407.331	493.06
407.555	535.06
407.778	544.06
408.002	494.06
408.226	464.06
408.449	448.06
408.673	465.06
408.896	484.06
409.12	519.06
409.344	468.06
409.567	408.06
409.791	423.06
410.014	426.06
410.238	419.06
410.461	411.06
410.685	427.06
410.908	429.06
411.132	449.06
411.355	478.06
411.578	434.06
411.802	408.06
412.025	407.06
412.249	400.06
412.472	405.06
412.695	456.06
412.919	451.06
413.142	420.06
413.365	409.06
413.589	390.06
413.812	413.06
414.035	399.06
414.258	388.06
414.482	385.06
414.705	400.06
414.928	398.06
415.151	358.06
415.374	373.06
415.597	372.06
415.821	385.06
416.044	404.06
416.267	356.06
416.49	384.06
416.713	404.06
416.936	387.06
417.159	370.06
417.382	397.06
417.605	399.06
417.828	386.06
418.051	409.06
418.274	406.06
418.497	378.06
418.72	389.06
418.943	388.06
419.166	382.06
419.389	427.06
419.611	404.06
419.834	411.06
420.057	400.06
420.28	398.06
420.503	402.06
420.726	428.06
420.948	426.06
421.171	443.06
421.394	473.06
421.617	425.06
421.839	412.06
422.062	420.06
422.285	407.06
422.507	460.06
422.73	516.06
422.953	514.06
423.175	437.06
423.398	425.06
423.621	439.06
423.843	441.06
424.066	448.06
424.288	444.06
424.511	460.06
424.733	486.06
424.956	541.06
425.178	530.06
425.401	532.06
425.623	559.06
425.846	464.06
426.068	435.06
426.291	413.06
426.513	426.06
426.735	423.06
426.958	475.06
427.18	534.06
427.402	633.06
427.625	695.06
427.847	603.06
428.069	545.06
428.292	473.06
428.514	429.06
428.736	439.06
428.958	388.06
429.181	400.06
429.403	400.06
429.625	414.06
429.847	448.06
430.069	486.06
430.292	478.06
430.514	437.06
430.736	417.06
430.958	392.06
431.18	392.06
431.402	370.06
431.624	362.06
431.846	370.06
432.068	360.06
432.29	401.06
432.512	367.06
432.734	405.06
432.956	396.06
433.178	388.06
433.4	414.06
433.622	394.06
433.844	356.06
434.066	354.06
434.287	396.06
434.509	376.06
434.731	390.06
434.953	397.06
435.175	386.06
435.397	425.06
435.618	435.06
435.84	456.06
436.062	538.06
436.284	575.06
436.505	496.06
436.727	430.06
436.949	409.06
437.17	412.06
437.392	408.06
437.614	412.06
437.835	453.06
438.057	518.06
438.278	564.06
438.5	582.06
438.721	650.06
438.943	624.06
439.165	484.06
439.386	458.06
439.608	440.06
439.829	449.06
440.05	448.06
440.272	495.06
440.493	461.06
440.715	427.06
440.936	412.06
441.158	407.06
441.379	408.06
441.6	428.06
441.822	420.06
442.043	444.06
442.264	521.06
442.486	575.06
442.707	467.06
442.928	458.06
443.149	438.06
443.371	429.06
443.592	518.06
443.813	552.06
444.034	600.06
444.255	506.06
444.476	456.06
444.698	442.06
444.919	434.06
445.14	575.06
445.361	485.06
445.582	460.06
445.803	504.06
446.024	586.06
446.245	589.06
446.466	541.06
446.687	489.06
446.908	455.06
447.129	420.06
447.35	419.06
447.571	405.06
447.792	401.06
448.013	400.06
448.234	420.06
448.455	455.06
448.675	553.06
448.896	617.06
449.117	512.06
449.338	486.06
449.559	580.06
449.779	648.06
450	523.06
450.221	446.06
450.442	410.06
450.662	413.06
450.883	392.06
451.104	408.06
451.324	382.06
451.545	374.06
451.766	373.06
451.986	377.06
452.207	363.06
452.428	351.06
452.648	380.06
452.869	367.06
453.089	378.06
453.31	368.06
453.53	373.06
453.751	363.06
453.971	346.06
454.192	372.06
454.412	364.06
454.633	348.06
454.853	351.06
455.073	349.06
455.294	373.06
455.514	408.06
455.734	409.06
455.955	350.06
456.175	343.06
456.395	326.06
456.616	329.06
456.836	335.06
457.056	334.06
457.276	320.06
457.497	342.06
457.717	334.06
457.937	330.06
458.157	333.06
458.377	346.06
458.598	359.06
458.818	418.06
459.038	450.06
459.258	455.06
459.478	404.06
459.698	385.06
459.918	367.06
460.138	344.06
460.358	373.06
460.578	375.06
460.798	374.06
461.018	378.06
461.238	361.06
461.458	376.06
461.678	372.06
461.898	376.06
462.118	370.06
462.338	370.06
462.558	383.06
462.777	376.06
462.997	396.06
463.217	407.06
463.437	397.06
463.657	396.06
463.876	395.06
464.096	392.06
464.316	396.06
464.536	409.06
464.755	404.06
464.975	415.06
465.195	426.06
465.414	489.06
465.634	405.06
465.854	405.06
466.073	376.06
466.293	369.06
466.512	350.06
466.732	342.06
466.951	363.06
467.171	375.06
467.391	364.06
467.61	361.06
467.829	375.06
468.049	358.06
468.268	372.06
468.488	354.06
468.707	354.06
468.927	353.06
469.146	353.06
469.365	356.06
469.585	370.06
469.804	364.06
470.023	378.06
470.243	390.06
470.462	383.06
470.681	384.06
470.901	369.06
471.12	362.06
471.339	352.06
471.558	370.06
471.777	370.06
471.997	358.06
472.216	357.06
472.435	381.06
472.654	352.06
472.873	374.06
473.092	358.06
473.311	347.06
473.53	350.06
473.749	383.06
473.968	426.06
474.187	501.06
474.406	486.06
474.625	415.06
474.844	399.06
475.063	381.06
475.282	372.06
475.501	369.06
475.72	387.06
475.939	374.06
476.158	359.06
476.377	378.06
476.596	374.06
476.814	364.06
477.033	388.06
477.252	378.06
477.471	410.06
477.69	390.06
477.908	401.06
478.127	409.06
478.346	387.06
478.564	423.06
478.783	412.06
479.002	393.06
479.22	428.06
479.439	403.06
479.658	419.06
479.876	406.06
480.095	438.06
480.313	447.06
480.532	438.06
480.751	446.06
480.969	467.06
481.188	492.06
481.406	502.06
481.624	455.06
481.843	420.06
482.061	431.06
482.28	438.06
482.498	403.06
482.717	411.06
482.935	407.06
483.153	426.06
483.372	428.06
483.59	412.06
483.808	419.06
484.027	415.06
484.245	426.06
484.463	403.06
484.681	434.06
484.9	427.06
485.118	443.06
485.336	428.06
485.554	434.06
485.772	415.06
485.99	444.06
486.209	435.06
486.427	445.06
486.645	440.06
486.863	460.06
487.081	442.06
487.299	460.06
487.517	466.06
487.735	460.06
487.953	456.06
488.171	469.06
488.389	470.06
488.607	450.06
488.825	467.06
489.043	448.06
489.261	452.06
489.479	465.06
489.696	472.06
489.914	445.06
490.132	450.06
490.35	495.06
490.568	487.06
490.786	462.06
491.003	500.06
491.221	507.06
491.439	488.06
491.657	510.06
491.874	535.06
492.092	528.06
492.31	527.06
492.527	537.06
492.745	533.06
492.963	549.06
493.18	537.06
493.398	522.06
493.615	536.06
493.833	539.06
494.05	532.06
494.268	552.06
494.485	535.06
494.703	528.06
494.92	556.06
495.138	528.06
495.355	542.06
495.573	543.06
495.79	570.06
496.008	549.06
496.225	526.06
496.442	537.06
496.66	552.06
496.877	550.06
497.094	528.06
497.312	560.06
497.529	546.06
497.746	571.06
497.963	580.06
498.181	541.06
498.398	582.06
498.615	574.06
498.832	611.06
499.049	595.06
499.267	619.06
499.484	622.06
499.701	649.06
499.918	664.06
500.135	702.06
500.352	734.06
500.569	724.06
500.786	703.06
501.003	708.06
501.22	681.06
501.437	686.06
501.654	673.06
501.871	668.06
502.088	640.06
502.305	610.06
502.522	572.06
502.739	593.06
502.956	566.06
503.172	530.06
503.389	570.06
503.606	544.06
503.823	552.06
504.04	515.06
504.256	517.06
504.473	517.06
504.69	526.06
504.907	548.06
505.123	529.06
505.34	533.06
505.557	520.06
505.773	514.06
505.99	473.06
506.207	512.06
506.423	505.06
506.64	492.06
506.856	526.06
507.073	514.06
507.289	502.06
507.506	512.06
507.722	494.06
507.939	516.06
508.155	518.06
508.372	502.06
508.588	495.06
508.805	489.06
509.021	492.06
509.238	493.06
509.454	490.06
509.67	522.06
509.887	486.06
510.103	487.06
510.319	506.06
510.536	557.06
510.752	864.06
510.968	685.06
511.184	491.06
511.401	466.06
511.617	487.06
511.833	444.06
512.049	461.06
512.265	478.06
512.481	473.06
512.698	452.06
512.914	461.06
513.13	438.06
513.346	440.06
513.562	448.06
513.778	455.06
513.994	453.06
514.21	465.06
514.426	490.06
514.642	498.06
514.858	538.06
515.074	544.06
515.29	631.06
515.506	874.06
515.721	747.06
515.937	527.06
516.153	493.06
516.369	488.06
516.585	453.06
516.801	448.06
517.016	460.06
517.232	472.06
517.448	474.06
517.664	472.06
517.879	476.06
518.095	477.06
518.311	487.06
518.527	447.06
518.742	471.06
518.958	465.06
519.173	440.06
519.389	444.06
519.605	452.06
519.82	446.06
520.036	463.06
520.251	475.06
520.467	511.06
520.682	469.06
520.898	487.06
521.113	528.06
521.329	553.06
521.544	581.06
521.76	733.06
521.975	1125.06
522.19	1060.06
522.406	628.06
522.621	525.06
522.836	466.06
523.052	466.06
523.267	418.06
523.482	430.06
523.698	406.06
523.913	418.06
524.128	410.06
524.343	409.06
524.559	399.06
524.774	425.06
524.989	391.06
525.204	406.06
525.419	398.06
525.634	383.06
525.849	381.06
526.064	387.06
526.28	385.06
526.495	380.06
526.71	373.06
526.925	377.06
527.14	380.06
527.355	352.06
527.57	376.06
527.785	384.06
527.999	392.06
528.214	375.06
528.429	358.06
528.644	363.06
528.859	389.06
529.074	383.06
529.289	401.06
529.503	456.06
529.718	444.06
529.933	398.06
530.148	387.06
530.363	382.06
530.577	378.06
530.792	367.06
531.007	384.06
531.221	360.06
531.436	372.06
531.651	351.06
531.865	365.06
532.08	367.06
532.295	361.06
532.509	364.06
532.724	351.06
532.938	341.06
533.153	355.06
533.367	366.06
533.582	374.06
533.796	367.06
534.011	359.06
534.225	368.06
534.44	362.06
534.654	373.06
534.868	329.06
535.083	340.06
535.297	367.06
535.511	360.06
535.726	360.06
535.94	371.06
536.154	370.06
536.369	363.06
536.583	351.06
536.797	371.06
537.011	336.06
537.225	354.06
537.44	346.06
537.654	352.06
537.868	352.06
538.082	344.06
538.296	355.06
538.51	351.06
538.724	357.06
538.938	354.06
539.153	340.06
539.367	372.06
539.581	357.06
539.795	324.06
540.009	340.06
540.222	354.06
540.436	352.06
540.65	348.06
540.864	351.06
541.078	379.06
541.292	361.06
541.506	354.06
541.72	365.06
541.934	347.06
542.147	361.06
542.361	351.06
542.575	346.06
542.789	343.06
543.002	357.06
543.216	341.06
543.43	339.06
543.644	348.06
543.857	346.06
544.071	357.06
544.285	369.06
544.498	360.06
544.712	352.06
544.925	336.06
545.139	364.06
545.352	355.06
545.566	362.06
545.779	376.06
545.993	354.06
546.206	350.06
546.42	357.06
546.633	342.06
546.847	359.06
547.06	329.06
547.274	364.06
547.487	336.06
547.7	335.06
547.914	349.06
548.127	356.06
548.34	329.06
548.554	354.06
548.767	344.06
548.98	354.06
549.193	313.06
549.407	332.06
549.62	352.06
549.833	332.06
550.046	338.06
550.259	329.06
550.473	342.06
550.686	351.06
550.899	328.06
551.112	330.06
551.325	323.06
551.538	343.06
551.751	339.06
551.964	309.06
552.177	310.06
552.39	342.06
552.603	337.06
552.816	323.06
553.029	344.06
553.242	336.06
553.455	359.06
553.667	367.06
553.88	341.06
554.093	340.06
554.306	348.06
554.519	349.06
554.732	332.06
554.944	328.06
555.157	344.06
555.37	318.06
555.583	314.06
555.795	328.06
556.008	320.06
556.221	315.06
556.433	320.06
556.646	335.06
556.859	330.06
557.071	306.06
557.284	301.06
557.496	312.06
557.709	310.06
557.921	310.06
558.134	308.06
558.346	307.06
558.559	284.06
558.771	301.06
558.984	302.06
559.196	306.06
559.409	320.06
559.621	325.06
559.833	309.06
560.046	313.06
560.258	304.06
560.47	312.06
560.683	290.06
560.895	283.06
561.107	313.06
561.32	317.06
561.532	298.06
561.744	314.06
561.956	302.06
562.168	306.06
562.381	298.06
562.593	317.06
562.805	313.06
563.017	311.06
563.229	285.06
563.441	309.06
563.653	303.06
563.865	310.06
564.077	309.06
564.289	303.06
564.501	283.06
564.713	317.06
564.925	316.06
565.137	312.06
565.349	330.06
565.561	313.06
565.773	301.06
565.985	318.06
566.197	334.06
566.408	331.06
566.62	310.06
566.832	335.06
567.044	345.06
567.255	343.06
567.467	348.06
567.679	371.06
567.891	368.06
568.102	368.06
568.314	352.06
568.526	343.06
568.737	342.06
568.949	332.06
569.161	312.06
569.372	299.06
569.584	321.06
569.795	295.06
570.007	322.06
570.218	325.06
570.43	317.06
570.641	296.06
570.853	284.06
571.064	284.06
571.276	279.06
571.487	264.06
571.698	277.06
571.91	285.06
572.121	261.06
572.333	268.06
572.544	270.06
572.755	277.06
572.966	238.06
573.178	246.06
573.389	262.06
573.6	270.06
573.811	258.06
574.023	248.06
574.234	252.06
574.445	249.06
574.656	263.06
574.867	256.06
575.078	243.06
575.289	274.06
575.501	251.06
575.712	237.06
575.923	265.06
576.134	252.06
576.345	240.06
576.556	253.06
576.767	242.06
576.978	258.06
577.188	270.06
577.399	254.06
577.61	244.06
577.821	253.06
578.032	248.06
578.243	276.06
578.454	397.06
578.665	310.06
578.875	252.06
579.086	243.06
579.297	247.06
579.508	248.06
579.718	237.06
579.929	242.06
580.14	246.06
580.35	237.06
580.561	228.06
580.772	237.06
580.982	230.06
581.193	266.06
581.403	235.06
581.614	218.06
581.825	242.06
582.035	227.06
582.246	238.06
582.456	254.06
582.667	240.06
582.877	239.06
583.087	229.06
583.298	229.06
583.508	228.06
583.719	216.06
583.929	231.06
584.139	213.06
584.35	224.06
584.56	243.06
584.77	242.06
584.981	235.06
585.191	225.06
585.401	231.06
585.611	222.06
585.821	218.06
586.032	230.06
586.242	225.06
586.452	219.06
586.662	220.06
586.872	222.06
587.082	233.06
587.292	237.06
587.502	215.06
587.713	234.06
587.923	229.06
588.133	224.06
588.343	225.06
588.553	223.06
588.762	231.06
588.972	237.06
589.182	247.06
589.392	221.06
589.602	226.06
589.812	220.06
590.022	238.06
590.232	221.06
590.441	220.06
590.651	232.06
590.861	235.06
591.071	231.06
591.281	221.06
591.49	215.06
591.7	227.06
591.91	228.06
592.119	232.06
592.329	220.06
592.539	230.06
592.748	235.06
592.958	248.06
593.167	225.06
593.377	238.06
593.587	259.06
593.796	244.06
594.006	228.06
594.215	235.06
594.424	222.06
594.634	236.06
594.843	231.06
595.053	193.06
595.262	204.06
595.472	211.06
595.681	222.06
595.89	233.06
596.1	222.06
596.309	221.06
596.518	227.06
596.727	207.06
596.937	217.06
597.146	215.06
597.355	213.06
597.564	217.06
597.774	213.06
597.983	191.06
598.192	204.06
598.401	197.06
598.61	202.06
598.819	210.06
599.028	214.06
599.237	211.06
599.446	214.06
599.655	209.06
599.864	206.06
600.073	207.06
600.282	221.06
600.491	211.06
600.7	202.06
600.909	192.06
601.118	213.06
601.327	194.06
601.536	192.06
601.745	219.06
601.953	194.06
602.162	225.06
602.371	203.06
602.58	202.06
602.789	203.06
602.997	187.06
603.206	205.06
603.415	203.06
603.623	199.06
603.832	199.06
604.041	191.06
604.249	196.06
604.458	174.06
604.666	196.06
604.875	192.06
605.084	191.06
605.292	202.06
605.501	218.06
605.709	211.06
605.918	206.06
606.126	201.06
606.334	190.06
606.543	199.06
606.751	196.06
606.96	208.06
607.168	197.06
607.376	205.06
607.585	206.06
607.793	204.06
608.001	208.06
608.21	197.06
608.418	206.06
608.626	190.06
608.834	211.06
609.043	196.06
609.251	194.06
609.459	188.06
609.667	200.06
609.875	208.06
610.083	216.06
610.291	211.06
610.499	179.06
610.707	202.06
610.916	194.06
611.124	198.06
611.332	222.06
611.54	212.06
611.748	215.06
611.955	217.06
612.163	213.06
612.371	206.06
612.579	214.06
612.787	189.06
612.995	194.06
613.203	185.06
613.411	210.06
613.618	205.06
613.826	196.06
614.034	198.06
614.242	203.06
614.449	215.06
614.657	188.06
614.865	195.06
615.072	199.06
615.28	190.06
615.488	195.06
615.695	199.06
615.903	197.06
616.111	196.06
616.318	199.06
616.526	189.06
616.733	192.06
616.941	202.06
617.148	202.06
617.356	203.06
617.563	197.06
617.771	193.06
617.978	195.06
618.185	186.06
618.393	183.06
618.6	185.06
618.807	183.06
619.015	196.06
619.222	193.06
619.429	184.06
619.637	180.06
619.844	187.06
620.051	178.06
620.258	176.06
620.466	206.06
620.673	182.06
620.88	182.06
621.087	186.06
621.294	182.06
621.501	183.06
621.708	203.06
621.915	189.06
622.122	176.06
622.329	198.06
622.536	196.06
622.743	189.06
622.95	184.06
623.157	182.06
623.364	194.06
623.571	182.06
623.778	201.06
623.985	171.06
624.192	197.06
624.399	170.06
624.606	180.06
624.812	175.06
625.019	172.06
625.226	164.06
625.433	174.06
625.639	180.06
625.846	161.06
626.053	173.06
626.259	176.06
626.466	183.06
626.673	184.06
626.879	172.06
627.086	173.06
627.293	174.06
627.499	173.06
627.706	168.06
627.912	153.06
628.119	189.06
628.325	181.06
628.532	188.06
628.738	166.06
628.945	167.06
629.151	150.06
629.357	164.06
629.564	163.06
629.77	182.06
629.976	172.06
630.183	153.06
630.389	159.06
630.595	173.06
630.802	186.06
631.008	162.06
631.214	158.06
631.42	182.06
631.627	169.06
631.833	162.06
632.039	166.06
632.245	150.06
632.451	176.06
632.657	143.06
632.863	147.06
633.069	140.06
633.275	163.06
633.481	148.06
633.688	174.06
633.893	162.06
634.099	159.06
634.305	152.06
634.511	157.06
634.717	159.06
634.923	153.06
635.129	162.06
635.335	163.06
635.541	148.06
635.747	175.06
635.952	158.06
636.158	154.06
636.364	155.06
636.57	142.06
636.775	156.06
636.981	150.06
637.187	168.06
637.392	178.06
637.598	148.06
637.804	164.06
638.009	158.06
638.215	145.06
638.421	144.06
638.626	161.06
638.832	156.06
639.037	152.06
639.243	147.06
639.448	148.06
639.654	157.06
639.859	156.06
640.065	159.06
640.27	139.06
640.475	142.06
640.681	148.06
640.886	155.06
641.091	146.06
641.297	152.06
641.502	132.06
641.707	158.06
641.913	150.06
642.118	140.06
642.323	140.06
642.528	147.06
642.733	156.06
642.939	167.06
643.144	150.06
643.349	151.06
643.554	159.06
643.759	128.06
643.964	156.06
644.169	144.06
644.374	130.06
644.579	160.06
644.784	133.06
644.989	148.06
645.194	156.06
645.399	139.06
645.604	149.06
645.809	144.06
646.014	148.06
646.219	149.06
646.423	152.06
646.628	149.06
646.833	149.06
647.038	149.06
647.243	144.06
647.447	144.06
647.652	157.06
647.857	145.06
648.062	137.06
648.266	127.06
648.471	146.06
648.676	154.06
648.88	155.06
649.085	154.06
649.289	162.06
649.494	132.06
649.698	147.06
649.903	160.06
650.107	153.06
650.312	147.06
650.516	135.06
650.721	154.06
650.925	124.06
651.13	143.06
651.334	132.06
651.539	151.06
651.743	143.06
651.947	134.06
652.152	132.06
652.356	134.06
652.56	125.06
652.764	134.06
652.969	124.06
653.173	117.06
653.377	126.06
653.581	139.06
653.785	120.06
653.99	128.06
654.194	120.06
654.398	124.06
654.602	123.06
654.806	134.06
655.01	136.06
655.214	132.06
655.418	125.06
655.622	124.06
655.826	122.06
656.03	127.06
656.234	134.06
656.438	128.06
656.642	120.06
656.846	119.06
657.049	118.06
657.253	117.06
657.457	92.06
657.661	107.06
657.865	104.06
658.068	105.06
658.272	114.06
658.476	88.06
658.68	107.06
658.883	93.06
659.087	103.06
659.291	101.06
659.494	90.06
659.698	106.06
659.901	105.06
660.105	90.06
660.309	111.06
660.512	103.06
660.716	102.06
660.919	98.06
661.123	94.06
661.326	99.06
661.53	80.06
661.733	83.06
661.936	96.06
662.14	101.06
662.343	89.06
662.546	83.06
662.75	99.06
662.953	94.06
663.156	81.06
663.36	89.06
663.563	88.06
663.766	98.06
663.969	79.06
664.173	82.06
664.376	82.06
664.579	86.06
664.782	79.06
664.985	83.06
665.188	88.06
665.391	81.06
665.594	78.06
665.797	84.06
666	78.06
666.203	77.06
666.406	71.06
666.609	85.06
666.812	94.06
667.015	90.06
667.218	92.06
667.421	79.06
667.624	74.06
667.827	88.06
668.03	74.06
668.232	88.06
668.435	81.06
668.638	99.06
668.841	91.06
669.043	90.06
669.246	70.06
669.449	80.06
669.651	83.06
669.854	85.06
670.057	80.06
670.259	91.06
670.462	78.06
670.665	80.06
670.867	85.06
671.07	87.06
671.272	90.06
671.475	82.06
671.677	80.06
671.88	95.06
672.082	69.06
672.284	81.06
672.487	87.06
672.689	78.06
672.892	78.06
