Data from 1971.PennyLincolnUp.Lamp.En5.5.200Scan.071719.P1._HRD10591_15-18-49-841.txt Node
Date: Thu Jul 18 15:18:49 EDT 2019
User: cochatt
Spectrometer: HR+D1059
Trigger mode: 1
Integration Time (sec): 1.000000E-1
Scans to average: 1
Electric dark correction enabled: true
Nonlinearity correction enabled: false
Boxcar width: 0
XAxis mode: Wavelengths
Number of Pixels in Spectrum: 2048
>>>>>Begin Spectral Data<<<<<
223.165	-4.62
223.4	-4.62
223.635	-4.62
223.869	-19.62
224.104	-11.62
224.338	-24.62
224.573	-13.62
224.808	-22.62
225.042	-11.62
225.277	-19.62
225.511	-10.62
225.746	16.38
225.98	6.38
226.215	13.38
226.449	22.38
226.683	12.38
226.918	29.38
227.152	38.38
227.387	50.38
227.621	36.38
227.856	52.38
228.09	50.38
228.324	53.38
228.559	65.38
228.793	62.38
229.027	69.38
229.262	109.38
229.496	96.38
229.73	130.38
229.964	132.38
230.199	113.38
230.433	109.38
230.667	118.38
230.901	94.38
231.136	115.38
231.37	102.38
231.604	100.38
231.838	109.38
232.072	106.38
232.306	111.38
232.541	108.38
232.775	97.38
233.009	115.38
233.243	105.38
233.477	116.38
233.711	121.38
233.945	112.38
234.179	120.38
234.413	111.38
234.647	99.38
234.881	96.38
235.115	107.38
235.349	122.38
235.583	107.38
235.817	122.38
236.051	125.38
236.285	132.38
236.519	111.38
236.753	119.38
236.987	134.38
237.221	184.38
237.455	180.38
237.689	172.38
237.922	148.38
238.156	130.38
238.39	135.38
238.624	132.38
238.858	121.38
239.091	121.38
239.325	125.38
239.559	138.38
239.793	130.38
240.027	133.38
240.26	125.38
240.494	146.38
240.728	148.38
240.961	139.38
241.195	132.38
241.429	130.38
241.662	126.38
241.896	122.38
242.13	148.38
242.363	137.38
242.597	141.38
242.83	121.38
243.064	136.38
243.298	125.38
243.531	142.38
243.765	143.38
243.998	154.38
244.232	138.38
244.465	149.38
244.699	141.38
244.932	150.38
245.166	134.38
245.399	126.38
245.633	144.38
245.866	140.38
246.099	148.38
246.333	146.38
246.566	139.38
246.8	131.38
247.033	166.38
247.266	159.38
247.5	158.38
247.733	160.38
247.966	171.38
248.2	182.38
248.433	163.38
248.666	172.38
248.899	173.38
249.133	194.38
249.366	198.38
249.599	180.38
249.832	166.38
250.066	173.38
250.299	195.38
250.532	194.38
250.765	188.38
250.998	214.38
251.231	215.38
251.465	207.38
251.698	212.38
251.931	210.38
252.164	195.38
252.397	184.38
252.63	187.38
252.863	197.38
253.096	201.38
253.329	201.38
253.562	216.38
253.795	213.38
254.028	223.38
254.261	214.38
254.494	218.38
254.727	245.38
254.96	256.38
255.193	273.38
255.426	258.38
255.659	227.38
255.892	223.38
256.124	230.38
256.357	223.38
256.59	223.38
256.823	212.38
257.056	196.38
257.289	212.38
257.521	210.38
257.754	213.38
257.987	218.38
258.22	204.38
258.452	215.38
258.685	217.38
258.918	200.38
259.151	213.38
259.383	231.38
259.616	222.38
259.849	223.38
260.081	219.38
260.314	256.38
260.547	258.38
260.779	223.38
261.012	218.38
261.244	213.38
261.477	224.38
261.71	214.38
261.942	219.38
262.175	231.38
262.407	219.38
262.64	202.38
262.872	218.38
263.105	203.38
263.337	207.38
263.57	208.38
263.802	208.38
264.035	206.38
264.267	215.38
264.499	219.38
264.732	224.38
264.964	206.38
265.197	233.38
265.429	217.38
265.661	213.38
265.894	215.38
266.126	201.38
266.358	213.38
266.591	229.38
266.823	208.38
267.055	227.38
267.287	231.38
267.52	233.38
267.752	230.38
267.984	226.38
268.216	232.38
268.448	232.38
268.681	244.38
268.913	255.38
269.145	276.38
269.377	253.38
269.609	274.38
269.841	250.38
270.073	283.38
270.306	276.38
270.538	303.38
270.77	306.38
271.002	291.38
271.234	290.38
271.466	294.38
271.698	311.38
271.93	320.38
272.162	283.38
272.394	319.38
272.626	287.38
272.858	281.38
273.09	262.38
273.322	282.38
273.553	267.38
273.785	260.38
274.017	251.38
274.249	272.38
274.481	273.38
274.713	258.38
274.945	256.38
275.176	267.38
275.408	258.38
275.64	266.38
275.872	266.38
276.104	249.38
276.335	236.38
276.567	286.38
276.799	291.38
277.031	304.38
277.262	289.38
277.494	316.38
277.726	284.38
277.957	291.38
278.189	284.38
278.421	282.38
278.652	256.38
278.884	261.38
279.115	257.38
279.347	260.38
279.579	270.38
279.81	260.38
280.042	255.38
280.273	266.38
280.505	267.38
280.736	258.38
280.968	251.38
281.199	251.38
281.431	263.38
281.662	261.38
281.894	260.38
282.125	269.38
282.356	283.38
282.588	277.38
282.819	306.38
283.051	278.38
283.282	266.38
283.513	263.38
283.745	286.38
283.976	284.38
284.207	288.38
284.439	288.38
284.67	285.38
284.901	257.38
285.132	259.38
285.364	269.38
285.595	280.38
285.826	269.38
286.057	272.38
286.288	264.38
286.52	275.38
286.751	281.38
286.982	272.38
287.213	286.38
287.444	279.38
287.675	302.38
287.906	301.38
288.138	307.38
288.369	294.38
288.6	280.38
288.831	286.38
289.062	280.38
289.293	285.38
289.524	297.38
289.755	296.38
289.986	263.38
290.217	282.38
290.448	278.38
290.679	286.38
290.91	294.38
291.141	297.38
291.371	283.38
291.602	285.38
291.833	277.38
292.064	284.38
292.295	278.38
292.526	273.38
292.757	279.38
292.987	285.38
293.218	280.38
293.449	299.38
293.68	288.38
293.91	285.38
294.141	299.38
294.372	270.38
294.603	283.38
294.833	296.38
295.064	300.38
295.295	299.38
295.525	296.38
295.756	297.38
295.987	289.38
296.217	299.38
296.448	330.38
296.679	304.38
296.909	296.38
297.14	285.38
297.37	278.38
297.601	288.38
297.831	290.38
298.062	284.38
298.292	294.38
298.523	290.38
298.753	299.38
298.984	291.38
299.214	296.38
299.445	297.38
299.675	305.38
299.905	308.38
300.136	318.38
300.366	332.38
300.597	316.38
300.827	293.38
301.057	310.38
301.288	320.38
301.518	324.38
301.748	323.38
301.979	319.38
302.209	311.38
302.439	315.38
302.669	331.38
302.9	330.38
303.13	324.38
303.36	322.38
303.59	333.38
303.82	318.38
304.051	327.38
304.281	318.38
304.511	325.38
304.741	325.38
304.971	325.38
305.201	325.38
305.431	315.38
305.661	313.38
305.891	312.38
306.121	326.38
306.352	313.38
306.582	326.38
306.812	302.38
307.042	342.38
307.272	322.38
307.502	322.38
307.731	320.38
307.961	319.38
308.191	308.38
308.421	335.38
308.651	339.38
308.881	336.38
309.111	332.38
309.341	329.38
309.571	328.38
309.8	338.38
310.03	347.38
310.26	365.38
310.49	368.38
310.72	382.38
310.949	365.38
311.179	356.38
311.409	374.38
311.639	367.38
311.868	343.38
312.098	356.38
312.328	371.38
312.557	375.38
312.787	393.38
313.017	381.38
313.246	363.38
313.476	371.38
313.706	345.38
313.935	376.38
314.165	375.38
314.394	381.38
314.624	378.38
314.853	385.38
315.083	371.38
315.312	360.38
315.542	363.38
315.771	354.38
316.001	358.38
316.23	373.38
316.46	365.38
316.689	364.38
316.919	375.38
317.148	363.38
317.377	352.38
317.607	382.38
317.836	378.38
318.065	376.38
318.295	365.38
318.524	372.38
318.753	371.38
318.983	368.38
319.212	376.38
319.441	366.38
319.67	370.38
319.9	336.38
320.129	354.38
320.358	374.38
320.587	372.38
320.816	388.38
321.046	385.38
321.275	390.38
321.504	378.38
321.733	390.38
321.962	395.38
322.191	389.38
322.42	412.38
322.649	411.38
322.878	411.38
323.108	425.38
323.337	436.38
323.566	482.38
323.795	470.38
324.024	519.38
324.253	626.38
324.482	870.38
324.71	1278.38
324.939	1756.38
325.168	1470.38
325.397	781.38
325.626	570.38
325.855	508.38
326.084	485.38
326.313	458.38
326.542	464.38
326.77	502.38
326.999	602.38
327.228	795.38
327.457	1123.38
327.686	1257.38
327.914	859.38
328.143	597.38
328.372	537.38
328.6	525.38
328.829	516.38
329.058	495.38
329.287	499.38
329.515	497.38
329.744	465.38
329.972	459.38
330.201	475.38
330.43	485.38
330.658	516.38
330.887	520.38
331.115	509.38
331.344	458.38
331.572	451.38
331.801	469.38
332.03	467.38
332.258	427.38
332.486	413.38
332.715	419.38
332.943	421.38
333.172	432.38
333.4	423.38
333.629	447.38
333.857	440.38
334.085	428.38
334.314	432.38
334.542	460.38
334.771	468.38
334.999	482.38
335.227	443.38
335.455	398.38
335.684	424.38
335.912	417.38
336.14	407.38
336.369	414.38
336.597	420.38
336.825	406.38
337.053	412.38
337.281	402.38
337.51	388.38
337.738	406.38
337.966	412.38
338.194	408.38
338.422	414.38
338.65	411.38
338.878	386.38
339.106	361.38
339.334	385.38
339.562	401.38
339.79	396.38
340.018	392.38
340.246	414.38
340.474	405.38
340.702	396.38
340.93	402.38
341.158	382.38
341.386	391.38
341.614	421.38
341.842	406.38
342.07	378.38
342.298	389.38
342.526	412.38
342.754	386.38
342.981	368.38
343.209	388.38
343.437	404.38
343.665	391.38
343.893	398.38
344.12	412.38
344.348	393.38
344.576	416.38
344.804	384.38
345.031	408.38
345.259	420.38
345.487	382.38
345.714	394.38
345.942	413.38
346.17	382.38
346.397	388.38
346.625	398.38
346.853	406.38
347.08	390.38
347.308	391.38
347.535	374.38
347.763	393.38
347.99	396.38
348.218	398.38
348.445	384.38
348.673	394.38
348.9	393.38
349.128	390.38
349.355	399.38
349.583	378.38
349.81	371.38
350.037	367.38
350.265	379.38
350.492	376.38
350.72	367.38
350.947	388.38
351.174	370.38
351.402	376.38
351.629	375.38
351.856	383.38
352.083	390.38
352.311	394.38
352.538	386.38
352.765	385.38
352.992	371.38
353.22	378.38
353.447	351.38
353.674	370.38
353.901	334.38
354.128	353.38
354.355	347.38
354.583	372.38
354.81	352.38
355.037	372.38
355.264	353.38
355.491	354.38
355.718	347.38
355.945	350.38
356.172	350.38
356.399	340.38
356.626	354.38
356.853	345.38
357.08	352.38
357.307	354.38
357.534	347.38
357.761	343.38
357.988	340.38
358.215	372.38
358.441	341.38
358.668	353.38
358.895	374.38
359.122	368.38
359.349	375.38
359.576	381.38
359.802	380.38
360.029	387.38
360.256	437.38
360.483	373.38
360.709	365.38
360.936	382.38
361.163	377.38
361.39	354.38
361.616	363.38
361.843	372.38
362.07	370.38
362.296	357.38
362.523	374.38
362.749	365.38
362.976	365.38
363.203	350.38
363.429	349.38
363.656	340.38
363.882	362.38
364.109	355.38
364.335	358.38
364.562	343.38
364.788	339.38
365.015	339.38
365.241	352.38
365.468	364.38
365.694	362.38
365.92	347.38
366.147	356.38
366.373	349.38
366.599	366.38
366.826	351.38
367.052	342.38
367.278	341.38
367.505	339.38
367.731	368.38
367.957	342.38
368.184	362.38
368.41	369.38
368.636	382.38
368.862	368.38
369.089	351.38
369.315	354.38
369.541	337.38
369.767	343.38
369.993	332.38
370.219	357.38
370.445	345.38
370.672	350.38
370.898	360.38
371.124	355.38
371.35	355.38
371.576	352.38
371.802	340.38
372.028	330.38
372.254	370.38
372.48	340.38
372.706	342.38
372.932	345.38
373.158	347.38
373.384	336.38
373.61	334.38
373.835	354.38
374.061	350.38
374.287	328.38
374.513	357.38
374.739	350.38
374.965	350.38
375.191	366.38
375.416	356.38
375.642	322.38
375.868	348.38
376.094	366.38
376.319	344.38
376.545	349.38
376.771	348.38
376.997	338.38
377.222	330.38
377.448	331.38
377.674	339.38
377.899	325.38
378.125	343.38
378.35	332.38
378.576	351.38
378.802	333.38
379.027	330.38
379.253	357.38
379.478	329.38
379.704	326.38
379.929	346.38
380.155	352.38
380.38	335.38
380.606	333.38
380.831	336.38
381.057	354.38
381.282	339.38
381.507	334.38
381.733	340.38
381.958	348.38
382.184	357.38
382.409	328.38
382.634	340.38
382.86	320.38
383.085	365.38
383.31	362.38
383.535	347.38
383.761	345.38
383.986	359.38
384.211	327.38
384.436	365.38
384.662	352.38
384.887	360.38
385.112	330.38
385.337	352.38
385.562	354.38
385.787	350.38
386.013	375.38
386.238	379.38
386.463	370.38
386.688	341.38
386.913	360.38
387.138	344.38
387.363	346.38
387.588	349.38
387.813	370.38
388.038	350.38
388.263	360.38
388.488	356.38
388.713	361.38
388.938	350.38
389.163	350.38
389.387	360.38
389.612	349.38
389.837	363.38
390.062	346.38
390.287	349.38
390.512	353.38
390.736	347.38
390.961	360.38
391.186	348.38
391.411	364.38
391.636	371.38
391.86	362.38
392.085	360.38
392.31	343.38
392.534	353.38
392.759	375.38
392.984	360.38
393.208	378.38
393.433	365.38
393.658	352.38
393.882	359.38
394.107	358.38
394.331	338.38
394.556	392.38
394.78	341.38
395.005	343.38
395.229	354.38
395.454	342.38
395.678	356.38
395.903	391.38
396.127	378.38
396.352	401.38
396.576	360.38
396.801	367.38
397.025	369.38
397.249	354.38
397.474	376.38
397.698	374.38
397.922	381.38
398.147	398.38
398.371	384.38
398.595	386.38
398.82	384.38
399.044	406.38
399.268	410.38
399.492	399.38
399.717	418.38
399.941	475.38
400.165	477.38
400.389	483.38
400.613	440.38
400.837	430.38
401.062	398.38
401.286	396.38
401.51	401.38
401.734	410.38
401.958	412.38
402.182	410.38
402.406	412.38
402.63	395.38
402.854	397.38
403.078	393.38
403.302	409.38
403.526	387.38
403.75	420.38
403.974	422.38
404.198	399.38
404.422	409.38
404.645	418.38
404.869	411.38
405.093	438.38
405.317	466.38
405.541	482.38
405.765	441.38
405.988	444.38
406.212	434.38
406.436	457.38
406.66	462.38
406.883	438.38
407.107	458.38
407.331	479.38
407.555	542.38
407.778	512.38
408.002	497.38
408.226	438.38
408.449	457.38
408.673	447.38
408.896	459.38
409.12	474.38
409.344	453.38
409.567	432.38
409.791	438.38
410.014	398.38
410.238	392.38
410.461	415.38
410.685	413.38
410.908	434.38
411.132	449.38
411.355	473.38
411.578	445.38
411.802	392.38
412.025	398.38
412.249	390.38
412.472	417.38
412.695	449.38
412.919	442.38
413.142	415.38
413.365	404.38
413.589	396.38
413.812	361.38
414.035	381.38
414.258	392.38
414.482	390.38
414.705	395.38
414.928	388.38
415.151	385.38
415.374	383.38
415.597	386.38
415.821	378.38
416.044	368.38
416.267	381.38
416.49	372.38
416.713	378.38
416.936	390.38
417.159	383.38
417.382	363.38
417.605	368.38
417.828	380.38
418.051	396.38
418.274	378.38
418.497	387.38
418.72	384.38
418.943	378.38
419.166	397.38
419.389	410.38
419.611	405.38
419.834	412.38
420.057	396.38
420.28	414.38
420.503	406.38
420.726	410.38
420.948	419.38
421.171	448.38
421.394	460.38
421.617	422.38
421.839	394.38
422.062	395.38
422.285	406.38
422.507	451.38
422.73	502.38
422.953	495.38
423.175	422.38
423.398	403.38
423.621	422.38
423.843	435.38
424.066	450.38
424.288	435.38
424.511	426.38
424.733	495.38
424.956	547.38
425.178	524.38
425.401	517.38
425.623	510.38
425.846	459.38
426.068	430.38
426.291	419.38
426.513	435.38
426.735	448.38
426.958	487.38
427.18	538.38
427.402	617.38
427.625	663.38
427.847	579.38
428.069	493.38
428.292	467.38
428.514	441.38
428.736	399.38
428.958	401.38
429.181	412.38
429.403	403.38
429.625	399.38
429.847	404.38
430.069	474.38
430.292	478.38
430.514	404.38
430.736	388.38
430.958	396.38
431.18	392.38
431.402	355.38
431.624	375.38
431.846	364.38
432.068	384.38
432.29	370.38
432.512	364.38
432.734	378.38
432.956	388.38
433.178	380.38
433.4	400.38
433.622	382.38
433.844	372.38
434.066	376.38
434.287	379.38
434.509	365.38
434.731	387.38
434.953	382.38
435.175	406.38
435.397	397.38
435.618	429.38
435.84	462.38
436.062	548.38
436.284	563.38
436.505	506.38
436.727	465.38
436.949	394.38
437.17	411.38
437.392	399.38
437.614	410.38
437.835	429.38
438.057	497.38
438.278	556.38
438.5	581.38
438.721	614.38
438.943	584.38
439.165	507.38
439.386	432.38
439.608	452.38
439.829	431.38
440.05	459.38
440.272	476.38
440.493	444.38
440.715	418.38
440.936	417.38
441.158	399.38
441.379	427.38
441.6	412.38
441.822	439.38
442.043	454.38
442.264	518.38
442.486	544.38
442.707	460.38
442.928	452.38
443.149	450.38
443.371	467.38
443.592	489.38
443.813	558.38
444.034	602.38
444.255	497.38
444.476	442.38
444.698	431.38
444.919	435.38
445.14	552.38
445.361	504.38
445.582	475.38
445.803	516.38
446.024	561.38
446.245	593.38
446.466	538.38
446.687	449.38
446.908	431.38
447.129	398.38
447.35	390.38
447.571	423.38
447.792	414.38
448.013	406.38
448.234	410.38
448.455	443.38
448.675	562.38
448.896	619.38
449.117	520.38
449.338	496.38
449.559	576.38
449.779	648.38
450	525.38
450.221	442.38
450.442	420.38
450.662	382.38
450.883	396.38
451.104	406.38
451.324	386.38
451.545	378.38
451.766	354.38
451.986	343.38
452.207	349.38
452.428	356.38
452.648	357.38
452.869	355.38
453.089	361.38
453.31	379.38
453.53	330.38
453.751	349.38
453.971	353.38
454.192	354.38
454.412	359.38
454.633	359.38
454.853	334.38
455.073	360.38
455.294	354.38
455.514	425.38
455.734	415.38
455.955	364.38
456.175	338.38
456.395	336.38
456.616	350.38
456.836	328.38
457.056	343.38
457.276	350.38
457.497	328.38
457.717	346.38
457.937	329.38
458.157	359.38
458.377	358.38
458.598	363.38
458.818	399.38
459.038	440.38
459.258	455.38
459.478	417.38
459.698	382.38
459.918	380.38
460.138	364.38
460.358	374.38
460.578	352.38
460.798	381.38
461.018	390.38
461.238	377.38
461.458	380.38
461.678	375.38
461.898	378.38
462.118	379.38
462.338	366.38
462.558	374.38
462.777	386.38
462.997	364.38
463.217	368.38
463.437	376.38
463.657	382.38
463.876	394.38
464.096	397.38
464.316	367.38
464.536	380.38
464.755	382.38
464.975	396.38
465.195	434.38
465.414	448.38
465.634	422.38
465.854	379.38
466.073	373.38
466.293	363.38
466.512	362.38
466.732	361.38
466.951	352.38
467.171	350.38
467.391	347.38
467.61	371.38
467.829	380.38
468.049	374.38
468.268	360.38
468.488	362.38
468.707	346.38
468.927	335.38
469.146	351.38
469.365	366.38
469.585	344.38
469.804	367.38
470.023	368.38
470.243	372.38
470.462	367.38
470.681	388.38
470.901	362.38
471.12	374.38
471.339	398.38
471.558	370.38
471.777	374.38
471.997	366.38
472.216	364.38
472.435	382.38
472.654	372.38
472.873	366.38
473.092	362.38
473.311	346.38
473.53	381.38
473.749	381.38
473.968	416.38
474.187	481.38
474.406	474.38
474.625	422.38
474.844	374.38
475.063	372.38
475.282	390.38
475.501	361.38
475.72	392.38
475.939	377.38
476.158	384.38
476.377	385.38
476.596	373.38
476.814	374.38
477.033	376.38
477.252	376.38
477.471	362.38
477.69	384.38
477.908	398.38
478.127	392.38
478.346	406.38
478.564	407.38
478.783	395.38
479.002	397.38
479.22	389.38
479.439	411.38
479.658	435.38
479.876	411.38
480.095	451.38
480.313	447.38
480.532	428.38
480.751	422.38
480.969	454.38
481.188	470.38
481.406	479.38
481.624	438.38
481.843	446.38
482.061	415.38
482.28	426.38
482.498	421.38
482.717	419.38
482.935	428.38
483.153	428.38
483.372	439.38
483.59	434.38
483.808	419.38
484.027	424.38
484.245	426.38
484.463	415.38
484.681	452.38
484.9	408.38
485.118	420.38
485.336	438.38
485.554	440.38
485.772	443.38
485.99	419.38
486.209	436.38
486.427	428.38
486.645	448.38
486.863	444.38
487.081	468.38
487.299	448.38
487.517	438.38
487.735	433.38
487.953	445.38
488.171	456.38
488.389	470.38
488.607	460.38
488.825	448.38
489.043	466.38
489.261	450.38
489.479	443.38
489.696	473.38
489.914	466.38
490.132	461.38
490.35	468.38
490.568	486.38
490.786	494.38
491.003	502.38
491.221	503.38
491.439	512.38
491.657	502.38
491.874	536.38
492.092	508.38
492.31	529.38
492.527	540.38
492.745	537.38
492.963	540.38
493.18	508.38
493.398	519.38
493.615	526.38
493.833	531.38
494.05	525.38
494.268	536.38
494.485	510.38
494.703	530.38
494.92	549.38
495.138	527.38
495.355	536.38
495.573	544.38
495.79	539.38
496.008	552.38
496.225	542.38
496.442	521.38
496.66	538.38
496.877	570.38
497.094	533.38
497.312	550.38
497.529	563.38
497.746	560.38
497.963	576.38
498.181	565.38
498.398	585.38
498.615	588.38
498.832	599.38
499.049	587.38
499.267	619.38
499.484	638.38
499.701	623.38
499.918	635.38
500.135	691.38
500.352	694.38
500.569	730.38
500.786	725.38
501.003	709.38
501.22	674.38
501.437	666.38
501.654	686.38
501.871	675.38
502.088	624.38
502.305	619.38
502.522	596.38
502.739	587.38
502.956	573.38
503.172	572.38
503.389	564.38
503.606	526.38
503.823	546.38
504.04	557.38
504.256	522.38
504.473	529.38
504.69	524.38
504.907	528.38
505.123	518.38
505.34	512.38
505.557	493.38
505.773	518.38
505.99	492.38
506.207	522.38
506.423	516.38
506.64	529.38
506.856	490.38
507.073	495.38
507.289	491.38
507.506	488.38
507.722	505.38
507.939	516.38
508.155	506.38
508.372	472.38
508.588	478.38
508.805	461.38
509.021	479.38
509.238	480.38
509.454	502.38
509.67	486.38
509.887	492.38
510.103	484.38
510.319	486.38
510.536	552.38
510.752	830.38
510.968	696.38
511.184	494.38
511.401	479.38
511.617	474.38
511.833	462.38
512.049	453.38
512.265	418.38
512.481	446.38
512.698	464.38
512.914	453.38
513.13	448.38
513.346	459.38
513.562	451.38
513.778	445.38
513.994	455.38
514.21	462.38
514.426	470.38
514.642	486.38
514.858	508.38
515.074	533.38
515.29	629.38
515.506	857.38
515.721	715.38
515.937	506.38
516.153	490.38
516.369	465.38
516.585	494.38
516.801	464.38
517.016	478.38
517.232	459.38
517.448	450.38
517.664	476.38
517.879	445.38
518.095	455.38
518.311	436.38
518.527	449.38
518.742	445.38
518.958	464.38
519.173	463.38
519.389	432.38
519.605	461.38
519.82	460.38
520.036	462.38
520.251	482.38
520.467	486.38
520.682	477.38
520.898	494.38
521.113	482.38
521.329	522.38
521.544	583.38
521.76	680.38
521.975	1116.38
522.19	1066.38
522.406	614.38
522.621	485.38
522.836	457.38
523.052	449.38
523.267	428.38
523.482	424.38
523.698	420.38
523.913	410.38
524.128	425.38
524.343	400.38
524.559	411.38
524.774	398.38
524.989	409.38
525.204	413.38
525.419	398.38
525.634	386.38
525.849	406.38
526.064	376.38
526.28	369.38
526.495	378.38
526.71	375.38
526.925	372.38
527.14	354.38
527.355	368.38
527.57	377.38
527.785	376.38
527.999	357.38
528.214	356.38
528.429	368.38
528.644	378.38
528.859	366.38
529.074	382.38
529.289	380.38
529.503	462.38
529.718	429.38
529.933	387.38
530.148	392.38
530.363	382.38
530.577	378.38
530.792	351.38
531.007	378.38
531.221	394.38
531.436	372.38
531.651	335.38
531.865	342.38
532.08	359.38
532.295	364.38
532.509	334.38
532.724	360.38
532.938	353.38
533.153	343.38
533.367	347.38
533.582	367.38
533.796	362.38
534.011	360.38
534.225	368.38
534.44	362.38
534.654	356.38
534.868	359.38
535.083	359.38
535.297	356.38
535.511	358.38
535.726	360.38
535.94	360.38
536.154	349.38
536.369	341.38
536.583	350.38
536.797	343.38
537.011	342.38
537.225	342.38
537.44	337.38
537.654	348.38
537.868	354.38
538.082	330.38
538.296	359.38
538.51	348.38
538.724	358.38
538.938	345.38
539.153	350.38
539.367	361.38
539.581	354.38
539.795	366.38
540.009	350.38
540.222	352.38
540.436	343.38
540.65	342.38
540.864	359.38
541.078	360.38
541.292	339.38
541.506	364.38
541.72	348.38
541.934	351.38
542.147	357.38
542.361	340.38
542.575	357.38
542.789	351.38
543.002	342.38
543.216	343.38
543.43	333.38
543.644	353.38
543.857	331.38
544.071	356.38
544.285	367.38
544.498	361.38
544.712	355.38
544.925	371.38
545.139	350.38
545.352	347.38
545.566	348.38
545.779	355.38
545.993	346.38
546.206	335.38
546.42	357.38
546.633	347.38
546.847	336.38
547.06	340.38
547.274	342.38
547.487	353.38
547.7	341.38
547.914	341.38
548.127	336.38
548.34	331.38
548.554	322.38
548.767	322.38
548.98	335.38
549.193	342.38
549.407	328.38
549.62	351.38
549.833	342.38
550.046	357.38
550.259	329.38
550.473	361.38
550.686	351.38
550.899	342.38
551.112	322.38
551.325	315.38
551.538	322.38
551.751	320.38
551.964	315.38
552.177	331.38
552.39	312.38
552.603	332.38
552.816	334.38
553.029	329.38
553.242	343.38
553.455	346.38
553.667	365.38
553.88	333.38
554.093	346.38
554.306	347.38
554.519	339.38
554.732	324.38
554.944	320.38
555.157	317.38
555.37	335.38
555.583	324.38
555.795	324.38
556.008	327.38
556.221	317.38
556.433	315.38
556.646	327.38
556.859	320.38
557.071	324.38
557.284	315.38
557.496	316.38
557.709	304.38
557.921	292.38
558.134	299.38
558.346	304.38
558.559	310.38
558.771	290.38
558.984	312.38
559.196	296.38
559.409	310.38
559.621	313.38
559.833	303.38
560.046	292.38
560.258	294.38
560.47	298.38
560.683	306.38
560.895	301.38
561.107	284.38
561.32	290.38
561.532	305.38
561.744	314.38
561.956	306.38
562.168	280.38
562.381	310.38
562.593	303.38
562.805	279.38
563.017	303.38
563.229	300.38
563.441	293.38
563.653	296.38
563.865	307.38
564.077	311.38
564.289	306.38
564.501	298.38
564.713	291.38
564.925	314.38
565.137	313.38
565.349	311.38
565.561	328.38
565.773	306.38
565.985	311.38
566.197	318.38
566.408	344.38
566.62	331.38
566.832	332.38
567.044	358.38
567.255	331.38
567.467	363.38
567.679	356.38
567.891	356.38
568.102	342.38
568.314	332.38
568.526	340.38
568.737	329.38
568.949	316.38
569.161	310.38
569.372	306.38
569.584	301.38
569.795	309.38
570.007	300.38
570.218	337.38
570.43	307.38
570.641	283.38
570.853	277.38
571.064	295.38
571.276	272.38
571.487	276.38
571.698	276.38
571.91	278.38
572.121	271.38
572.333	280.38
572.544	273.38
572.755	258.38
572.966	285.38
573.178	254.38
573.389	242.38
573.6	244.38
573.811	257.38
574.023	265.38
574.234	246.38
574.445	237.38
574.656	262.38
574.867	259.38
575.078	267.38
575.289	254.38
575.501	242.38
575.712	255.38
575.923	262.38
576.134	259.38
576.345	244.38
576.556	256.38
576.767	258.38
576.978	266.38
577.188	259.38
577.399	262.38
577.61	260.38
577.821	259.38
578.032	262.38
578.243	291.38
578.454	415.38
578.665	304.38
578.875	263.38
579.086	246.38
579.297	258.38
579.508	250.38
579.718	240.38
579.929	235.38
580.14	252.38
580.35	241.38
580.561	248.38
580.772	246.38
580.982	247.38
581.193	234.38
581.403	223.38
581.614	245.38
581.825	248.38
582.035	228.38
582.246	227.38
582.456	231.38
582.667	220.38
582.877	233.38
583.087	242.38
583.298	232.38
583.508	224.38
583.719	246.38
583.929	230.38
584.139	230.38
584.35	237.38
584.56	260.38
584.77	228.38
584.981	238.38
585.191	229.38
585.401	237.38
585.611	235.38
585.821	223.38
586.032	223.38
586.242	234.38
586.452	229.38
586.662	232.38
586.872	230.38
587.082	215.38
587.292	230.38
587.502	214.38
587.713	226.38
587.923	216.38
588.133	232.38
588.343	243.38
588.553	210.38
588.762	220.38
588.972	225.38
589.182	224.38
589.392	218.38
589.602	216.38
589.812	222.38
590.022	218.38
590.232	219.38
590.441	242.38
590.651	228.38
590.861	226.38
591.071	232.38
591.281	229.38
591.49	214.38
591.7	226.38
591.91	235.38
592.119	224.38
592.329	226.38
592.539	237.38
592.748	237.38
592.958	242.38
593.167	249.38
593.377	240.38
593.587	237.38
593.796	215.38
594.006	217.38
594.215	238.38
594.424	230.38
594.634	229.38
594.843	221.38
595.053	232.38
595.262	230.38
595.472	232.38
595.681	213.38
595.89	218.38
596.1	212.38
596.309	222.38
596.518	207.38
596.727	234.38
596.937	228.38
597.146	208.38
597.355	223.38
597.564	212.38
597.774	199.38
597.983	196.38
598.192	206.38
598.401	203.38
598.61	212.38
598.819	205.38
599.028	215.38
599.237	207.38
599.446	207.38
599.655	194.38
599.864	222.38
600.073	188.38
600.282	194.38
600.491	215.38
600.7	213.38
600.909	194.38
601.118	202.38
601.327	205.38
601.536	203.38
601.745	194.38
601.953	195.38
602.162	205.38
602.371	211.38
602.58	202.38
602.789	200.38
602.997	218.38
603.206	208.38
603.415	203.38
603.623	199.38
603.832	192.38
604.041	199.38
604.249	197.38
604.458	189.38
604.666	179.38
604.875	196.38
605.084	189.38
605.292	206.38
605.501	222.38
605.709	200.38
605.918	197.38
606.126	197.38
606.334	199.38
606.543	198.38
606.751	217.38
606.96	202.38
607.168	203.38
607.376	192.38
607.585	204.38
607.793	195.38
608.001	196.38
608.21	211.38
608.418	194.38
608.626	193.38
608.834	195.38
609.043	199.38
609.251	205.38
609.459	202.38
609.667	193.38
609.875	206.38
610.083	188.38
610.291	196.38
610.499	203.38
610.707	216.38
610.916	186.38
611.124	189.38
611.332	206.38
611.54	204.38
611.748	217.38
611.955	215.38
612.163	206.38
612.371	199.38
612.579	197.38
612.787	202.38
612.995	195.38
613.203	208.38
613.411	203.38
613.618	207.38
613.826	190.38
614.034	199.38
614.242	191.38
614.449	195.38
614.657	199.38
614.865	205.38
615.072	190.38
615.28	175.38
615.488	189.38
615.695	183.38
615.903	182.38
616.111	187.38
616.318	195.38
616.526	173.38
616.733	184.38
616.941	194.38
617.148	187.38
617.356	198.38
617.563	198.38
617.771	201.38
617.978	197.38
618.185	179.38
618.393	192.38
618.6	194.38
618.807	196.38
619.015	187.38
619.222	206.38
619.429	194.38
619.637	186.38
619.844	177.38
620.051	196.38
620.258	177.38
620.466	199.38
620.673	186.38
620.88	167.38
621.087	172.38
621.294	169.38
621.501	183.38
621.708	175.38
621.915	194.38
622.122	169.38
622.329	180.38
622.536	176.38
622.743	182.38
622.95	194.38
623.157	180.38
623.364	171.38
623.571	186.38
623.778	175.38
623.985	185.38
624.192	181.38
624.399	185.38
624.606	204.38
624.812	178.38
625.019	182.38
625.226	172.38
625.433	181.38
625.639	192.38
625.846	176.38
626.053	155.38
626.259	168.38
626.466	179.38
626.673	182.38
626.879	186.38
627.086	170.38
627.293	162.38
627.499	171.38
627.706	166.38
627.912	162.38
628.119	166.38
628.325	166.38
628.532	166.38
628.738	176.38
628.945	156.38
629.151	164.38
629.357	175.38
629.564	172.38
629.77	186.38
629.976	182.38
630.183	174.38
630.389	156.38
630.595	156.38
630.802	140.38
631.008	158.38
631.214	158.38
631.42	160.38
631.627	166.38
631.833	183.38
632.039	156.38
632.245	152.38
632.451	162.38
632.657	167.38
632.863	167.38
633.069	162.38
633.275	162.38
633.481	151.38
633.688	160.38
633.893	165.38
634.099	162.38
634.305	159.38
634.511	162.38
634.717	147.38
634.923	150.38
635.129	168.38
635.335	143.38
635.541	163.38
635.747	152.38
635.952	160.38
636.158	153.38
636.364	160.38
636.57	176.38
636.775	145.38
636.981	155.38
637.187	154.38
637.392	164.38
637.598	156.38
637.804	165.38
638.009	156.38
638.215	154.38
638.421	146.38
638.626	172.38
638.832	151.38
639.037	139.38
639.243	161.38
639.448	139.38
639.654	171.38
639.859	141.38
640.065	146.38
640.27	152.38
640.475	142.38
640.681	150.38
640.886	148.38
641.091	147.38
641.297	150.38
641.502	146.38
641.707	154.38
641.913	162.38
642.118	146.38
642.323	147.38
642.528	152.38
642.733	153.38
642.939	140.38
643.144	147.38
643.349	141.38
643.554	138.38
643.759	144.38
643.964	142.38
644.169	160.38
644.374	144.38
644.579	155.38
644.784	145.38
644.989	140.38
645.194	144.38
645.399	130.38
645.604	141.38
645.809	133.38
646.014	145.38
646.219	130.38
646.423	141.38
646.628	146.38
646.833	143.38
647.038	151.38
647.243	150.38
647.447	134.38
647.652	147.38
647.857	140.38
648.062	131.38
648.266	146.38
648.471	138.38
648.676	144.38
648.88	154.38
649.085	148.38
649.289	150.38
649.494	139.38
649.698	178.38
649.903	153.38
650.107	157.38
650.312	148.38
650.516	151.38
650.721	139.38
650.925	142.38
651.13	135.38
651.334	140.38
651.539	128.38
651.743	134.38
651.947	126.38
652.152	132.38
652.356	145.38
652.56	125.38
652.764	126.38
652.969	112.38
653.173	128.38
653.377	121.38
653.581	132.38
653.785	122.38
653.99	124.38
654.194	134.38
654.398	124.38
654.602	132.38
654.806	122.38
655.01	121.38
655.214	128.38
655.418	114.38
655.622	119.38
655.826	100.38
656.03	126.38
656.234	117.38
656.438	121.38
656.642	120.38
656.846	119.38
657.049	120.38
657.253	120.38
657.457	120.38
657.661	111.38
657.865	127.38
658.068	112.38
658.272	104.38
658.476	103.38
658.68	102.38
658.883	100.38
659.087	102.38
659.291	89.38
659.494	90.38
659.698	99.38
659.901	110.38
660.105	88.38
660.309	76.38
660.512	99.38
660.716	98.38
660.919	103.38
661.123	101.38
661.326	89.38
661.53	91.38
661.733	91.38
661.936	90.38
662.14	79.38
662.343	80.38
662.546	84.38
662.75	88.38
662.953	90.38
663.156	89.38
663.36	85.38
663.563	88.38
663.766	65.38
663.969	83.38
664.173	79.38
664.376	70.38
664.579	85.38
664.782	79.38
664.985	88.38
665.188	85.38
665.391	95.38
665.594	91.38
665.797	75.38
666	74.38
666.203	78.38
666.406	70.38
666.609	75.38
666.812	80.38
667.015	75.38
667.218	87.38
667.421	75.38
667.624	93.38
667.827	78.38
668.03	77.38
668.232	83.38
668.435	95.38
668.638	81.38
668.841	76.38
669.043	64.38
669.246	84.38
669.449	83.38
669.651	80.38
669.854	77.38
670.057	72.38
670.259	76.38
670.462	74.38
670.665	84.38
670.867	82.38
671.07	74.38
671.272	85.38
671.475	90.38
671.677	83.38
671.88	91.38
672.082	79.38
672.284	80.38
672.487	78.38
672.689	76.38
672.892	88.38
