Data from 1971.PennyLincolnUp.Lamp.En5.5.200Scan.071719.P1._HRD10591_15-19-30-841.txt Node
Date: Thu Jul 18 15:19:30 EDT 2019
User: cochatt
Spectrometer: HR+D1059
Trigger mode: 1
Integration Time (sec): 1.000000E-1
Scans to average: 1
Electric dark correction enabled: true
Nonlinearity correction enabled: false
Boxcar width: 0
XAxis mode: Wavelengths
Number of Pixels in Spectrum: 2048
>>>>>Begin Spectral Data<<<<<
223.165	-16.12
223.4	-16.12
223.635	-16.12
223.869	-12.12
224.104	-7.12
224.338	-24.12
224.573	-17.12
224.808	-13.12
225.042	-15.12
225.277	-3.12
225.511	-13.12
225.746	3.88
225.98	5.88
226.215	16.88
226.449	16.88
226.683	19.88
226.918	26.88
227.152	30.88
227.387	33.88
227.621	26.88
227.856	44.88
228.09	33.88
228.324	43.88
228.559	54.88
228.793	60.88
229.027	93.88
229.262	90.88
229.496	107.88
229.73	112.88
229.964	146.88
230.199	119.88
230.433	111.88
230.667	113.88
230.901	108.88
231.136	112.88
231.37	103.88
231.604	103.88
231.838	112.88
232.072	100.88
232.306	114.88
232.541	106.88
232.775	108.88
233.009	109.88
233.243	107.88
233.477	111.88
233.711	110.88
233.945	103.88
234.179	101.88
234.413	118.88
234.647	108.88
234.881	121.88
235.115	98.88
235.349	119.88
235.583	104.88
235.817	110.88
236.051	122.88
236.285	135.88
236.519	124.88
236.753	122.88
236.987	129.88
237.221	167.88
237.455	216.88
237.689	172.88
237.922	132.88
238.156	125.88
238.39	132.88
238.624	144.88
238.858	129.88
239.091	140.88
239.325	112.88
239.559	114.88
239.793	135.88
240.027	130.88
240.26	130.88
240.494	139.88
240.728	147.88
240.961	139.88
241.195	141.88
241.429	123.88
241.662	142.88
241.896	139.88
242.13	128.88
242.363	140.88
242.597	138.88
242.83	144.88
243.064	128.88
243.298	138.88
243.531	128.88
243.765	127.88
243.998	123.88
244.232	134.88
244.465	143.88
244.699	136.88
244.932	152.88
245.166	139.88
245.399	128.88
245.633	145.88
245.866	131.88
246.099	133.88
246.333	148.88
246.566	151.88
246.8	140.88
247.033	144.88
247.266	155.88
247.5	156.88
247.733	160.88
247.966	174.88
248.2	165.88
248.433	165.88
248.666	186.88
248.899	185.88
249.133	198.88
249.366	203.88
249.599	199.88
249.832	192.88
250.066	186.88
250.299	187.88
250.532	184.88
250.765	202.88
250.998	229.88
251.231	232.88
251.465	221.88
251.698	213.88
251.931	200.88
252.164	211.88
252.397	174.88
252.63	200.88
252.863	206.88
253.096	204.88
253.329	216.88
253.562	221.88
253.795	239.88
254.028	214.88
254.261	228.88
254.494	236.88
254.727	245.88
254.96	280.88
255.193	272.88
255.426	241.88
255.659	223.88
255.892	235.88
256.124	246.88
256.357	239.88
256.59	224.88
256.823	216.88
257.056	213.88
257.289	212.88
257.521	211.88
257.754	215.88
257.987	205.88
258.22	221.88
258.452	221.88
258.685	210.88
258.918	210.88
259.151	219.88
259.383	237.88
259.616	209.88
259.849	224.88
260.081	218.88
260.314	268.88
260.547	254.88
260.779	246.88
261.012	243.88
261.244	229.88
261.477	216.88
261.71	216.88
261.942	230.88
262.175	236.88
262.407	240.88
262.64	217.88
262.872	223.88
263.105	230.88
263.337	212.88
263.57	209.88
263.802	212.88
264.035	221.88
264.267	201.88
264.499	209.88
264.732	219.88
264.964	211.88
265.197	211.88
265.429	226.88
265.661	228.88
265.894	228.88
266.126	210.88
266.358	210.88
266.591	207.88
266.823	227.88
267.055	230.88
267.287	235.88
267.52	261.88
267.752	223.88
267.984	239.88
268.216	225.88
268.448	233.88
268.681	264.88
268.913	253.88
269.145	265.88
269.377	276.88
269.609	279.88
269.841	287.88
270.073	281.88
270.306	286.88
270.538	306.88
270.77	350.88
271.002	340.88
271.234	288.88
271.466	294.88
271.698	294.88
271.93	323.88
272.162	320.88
272.394	331.88
272.626	294.88
272.858	303.88
273.09	279.88
273.322	272.88
273.553	285.88
273.785	261.88
274.017	269.88
274.249	259.88
274.481	272.88
274.713	276.88
274.945	277.88
275.176	270.88
275.408	273.88
275.64	277.88
275.872	283.88
276.104	272.88
276.335	263.88
276.567	279.88
276.799	294.88
277.031	323.88
277.262	318.88
277.494	316.88
277.726	294.88
277.957	313.88
278.189	270.88
278.421	296.88
278.652	288.88
278.884	263.88
279.115	271.88
279.347	281.88
279.579	268.88
279.81	264.88
280.042	278.88
280.273	269.88
280.505	279.88
280.736	277.88
280.968	283.88
281.199	279.88
281.431	274.88
281.662	263.88
281.894	280.88
282.125	274.88
282.356	290.88
282.588	296.88
282.819	307.88
283.051	278.88
283.282	263.88
283.513	277.88
283.745	270.88
283.976	292.88
284.207	295.88
284.439	282.88
284.67	300.88
284.901	292.88
285.132	292.88
285.364	269.88
285.595	277.88
285.826	278.88
286.057	294.88
286.288	286.88
286.52	292.88
286.751	289.88
286.982	308.88
287.213	274.88
287.444	288.88
287.675	307.88
287.906	291.88
288.138	296.88
288.369	305.88
288.6	323.88
288.831	321.88
289.062	303.88
289.293	278.88
289.524	283.88
289.755	293.88
289.986	291.88
290.217	293.88
290.448	284.88
290.679	282.88
290.91	303.88
291.141	298.88
291.371	296.88
291.602	298.88
291.833	287.88
292.064	288.88
292.295	315.88
292.526	295.88
292.757	296.88
292.987	295.88
293.218	290.88
293.449	306.88
293.68	310.88
293.91	295.88
294.141	299.88
294.372	294.88
294.603	299.88
294.833	304.88
295.064	302.88
295.295	302.88
295.525	300.88
295.756	307.88
295.987	313.88
296.217	315.88
296.448	347.88
296.679	304.88
296.909	296.88
297.14	303.88
297.37	318.88
297.601	299.88
297.831	307.88
298.062	309.88
298.292	309.88
298.523	312.88
298.753	326.88
298.984	311.88
299.214	318.88
299.445	305.88
299.675	319.88
299.905	331.88
300.136	316.88
300.366	337.88
300.597	320.88
300.827	322.88
301.057	327.88
301.288	329.88
301.518	324.88
301.748	339.88
301.979	316.88
302.209	330.88
302.439	344.88
302.669	331.88
302.9	322.88
303.13	316.88
303.36	337.88
303.59	329.88
303.82	341.88
304.051	319.88
304.281	331.88
304.511	338.88
304.741	312.88
304.971	336.88
305.201	342.88
305.431	327.88
305.661	332.88
305.891	348.88
306.121	328.88
306.352	342.88
306.582	336.88
306.812	338.88
307.042	369.88
307.272	349.88
307.502	334.88
307.731	373.88
307.961	339.88
308.191	347.88
308.421	339.88
308.651	341.88
308.881	346.88
309.111	359.88
309.341	344.88
309.571	374.88
309.8	372.88
310.03	356.88
310.26	382.88
310.49	366.88
310.72	371.88
310.949	384.88
311.179	402.88
311.409	390.88
311.639	375.88
311.868	369.88
312.098	386.88
312.328	378.88
312.557	402.88
312.787	390.88
313.017	392.88
313.246	405.88
313.476	371.88
313.706	390.88
313.935	391.88
314.165	407.88
314.394	383.88
314.624	379.88
314.853	379.88
315.083	381.88
315.312	394.88
315.542	374.88
315.771	376.88
316.001	363.88
316.23	390.88
316.46	387.88
316.689	384.88
316.919	382.88
317.148	410.88
317.377	394.88
317.607	378.88
317.836	401.88
318.065	395.88
318.295	386.88
318.524	387.88
318.753	391.88
318.983	386.88
319.212	396.88
319.441	390.88
319.67	402.88
319.9	396.88
320.129	375.88
320.358	388.88
320.587	388.88
320.816	410.88
321.046	411.88
321.275	408.88
321.504	391.88
321.733	398.88
321.962	414.88
322.191	398.88
322.42	432.88
322.649	428.88
322.878	444.88
323.108	448.88
323.337	459.88
323.566	494.88
323.795	517.88
324.024	584.88
324.253	718.88
324.482	983.88
324.71	1440.88
324.939	1957.88
325.168	1644.88
325.397	881.88
325.626	614.88
325.855	526.88
326.084	486.88
326.313	468.88
326.542	520.88
326.77	545.88
326.999	659.88
327.228	890.88
327.457	1269.88
327.686	1429.88
327.914	954.88
328.143	668.88
328.372	601.88
328.6	545.88
328.829	551.88
329.058	535.88
329.287	558.88
329.515	527.88
329.744	501.88
329.972	495.88
330.201	513.88
330.43	550.88
330.658	554.88
330.887	575.88
331.115	554.88
331.344	482.88
331.572	481.88
331.801	469.88
332.03	469.88
332.258	459.88
332.486	451.88
332.715	437.88
332.943	454.88
333.172	456.88
333.4	466.88
333.629	461.88
333.857	473.88
334.085	479.88
334.314	473.88
334.542	513.88
334.771	522.88
334.999	471.88
335.227	476.88
335.455	447.88
335.684	442.88
335.912	449.88
336.14	434.88
336.369	431.88
336.597	438.88
336.825	438.88
337.053	452.88
337.281	422.88
337.51	419.88
337.738	422.88
337.966	446.88
338.194	439.88
338.422	420.88
338.65	421.88
338.878	427.88
339.106	416.88
339.334	411.88
339.562	402.88
339.79	402.88
340.018	410.88
340.246	409.88
340.474	404.88
340.702	420.88
340.93	410.88
341.158	413.88
341.386	412.88
341.614	436.88
341.842	408.88
342.07	420.88
342.298	420.88
342.526	405.88
342.754	390.88
342.981	367.88
343.209	402.88
343.437	385.88
343.665	396.88
343.893	425.88
344.12	421.88
344.348	401.88
344.576	403.88
344.804	431.88
345.031	417.88
345.259	428.88
345.487	433.88
345.714	406.88
345.942	420.88
346.17	410.88
346.397	388.88
346.625	398.88
346.853	403.88
347.08	404.88
347.308	408.88
347.535	420.88
347.763	434.88
347.99	397.88
348.218	386.88
348.445	400.88
348.673	404.88
348.9	396.88
349.128	376.88
349.355	396.88
349.583	401.88
349.81	359.88
350.037	388.88
350.265	382.88
350.492	380.88
350.72	385.88
350.947	382.88
351.174	370.88
351.402	396.88
351.629	390.88
351.856	406.88
352.083	396.88
352.311	404.88
352.538	420.88
352.765	424.88
352.992	408.88
353.22	411.88
353.447	372.88
353.674	368.88
353.901	371.88
354.128	374.88
354.355	378.88
354.583	380.88
354.81	368.88
355.037	371.88
355.264	384.88
355.491	348.88
355.718	364.88
355.945	378.88
356.172	358.88
356.399	363.88
356.626	366.88
356.853	356.88
357.08	351.88
357.307	363.88
357.534	366.88
357.761	366.88
357.988	375.88
358.215	367.88
358.441	360.88
358.668	370.88
358.895	376.88
359.122	378.88
359.349	380.88
359.576	390.88
359.802	404.88
360.029	388.88
360.256	423.88
360.483	391.88
360.709	373.88
360.936	397.88
361.163	385.88
361.39	381.88
361.616	395.88
361.843	407.88
362.07	385.88
362.296	367.88
362.523	399.88
362.749	391.88
362.976	375.88
363.203	380.88
363.429	360.88
363.656	376.88
363.882	361.88
364.109	361.88
364.335	369.88
364.562	372.88
364.788	368.88
365.015	355.88
365.241	359.88
365.468	375.88
365.694	370.88
365.92	370.88
366.147	361.88
366.373	364.88
366.599	349.88
366.826	368.88
367.052	370.88
367.278	352.88
367.505	366.88
367.731	372.88
367.957	361.88
368.184	342.88
368.41	343.88
368.636	357.88
368.862	395.88
369.089	361.88
369.315	361.88
369.541	361.88
369.767	356.88
369.993	372.88
370.219	359.88
370.445	362.88
370.672	358.88
370.898	347.88
371.124	358.88
371.35	355.88
371.576	357.88
371.802	340.88
372.028	361.88
372.254	344.88
372.48	357.88
372.706	359.88
372.932	362.88
373.158	355.88
373.384	363.88
373.61	342.88
373.835	378.88
374.061	364.88
374.287	361.88
374.513	354.88
374.739	363.88
374.965	373.88
375.191	371.88
375.416	353.88
375.642	372.88
375.868	359.88
376.094	370.88
376.319	359.88
376.545	346.88
376.771	363.88
376.997	336.88
377.222	355.88
377.448	371.88
377.674	372.88
377.899	351.88
378.125	347.88
378.35	338.88
378.576	354.88
378.802	347.88
379.027	357.88
379.253	358.88
379.478	341.88
379.704	355.88
379.929	366.88
380.155	347.88
380.38	355.88
380.606	360.88
380.831	373.88
381.057	371.88
381.282	335.88
381.507	350.88
381.733	339.88
381.958	341.88
382.184	353.88
382.409	367.88
382.634	362.88
382.86	357.88
383.085	374.88
383.31	361.88
383.535	367.88
383.761	354.88
383.986	361.88
384.211	380.88
384.436	363.88
384.662	330.88
384.887	375.88
385.112	376.88
385.337	370.88
385.562	371.88
385.787	383.88
386.013	382.88
386.238	404.88
386.463	364.88
386.688	366.88
386.913	366.88
387.138	370.88
387.363	374.88
387.588	350.88
387.813	388.88
388.038	367.88
388.263	369.88
388.488	376.88
388.713	386.88
388.938	379.88
389.163	377.88
389.387	361.88
389.612	355.88
389.837	375.88
390.062	369.88
390.287	362.88
390.512	390.88
390.736	366.88
390.961	384.88
391.186	394.88
391.411	374.88
391.636	359.88
391.86	378.88
392.085	374.88
392.31	372.88
392.534	376.88
392.759	378.88
392.984	386.88
393.208	383.88
393.433	371.88
393.658	359.88
393.882	369.88
394.107	378.88
394.331	385.88
394.556	367.88
394.78	374.88
395.005	372.88
395.229	374.88
395.454	397.88
395.678	375.88
395.903	410.88
396.127	405.88
396.352	386.88
396.576	384.88
396.801	381.88
397.025	385.88
397.249	383.88
397.474	388.88
397.698	387.88
397.922	422.88
398.147	408.88
398.371	407.88
398.595	416.88
398.82	405.88
399.044	433.88
399.268	435.88
399.492	434.88
399.717	486.88
399.941	477.88
400.165	479.88
400.389	495.88
400.613	464.88
400.837	434.88
401.062	414.88
401.286	420.88
401.51	410.88
401.734	404.88
401.958	426.88
402.182	418.88
402.406	420.88
402.63	412.88
402.854	409.88
403.078	432.88
403.302	429.88
403.526	422.88
403.75	431.88
403.974	411.88
404.198	407.88
404.422	431.88
404.645	430.88
404.869	435.88
405.093	457.88
405.317	481.88
405.541	508.88
405.765	469.88
405.988	437.88
406.212	453.88
406.436	462.88
406.66	481.88
406.883	470.88
407.107	498.88
407.331	520.88
407.555	555.88
407.778	532.88
408.002	513.88
408.226	471.88
408.449	480.88
408.673	455.88
408.896	488.88
409.12	502.88
409.344	513.88
409.567	452.88
409.791	430.88
410.014	420.88
410.238	412.88
410.461	431.88
410.685	420.88
410.908	451.88
411.132	464.88
411.355	502.88
411.578	462.88
411.802	449.88
412.025	414.88
412.249	440.88
412.472	450.88
412.695	464.88
412.919	468.88
413.142	426.88
413.365	441.88
413.589	418.88
413.812	399.88
414.035	413.88
414.258	406.88
414.482	408.88
414.705	389.88
414.928	403.88
415.151	403.88
415.374	401.88
415.597	383.88
415.821	387.88
416.044	404.88
416.267	414.88
416.49	389.88
416.713	393.88
416.936	394.88
417.159	379.88
417.382	401.88
417.605	417.88
417.828	419.88
418.051	455.88
418.274	430.88
418.497	387.88
418.72	428.88
418.943	384.88
419.166	406.88
419.389	427.88
419.611	416.88
419.834	410.88
420.057	427.88
420.28	423.88
420.503	419.88
420.726	433.88
420.948	436.88
421.171	451.88
421.394	479.88
421.617	463.88
421.839	439.88
422.062	424.88
422.285	421.88
422.507	478.88
422.73	524.88
422.953	527.88
423.175	455.88
423.398	443.88
423.621	427.88
423.843	447.88
424.066	469.88
424.288	453.88
424.511	470.88
424.733	514.88
424.956	579.88
425.178	564.88
425.401	562.88
425.623	568.88
425.846	484.88
426.068	455.88
426.291	451.88
426.513	447.88
426.735	470.88
426.958	473.88
427.18	547.88
427.402	649.88
427.625	711.88
427.847	609.88
428.069	546.88
428.292	479.88
428.514	450.88
428.736	430.88
428.958	440.88
429.181	435.88
429.403	412.88
429.625	424.88
429.847	439.88
430.069	491.88
430.292	515.88
430.514	442.88
430.736	435.88
430.958	413.88
431.18	396.88
431.402	401.88
431.624	386.88
431.846	387.88
432.068	408.88
432.29	382.88
432.512	390.88
432.734	403.88
432.956	383.88
433.178	411.88
433.4	407.88
433.622	410.88
433.844	402.88
434.066	391.88
434.287	389.88
434.509	393.88
434.731	407.88
434.953	402.88
435.175	421.88
435.397	446.88
435.618	468.88
435.84	482.88
436.062	559.88
436.284	621.88
436.505	514.88
436.727	457.88
436.949	434.88
437.17	414.88
437.392	416.88
437.614	423.88
437.835	472.88
438.057	531.88
438.278	616.88
438.5	600.88
438.721	655.88
438.943	633.88
439.165	495.88
439.386	458.88
439.608	470.88
439.829	474.88
440.05	480.88
440.272	522.88
440.493	480.88
440.715	428.88
440.936	417.88
441.158	424.88
441.379	431.88
441.6	415.88
441.822	459.88
442.043	486.88
442.264	545.88
442.486	582.88
442.707	495.88
442.928	465.88
443.149	474.88
443.371	480.88
443.592	530.88
443.813	614.88
444.034	639.88
444.255	512.88
444.476	487.88
444.698	452.88
444.919	448.88
445.14	576.88
445.361	515.88
445.582	479.88
445.803	528.88
446.024	613.88
446.245	633.88
446.466	576.88
446.687	502.88
446.908	467.88
447.129	420.88
447.35	416.88
447.571	421.88
447.792	421.88
448.013	405.88
448.234	441.88
448.455	477.88
448.675	584.88
448.896	674.88
449.117	552.88
449.338	534.88
449.559	608.88
449.779	690.88
450	544.88
450.221	450.88
450.442	442.88
450.662	407.88
450.883	404.88
451.104	431.88
451.324	413.88
451.545	390.88
451.766	378.88
451.986	383.88
452.207	359.88
452.428	362.88
452.648	385.88
452.869	376.88
453.089	380.88
453.31	388.88
453.53	377.88
453.751	372.88
453.971	374.88
454.192	348.88
454.412	375.88
454.633	370.88
454.853	371.88
455.073	377.88
455.294	405.88
455.514	458.88
455.734	444.88
455.955	384.88
456.175	360.88
456.395	340.88
456.616	340.88
456.836	350.88
457.056	343.88
457.276	330.88
457.497	327.88
457.717	340.88
457.937	350.88
458.157	358.88
458.377	363.88
458.598	375.88
458.818	406.88
459.038	475.88
459.258	502.88
459.478	419.88
459.698	383.88
459.918	384.88
460.138	384.88
460.358	384.88
460.578	384.88
460.798	403.88
461.018	394.88
461.238	383.88
461.458	391.88
461.678	383.88
461.898	385.88
462.118	395.88
462.338	394.88
462.558	414.88
462.777	404.88
462.997	391.88
463.217	427.88
463.437	410.88
463.657	425.88
463.876	404.88
464.096	412.88
464.316	417.88
464.536	439.88
464.755	410.88
464.975	406.88
465.195	422.88
465.414	497.88
465.634	438.88
465.854	415.88
466.073	400.88
466.293	364.88
466.512	378.88
466.732	374.88
466.951	374.88
467.171	371.88
467.391	382.88
467.61	381.88
467.829	386.88
468.049	390.88
468.268	393.88
468.488	395.88
468.707	379.88
468.927	368.88
469.146	358.88
469.365	364.88
469.585	383.88
469.804	375.88
470.023	384.88
470.243	375.88
470.462	396.88
470.681	384.88
470.901	396.88
471.12	404.88
471.339	386.88
471.558	396.88
471.777	395.88
471.997	375.88
472.216	391.88
472.435	399.88
472.654	383.88
472.873	391.88
473.092	395.88
473.311	396.88
473.53	384.88
473.749	395.88
473.968	428.88
474.187	499.88
474.406	526.88
474.625	447.88
474.844	409.88
475.063	416.88
475.282	402.88
475.501	386.88
475.72	400.88
475.939	415.88
476.158	387.88
476.377	385.88
476.596	391.88
476.814	382.88
477.033	402.88
477.252	403.88
477.471	407.88
477.69	388.88
477.908	404.88
478.127	412.88
478.346	418.88
478.564	428.88
478.783	432.88
479.002	407.88
479.22	430.88
479.439	431.88
479.658	449.88
479.876	448.88
480.095	487.88
480.313	478.88
480.532	441.88
480.751	436.88
480.969	464.88
481.188	524.88
481.406	503.88
481.624	469.88
481.843	457.88
482.061	443.88
482.28	456.88
482.498	443.88
482.717	427.88
482.935	441.88
483.153	428.88
483.372	454.88
483.59	438.88
483.808	437.88
484.027	457.88
484.245	455.88
484.463	424.88
484.681	469.88
484.9	458.88
485.118	463.88
485.336	454.88
485.554	446.88
485.772	454.88
485.99	445.88
486.209	453.88
486.427	455.88
486.645	473.88
486.863	484.88
487.081	482.88
487.299	459.88
487.517	460.88
487.735	464.88
487.953	497.88
488.171	479.88
488.389	482.88
488.607	473.88
488.825	463.88
489.043	472.88
489.261	487.88
489.479	504.88
489.696	499.88
489.914	473.88
490.132	499.88
490.35	514.88
490.568	484.88
490.786	506.88
491.003	522.88
491.221	530.88
491.439	535.88
491.657	563.88
491.874	551.88
492.092	537.88
492.31	559.88
492.527	568.88
492.745	555.88
492.963	548.88
493.18	554.88
493.398	572.88
493.615	571.88
493.833	554.88
494.05	548.88
494.268	536.88
494.485	559.88
494.703	552.88
494.92	551.88
495.138	563.88
495.355	556.88
495.573	569.88
495.79	561.88
496.008	578.88
496.225	562.88
496.442	567.88
496.66	577.88
496.877	570.88
497.094	555.88
497.312	571.88
497.529	579.88
497.746	585.88
497.963	592.88
498.181	603.88
498.398	596.88
498.615	602.88
498.832	615.88
499.049	643.88
499.267	656.88
499.484	672.88
499.701	675.88
499.918	705.88
500.135	703.88
500.352	738.88
500.569	757.88
500.786	754.88
501.003	745.88
501.22	706.88
501.437	690.88
501.654	691.88
501.871	703.88
502.088	672.88
502.305	635.88
502.522	625.88
502.739	611.88
502.956	608.88
503.172	610.88
503.389	584.88
503.606	613.88
503.823	570.88
504.04	570.88
504.256	588.88
504.473	546.88
504.69	549.88
504.907	549.88
505.123	548.88
505.34	527.88
505.557	522.88
505.773	543.88
505.99	552.88
506.207	558.88
506.423	541.88
506.64	535.88
506.856	516.88
507.073	507.88
507.289	521.88
507.506	509.88
507.722	517.88
507.939	536.88
508.155	514.88
508.372	540.88
508.588	488.88
508.805	518.88
509.021	514.88
509.238	519.88
509.454	519.88
509.67	514.88
509.887	525.88
510.103	511.88
510.319	500.88
510.536	592.88
510.752	920.88
510.968	735.88
511.184	514.88
511.401	483.88
511.617	490.88
511.833	484.88
512.049	483.88
512.265	467.88
512.481	497.88
512.698	483.88
512.914	492.88
513.13	463.88
513.346	481.88
513.562	484.88
513.778	483.88
513.994	481.88
514.21	497.88
514.426	512.88
514.642	538.88
514.858	543.88
515.074	559.88
515.29	676.88
515.506	947.88
515.721	755.88
515.937	554.88
516.153	521.88
516.369	484.88
516.585	507.88
516.801	484.88
517.016	514.88
517.232	486.88
517.448	481.88
517.664	447.88
517.879	476.88
518.095	506.88
518.311	479.88
518.527	468.88
518.742	465.88
518.958	480.88
519.173	480.88
519.389	479.88
519.605	468.88
519.82	458.88
520.036	496.88
520.251	499.88
520.467	512.88
520.682	515.88
520.898	522.88
521.113	531.88
521.329	550.88
521.544	642.88
521.76	752.88
521.975	1202.88
522.19	1121.88
522.406	692.88
522.621	522.88
522.836	478.88
523.052	462.88
523.267	473.88
523.482	441.88
523.698	454.88
523.913	423.88
524.128	426.88
524.343	416.88
524.559	418.88
524.774	409.88
524.989	412.88
525.204	425.88
525.419	422.88
525.634	391.88
525.849	414.88
526.064	402.88
526.28	402.88
526.495	401.88
526.71	403.88
526.925	392.88
527.14	402.88
527.355	388.88
527.57	393.88
527.785	376.88
527.999	386.88
528.214	386.88
528.429	399.88
528.644	376.88
528.859	393.88
529.074	392.88
529.289	420.88
529.503	460.88
529.718	476.88
529.933	411.88
530.148	392.88
530.363	403.88
530.577	374.88
530.792	404.88
531.007	382.88
531.221	377.88
531.436	373.88
531.651	371.88
531.865	363.88
532.08	378.88
532.295	382.88
532.509	379.88
532.724	384.88
532.938	385.88
533.153	360.88
533.367	384.88
533.582	356.88
533.796	362.88
534.011	383.88
534.225	374.88
534.44	354.88
534.654	365.88
534.868	346.88
535.083	371.88
535.297	356.88
535.511	358.88
535.726	374.88
535.94	350.88
536.154	364.88
536.369	378.88
536.583	361.88
536.797	377.88
537.011	364.88
537.225	372.88
537.44	368.88
537.654	359.88
537.868	344.88
538.082	376.88
538.296	371.88
538.51	369.88
538.724	362.88
538.938	346.88
539.153	351.88
539.367	368.88
539.581	370.88
539.795	359.88
540.009	363.88
540.222	376.88
540.436	362.88
540.65	364.88
540.864	360.88
541.078	378.88
541.292	351.88
541.506	382.88
541.72	366.88
541.934	376.88
542.147	371.88
542.361	363.88
542.575	368.88
542.789	378.88
543.002	347.88
543.216	356.88
543.43	351.88
543.644	363.88
543.857	348.88
544.071	345.88
544.285	369.88
544.498	378.88
544.712	382.88
544.925	366.88
545.139	357.88
545.352	363.88
545.566	374.88
545.779	358.88
545.993	370.88
546.206	367.88
546.42	361.88
546.633	342.88
546.847	359.88
547.06	341.88
547.274	353.88
547.487	355.88
547.7	343.88
547.914	354.88
548.127	348.88
548.34	338.88
548.554	349.88
548.767	339.88
548.98	346.88
549.193	334.88
549.407	354.88
549.62	352.88
549.833	343.88
550.046	342.88
550.259	352.88
550.473	356.88
550.686	354.88
550.899	358.88
551.112	356.88
551.325	336.88
551.538	326.88
551.751	341.88
551.964	348.88
552.177	322.88
552.39	342.88
552.603	355.88
552.816	342.88
553.029	340.88
553.242	327.88
553.455	355.88
553.667	368.88
553.88	370.88
554.093	359.88
554.306	368.88
554.519	342.88
554.732	332.88
554.944	318.88
555.157	340.88
555.37	338.88
555.583	315.88
555.795	335.88
556.008	331.88
556.221	323.88
556.433	307.88
556.646	343.88
556.859	299.88
557.071	305.88
557.284	332.88
557.496	331.88
557.709	304.88
557.921	320.88
558.134	319.88
558.346	307.88
558.559	316.88
558.771	305.88
558.984	318.88
559.196	310.88
559.409	306.88
559.621	330.88
559.833	315.88
560.046	308.88
560.258	299.88
560.47	318.88
560.683	315.88
560.895	300.88
561.107	297.88
561.32	284.88
561.532	314.88
561.744	318.88
561.956	301.88
562.168	308.88
562.381	302.88
562.593	307.88
562.805	299.88
563.017	297.88
563.229	296.88
563.441	316.88
563.653	306.88
563.865	301.88
564.077	291.88
564.289	289.88
564.501	311.88
564.713	315.88
564.925	306.88
565.137	316.88
565.349	330.88
565.561	318.88
565.773	323.88
565.985	326.88
566.197	336.88
566.408	331.88
566.62	347.88
566.832	331.88
567.044	370.88
567.255	352.88
567.467	363.88
567.679	338.88
567.891	379.88
568.102	382.88
568.314	372.88
568.526	340.88
568.737	330.88
568.949	299.88
569.161	316.88
569.372	318.88
569.584	305.88
569.795	308.88
570.007	295.88
570.218	330.88
570.43	328.88
570.641	304.88
570.853	284.88
571.064	294.88
571.276	292.88
571.487	296.88
571.698	290.88
571.91	266.88
572.121	274.88
572.333	291.88
572.544	288.88
572.755	261.88
572.966	265.88
573.178	261.88
573.389	278.88
573.6	274.88
573.811	263.88
574.023	266.88
574.234	259.88
574.445	250.88
574.656	251.88
574.867	261.88
575.078	254.88
575.289	260.88
575.501	275.88
575.712	258.88
575.923	259.88
576.134	258.88
576.345	250.88
576.556	249.88
576.767	245.88
576.978	269.88
577.188	266.88
577.399	235.88
577.61	247.88
577.821	250.88
578.032	252.88
578.243	274.88
578.454	415.88
578.665	344.88
578.875	272.88
579.086	244.88
579.297	223.88
579.508	244.88
579.718	260.88
579.929	244.88
580.14	225.88
580.35	254.88
580.561	235.88
580.772	244.88
580.982	227.88
581.193	236.88
581.403	248.88
581.614	233.88
581.825	236.88
582.035	251.88
582.246	240.88
582.456	240.88
582.667	245.88
582.877	216.88
583.087	232.88
583.298	218.88
583.508	219.88
583.719	222.88
583.929	234.88
584.139	224.88
584.35	218.88
584.56	225.88
584.77	243.88
584.981	223.88
585.191	222.88
585.401	227.88
585.611	234.88
585.821	230.88
586.032	239.88
586.242	224.88
586.452	234.88
586.662	233.88
586.872	224.88
587.082	204.88
587.292	212.88
587.502	212.88
587.713	226.88
587.923	223.88
588.133	239.88
588.343	214.88
588.553	212.88
588.762	234.88
588.972	224.88
589.182	232.88
589.392	229.88
589.602	225.88
589.812	238.88
590.022	225.88
590.232	216.88
590.441	218.88
590.651	224.88
590.861	248.88
591.071	224.88
591.281	216.88
591.49	232.88
591.7	219.88
591.91	227.88
592.119	226.88
592.329	232.88
592.539	231.88
592.748	253.88
592.958	248.88
593.167	233.88
593.377	223.88
593.587	243.88
593.796	233.88
594.006	222.88
594.215	244.88
594.424	227.88
594.634	235.88
594.843	254.88
595.053	230.88
595.262	227.88
595.472	233.88
595.681	212.88
595.89	206.88
596.1	232.88
596.309	226.88
596.518	218.88
596.727	204.88
596.937	203.88
597.146	218.88
597.355	217.88
597.564	219.88
597.774	231.88
597.983	208.88
598.192	216.88
598.401	209.88
598.61	203.88
598.819	214.88
599.028	199.88
599.237	194.88
599.446	195.88
599.655	207.88
599.864	213.88
600.073	214.88
600.282	211.88
600.491	195.88
600.7	203.88
600.909	203.88
601.118	212.88
601.327	211.88
601.536	201.88
601.745	209.88
601.953	198.88
602.162	214.88
602.371	201.88
602.58	204.88
602.789	196.88
602.997	202.88
603.206	201.88
603.415	207.88
603.623	208.88
603.832	214.88
604.041	203.88
604.249	189.88
604.458	199.88
604.666	197.88
604.875	193.88
605.084	191.88
605.292	219.88
605.501	202.88
605.709	204.88
605.918	201.88
606.126	205.88
606.334	209.88
606.543	204.88
606.751	206.88
606.96	201.88
607.168	203.88
607.376	193.88
607.585	208.88
607.793	201.88
608.001	199.88
608.21	198.88
608.418	202.88
608.626	222.88
608.834	204.88
609.043	206.88
609.251	188.88
609.459	206.88
609.667	207.88
609.875	205.88
610.083	187.88
610.291	198.88
610.499	206.88
610.707	201.88
610.916	207.88
611.124	219.88
611.332	206.88
611.54	209.88
611.748	184.88
611.955	193.88
612.163	200.88
612.371	208.88
612.579	196.88
612.787	195.88
612.995	196.88
613.203	191.88
613.411	191.88
613.618	197.88
613.826	203.88
614.034	209.88
614.242	199.88
614.449	189.88
614.657	196.88
614.865	187.88
615.072	202.88
615.28	195.88
615.488	196.88
615.695	185.88
615.903	205.88
616.111	192.88
616.318	206.88
616.526	189.88
616.733	204.88
616.941	213.88
617.148	206.88
617.356	209.88
617.563	183.88
617.771	181.88
617.978	203.88
618.185	204.88
618.393	199.88
618.6	200.88
618.807	186.88
619.015	176.88
619.222	188.88
619.429	200.88
619.637	184.88
619.844	190.88
620.051	190.88
620.258	193.88
620.466	181.88
620.673	198.88
620.88	186.88
621.087	174.88
621.294	186.88
621.501	192.88
621.708	199.88
621.915	184.88
622.122	185.88
622.329	198.88
622.536	185.88
622.743	177.88
622.95	183.88
623.157	187.88
623.364	186.88
623.571	186.88
623.778	169.88
623.985	176.88
624.192	190.88
624.399	163.88
624.606	174.88
624.812	160.88
625.019	183.88
625.226	178.88
625.433	180.88
625.639	180.88
625.846	169.88
626.053	170.88
626.259	166.88
626.466	155.88
626.673	164.88
626.879	169.88
627.086	155.88
627.293	174.88
627.499	183.88
627.706	176.88
627.912	168.88
628.119	168.88
628.325	171.88
628.532	176.88
628.738	174.88
628.945	159.88
629.151	170.88
629.357	166.88
629.564	164.88
629.77	159.88
629.976	167.88
630.183	183.88
630.389	162.88
630.595	163.88
630.802	157.88
631.008	164.88
631.214	167.88
631.42	182.88
631.627	175.88
631.833	176.88
632.039	143.88
632.245	163.88
632.451	161.88
632.657	157.88
632.863	140.88
633.069	154.88
633.275	162.88
633.481	168.88
633.688	162.88
633.893	178.88
634.099	162.88
634.305	144.88
634.511	167.88
634.717	153.88
634.923	155.88
635.129	154.88
635.335	160.88
635.541	160.88
635.747	165.88
635.952	149.88
636.158	158.88
636.364	167.88
636.57	172.88
636.775	162.88
636.981	148.88
637.187	172.88
637.392	144.88
637.598	159.88
637.804	149.88
638.009	163.88
638.215	156.88
638.421	171.88
638.626	165.88
638.832	155.88
639.037	144.88
639.243	156.88
639.448	153.88
639.654	162.88
639.859	138.88
640.065	140.88
640.27	155.88
640.475	156.88
640.681	144.88
640.886	151.88
641.091	136.88
641.297	144.88
641.502	150.88
641.707	144.88
641.913	151.88
642.118	147.88
642.323	144.88
642.528	141.88
642.733	148.88
642.939	142.88
643.144	142.88
643.349	138.88
643.554	157.88
643.759	159.88
643.964	121.88
644.169	144.88
644.374	152.88
644.579	130.88
644.784	142.88
644.989	152.88
645.194	152.88
645.399	148.88
645.604	134.88
645.809	144.88
646.014	132.88
646.219	138.88
646.423	150.88
646.628	159.88
646.833	137.88
647.038	126.88
647.243	134.88
647.447	164.88
647.652	156.88
647.857	155.88
648.062	147.88
648.266	150.88
648.471	148.88
648.676	144.88
648.88	149.88
649.085	138.88
649.289	134.88
649.494	150.88
649.698	167.88
649.903	148.88
650.107	158.88
650.312	146.88
650.516	150.88
650.721	131.88
650.925	129.88
651.13	133.88
651.334	131.88
651.539	124.88
651.743	156.88
651.947	127.88
652.152	131.88
652.356	133.88
652.56	129.88
652.764	131.88
652.969	131.88
653.173	128.88
653.377	118.88
653.581	135.88
653.785	117.88
653.99	133.88
654.194	139.88
654.398	135.88
654.602	112.88
654.806	134.88
655.01	103.88
655.214	128.88
655.418	120.88
655.622	128.88
655.826	119.88
656.03	136.88
656.234	116.88
656.438	110.88
656.642	115.88
656.846	110.88
657.049	118.88
657.253	100.88
657.457	106.88
657.661	111.88
657.865	104.88
658.068	110.88
658.272	120.88
658.476	99.88
658.68	112.88
658.883	118.88
659.087	83.88
659.291	95.88
659.494	101.88
659.698	96.88
659.901	99.88
660.105	113.88
660.309	101.88
660.512	94.88
660.716	92.88
660.919	91.88
661.123	102.88
661.326	98.88
661.53	84.88
661.733	92.88
661.936	78.88
662.14	79.88
662.343	80.88
662.546	90.88
662.75	100.88
662.953	90.88
663.156	69.88
663.36	85.88
663.563	85.88
663.766	79.88
663.969	92.88
664.173	76.88
664.376	81.88
664.579	73.88
664.782	90.88
664.985	80.88
665.188	79.88
665.391	90.88
665.594	89.88
665.797	100.88
666	79.88
666.203	75.88
666.406	90.88
666.609	68.88
666.812	91.88
667.015	76.88
667.218	72.88
667.421	79.88
667.624	88.88
667.827	73.88
668.03	80.88
668.232	80.88
668.435	71.88
668.638	82.88
668.841	71.88
669.043	85.88
669.246	83.88
669.449	97.88
669.651	87.88
669.854	74.88
670.057	84.88
670.259	87.88
670.462	90.88
670.665	77.88
670.867	82.88
671.07	79.88
671.272	85.88
671.475	86.88
671.677	95.88
671.88	76.88
672.082	86.88
672.284	80.88
672.487	82.88
672.689	76.88
672.892	76.88
