Data from 1971.PennyLincolnUp.Lamp.En5.5.200Scan.071719.P1._HRD10591_15-18-02-842.txt Node
Date: Thu Jul 18 15:18:02 EDT 2019
User: cochatt
Spectrometer: HR+D1059
Trigger mode: 1
Integration Time (sec): 1.000000E-1
Scans to average: 1
Electric dark correction enabled: true
Nonlinearity correction enabled: false
Boxcar width: 0
XAxis mode: Wavelengths
Number of Pixels in Spectrum: 2048
>>>>>Begin Spectral Data<<<<<
223.165	-20.12
223.4	-20.12
223.635	-20.12
223.869	-10.12
224.104	-27.12
224.338	-7.12
224.573	-14.12
224.808	-15.12
225.042	-2.12
225.277	-5.12
225.511	-4.12
225.746	-8.12
225.98	9.88
226.215	9.88
226.449	23.88
226.683	2.88
226.918	28.88
227.152	37.88
227.387	28.88
227.621	46.88
227.856	36.88
228.09	49.88
228.324	46.88
228.559	45.88
228.793	67.88
229.027	90.88
229.262	101.88
229.496	109.88
229.73	106.88
229.964	125.88
230.199	105.88
230.433	101.88
230.667	93.88
230.901	91.88
231.136	92.88
231.37	110.88
231.604	109.88
231.838	84.88
232.072	120.88
232.306	93.88
232.541	116.88
232.775	116.88
233.009	97.88
233.243	106.88
233.477	108.88
233.711	100.88
233.945	114.88
234.179	113.88
234.413	111.88
234.647	100.88
234.881	114.88
235.115	107.88
235.349	118.88
235.583	124.88
235.817	116.88
236.051	114.88
236.285	118.88
236.519	106.88
236.753	111.88
236.987	134.88
237.221	134.88
237.455	164.88
237.689	163.88
237.922	128.88
238.156	132.88
238.39	108.88
238.624	110.88
238.858	122.88
239.091	130.88
239.325	125.88
239.559	113.88
239.793	115.88
240.027	123.88
240.26	123.88
240.494	137.88
240.728	133.88
240.961	130.88
241.195	134.88
241.429	131.88
241.662	124.88
241.896	124.88
242.13	125.88
242.363	130.88
242.597	136.88
242.83	127.88
243.064	127.88
243.298	124.88
243.531	125.88
243.765	134.88
243.998	112.88
244.232	132.88
244.465	130.88
244.699	144.88
244.932	123.88
245.166	132.88
245.399	134.88
245.633	145.88
245.866	151.88
246.099	139.88
246.333	130.88
246.566	148.88
246.8	153.88
247.033	142.88
247.266	157.88
247.5	154.88
247.733	149.88
247.966	163.88
248.2	154.88
248.433	162.88
248.666	148.88
248.899	172.88
249.133	170.88
249.366	184.88
249.599	182.88
249.832	181.88
250.066	177.88
250.299	163.88
250.532	155.88
250.765	183.88
250.998	194.88
251.231	198.88
251.465	194.88
251.698	189.88
251.931	184.88
252.164	166.88
252.397	161.88
252.63	188.88
252.863	178.88
253.096	192.88
253.329	206.88
253.562	202.88
253.795	185.88
254.028	202.88
254.261	196.88
254.494	211.88
254.727	238.88
254.96	228.88
255.193	228.88
255.426	205.88
255.659	204.88
255.892	198.88
256.124	202.88
256.357	180.88
256.59	194.88
256.823	187.88
257.056	195.88
257.289	187.88
257.521	187.88
257.754	189.88
257.987	188.88
258.22	193.88
258.452	198.88
258.685	194.88
258.918	179.88
259.151	191.88
259.383	196.88
259.616	218.88
259.849	199.88
260.081	212.88
260.314	212.88
260.547	214.88
260.779	217.88
261.012	203.88
261.244	215.88
261.477	195.88
261.71	212.88
261.942	197.88
262.175	208.88
262.407	197.88
262.64	206.88
262.872	197.88
263.105	196.88
263.337	206.88
263.57	192.88
263.802	190.88
264.035	194.88
264.267	200.88
264.499	205.88
264.732	187.88
264.964	191.88
265.197	197.88
265.429	196.88
265.661	198.88
265.894	190.88
266.126	198.88
266.358	210.88
266.591	187.88
266.823	210.88
267.055	202.88
267.287	203.88
267.52	208.88
267.752	188.88
267.984	220.88
268.216	219.88
268.448	209.88
268.681	213.88
268.913	218.88
269.145	226.88
269.377	222.88
269.609	246.88
269.841	232.88
270.073	228.88
270.306	267.88
270.538	262.88
270.77	241.88
271.002	260.88
271.234	247.88
271.466	252.88
271.698	287.88
271.93	266.88
272.162	268.88
272.394	278.88
272.626	276.88
272.858	248.88
273.09	244.88
273.322	246.88
273.553	245.88
273.785	234.88
274.017	244.88
274.249	231.88
274.481	222.88
274.713	248.88
274.945	244.88
275.176	227.88
275.408	265.88
275.64	237.88
275.872	244.88
276.104	247.88
276.335	219.88
276.567	225.88
276.799	246.88
277.031	277.88
277.262	278.88
277.494	278.88
277.726	252.88
277.957	261.88
278.189	264.88
278.421	238.88
278.652	226.88
278.884	241.88
279.115	256.88
279.347	236.88
279.579	248.88
279.81	241.88
280.042	269.88
280.273	264.88
280.505	238.88
280.736	241.88
280.968	240.88
281.199	231.88
281.431	234.88
281.662	218.88
281.894	246.88
282.125	244.88
282.356	242.88
282.588	258.88
282.819	251.88
283.051	235.88
283.282	256.88
283.513	250.88
283.745	230.88
283.976	258.88
284.207	245.88
284.439	251.88
284.67	276.88
284.901	246.88
285.132	266.88
285.364	276.88
285.595	248.88
285.826	241.88
286.057	261.88
286.288	255.88
286.52	257.88
286.751	271.88
286.982	259.88
287.213	262.88
287.444	258.88
287.675	249.88
287.906	247.88
288.138	263.88
288.369	276.88
288.6	276.88
288.831	270.88
289.062	249.88
289.293	259.88
289.524	263.88
289.755	270.88
289.986	266.88
290.217	266.88
290.448	265.88
290.679	253.88
290.91	256.88
291.141	260.88
291.371	249.88
291.602	255.88
291.833	265.88
292.064	271.88
292.295	240.88
292.526	265.88
292.757	276.88
292.987	245.88
293.218	259.88
293.449	268.88
293.68	269.88
293.91	262.88
294.141	261.88
294.372	276.88
294.603	258.88
294.833	285.88
295.064	269.88
295.295	259.88
295.525	277.88
295.756	280.88
295.987	249.88
296.217	280.88
296.448	279.88
296.679	269.88
296.909	261.88
297.14	265.88
297.37	255.88
297.601	260.88
297.831	257.88
298.062	268.88
298.292	282.88
298.523	267.88
298.753	272.88
298.984	265.88
299.214	270.88
299.445	285.88
299.675	273.88
299.905	285.88
300.136	282.88
300.366	252.88
300.597	274.88
300.827	264.88
301.057	290.88
301.288	289.88
301.518	271.88
301.748	284.88
301.979	281.88
302.209	293.88
302.439	277.88
302.669	272.88
302.9	284.88
303.13	300.88
303.36	308.88
303.59	301.88
303.82	312.88
304.051	301.88
304.281	310.88
304.511	291.88
304.741	313.88
304.971	288.88
305.201	308.88
305.431	288.88
305.661	293.88
305.891	294.88
306.121	284.88
306.352	307.88
306.582	304.88
306.812	284.88
307.042	308.88
307.272	285.88
307.502	288.88
307.731	300.88
307.961	294.88
308.191	304.88
308.421	302.88
308.651	294.88
308.881	293.88
309.111	308.88
309.341	315.88
309.571	286.88
309.8	302.88
310.03	311.88
310.26	331.88
310.49	325.88
310.72	314.88
310.949	333.88
311.179	343.88
311.409	312.88
311.639	320.88
311.868	343.88
312.098	313.88
312.328	341.88
312.557	327.88
312.787	342.88
313.017	336.88
313.246	332.88
313.476	329.88
313.706	337.88
313.935	342.88
314.165	333.88
314.394	332.88
314.624	329.88
314.853	326.88
315.083	339.88
315.312	312.88
315.542	330.88
315.771	328.88
316.001	316.88
316.23	331.88
316.46	333.88
316.689	347.88
316.919	320.88
317.148	348.88
317.377	333.88
317.607	320.88
317.836	323.88
318.065	330.88
318.295	313.88
318.524	328.88
318.753	322.88
318.983	329.88
319.212	317.88
319.441	334.88
319.67	326.88
319.9	333.88
320.129	326.88
320.358	325.88
320.587	342.88
320.816	344.88
321.046	331.88
321.275	345.88
321.504	328.88
321.733	330.88
321.962	342.88
322.191	360.88
322.42	369.88
322.649	342.88
322.878	354.88
323.108	393.88
323.337	389.88
323.566	390.88
323.795	423.88
324.024	431.88
324.253	541.88
324.482	733.88
324.71	1074.88
324.939	1419.88
325.168	1239.88
325.397	682.88
325.626	484.88
325.855	421.88
326.084	395.88
326.313	409.88
326.542	406.88
326.77	432.88
326.999	485.88
327.228	652.88
327.457	952.88
327.686	1066.88
327.914	732.88
328.143	538.88
328.372	475.88
328.6	453.88
328.829	446.88
329.058	451.88
329.287	438.88
329.515	429.88
329.744	394.88
329.972	385.88
330.201	430.88
330.43	436.88
330.658	460.88
330.887	442.88
331.115	455.88
331.344	410.88
331.572	394.88
331.801	408.88
332.03	391.88
332.258	378.88
332.486	389.88
332.715	385.88
332.943	372.88
333.172	380.88
333.4	382.88
333.629	384.88
333.857	384.88
334.085	388.88
334.314	413.88
334.542	405.88
334.771	443.88
334.999	402.88
335.227	407.88
335.455	390.88
335.684	377.88
335.912	364.88
336.14	375.88
336.369	378.88
336.597	377.88
336.825	387.88
337.053	359.88
337.281	363.88
337.51	358.88
337.738	358.88
337.966	372.88
338.194	378.88
338.422	376.88
338.65	361.88
338.878	362.88
339.106	368.88
339.334	370.88
339.562	369.88
339.79	373.88
340.018	350.88
340.246	360.88
340.474	351.88
340.702	369.88
340.93	351.88
341.158	362.88
341.386	371.88
341.614	372.88
341.842	350.88
342.07	354.88
342.298	357.88
342.526	344.88
342.754	337.88
342.981	334.88
343.209	362.88
343.437	348.88
343.665	340.88
343.893	358.88
344.12	389.88
344.348	356.88
344.576	371.88
344.804	377.88
345.031	347.88
345.259	369.88
345.487	363.88
345.714	349.88
345.942	372.88
346.17	363.88
346.397	354.88
346.625	363.88
346.853	349.88
347.08	338.88
347.308	341.88
347.535	365.88
347.763	355.88
347.99	344.88
348.218	320.88
348.445	329.88
348.673	363.88
348.9	356.88
349.128	359.88
349.355	347.88
349.583	337.88
349.81	340.88
350.037	333.88
350.265	325.88
350.492	335.88
350.72	340.88
350.947	338.88
351.174	348.88
351.402	351.88
351.629	351.88
351.856	342.88
352.083	332.88
352.311	352.88
352.538	352.88
352.765	323.88
352.992	362.88
353.22	348.88
353.447	333.88
353.674	328.88
353.901	320.88
354.128	324.88
354.355	339.88
354.583	338.88
354.81	327.88
355.037	310.88
355.264	319.88
355.491	306.88
355.718	337.88
355.945	322.88
356.172	317.88
356.399	307.88
356.626	318.88
356.853	336.88
357.08	317.88
357.307	310.88
357.534	309.88
357.761	329.88
357.988	336.88
358.215	331.88
358.441	325.88
358.668	333.88
358.895	324.88
359.122	309.88
359.349	329.88
359.576	335.88
359.802	339.88
360.029	352.88
360.256	365.88
360.483	366.88
360.709	346.88
360.936	338.88
361.163	335.88
361.39	324.88
361.616	342.88
361.843	329.88
362.07	329.88
362.296	332.88
362.523	325.88
362.749	327.88
362.976	334.88
363.203	337.88
363.429	318.88
363.656	334.88
363.882	305.88
364.109	315.88
364.335	325.88
364.562	333.88
364.788	326.88
365.015	302.88
365.241	319.88
365.468	312.88
365.694	313.88
365.92	321.88
366.147	325.88
366.373	318.88
366.599	310.88
366.826	295.88
367.052	313.88
367.278	330.88
367.505	331.88
367.731	340.88
367.957	314.88
368.184	316.88
368.41	333.88
368.636	323.88
368.862	332.88
369.089	311.88
369.315	323.88
369.541	320.88
369.767	326.88
369.993	312.88
370.219	321.88
370.445	336.88
370.672	318.88
370.898	327.88
371.124	315.88
371.35	332.88
371.576	333.88
371.802	314.88
372.028	332.88
372.254	310.88
372.48	325.88
372.706	308.88
372.932	309.88
373.158	326.88
373.384	328.88
373.61	320.88
373.835	317.88
374.061	315.88
374.287	317.88
374.513	318.88
374.739	304.88
374.965	330.88
375.191	324.88
375.416	328.88
375.642	326.88
375.868	324.88
376.094	340.88
376.319	311.88
376.545	334.88
376.771	326.88
376.997	328.88
377.222	310.88
377.448	325.88
377.674	315.88
377.899	334.88
378.125	309.88
378.35	319.88
378.576	317.88
378.802	310.88
379.027	320.88
379.253	324.88
379.478	285.88
379.704	312.88
379.929	321.88
380.155	308.88
380.38	316.88
380.606	327.88
380.831	327.88
381.057	330.88
381.282	324.88
381.507	322.88
381.733	310.88
381.958	321.88
382.184	312.88
382.409	330.88
382.634	324.88
382.86	331.88
383.085	322.88
383.31	320.88
383.535	329.88
383.761	315.88
383.986	327.88
384.211	317.88
384.436	324.88
384.662	320.88
384.887	328.88
385.112	332.88
385.337	325.88
385.562	333.88
385.787	343.88
386.013	329.88
386.238	347.88
386.463	347.88
386.688	347.88
386.913	348.88
387.138	341.88
387.363	330.88
387.588	346.88
387.813	339.88
388.038	329.88
388.263	340.88
388.488	332.88
388.713	322.88
388.938	338.88
389.163	340.88
389.387	339.88
389.612	329.88
389.837	323.88
390.062	347.88
390.287	324.88
390.512	335.88
390.736	336.88
390.961	323.88
391.186	342.88
391.411	332.88
391.636	331.88
391.86	356.88
392.085	347.88
392.31	344.88
392.534	338.88
392.759	359.88
392.984	348.88
393.208	333.88
393.433	328.88
393.658	346.88
393.882	338.88
394.107	316.88
394.331	344.88
394.556	314.88
394.78	331.88
395.005	338.88
395.229	339.88
395.454	342.88
395.678	335.88
395.903	355.88
396.127	363.88
396.352	347.88
396.576	363.88
396.801	368.88
397.025	359.88
397.249	355.88
397.474	363.88
397.698	357.88
397.922	368.88
398.147	378.88
398.371	372.88
398.595	358.88
398.82	372.88
399.044	399.88
399.268	395.88
399.492	398.88
399.717	437.88
399.941	444.88
400.165	441.88
400.389	462.88
400.613	405.88
400.837	372.88
401.062	401.88
401.286	373.88
401.51	370.88
401.734	363.88
401.958	374.88
402.182	367.88
402.406	388.88
402.63	390.88
402.854	376.88
403.078	376.88
403.302	362.88
403.526	383.88
403.75	374.88
403.974	371.88
404.198	379.88
404.422	400.88
404.645	384.88
404.869	397.88
405.093	384.88
405.317	421.88
405.541	428.88
405.765	429.88
405.988	414.88
406.212	396.88
406.436	412.88
406.66	411.88
406.883	405.88
407.107	433.88
407.331	429.88
407.555	480.88
407.778	500.88
408.002	452.88
408.226	410.88
408.449	416.88
408.673	402.88
408.896	426.88
409.12	454.88
409.344	430.88
409.567	396.88
409.791	371.88
410.014	388.88
410.238	373.88
410.461	374.88
410.685	388.88
410.908	397.88
411.132	420.88
411.355	440.88
411.578	414.88
411.802	390.88
412.025	388.88
412.249	386.88
412.472	389.88
412.695	418.88
412.919	414.88
413.142	380.88
413.365	366.88
413.589	377.88
413.812	359.88
414.035	359.88
414.258	326.88
414.482	355.88
414.705	352.88
414.928	353.88
415.151	356.88
415.374	369.88
415.597	356.88
415.821	345.88
416.044	351.88
416.267	356.88
416.49	368.88
416.713	357.88
416.936	350.88
417.159	368.88
417.382	358.88
417.605	363.88
417.828	371.88
418.051	360.88
418.274	372.88
418.497	354.88
418.72	371.88
418.943	354.88
419.166	386.88
419.389	392.88
419.611	385.88
419.834	365.88
420.057	363.88
420.28	378.88
420.503	373.88
420.726	370.88
420.948	394.88
421.171	391.88
421.394	407.88
421.617	392.88
421.839	382.88
422.062	377.88
422.285	409.88
422.507	418.88
422.73	469.88
422.953	458.88
423.175	390.88
423.398	376.88
423.621	388.88
423.843	394.88
424.066	380.88
424.288	385.88
424.511	411.88
424.733	432.88
424.956	503.88
425.178	467.88
425.401	470.88
425.623	510.88
425.846	433.88
426.068	413.88
426.291	392.88
426.513	386.88
426.735	398.88
426.958	440.88
427.18	494.88
427.402	588.88
427.625	612.88
427.847	530.88
428.069	463.88
428.292	408.88
428.514	392.88
428.736	382.88
428.958	373.88
429.181	360.88
429.403	349.88
429.625	354.88
429.847	402.88
430.069	438.88
430.292	432.88
430.514	376.88
430.736	371.88
430.958	357.88
431.18	351.88
431.402	340.88
431.624	363.88
431.846	348.88
432.068	337.88
432.29	351.88
432.512	347.88
432.734	361.88
432.956	361.88
433.178	357.88
433.4	352.88
433.622	360.88
433.844	362.88
434.066	328.88
434.287	333.88
434.509	347.88
434.731	353.88
434.953	357.88
435.175	369.88
435.397	370.88
435.618	385.88
435.84	432.88
436.062	450.88
436.284	534.88
436.505	435.88
436.727	410.88
436.949	380.88
437.17	368.88
437.392	362.88
437.614	365.88
437.835	386.88
438.057	452.88
438.278	510.88
438.5	511.88
438.721	560.88
438.943	540.88
439.165	437.88
439.386	402.88
439.608	407.88
439.829	384.88
440.05	386.88
440.272	456.88
440.493	422.88
440.715	384.88
440.936	380.88
441.158	375.88
441.379	374.88
441.6	389.88
441.822	398.88
442.043	396.88
442.264	455.88
442.486	484.88
442.707	427.88
442.928	392.88
443.149	407.88
443.371	420.88
443.592	460.88
443.813	523.88
444.034	549.88
444.255	474.88
444.476	390.88
444.698	393.88
444.919	385.88
445.14	529.88
445.361	465.88
445.582	412.88
445.803	450.88
446.024	531.88
446.245	514.88
446.466	490.88
446.687	432.88
446.908	405.88
447.129	386.88
447.35	378.88
447.571	358.88
447.792	361.88
448.013	369.88
448.234	389.88
448.455	421.88
448.675	482.88
448.896	517.88
449.117	493.88
449.338	474.88
449.559	528.88
449.779	568.88
450	467.88
450.221	416.88
450.442	374.88
450.662	359.88
450.883	368.88
451.104	361.88
451.324	352.88
451.545	327.88
451.766	345.88
451.986	347.88
452.207	329.88
452.428	318.88
452.648	332.88
452.869	316.88
453.089	333.88
453.31	329.88
453.53	321.88
453.751	317.88
453.971	306.88
454.192	336.88
454.412	329.88
454.633	337.88
454.853	325.88
455.073	324.88
455.294	360.88
455.514	382.88
455.734	363.88
455.955	330.88
456.175	291.88
456.395	315.88
456.616	312.88
456.836	308.88
457.056	306.88
457.276	289.88
457.497	294.88
457.717	310.88
457.937	301.88
458.157	299.88
458.377	325.88
458.598	324.88
458.818	376.88
459.038	402.88
459.258	417.88
459.478	358.88
459.698	347.88
459.918	316.88
460.138	333.88
460.358	333.88
460.578	347.88
460.798	360.88
461.018	341.88
461.238	343.88
461.458	346.88
461.678	331.88
461.898	346.88
462.118	334.88
462.338	353.88
462.558	340.88
462.777	352.88
462.997	370.88
463.217	354.88
463.437	359.88
463.657	368.88
463.876	357.88
464.096	364.88
464.316	346.88
464.536	357.88
464.755	379.88
464.975	363.88
465.195	379.88
465.414	405.88
465.634	382.88
465.854	333.88
466.073	356.88
466.293	349.88
466.512	348.88
466.732	320.88
466.951	340.88
467.171	316.88
467.391	347.88
467.61	330.88
467.829	342.88
468.049	337.88
468.268	340.88
468.488	336.88
468.707	313.88
468.927	330.88
469.146	339.88
469.365	336.88
469.585	320.88
469.804	342.88
470.023	317.88
470.243	331.88
470.462	333.88
470.681	362.88
470.901	347.88
471.12	329.88
471.339	349.88
471.558	334.88
471.777	349.88
471.997	337.88
472.216	318.88
472.435	350.88
472.654	322.88
472.873	346.88
473.092	332.88
473.311	314.88
473.53	325.88
473.749	363.88
473.968	371.88
474.187	443.88
474.406	438.88
474.625	368.88
474.844	368.88
475.063	357.88
475.282	364.88
475.501	348.88
475.72	348.88
475.939	344.88
476.158	352.88
476.377	342.88
476.596	334.88
476.814	343.88
477.033	342.88
477.252	358.88
477.471	344.88
477.69	368.88
477.908	361.88
478.127	370.88
478.346	368.88
478.564	363.88
478.783	346.88
479.002	374.88
479.22	374.88
479.439	366.88
479.658	400.88
479.876	394.88
480.095	388.88
480.313	407.88
480.532	412.88
480.751	374.88
480.969	398.88
481.188	440.88
481.406	430.88
481.624	386.88
481.843	393.88
482.061	388.88
482.28	393.88
482.498	383.88
482.717	370.88
482.935	384.88
483.153	397.88
483.372	378.88
483.59	382.88
483.808	379.88
484.027	375.88
484.245	386.88
484.463	398.88
484.681	419.88
484.9	399.88
485.118	403.88
485.336	387.88
485.554	386.88
485.772	403.88
485.99	395.88
486.209	395.88
486.427	407.88
486.645	390.88
486.863	398.88
487.081	434.88
487.299	425.88
487.517	404.88
487.735	427.88
487.953	429.88
488.171	422.88
488.389	421.88
488.607	411.88
488.825	430.88
489.043	429.88
489.261	403.88
489.479	414.88
489.696	436.88
489.914	425.88
490.132	429.88
490.35	428.88
490.568	454.88
490.786	435.88
491.003	437.88
491.221	455.88
491.439	466.88
491.657	471.88
491.874	488.88
492.092	486.88
492.31	457.88
492.527	480.88
492.745	458.88
492.963	467.88
493.18	469.88
493.398	483.88
493.615	475.88
493.833	469.88
494.05	485.88
494.268	481.88
494.485	486.88
494.703	465.88
494.92	460.88
495.138	471.88
495.355	480.88
495.573	492.88
495.79	474.88
496.008	487.88
496.225	502.88
496.442	499.88
496.66	486.88
496.877	499.88
497.094	492.88
497.312	474.88
497.529	482.88
497.746	515.88
497.963	503.88
498.181	525.88
498.398	520.88
498.615	534.88
498.832	533.88
499.049	523.88
499.267	553.88
499.484	585.88
499.701	610.88
499.918	615.88
500.135	640.88
500.352	667.88
500.569	633.88
500.786	652.88
501.003	644.88
501.22	614.88
501.437	606.88
501.654	621.88
501.871	601.88
502.088	578.88
502.305	566.88
502.522	540.88
502.739	514.88
502.956	507.88
503.172	521.88
503.389	514.88
503.606	480.88
503.823	481.88
504.04	503.88
504.256	501.88
504.473	490.88
504.69	505.88
504.907	499.88
505.123	472.88
505.34	449.88
505.557	463.88
505.773	472.88
505.99	480.88
506.207	471.88
506.423	453.88
506.64	458.88
506.856	451.88
507.073	466.88
507.289	459.88
507.506	438.88
507.722	444.88
507.939	463.88
508.155	443.88
508.372	442.88
508.588	439.88
508.805	417.88
509.021	452.88
509.238	445.88
509.454	447.88
509.67	451.88
509.887	444.88
510.103	440.88
510.319	435.88
510.536	487.88
510.752	716.88
510.968	585.88
511.184	424.88
511.401	425.88
511.617	420.88
511.833	425.88
512.049	403.88
512.265	430.88
512.481	391.88
512.698	408.88
512.914	390.88
513.13	398.88
513.346	394.88
513.562	403.88
513.778	406.88
513.994	417.88
514.21	404.88
514.426	418.88
514.642	456.88
514.858	441.88
515.074	468.88
515.29	548.88
515.506	726.88
515.721	588.88
515.937	446.88
516.153	440.88
516.369	417.88
516.585	417.88
516.801	413.88
517.016	418.88
517.232	416.88
517.448	417.88
517.664	449.88
517.879	425.88
518.095	430.88
518.311	416.88
518.527	426.88
518.742	419.88
518.958	418.88
519.173	421.88
519.389	407.88
519.605	408.88
519.82	411.88
520.036	438.88
520.251	429.88
520.467	429.88
520.682	442.88
520.898	422.88
521.113	450.88
521.329	468.88
521.544	492.88
521.76	608.88
521.975	884.88
522.19	835.88
522.406	513.88
522.621	442.88
522.836	383.88
523.052	398.88
523.267	394.88
523.482	381.88
523.698	368.88
523.913	377.88
524.128	365.88
524.343	372.88
524.559	356.88
524.774	368.88
524.989	368.88
525.204	362.88
525.419	367.88
525.634	361.88
525.849	342.88
526.064	357.88
526.28	362.88
526.495	359.88
526.71	356.88
526.925	333.88
527.14	350.88
527.355	340.88
527.57	340.88
527.785	340.88
527.999	351.88
528.214	347.88
528.429	344.88
528.644	340.88
528.859	346.88
529.074	346.88
529.289	378.88
529.503	403.88
529.718	395.88
529.933	358.88
530.148	361.88
530.363	376.88
530.577	346.88
530.792	341.88
531.007	350.88
531.221	333.88
531.436	333.88
531.651	340.88
531.865	336.88
532.08	348.88
532.295	330.88
532.509	339.88
532.724	330.88
532.938	323.88
533.153	313.88
533.367	324.88
533.582	339.88
533.796	339.88
534.011	328.88
534.225	307.88
534.44	315.88
534.654	338.88
534.868	327.88
535.083	341.88
535.297	320.88
535.511	316.88
535.726	326.88
535.94	332.88
536.154	332.88
536.369	337.88
536.583	328.88
536.797	322.88
537.011	332.88
537.225	312.88
537.44	324.88
537.654	314.88
537.868	298.88
538.082	304.88
538.296	334.88
538.51	339.88
538.724	331.88
538.938	328.88
539.153	326.88
539.367	326.88
539.581	325.88
539.795	321.88
540.009	316.88
540.222	331.88
540.436	308.88
540.65	326.88
540.864	327.88
541.078	343.88
541.292	314.88
541.506	341.88
541.72	335.88
541.934	333.88
542.147	347.88
542.361	315.88
542.575	321.88
542.789	318.88
543.002	328.88
543.216	333.88
543.43	324.88
543.644	333.88
543.857	342.88
544.071	321.88
544.285	339.88
544.498	340.88
544.712	338.88
544.925	322.88
545.139	311.88
545.352	323.88
545.566	326.88
545.779	310.88
545.993	320.88
546.206	331.88
546.42	337.88
546.633	342.88
546.847	322.88
547.06	324.88
547.274	335.88
547.487	328.88
547.7	327.88
547.914	317.88
548.127	319.88
548.34	331.88
548.554	331.88
548.767	312.88
548.98	328.88
549.193	322.88
549.407	313.88
549.62	353.88
549.833	332.88
550.046	315.88
550.259	302.88
550.473	313.88
550.686	293.88
550.899	320.88
551.112	318.88
551.325	307.88
551.538	295.88
551.751	300.88
551.964	299.88
552.177	291.88
552.39	305.88
552.603	290.88
552.816	318.88
553.029	308.88
553.242	310.88
553.455	318.88
553.667	307.88
553.88	338.88
554.093	320.88
554.306	311.88
554.519	304.88
554.732	293.88
554.944	285.88
555.157	307.88
555.37	318.88
555.583	292.88
555.795	298.88
556.008	286.88
556.221	294.88
556.433	285.88
556.646	286.88
556.859	295.88
557.071	307.88
557.284	298.88
557.496	291.88
557.709	280.88
557.921	311.88
558.134	270.88
558.346	278.88
558.559	276.88
558.771	299.88
558.984	284.88
559.196	301.88
559.409	287.88
559.621	281.88
559.833	280.88
560.046	291.88
560.258	291.88
560.47	283.88
560.683	280.88
560.895	278.88
561.107	285.88
561.32	277.88
561.532	287.88
561.744	268.88
561.956	263.88
562.168	276.88
562.381	277.88
562.593	278.88
562.805	280.88
563.017	281.88
563.229	275.88
563.441	285.88
563.653	299.88
563.865	267.88
564.077	276.88
564.289	285.88
564.501	292.88
564.713	286.88
564.925	282.88
565.137	292.88
565.349	302.88
565.561	290.88
565.773	310.88
565.985	299.88
566.197	293.88
566.408	301.88
566.62	321.88
566.832	351.88
567.044	322.88
567.255	320.88
567.467	327.88
567.679	321.88
567.891	326.88
568.102	317.88
568.314	337.88
568.526	313.88
568.737	319.88
568.949	311.88
569.161	277.88
569.372	288.88
569.584	281.88
569.795	281.88
570.007	269.88
570.218	298.88
570.43	282.88
570.641	295.88
570.853	276.88
571.064	260.88
571.276	275.88
571.487	266.88
571.698	250.88
571.91	247.88
572.121	260.88
572.333	254.88
572.544	251.88
572.755	250.88
572.966	246.88
573.178	260.88
573.389	248.88
573.6	239.88
573.811	237.88
574.023	258.88
574.234	260.88
574.445	244.88
574.656	246.88
574.867	246.88
575.078	239.88
575.289	247.88
575.501	237.88
575.712	250.88
575.923	238.88
576.134	226.88
576.345	236.88
576.556	243.88
576.767	229.88
576.978	237.88
577.188	233.88
577.399	231.88
577.61	211.88
577.821	244.88
578.032	236.88
578.243	248.88
578.454	345.88
578.665	261.88
578.875	227.88
579.086	229.88
579.297	231.88
579.508	220.88
579.718	230.88
579.929	229.88
580.14	214.88
580.35	211.88
580.561	216.88
580.772	212.88
580.982	233.88
581.193	221.88
581.403	211.88
581.614	217.88
581.825	210.88
582.035	207.88
582.246	210.88
582.456	207.88
582.667	224.88
582.877	215.88
583.087	208.88
583.298	219.88
583.508	221.88
583.719	224.88
583.929	213.88
584.139	216.88
584.35	216.88
584.56	217.88
584.77	230.88
584.981	203.88
585.191	225.88
585.401	199.88
585.611	211.88
585.821	206.88
586.032	216.88
586.242	217.88
586.452	220.88
586.662	205.88
586.872	208.88
587.082	201.88
587.292	184.88
587.502	228.88
587.713	189.88
587.923	217.88
588.133	207.88
588.343	225.88
588.553	198.88
588.762	212.88
588.972	210.88
589.182	221.88
589.392	228.88
589.602	199.88
589.812	211.88
590.022	217.88
590.232	211.88
590.441	219.88
590.651	205.88
590.861	214.88
591.071	201.88
591.281	214.88
591.49	204.88
591.7	204.88
591.91	201.88
592.119	221.88
592.329	201.88
592.539	221.88
592.748	208.88
592.958	206.88
593.167	235.88
593.377	209.88
593.587	240.88
593.796	220.88
594.006	220.88
594.215	223.88
594.424	222.88
594.634	237.88
594.843	225.88
595.053	223.88
595.262	216.88
595.472	197.88
595.681	210.88
595.89	205.88
596.1	223.88
596.309	204.88
596.518	214.88
596.727	230.88
596.937	205.88
597.146	206.88
597.355	203.88
597.564	211.88
597.774	185.88
597.983	185.88
598.192	189.88
598.401	199.88
598.61	187.88
598.819	202.88
599.028	200.88
599.237	192.88
599.446	204.88
599.655	203.88
599.864	190.88
600.073	182.88
600.282	226.88
600.491	192.88
600.7	197.88
600.909	197.88
601.118	197.88
601.327	205.88
601.536	200.88
601.745	197.88
601.953	195.88
602.162	193.88
602.371	195.88
602.58	211.88
602.789	195.88
602.997	192.88
603.206	194.88
603.415	189.88
603.623	194.88
603.832	196.88
604.041	204.88
604.249	181.88
604.458	201.88
604.666	186.88
604.875	184.88
605.084	195.88
605.292	182.88
605.501	182.88
605.709	186.88
605.918	205.88
606.126	203.88
606.334	182.88
606.543	198.88
606.751	189.88
606.96	196.88
607.168	202.88
607.376	196.88
607.585	176.88
607.793	181.88
608.001	190.88
608.21	196.88
608.418	187.88
608.626	171.88
608.834	171.88
609.043	189.88
609.251	195.88
609.459	200.88
609.667	207.88
609.875	180.88
610.083	206.88
610.291	194.88
610.499	193.88
610.707	184.88
610.916	196.88
611.124	193.88
611.332	197.88
611.54	214.88
611.748	189.88
611.955	195.88
612.163	198.88
612.371	196.88
612.579	163.88
612.787	184.88
612.995	188.88
613.203	200.88
613.411	193.88
613.618	191.88
613.826	177.88
614.034	180.88
614.242	185.88
614.449	185.88
614.657	177.88
614.865	189.88
615.072	185.88
615.28	177.88
615.488	189.88
615.695	193.88
615.903	192.88
616.111	177.88
616.318	180.88
616.526	183.88
616.733	186.88
616.941	185.88
617.148	184.88
617.356	200.88
617.563	185.88
617.771	193.88
617.978	166.88
618.185	178.88
618.393	166.88
618.6	183.88
618.807	200.88
619.015	182.88
619.222	175.88
619.429	188.88
619.637	179.88
619.844	200.88
620.051	180.88
620.258	169.88
620.466	181.88
620.673	166.88
620.88	177.88
621.087	164.88
621.294	164.88
621.501	154.88
621.708	197.88
621.915	184.88
622.122	177.88
622.329	171.88
622.536	168.88
622.743	172.88
622.95	168.88
623.157	148.88
623.364	173.88
623.571	168.88
623.778	173.88
623.985	154.88
624.192	185.88
624.399	168.88
624.606	185.88
624.812	175.88
625.019	176.88
625.226	153.88
625.433	164.88
625.639	170.88
625.846	175.88
626.053	182.88
626.259	182.88
626.466	161.88
626.673	160.88
626.879	158.88
627.086	174.88
627.293	172.88
627.499	160.88
627.706	168.88
627.912	151.88
628.119	154.88
628.325	179.88
628.532	172.88
628.738	160.88
628.945	163.88
629.151	168.88
629.357	167.88
629.564	162.88
629.77	171.88
629.976	156.88
630.183	149.88
630.389	157.88
630.595	156.88
630.802	151.88
631.008	161.88
631.214	167.88
631.42	156.88
631.627	162.88
631.833	134.88
632.039	152.88
632.245	156.88
632.451	156.88
632.657	149.88
632.863	154.88
633.069	164.88
633.275	147.88
633.481	161.88
633.688	142.88
633.893	150.88
634.099	154.88
634.305	150.88
634.511	148.88
634.717	169.88
634.923	156.88
635.129	143.88
635.335	150.88
635.541	142.88
635.747	155.88
635.952	154.88
636.158	146.88
636.364	148.88
636.57	156.88
636.775	155.88
636.981	160.88
637.187	164.88
637.392	144.88
637.598	158.88
637.804	142.88
638.009	159.88
638.215	142.88
638.421	152.88
638.626	141.88
638.832	138.88
639.037	141.88
639.243	144.88
639.448	151.88
639.654	141.88
639.859	138.88
640.065	131.88
640.27	149.88
640.475	151.88
640.681	142.88
640.886	146.88
641.091	132.88
641.297	142.88
641.502	145.88
641.707	154.88
641.913	153.88
642.118	148.88
642.323	151.88
642.528	131.88
642.733	148.88
642.939	134.88
643.144	134.88
643.349	149.88
643.554	146.88
643.759	135.88
643.964	131.88
644.169	136.88
644.374	141.88
644.579	133.88
644.784	129.88
644.989	141.88
645.194	148.88
645.399	141.88
645.604	137.88
645.809	140.88
646.014	148.88
646.219	162.88
646.423	129.88
646.628	148.88
646.833	128.88
647.038	148.88
647.243	144.88
647.447	137.88
647.652	148.88
647.857	132.88
648.062	131.88
648.266	154.88
648.471	133.88
648.676	132.88
648.88	133.88
649.085	147.88
649.289	156.88
649.494	157.88
649.698	155.88
649.903	153.88
650.107	152.88
650.312	155.88
650.516	153.88
650.721	139.88
650.925	127.88
651.13	132.88
651.334	121.88
651.539	121.88
651.743	121.88
651.947	127.88
652.152	138.88
652.356	134.88
652.56	137.88
652.764	120.88
652.969	105.88
653.173	124.88
653.377	118.88
653.581	110.88
653.785	110.88
653.99	133.88
654.194	118.88
654.398	120.88
654.602	133.88
654.806	128.88
655.01	118.88
655.214	121.88
655.418	126.88
655.622	108.88
655.826	103.88
656.03	122.88
656.234	118.88
656.438	103.88
656.642	118.88
656.846	104.88
657.049	116.88
657.253	124.88
657.457	117.88
657.661	114.88
657.865	113.88
658.068	112.88
658.272	104.88
658.476	107.88
658.68	93.88
658.883	98.88
659.087	99.88
659.291	93.88
659.494	86.88
659.698	93.88
659.901	92.88
660.105	90.88
660.309	85.88
660.512	87.88
660.716	96.88
660.919	94.88
661.123	73.88
661.326	102.88
661.53	91.88
661.733	85.88
661.936	80.88
662.14	81.88
662.343	88.88
662.546	86.88
662.75	94.88
662.953	87.88
663.156	84.88
663.36	84.88
663.563	93.88
663.766	85.88
663.969	84.88
664.173	76.88
664.376	77.88
664.579	87.88
664.782	75.88
664.985	84.88
665.188	92.88
665.391	92.88
665.594	73.88
665.797	83.88
666	89.88
666.203	76.88
666.406	86.88
666.609	77.88
666.812	75.88
667.015	81.88
667.218	89.88
667.421	82.88
667.624	77.88
667.827	90.88
668.03	70.88
668.232	88.88
668.435	83.88
668.638	82.88
668.841	89.88
669.043	66.88
669.246	77.88
669.449	81.88
669.651	79.88
669.854	78.88
670.057	72.88
670.259	67.88
670.462	81.88
670.665	76.88
670.867	94.88
671.07	69.88
671.272	85.88
671.475	83.88
671.677	93.88
671.88	75.88
672.082	78.88
672.284	83.88
672.487	86.88
672.689	77.88
672.892	86.88
