Data from 1971.PennyLincolnUp.Lamp.En5.5.200Scan.071719.P1._HRD10591_15-17-49-841.txt Node
Date: Thu Jul 18 15:17:49 EDT 2019
User: cochatt
Spectrometer: HR+D1059
Trigger mode: 1
Integration Time (sec): 1.000000E-1
Scans to average: 1
Electric dark correction enabled: true
Nonlinearity correction enabled: false
Boxcar width: 0
XAxis mode: Wavelengths
Number of Pixels in Spectrum: 2048
>>>>>Begin Spectral Data<<<<<
223.165	-24.12
223.4	-24.12
223.635	-24.12
223.869	-19.12
224.104	-25.12
224.338	-11.12
224.573	-11.12
224.808	-24.12
225.042	-17.12
225.277	5.88
225.511	-2.12
225.746	0.88
225.98	15.88
226.215	8.88
226.449	22.88
226.683	16.88
226.918	26.88
227.152	35.88
227.387	31.88
227.621	24.88
227.856	34.88
228.09	27.88
228.324	50.88
228.559	50.88
228.793	65.88
229.027	72.88
229.262	95.88
229.496	78.88
229.73	87.88
229.964	110.88
230.199	96.88
230.433	96.88
230.667	94.88
230.901	85.88
231.136	89.88
231.37	99.88
231.604	86.88
231.838	95.88
232.072	105.88
232.306	109.88
232.541	109.88
232.775	91.88
233.009	94.88
233.243	116.88
233.477	113.88
233.711	120.88
233.945	108.88
234.179	97.88
234.413	116.88
234.647	103.88
234.881	106.88
235.115	111.88
235.349	96.88
235.583	98.88
235.817	99.88
236.051	113.88
236.285	101.88
236.519	102.88
236.753	110.88
236.987	125.88
237.221	126.88
237.455	153.88
237.689	144.88
237.922	112.88
238.156	114.88
238.39	109.88
238.624	95.88
238.858	112.88
239.091	110.88
239.325	118.88
239.559	103.88
239.793	96.88
240.027	106.88
240.26	118.88
240.494	129.88
240.728	128.88
240.961	120.88
241.195	121.88
241.429	114.88
241.662	114.88
241.896	122.88
242.13	116.88
242.363	116.88
242.597	114.88
242.83	119.88
243.064	106.88
243.298	123.88
243.531	122.88
243.765	124.88
243.998	124.88
244.232	131.88
244.465	122.88
244.699	128.88
244.932	122.88
245.166	125.88
245.399	119.88
245.633	118.88
245.866	131.88
246.099	123.88
246.333	129.88
246.566	132.88
246.8	144.88
247.033	130.88
247.266	138.88
247.5	154.88
247.733	136.88
247.966	134.88
248.2	140.88
248.433	149.88
248.666	145.88
248.899	160.88
249.133	164.88
249.366	155.88
249.599	148.88
249.832	146.88
250.066	148.88
250.299	161.88
250.532	158.88
250.765	152.88
250.998	176.88
251.231	178.88
251.465	164.88
251.698	178.88
251.931	179.88
252.164	151.88
252.397	162.88
252.63	172.88
252.863	181.88
253.096	186.88
253.329	185.88
253.562	195.88
253.795	172.88
254.028	190.88
254.261	177.88
254.494	186.88
254.727	202.88
254.96	209.88
255.193	221.88
255.426	213.88
255.659	184.88
255.892	198.88
256.124	169.88
256.357	180.88
256.59	186.88
256.823	180.88
257.056	186.88
257.289	175.88
257.521	188.88
257.754	178.88
257.987	192.88
258.22	193.88
258.452	179.88
258.685	167.88
258.918	166.88
259.151	170.88
259.383	182.88
259.616	192.88
259.849	200.88
260.081	194.88
260.314	200.88
260.547	210.88
260.779	198.88
261.012	185.88
261.244	187.88
261.477	185.88
261.71	189.88
261.942	179.88
262.175	193.88
262.407	185.88
262.64	173.88
262.872	177.88
263.105	210.88
263.337	180.88
263.57	169.88
263.802	180.88
264.035	190.88
264.267	189.88
264.499	183.88
264.732	179.88
264.964	180.88
265.197	194.88
265.429	184.88
265.661	190.88
265.894	189.88
266.126	180.88
266.358	191.88
266.591	200.88
266.823	202.88
267.055	213.88
267.287	193.88
267.52	178.88
267.752	189.88
267.984	206.88
268.216	204.88
268.448	208.88
268.681	184.88
268.913	213.88
269.145	216.88
269.377	222.88
269.609	227.88
269.841	212.88
270.073	216.88
270.306	238.88
270.538	238.88
270.77	257.88
271.002	242.88
271.234	239.88
271.466	246.88
271.698	243.88
271.93	257.88
272.162	250.88
272.394	268.88
272.626	241.88
272.858	231.88
273.09	236.88
273.322	217.88
273.553	235.88
273.785	225.88
274.017	241.88
274.249	220.88
274.481	210.88
274.713	212.88
274.945	218.88
275.176	198.88
275.408	224.88
275.64	219.88
275.872	230.88
276.104	216.88
276.335	211.88
276.567	236.88
276.799	223.88
277.031	252.88
277.262	273.88
277.494	261.88
277.726	244.88
277.957	217.88
278.189	248.88
278.421	229.88
278.652	226.88
278.884	230.88
279.115	230.88
279.347	236.88
279.579	229.88
279.81	227.88
280.042	225.88
280.273	222.88
280.505	226.88
280.736	222.88
280.968	222.88
281.199	241.88
281.431	237.88
281.662	238.88
281.894	231.88
282.125	245.88
282.356	233.88
282.588	249.88
282.819	240.88
283.051	244.88
283.282	220.88
283.513	238.88
283.745	249.88
283.976	242.88
284.207	247.88
284.439	239.88
284.67	231.88
284.901	243.88
285.132	247.88
285.364	237.88
285.595	226.88
285.826	242.88
286.057	230.88
286.288	233.88
286.52	241.88
286.751	246.88
286.982	251.88
287.213	256.88
287.444	237.88
287.675	238.88
287.906	240.88
288.138	236.88
288.369	233.88
288.6	262.88
288.831	265.88
289.062	255.88
289.293	264.88
289.524	243.88
289.755	255.88
289.986	259.88
290.217	247.88
290.448	248.88
290.679	246.88
290.91	259.88
291.141	258.88
291.371	251.88
291.602	259.88
291.833	238.88
292.064	238.88
292.295	252.88
292.526	239.88
292.757	240.88
292.987	256.88
293.218	243.88
293.449	244.88
293.68	250.88
293.91	256.88
294.141	258.88
294.372	256.88
294.603	244.88
294.833	248.88
295.064	253.88
295.295	241.88
295.525	250.88
295.756	236.88
295.987	256.88
296.217	269.88
296.448	263.88
296.679	268.88
296.909	240.88
297.14	258.88
297.37	261.88
297.601	265.88
297.831	248.88
298.062	271.88
298.292	266.88
298.523	260.88
298.753	269.88
298.984	269.88
299.214	270.88
299.445	266.88
299.675	261.88
299.905	266.88
300.136	279.88
300.366	274.88
300.597	270.88
300.827	265.88
301.057	293.88
301.288	280.88
301.518	256.88
301.748	248.88
301.979	270.88
302.209	279.88
302.439	273.88
302.669	272.88
302.9	268.88
303.13	271.88
303.36	303.88
303.59	275.88
303.82	275.88
304.051	288.88
304.281	287.88
304.511	276.88
304.741	290.88
304.971	286.88
305.201	276.88
305.431	300.88
305.661	286.88
305.891	272.88
306.121	272.88
306.352	285.88
306.582	281.88
306.812	277.88
307.042	271.88
307.272	281.88
307.502	288.88
307.731	274.88
307.961	277.88
308.191	276.88
308.421	281.88
308.651	287.88
308.881	289.88
309.111	278.88
309.341	278.88
309.571	306.88
309.8	300.88
310.03	292.88
310.26	289.88
310.49	309.88
310.72	317.88
310.949	304.88
311.179	311.88
311.409	305.88
311.639	311.88
311.868	293.88
312.098	306.88
312.328	316.88
312.557	328.88
312.787	327.88
313.017	302.88
313.246	308.88
313.476	313.88
313.706	292.88
313.935	300.88
314.165	311.88
314.394	324.88
314.624	315.88
314.853	326.88
315.083	312.88
315.312	317.88
315.542	291.88
315.771	319.88
316.001	304.88
316.23	300.88
316.46	289.88
316.689	342.88
316.919	320.88
317.148	316.88
317.377	306.88
317.607	301.88
317.836	317.88
318.065	330.88
318.295	329.88
318.524	296.88
318.753	306.88
318.983	310.88
319.212	320.88
319.441	324.88
319.67	339.88
319.9	312.88
320.129	309.88
320.358	317.88
320.587	305.88
320.816	317.88
321.046	338.88
321.275	329.88
321.504	310.88
321.733	337.88
321.962	326.88
322.191	330.88
322.42	329.88
322.649	348.88
322.878	372.88
323.108	361.88
323.337	372.88
323.566	380.88
323.795	386.88
324.024	407.88
324.253	471.88
324.482	640.88
324.71	925.88
324.939	1225.88
325.168	1048.88
325.397	592.88
325.626	439.88
325.855	386.88
326.084	388.88
326.313	367.88
326.542	346.88
326.77	384.88
326.999	444.88
327.228	586.88
327.457	801.88
327.686	935.88
327.914	654.88
328.143	468.88
328.372	449.88
328.6	417.88
328.829	384.88
329.058	386.88
329.287	384.88
329.515	391.88
329.744	372.88
329.972	392.88
330.201	375.88
330.43	395.88
330.658	424.88
330.887	421.88
331.115	411.88
331.344	388.88
331.572	352.88
331.801	370.88
332.03	373.88
332.258	361.88
332.486	343.88
332.715	355.88
332.943	360.88
333.172	356.88
333.4	357.88
333.629	360.88
333.857	378.88
334.085	367.88
334.314	389.88
334.542	390.88
334.771	393.88
334.999	380.88
335.227	370.88
335.455	386.88
335.684	359.88
335.912	366.88
336.14	355.88
336.369	355.88
336.597	357.88
336.825	383.88
337.053	335.88
337.281	366.88
337.51	357.88
337.738	345.88
337.966	360.88
338.194	377.88
338.422	355.88
338.65	369.88
338.878	348.88
339.106	343.88
339.334	342.88
339.562	336.88
339.79	341.88
340.018	351.88
340.246	356.88
340.474	370.88
340.702	350.88
340.93	342.88
341.158	346.88
341.386	344.88
341.614	333.88
341.842	349.88
342.07	345.88
342.298	334.88
342.526	351.88
342.754	332.88
342.981	345.88
343.209	361.88
343.437	323.88
343.665	364.88
343.893	364.88
344.12	354.88
344.348	341.88
344.576	358.88
344.804	345.88
345.031	339.88
345.259	341.88
345.487	361.88
345.714	355.88
345.942	326.88
346.17	339.88
346.397	325.88
346.625	328.88
346.853	330.88
347.08	317.88
347.308	304.88
347.535	342.88
347.763	329.88
347.99	329.88
348.218	316.88
348.445	336.88
348.673	324.88
348.9	336.88
349.128	330.88
349.355	320.88
349.583	317.88
349.81	316.88
350.037	313.88
350.265	331.88
350.492	321.88
350.72	298.88
350.947	337.88
351.174	329.88
351.402	345.88
351.629	336.88
351.856	330.88
352.083	324.88
352.311	328.88
352.538	336.88
352.765	327.88
352.992	324.88
353.22	324.88
353.447	340.88
353.674	323.88
353.901	311.88
354.128	300.88
354.355	334.88
354.583	301.88
354.81	317.88
355.037	334.88
355.264	311.88
355.491	343.88
355.718	310.88
355.945	314.88
356.172	301.88
356.399	303.88
356.626	318.88
356.853	320.88
357.08	310.88
357.307	295.88
357.534	295.88
357.761	314.88
357.988	314.88
358.215	319.88
358.441	302.88
358.668	304.88
358.895	323.88
359.122	320.88
359.349	335.88
359.576	328.88
359.802	329.88
360.029	329.88
360.256	346.88
360.483	340.88
360.709	318.88
360.936	312.88
361.163	309.88
361.39	323.88
361.616	323.88
361.843	304.88
362.07	317.88
362.296	316.88
362.523	298.88
362.749	308.88
362.976	306.88
363.203	318.88
363.429	310.88
363.656	305.88
363.882	307.88
364.109	293.88
364.335	317.88
364.562	317.88
364.788	290.88
365.015	310.88
365.241	304.88
365.468	306.88
365.694	295.88
365.92	315.88
366.147	304.88
366.373	306.88
366.599	295.88
366.826	286.88
367.052	305.88
367.278	322.88
367.505	339.88
367.731	325.88
367.957	311.88
368.184	302.88
368.41	312.88
368.636	322.88
368.862	320.88
369.089	328.88
369.315	304.88
369.541	296.88
369.767	326.88
369.993	308.88
370.219	293.88
370.445	316.88
370.672	310.88
370.898	304.88
371.124	313.88
371.35	320.88
371.576	318.88
371.802	305.88
372.028	290.88
372.254	318.88
372.48	314.88
372.706	315.88
372.932	325.88
373.158	312.88
373.384	321.88
373.61	307.88
373.835	318.88
374.061	315.88
374.287	316.88
374.513	304.88
374.739	326.88
374.965	321.88
375.191	303.88
375.416	313.88
375.642	327.88
375.868	311.88
376.094	292.88
376.319	301.88
376.545	304.88
376.771	309.88
376.997	326.88
377.222	318.88
377.448	304.88
377.674	306.88
377.899	302.88
378.125	295.88
378.35	303.88
378.576	301.88
378.802	293.88
379.027	302.88
379.253	312.88
379.478	305.88
379.704	316.88
379.929	309.88
380.155	317.88
380.38	296.88
380.606	320.88
380.831	308.88
381.057	312.88
381.282	292.88
381.507	305.88
381.733	298.88
381.958	307.88
382.184	316.88
382.409	305.88
382.634	304.88
382.86	293.88
383.085	321.88
383.31	321.88
383.535	305.88
383.761	315.88
383.986	312.88
384.211	314.88
384.436	318.88
384.662	307.88
384.887	311.88
385.112	312.88
385.337	324.88
385.562	331.88
385.787	318.88
386.013	340.88
386.238	325.88
386.463	333.88
386.688	341.88
386.913	323.88
387.138	309.88
387.363	325.88
387.588	320.88
387.813	308.88
388.038	320.88
388.263	324.88
388.488	330.88
388.713	329.88
388.938	333.88
389.163	311.88
389.387	319.88
389.612	316.88
389.837	310.88
390.062	314.88
390.287	323.88
390.512	334.88
390.736	316.88
390.961	317.88
391.186	342.88
391.411	323.88
391.636	329.88
391.86	341.88
392.085	343.88
392.31	329.88
392.534	343.88
392.759	327.88
392.984	342.88
393.208	338.88
393.433	353.88
393.658	366.88
393.882	328.88
394.107	332.88
394.331	324.88
394.556	329.88
394.78	340.88
395.005	327.88
395.229	330.88
395.454	325.88
395.678	330.88
395.903	345.88
396.127	356.88
396.352	356.88
396.576	317.88
396.801	333.88
397.025	367.88
397.249	343.88
397.474	341.88
397.698	325.88
397.922	341.88
398.147	346.88
398.371	359.88
398.595	381.88
398.82	359.88
399.044	366.88
399.268	358.88
399.492	398.88
399.717	418.88
399.941	435.88
400.165	423.88
400.389	431.88
400.613	404.88
400.837	372.88
401.062	377.88
401.286	363.88
401.51	362.88
401.734	360.88
401.958	366.88
402.182	372.88
402.406	356.88
402.63	358.88
402.854	367.88
403.078	367.88
403.302	359.88
403.526	386.88
403.75	361.88
403.974	375.88
404.198	369.88
404.422	362.88
404.645	358.88
404.869	367.88
405.093	392.88
405.317	408.88
405.541	428.88
405.765	378.88
405.988	368.88
406.212	393.88
406.436	392.88
406.66	394.88
406.883	382.88
407.107	400.88
407.331	408.88
407.555	463.88
407.778	462.88
408.002	432.88
408.226	414.88
408.449	410.88
408.673	395.88
408.896	422.88
409.12	431.88
409.344	406.88
409.567	396.88
409.791	374.88
410.014	377.88
410.238	359.88
410.461	378.88
410.685	364.88
410.908	386.88
411.132	416.88
411.355	426.88
411.578	409.88
411.802	370.88
412.025	348.88
412.249	354.88
412.472	373.88
412.695	390.88
412.919	397.88
413.142	372.88
413.365	353.88
413.589	358.88
413.812	345.88
414.035	353.88
414.258	353.88
414.482	360.88
414.705	336.88
414.928	365.88
415.151	357.88
415.374	342.88
415.597	337.88
415.821	337.88
416.044	357.88
416.267	354.88
416.49	333.88
416.713	347.88
416.936	333.88
417.159	337.88
417.382	352.88
417.605	372.88
417.828	369.88
418.051	340.88
418.274	355.88
418.497	342.88
418.72	342.88
418.943	346.88
419.166	361.88
419.389	345.88
419.611	381.88
419.834	374.88
420.057	349.88
420.28	359.88
420.503	357.88
420.726	359.88
420.948	358.88
421.171	400.88
421.394	396.88
421.617	370.88
421.839	357.88
422.062	354.88
422.285	362.88
422.507	416.88
422.73	444.88
422.953	436.88
423.175	392.88
423.398	365.88
423.621	365.88
423.843	391.88
424.066	375.88
424.288	392.88
424.511	406.88
424.733	432.88
424.956	464.88
425.178	448.88
425.401	440.88
425.623	475.88
425.846	419.88
426.068	388.88
426.291	373.88
426.513	380.88
426.735	382.88
426.958	405.88
427.18	456.88
427.402	528.88
427.625	594.88
427.847	496.88
428.069	424.88
428.292	397.88
428.514	357.88
428.736	357.88
428.958	340.88
429.181	345.88
429.403	349.88
429.625	328.88
429.847	383.88
430.069	429.88
430.292	427.88
430.514	372.88
430.736	360.88
430.958	350.88
431.18	335.88
431.402	313.88
431.624	318.88
431.846	342.88
432.068	334.88
432.29	352.88
432.512	330.88
432.734	355.88
432.956	352.88
433.178	364.88
433.4	338.88
433.622	337.88
433.844	349.88
434.066	353.88
434.287	348.88
434.509	340.88
434.731	349.88
434.953	336.88
435.175	349.88
435.397	344.88
435.618	385.88
435.84	388.88
436.062	448.88
436.284	477.88
436.505	416.88
436.727	374.88
436.949	377.88
437.17	359.88
437.392	345.88
437.614	353.88
437.835	368.88
438.057	417.88
438.278	489.88
438.5	486.88
438.721	530.88
438.943	536.88
439.165	431.88
439.386	380.88
439.608	384.88
439.829	383.88
440.05	373.88
440.272	423.88
440.493	386.88
440.715	366.88
440.936	352.88
441.158	352.88
441.379	368.88
441.6	341.88
441.822	373.88
442.043	402.88
442.264	438.88
442.486	465.88
442.707	405.88
442.928	405.88
443.149	379.88
443.371	412.88
443.592	433.88
443.813	477.88
444.034	529.88
444.255	439.88
444.476	394.88
444.698	390.88
444.919	377.88
445.14	493.88
445.361	425.88
445.582	418.88
445.803	414.88
446.024	490.88
446.245	506.88
446.466	432.88
446.687	410.88
446.908	399.88
447.129	354.88
447.35	342.88
447.571	342.88
447.792	352.88
448.013	369.88
448.234	372.88
448.455	391.88
448.675	453.88
448.896	555.88
449.117	465.88
449.338	453.88
449.559	477.88
449.779	547.88
450	450.88
450.221	367.88
450.442	337.88
450.662	331.88
450.883	334.88
451.104	357.88
451.324	344.88
451.545	325.88
451.766	332.88
451.986	316.88
452.207	309.88
452.428	324.88
452.648	318.88
452.869	302.88
453.089	322.88
453.31	327.88
453.53	325.88
453.751	301.88
453.971	305.88
454.192	285.88
454.412	298.88
454.633	317.88
454.853	317.88
455.073	306.88
455.294	335.88
455.514	361.88
455.734	352.88
455.955	312.88
456.175	307.88
456.395	294.88
456.616	305.88
456.836	302.88
457.056	285.88
457.276	280.88
457.497	297.88
457.717	295.88
457.937	283.88
458.157	304.88
458.377	309.88
458.598	309.88
458.818	326.88
459.038	373.88
459.258	398.88
459.478	337.88
459.698	317.88
459.918	326.88
460.138	332.88
460.358	334.88
460.578	335.88
460.798	346.88
461.018	317.88
461.238	331.88
461.458	342.88
461.678	339.88
461.898	351.88
462.118	343.88
462.338	335.88
462.558	367.88
462.777	350.88
462.997	384.88
463.217	364.88
463.437	340.88
463.657	366.88
463.876	362.88
464.096	362.88
464.316	345.88
464.536	354.88
464.755	352.88
464.975	348.88
465.195	364.88
465.414	376.88
465.634	346.88
465.854	346.88
466.073	335.88
466.293	328.88
466.512	332.88
466.732	310.88
466.951	316.88
467.171	320.88
467.391	324.88
467.61	321.88
467.829	320.88
468.049	332.88
468.268	318.88
468.488	304.88
468.707	306.88
468.927	312.88
469.146	299.88
469.365	321.88
469.585	310.88
469.804	325.88
470.023	329.88
470.243	335.88
470.462	344.88
470.681	345.88
470.901	330.88
471.12	316.88
471.339	327.88
471.558	328.88
471.777	340.88
471.997	297.88
472.216	345.88
472.435	342.88
472.654	330.88
472.873	350.88
473.092	320.88
473.311	317.88
473.53	310.88
473.749	324.88
473.968	366.88
474.187	416.88
474.406	432.88
474.625	348.88
474.844	360.88
475.063	329.88
475.282	333.88
475.501	318.88
475.72	318.88
475.939	320.88
476.158	342.88
476.377	350.88
476.596	337.88
476.814	330.88
477.033	348.88
477.252	327.88
477.471	320.88
477.69	351.88
477.908	351.88
478.127	353.88
478.346	358.88
478.564	368.88
478.783	366.88
479.002	358.88
479.22	373.88
479.439	366.88
479.658	380.88
479.876	378.88
480.095	378.88
480.313	377.88
480.532	384.88
480.751	378.88
480.969	400.88
481.188	395.88
481.406	418.88
481.624	404.88
481.843	372.88
482.061	373.88
482.28	365.88
482.498	364.88
482.717	376.88
482.935	386.88
483.153	381.88
483.372	402.88
483.59	374.88
483.808	377.88
484.027	371.88
484.245	358.88
484.463	372.88
484.681	386.88
484.9	380.88
485.118	381.88
485.336	374.88
485.554	375.88
485.772	369.88
485.99	394.88
486.209	376.88
486.427	381.88
486.645	382.88
486.863	401.88
487.081	402.88
487.299	410.88
487.517	390.88
487.735	405.88
487.953	398.88
488.171	386.88
488.389	399.88
488.607	398.88
488.825	398.88
489.043	400.88
489.261	422.88
489.479	406.88
489.696	393.88
489.914	395.88
490.132	405.88
490.35	405.88
490.568	398.88
490.786	437.88
491.003	444.88
491.221	426.88
491.439	436.88
491.657	445.88
491.874	445.88
492.092	454.88
492.31	466.88
492.527	452.88
492.745	448.88
492.963	440.88
493.18	472.88
493.398	473.88
493.615	463.88
493.833	468.88
494.05	451.88
494.268	464.88
494.485	466.88
494.703	450.88
494.92	454.88
495.138	465.88
495.355	465.88
495.573	451.88
495.79	464.88
496.008	457.88
496.225	461.88
496.442	455.88
496.66	482.88
496.877	478.88
497.094	475.88
497.312	463.88
497.529	482.88
497.746	496.88
497.963	512.88
498.181	521.88
498.398	513.88
498.615	527.88
498.832	556.88
499.049	524.88
499.267	545.88
499.484	562.88
499.701	592.88
499.918	610.88
500.135	630.88
500.352	640.88
500.569	651.88
500.786	628.88
501.003	649.88
501.22	629.88
501.437	611.88
501.654	590.88
501.871	576.88
502.088	564.88
502.305	535.88
502.522	524.88
502.739	530.88
502.956	494.88
503.172	487.88
503.389	508.88
503.606	478.88
503.823	496.88
504.04	466.88
504.256	494.88
504.473	472.88
504.69	462.88
504.907	466.88
505.123	452.88
505.34	454.88
505.557	444.88
505.773	450.88
505.99	452.88
506.207	433.88
506.423	430.88
506.64	432.88
506.856	443.88
507.073	426.88
507.289	436.88
507.506	432.88
507.722	432.88
507.939	421.88
508.155	398.88
508.372	414.88
508.588	402.88
508.805	423.88
509.021	410.88
509.238	416.88
509.454	433.88
509.67	411.88
509.887	400.88
510.103	406.88
510.319	416.88
510.536	456.88
510.752	611.88
510.968	521.88
511.184	408.88
511.401	400.88
511.617	381.88
511.833	392.88
512.049	372.88
512.265	382.88
512.481	376.88
512.698	372.88
512.914	386.88
513.13	370.88
513.346	377.88
513.562	389.88
513.778	381.88
513.994	406.88
514.21	385.88
514.426	400.88
514.642	407.88
514.858	427.88
515.074	458.88
515.29	477.88
515.506	597.88
515.721	523.88
515.937	438.88
516.153	414.88
516.369	402.88
516.585	391.88
516.801	374.88
517.016	394.88
517.232	414.88
517.448	407.88
517.664	412.88
517.879	436.88
518.095	402.88
518.311	393.88
518.527	411.88
518.742	403.88
518.958	393.88
519.173	396.88
519.389	388.88
519.605	408.88
519.82	389.88
520.036	400.88
520.251	403.88
520.467	412.88
520.682	420.88
520.898	404.88
521.113	405.88
521.329	419.88
521.544	441.88
521.76	513.88
521.975	741.88
522.19	704.88
522.406	469.88
522.621	387.88
522.836	378.88
523.052	383.88
523.267	368.88
523.482	366.88
523.698	351.88
523.913	382.88
524.128	352.88
524.343	364.88
524.559	366.88
524.774	342.88
524.989	353.88
525.204	362.88
525.419	359.88
525.634	332.88
525.849	331.88
526.064	341.88
526.28	345.88
526.495	338.88
526.71	339.88
526.925	344.88
527.14	340.88
527.355	328.88
527.57	312.88
527.785	316.88
527.999	344.88
528.214	363.88
528.429	344.88
528.644	356.88
528.859	328.88
529.074	333.88
529.289	357.88
529.503	373.88
529.718	378.88
529.933	340.88
530.148	314.88
530.363	332.88
530.577	335.88
530.792	342.88
531.007	324.88
531.221	328.88
531.436	309.88
531.651	312.88
531.865	326.88
532.08	322.88
532.295	338.88
532.509	313.88
532.724	312.88
532.938	321.88
533.153	303.88
533.367	316.88
533.582	331.88
533.796	332.88
534.011	310.88
534.225	306.88
534.44	315.88
534.654	321.88
534.868	322.88
535.083	312.88
535.297	326.88
535.511	317.88
535.726	316.88
535.94	333.88
536.154	304.88
536.369	306.88
536.583	309.88
536.797	312.88
537.011	342.88
537.225	307.88
537.44	310.88
537.654	312.88
537.868	312.88
538.082	316.88
538.296	304.88
538.51	310.88
538.724	314.88
538.938	305.88
539.153	304.88
539.367	318.88
539.581	314.88
539.795	317.88
540.009	298.88
540.222	313.88
540.436	297.88
540.65	351.88
540.864	320.88
541.078	321.88
541.292	322.88
541.506	313.88
541.72	321.88
541.934	320.88
542.147	339.88
542.361	340.88
542.575	327.88
542.789	319.88
543.002	301.88
543.216	309.88
543.43	321.88
543.644	322.88
543.857	316.88
544.071	317.88
544.285	342.88
544.498	324.88
544.712	320.88
544.925	324.88
545.139	339.88
545.352	300.88
545.566	319.88
545.779	306.88
545.993	298.88
546.206	299.88
546.42	334.88
546.633	325.88
546.847	313.88
547.06	316.88
547.274	311.88
547.487	316.88
547.7	314.88
547.914	324.88
548.127	306.88
548.34	319.88
548.554	332.88
548.767	313.88
548.98	316.88
549.193	318.88
549.407	320.88
549.62	318.88
549.833	317.88
550.046	317.88
550.259	312.88
550.473	316.88
550.686	327.88
550.899	314.88
551.112	303.88
551.325	285.88
551.538	302.88
551.751	315.88
551.964	308.88
552.177	311.88
552.39	310.88
552.603	306.88
552.816	318.88
553.029	298.88
553.242	311.88
553.455	315.88
553.667	330.88
553.88	328.88
554.093	317.88
554.306	295.88
554.519	322.88
554.732	289.88
554.944	295.88
555.157	290.88
555.37	298.88
555.583	290.88
555.795	302.88
556.008	280.88
556.221	293.88
556.433	287.88
556.646	308.88
556.859	294.88
557.071	288.88
557.284	278.88
557.496	274.88
557.709	282.88
557.921	293.88
558.134	291.88
558.346	289.88
558.559	264.88
558.771	284.88
558.984	271.88
559.196	264.88
559.409	256.88
559.621	273.88
559.833	282.88
560.046	270.88
560.258	282.88
560.47	282.88
560.683	280.88
560.895	280.88
561.107	289.88
561.32	256.88
561.532	261.88
561.744	283.88
561.956	281.88
562.168	269.88
562.381	270.88
562.593	295.88
562.805	275.88
563.017	280.88
563.229	285.88
563.441	275.88
563.653	286.88
563.865	287.88
564.077	291.88
564.289	286.88
564.501	277.88
564.713	290.88
564.925	321.88
565.137	285.88
565.349	305.88
565.561	302.88
565.773	297.88
565.985	309.88
566.197	306.88
566.408	325.88
566.62	336.88
566.832	323.88
567.044	328.88
567.255	333.88
567.467	329.88
567.679	338.88
567.891	318.88
568.102	333.88
568.314	324.88
568.526	324.88
568.737	313.88
568.949	281.88
569.161	253.88
569.372	281.88
569.584	263.88
569.795	290.88
570.007	284.88
570.218	304.88
570.43	292.88
570.641	270.88
570.853	251.88
571.064	284.88
571.276	254.88
571.487	274.88
571.698	258.88
571.91	246.88
572.121	244.88
572.333	266.88
572.544	256.88
572.755	253.88
572.966	226.88
573.178	238.88
573.389	234.88
573.6	236.88
573.811	233.88
574.023	233.88
574.234	241.88
574.445	252.88
574.656	223.88
574.867	230.88
575.078	248.88
575.289	230.88
575.501	232.88
575.712	232.88
575.923	213.88
576.134	236.88
576.345	233.88
576.556	240.88
576.767	223.88
576.978	245.88
577.188	220.88
577.399	226.88
577.61	239.88
577.821	214.88
578.032	230.88
578.243	239.88
578.454	327.88
578.665	266.88
578.875	237.88
579.086	212.88
579.297	216.88
579.508	222.88
579.718	223.88
579.929	222.88
580.14	194.88
580.35	214.88
580.561	221.88
580.772	225.88
580.982	230.88
581.193	218.88
581.403	206.88
581.614	209.88
581.825	217.88
582.035	224.88
582.246	217.88
582.456	215.88
582.667	197.88
582.877	209.88
583.087	199.88
583.298	231.88
583.508	201.88
583.719	203.88
583.929	214.88
584.139	219.88
584.35	212.88
584.56	211.88
584.77	205.88
584.981	220.88
585.191	215.88
585.401	212.88
585.611	193.88
585.821	212.88
586.032	213.88
586.242	211.88
586.452	222.88
586.662	210.88
586.872	212.88
587.082	199.88
587.292	208.88
587.502	209.88
587.713	196.88
587.923	239.88
588.133	213.88
588.343	212.88
588.553	201.88
588.762	215.88
588.972	214.88
589.182	206.88
589.392	213.88
589.602	224.88
589.812	226.88
590.022	220.88
590.232	220.88
590.441	200.88
590.651	228.88
590.861	197.88
591.071	200.88
591.281	199.88
591.49	205.88
591.7	206.88
591.91	221.88
592.119	224.88
592.329	218.88
592.539	210.88
592.748	224.88
592.958	208.88
593.167	216.88
593.377	226.88
593.587	232.88
593.796	212.88
594.006	230.88
594.215	216.88
594.424	226.88
594.634	218.88
594.843	208.88
595.053	211.88
595.262	213.88
595.472	193.88
595.681	216.88
595.89	200.88
596.1	194.88
596.309	197.88
596.518	218.88
596.727	213.88
596.937	193.88
597.146	205.88
597.355	208.88
597.564	181.88
597.774	199.88
597.983	198.88
598.192	189.88
598.401	197.88
598.61	196.88
598.819	181.88
599.028	189.88
599.237	178.88
599.446	182.88
599.655	192.88
599.864	186.88
600.073	207.88
600.282	208.88
600.491	196.88
600.7	197.88
600.909	185.88
601.118	198.88
601.327	187.88
601.536	193.88
601.745	186.88
601.953	198.88
602.162	185.88
602.371	198.88
602.58	187.88
602.789	206.88
602.997	191.88
603.206	187.88
603.415	202.88
603.623	199.88
603.832	192.88
604.041	183.88
604.249	172.88
604.458	185.88
604.666	185.88
604.875	174.88
605.084	183.88
605.292	186.88
605.501	194.88
605.709	187.88
605.918	195.88
606.126	193.88
606.334	199.88
606.543	179.88
606.751	179.88
606.96	176.88
607.168	185.88
607.376	189.88
607.585	184.88
607.793	188.88
608.001	201.88
608.21	170.88
608.418	184.88
608.626	166.88
608.834	198.88
609.043	186.88
609.251	176.88
609.459	175.88
609.667	180.88
609.875	163.88
610.083	200.88
610.291	189.88
610.499	199.88
610.707	192.88
610.916	198.88
611.124	200.88
611.332	188.88
611.54	182.88
611.748	195.88
611.955	188.88
612.163	202.88
612.371	210.88
612.579	187.88
612.787	188.88
612.995	180.88
613.203	193.88
613.411	189.88
613.618	163.88
613.826	167.88
614.034	183.88
614.242	202.88
614.449	183.88
614.657	186.88
614.865	177.88
615.072	170.88
615.28	164.88
615.488	186.88
615.695	184.88
615.903	195.88
616.111	170.88
616.318	207.88
616.526	181.88
616.733	206.88
616.941	180.88
617.148	190.88
617.356	192.88
617.563	191.88
617.771	173.88
617.978	180.88
618.185	186.88
618.393	176.88
618.6	160.88
618.807	169.88
619.015	176.88
619.222	173.88
619.429	166.88
619.637	184.88
619.844	176.88
620.051	163.88
620.258	172.88
620.466	166.88
620.673	160.88
620.88	164.88
621.087	165.88
621.294	173.88
621.501	180.88
621.708	168.88
621.915	164.88
622.122	160.88
622.329	182.88
622.536	182.88
622.743	176.88
622.95	169.88
623.157	168.88
623.364	181.88
623.571	175.88
623.778	190.88
623.985	168.88
624.192	162.88
624.399	168.88
624.606	187.88
624.812	163.88
625.019	162.88
625.226	153.88
625.433	177.88
625.639	170.88
625.846	154.88
626.053	173.88
626.259	162.88
626.466	163.88
626.673	178.88
626.879	144.88
627.086	158.88
627.293	161.88
627.499	146.88
627.706	150.88
627.912	159.88
628.119	169.88
628.325	150.88
628.532	148.88
628.738	165.88
628.945	158.88
629.151	158.88
629.357	152.88
629.564	157.88
629.77	164.88
629.976	153.88
630.183	144.88
630.389	147.88
630.595	136.88
630.802	143.88
631.008	136.88
631.214	160.88
631.42	164.88
631.627	141.88
631.833	151.88
632.039	138.88
632.245	160.88
632.451	148.88
632.657	161.88
632.863	150.88
633.069	142.88
633.275	146.88
633.481	165.88
633.688	149.88
633.893	144.88
634.099	139.88
634.305	147.88
634.511	154.88
634.717	149.88
634.923	145.88
635.129	145.88
635.335	134.88
635.541	136.88
635.747	140.88
635.952	145.88
636.158	171.88
636.364	137.88
636.57	145.88
636.775	148.88
636.981	151.88
637.187	147.88
637.392	153.88
637.598	136.88
637.804	129.88
638.009	139.88
638.215	140.88
638.421	157.88
638.626	146.88
638.832	144.88
639.037	134.88
639.243	128.88
639.448	143.88
639.654	155.88
639.859	136.88
640.065	148.88
640.27	144.88
640.475	151.88
640.681	144.88
640.886	130.88
641.091	146.88
641.297	139.88
641.502	148.88
641.707	153.88
641.913	128.88
642.118	158.88
642.323	135.88
642.528	145.88
642.733	144.88
642.939	146.88
643.144	137.88
643.349	146.88
643.554	131.88
643.759	132.88
643.964	132.88
644.169	151.88
644.374	143.88
644.579	141.88
644.784	149.88
644.989	144.88
645.194	124.88
645.399	130.88
645.604	137.88
645.809	125.88
646.014	129.88
646.219	130.88
646.423	150.88
646.628	123.88
646.833	120.88
647.038	132.88
647.243	139.88
647.447	146.88
647.652	134.88
647.857	121.88
648.062	141.88
648.266	135.88
648.471	150.88
648.676	150.88
648.88	151.88
649.085	140.88
649.289	129.88
649.494	130.88
649.698	134.88
649.903	143.88
650.107	150.88
650.312	149.88
650.516	144.88
650.721	129.88
650.925	133.88
651.13	120.88
651.334	126.88
651.539	125.88
651.743	124.88
651.947	111.88
652.152	116.88
652.356	128.88
652.56	120.88
652.764	128.88
652.969	118.88
653.173	123.88
653.377	110.88
653.581	127.88
653.785	126.88
653.99	112.88
654.194	125.88
654.398	119.88
654.602	124.88
654.806	125.88
655.01	132.88
655.214	112.88
655.418	116.88
655.622	122.88
655.826	126.88
656.03	118.88
656.234	109.88
656.438	121.88
656.642	120.88
656.846	116.88
657.049	109.88
657.253	109.88
657.457	111.88
657.661	105.88
657.865	106.88
658.068	109.88
658.272	112.88
658.476	120.88
658.68	90.88
658.883	96.88
659.087	80.88
659.291	90.88
659.494	90.88
659.698	79.88
659.901	84.88
660.105	92.88
660.309	91.88
660.512	81.88
660.716	84.88
660.919	78.88
661.123	74.88
661.326	71.88
661.53	73.88
661.733	83.88
661.936	88.88
662.14	90.88
662.343	83.88
662.546	65.88
662.75	88.88
662.953	84.88
663.156	84.88
663.36	78.88
663.563	62.88
663.766	84.88
663.969	79.88
664.173	79.88
664.376	80.88
664.579	78.88
664.782	88.88
664.985	85.88
665.188	85.88
665.391	79.88
665.594	73.88
665.797	54.88
666	67.88
666.203	87.88
666.406	82.88
666.609	77.88
666.812	87.88
667.015	75.88
667.218	76.88
667.421	79.88
667.624	78.88
667.827	83.88
668.03	82.88
668.232	86.88
668.435	74.88
668.638	81.88
668.841	72.88
669.043	80.88
669.246	78.88
669.449	78.88
669.651	73.88
669.854	73.88
670.057	82.88
670.259	92.88
670.462	88.88
670.665	77.88
670.867	78.88
671.07	73.88
671.272	77.88
671.475	80.88
671.677	65.88
671.88	72.88
672.082	61.88
672.284	77.88
672.487	75.88
672.689	72.88
672.892	90.88
