Data from 1971.PennyLincolnUp.Lamp.En5.5.200Scan.071719.P1._HRD10591_15-18-57-841.txt Node
Date: Thu Jul 18 15:18:57 EDT 2019
User: cochatt
Spectrometer: HR+D1059
Trigger mode: 1
Integration Time (sec): 1.000000E-1
Scans to average: 1
Electric dark correction enabled: true
Nonlinearity correction enabled: false
Boxcar width: 0
XAxis mode: Wavelengths
Number of Pixels in Spectrum: 2048
>>>>>Begin Spectral Data<<<<<
223.165	-19.94
223.4	-19.94
223.635	-19.94
223.869	-11.94
224.104	-10.94
224.338	-12.94
224.573	-22.94
224.808	-2.94
225.042	-5.94
225.277	-7.94
225.511	-3.94
225.746	-8.94
225.98	8.06
226.215	15.06
226.449	15.06
226.683	22.06
226.918	22.06
227.152	26.06
227.387	40.06
227.621	28.06
227.856	33.06
228.09	49.06
228.324	42.06
228.559	59.06
228.793	57.06
229.027	100.06
229.262	96.06
229.496	115.06
229.73	121.06
229.964	116.06
230.199	107.06
230.433	105.06
230.667	116.06
230.901	100.06
231.136	117.06
231.37	98.06
231.604	102.06
231.838	107.06
232.072	97.06
232.306	111.06
232.541	110.06
232.775	93.06
233.009	96.06
233.243	108.06
233.477	113.06
233.711	122.06
233.945	119.06
234.179	106.06
234.413	123.06
234.647	107.06
234.881	105.06
235.115	133.06
235.349	111.06
235.583	129.06
235.817	105.06
236.051	116.06
236.285	111.06
236.519	116.06
236.753	120.06
236.987	122.06
237.221	160.06
237.455	198.06
237.689	169.06
237.922	127.06
238.156	130.06
238.39	120.06
238.624	129.06
238.858	118.06
239.091	119.06
239.325	121.06
239.559	117.06
239.793	123.06
240.027	133.06
240.26	143.06
240.494	155.06
240.728	142.06
240.961	136.06
241.195	141.06
241.429	136.06
241.662	145.06
241.896	132.06
242.13	112.06
242.363	144.06
242.597	120.06
242.83	139.06
243.064	137.06
243.298	140.06
243.531	135.06
243.765	127.06
243.998	127.06
244.232	123.06
244.465	137.06
244.699	132.06
244.932	142.06
245.166	142.06
245.399	137.06
245.633	132.06
245.866	135.06
246.099	139.06
246.333	125.06
246.566	131.06
246.8	144.06
247.033	147.06
247.266	150.06
247.5	155.06
247.733	154.06
247.966	183.06
248.2	159.06
248.433	160.06
248.666	165.06
248.899	177.06
249.133	193.06
249.366	212.06
249.599	197.06
249.832	192.06
250.066	193.06
250.299	168.06
250.532	188.06
250.765	198.06
250.998	216.06
251.231	216.06
251.465	196.06
251.698	204.06
251.931	201.06
252.164	187.06
252.397	191.06
252.63	179.06
252.863	220.06
253.096	204.06
253.329	235.06
253.562	223.06
253.795	224.06
254.028	236.06
254.261	198.06
254.494	213.06
254.727	234.06
254.96	269.06
255.193	260.06
255.426	244.06
255.659	225.06
255.892	229.06
256.124	219.06
256.357	235.06
256.59	211.06
256.823	203.06
257.056	228.06
257.289	207.06
257.521	213.06
257.754	210.06
257.987	208.06
258.22	199.06
258.452	199.06
258.685	217.06
258.918	207.06
259.151	222.06
259.383	230.06
259.616	229.06
259.849	227.06
260.081	227.06
260.314	256.06
260.547	254.06
260.779	244.06
261.012	239.06
261.244	225.06
261.477	243.06
261.71	210.06
261.942	228.06
262.175	220.06
262.407	232.06
262.64	227.06
262.872	195.06
263.105	217.06
263.337	220.06
263.57	216.06
263.802	213.06
264.035	202.06
264.267	215.06
264.499	212.06
264.732	229.06
264.964	207.06
265.197	208.06
265.429	218.06
265.661	209.06
265.894	226.06
266.126	232.06
266.358	211.06
266.591	221.06
266.823	207.06
267.055	220.06
267.287	223.06
267.52	225.06
267.752	228.06
267.984	221.06
268.216	235.06
268.448	242.06
268.681	219.06
268.913	248.06
269.145	263.06
269.377	282.06
269.609	269.06
269.841	282.06
270.073	294.06
270.306	282.06
270.538	291.06
270.77	307.06
271.002	290.06
271.234	300.06
271.466	314.06
271.698	306.06
271.93	305.06
272.162	320.06
272.394	327.06
272.626	281.06
272.858	280.06
273.09	283.06
273.322	279.06
273.553	265.06
273.785	248.06
274.017	260.06
274.249	269.06
274.481	260.06
274.713	270.06
274.945	269.06
275.176	280.06
275.408	253.06
275.64	276.06
275.872	262.06
276.104	260.06
276.335	276.06
276.567	273.06
276.799	289.06
277.031	283.06
277.262	311.06
277.494	323.06
277.726	277.06
277.957	300.06
278.189	264.06
278.421	264.06
278.652	307.06
278.884	275.06
279.115	266.06
279.347	275.06
279.579	265.06
279.81	267.06
280.042	267.06
280.273	268.06
280.505	265.06
280.736	269.06
280.968	272.06
281.199	260.06
281.431	264.06
281.662	263.06
281.894	272.06
282.125	269.06
282.356	291.06
282.588	300.06
282.819	282.06
283.051	268.06
283.282	277.06
283.513	269.06
283.745	288.06
283.976	267.06
284.207	273.06
284.439	275.06
284.67	265.06
284.901	286.06
285.132	277.06
285.364	277.06
285.595	284.06
285.826	271.06
286.057	283.06
286.288	277.06
286.52	281.06
286.751	295.06
286.982	280.06
287.213	285.06
287.444	276.06
287.675	268.06
287.906	297.06
288.138	311.06
288.369	299.06
288.6	277.06
288.831	289.06
289.062	285.06
289.293	292.06
289.524	293.06
289.755	291.06
289.986	292.06
290.217	288.06
290.448	308.06
290.679	307.06
290.91	280.06
291.141	281.06
291.371	261.06
291.602	307.06
291.833	280.06
292.064	293.06
292.295	294.06
292.526	276.06
292.757	297.06
292.987	280.06
293.218	292.06
293.449	305.06
293.68	300.06
293.91	297.06
294.141	288.06
294.372	287.06
294.603	290.06
294.833	289.06
295.064	298.06
295.295	288.06
295.525	289.06
295.756	293.06
295.987	297.06
296.217	295.06
296.448	329.06
296.679	307.06
296.909	307.06
297.14	301.06
297.37	309.06
297.601	311.06
297.831	293.06
298.062	301.06
298.292	317.06
298.523	295.06
298.753	309.06
298.984	299.06
299.214	289.06
299.445	314.06
299.675	323.06
299.905	328.06
300.136	295.06
300.366	303.06
300.597	306.06
300.827	299.06
301.057	326.06
301.288	300.06
301.518	329.06
301.748	331.06
301.979	322.06
302.209	328.06
302.439	326.06
302.669	327.06
302.9	318.06
303.13	323.06
303.36	341.06
303.59	323.06
303.82	340.06
304.051	339.06
304.281	331.06
304.511	347.06
304.741	329.06
304.971	335.06
305.201	322.06
305.431	323.06
305.661	333.06
305.891	334.06
306.121	335.06
306.352	343.06
306.582	329.06
306.812	345.06
307.042	354.06
307.272	331.06
307.502	335.06
307.731	331.06
307.961	335.06
308.191	319.06
308.421	338.06
308.651	344.06
308.881	343.06
309.111	324.06
309.341	345.06
309.571	343.06
309.8	361.06
310.03	374.06
310.26	368.06
310.49	360.06
310.72	362.06
310.949	369.06
311.179	403.06
311.409	374.06
311.639	366.06
311.868	374.06
312.098	357.06
312.328	348.06
312.557	384.06
312.787	383.06
313.017	394.06
313.246	374.06
313.476	378.06
313.706	369.06
313.935	391.06
314.165	386.06
314.394	381.06
314.624	395.06
314.853	378.06
315.083	394.06
315.312	373.06
315.542	379.06
315.771	377.06
316.001	364.06
316.23	368.06
316.46	352.06
316.689	373.06
316.919	381.06
317.148	370.06
317.377	370.06
317.607	384.06
317.836	377.06
318.065	369.06
318.295	371.06
318.524	368.06
318.753	368.06
318.983	377.06
319.212	375.06
319.441	373.06
319.67	380.06
319.9	390.06
320.129	360.06
320.358	385.06
320.587	360.06
320.816	387.06
321.046	391.06
321.275	385.06
321.504	381.06
321.733	417.06
321.962	414.06
322.191	418.06
322.42	401.06
322.649	444.06
322.878	447.06
323.108	461.06
323.337	470.06
323.566	473.06
323.795	514.06
324.024	553.06
324.253	667.06
324.482	951.06
324.71	1352.06
324.939	1863.06
325.168	1580.06
325.397	834.06
325.626	603.06
325.855	512.06
326.084	490.06
326.313	498.06
326.542	462.06
326.77	516.06
326.999	589.06
327.228	811.06
327.457	1199.06
327.686	1376.06
327.914	946.06
328.143	641.06
328.372	557.06
328.6	520.06
328.829	502.06
329.058	546.06
329.287	515.06
329.515	481.06
329.744	488.06
329.972	480.06
330.201	492.06
330.43	520.06
330.658	533.06
330.887	564.06
331.115	527.06
331.344	483.06
331.572	474.06
331.801	461.06
332.03	453.06
332.258	424.06
332.486	427.06
332.715	435.06
332.943	446.06
333.172	439.06
333.4	440.06
333.629	463.06
333.857	448.06
334.085	460.06
334.314	467.06
334.542	495.06
334.771	495.06
334.999	467.06
335.227	430.06
335.455	451.06
335.684	463.06
335.912	434.06
336.14	445.06
336.369	428.06
336.597	443.06
336.825	441.06
337.053	420.06
337.281	420.06
337.51	428.06
337.738	431.06
337.966	428.06
338.194	410.06
338.422	402.06
338.65	421.06
338.878	424.06
339.106	432.06
339.334	421.06
339.562	411.06
339.79	396.06
340.018	411.06
340.246	405.06
340.474	412.06
340.702	395.06
340.93	409.06
341.158	412.06
341.386	408.06
341.614	387.06
341.842	395.06
342.07	387.06
342.298	384.06
342.526	392.06
342.754	389.06
342.981	386.06
343.209	387.06
343.437	403.06
343.665	406.06
343.893	397.06
344.12	423.06
344.348	405.06
344.576	417.06
344.804	415.06
345.031	406.06
345.259	415.06
345.487	414.06
345.714	404.06
345.942	403.06
346.17	408.06
346.397	402.06
346.625	412.06
346.853	393.06
347.08	386.06
347.308	391.06
347.535	417.06
347.763	400.06
347.99	396.06
348.218	393.06
348.445	396.06
348.673	380.06
348.9	384.06
349.128	390.06
349.355	384.06
349.583	392.06
349.81	396.06
350.037	385.06
350.265	386.06
350.492	383.06
350.72	383.06
350.947	395.06
351.174	392.06
351.402	383.06
351.629	381.06
351.856	369.06
352.083	394.06
352.311	398.06
352.538	396.06
352.765	413.06
352.992	386.06
353.22	373.06
353.447	387.06
353.674	372.06
353.901	400.06
354.128	373.06
354.355	376.06
354.583	355.06
354.81	358.06
355.037	371.06
355.264	359.06
355.491	345.06
355.718	377.06
355.945	350.06
356.172	373.06
356.399	354.06
356.626	339.06
356.853	358.06
357.08	337.06
357.307	356.06
357.534	348.06
357.761	371.06
357.988	343.06
358.215	360.06
358.441	368.06
358.668	355.06
358.895	367.06
359.122	365.06
359.349	387.06
359.576	395.06
359.802	396.06
360.029	407.06
360.256	415.06
360.483	389.06
360.709	373.06
360.936	385.06
361.163	360.06
361.39	389.06
361.616	382.06
361.843	387.06
362.07	370.06
362.296	372.06
362.523	380.06
362.749	378.06
362.976	364.06
363.203	359.06
363.429	356.06
363.656	379.06
363.882	342.06
364.109	357.06
364.335	343.06
364.562	349.06
364.788	370.06
365.015	352.06
365.241	369.06
365.468	373.06
365.694	378.06
365.92	361.06
366.147	351.06
366.373	351.06
366.599	354.06
366.826	348.06
367.052	331.06
367.278	337.06
367.505	367.06
367.731	340.06
367.957	362.06
368.184	360.06
368.41	382.06
368.636	360.06
368.862	387.06
369.089	381.06
369.315	364.06
369.541	349.06
369.767	354.06
369.993	358.06
370.219	346.06
370.445	353.06
370.672	356.06
370.898	362.06
371.124	364.06
371.35	351.06
371.576	360.06
371.802	358.06
372.028	372.06
372.254	343.06
372.48	348.06
372.706	349.06
372.932	354.06
373.158	343.06
373.384	347.06
373.61	351.06
373.835	351.06
374.061	348.06
374.287	363.06
374.513	351.06
374.739	365.06
374.965	371.06
375.191	354.06
375.416	354.06
375.642	349.06
375.868	343.06
376.094	354.06
376.319	354.06
376.545	346.06
376.771	364.06
376.997	341.06
377.222	335.06
377.448	349.06
377.674	348.06
377.899	329.06
378.125	347.06
378.35	356.06
378.576	339.06
378.802	359.06
379.027	326.06
379.253	346.06
379.478	331.06
379.704	339.06
379.929	326.06
380.155	358.06
380.38	349.06
380.606	342.06
380.831	327.06
381.057	357.06
381.282	342.06
381.507	341.06
381.733	354.06
381.958	360.06
382.184	355.06
382.409	361.06
382.634	328.06
382.86	353.06
383.085	340.06
383.31	336.06
383.535	349.06
383.761	355.06
383.986	339.06
384.211	338.06
384.436	351.06
384.662	347.06
384.887	361.06
385.112	357.06
385.337	368.06
385.562	373.06
385.787	363.06
386.013	367.06
386.238	377.06
386.463	375.06
386.688	344.06
386.913	358.06
387.138	348.06
387.363	362.06
387.588	372.06
387.813	383.06
388.038	351.06
388.263	375.06
388.488	343.06
388.713	372.06
388.938	353.06
389.163	343.06
389.387	361.06
389.612	348.06
389.837	376.06
390.062	348.06
390.287	361.06
390.512	351.06
390.736	359.06
390.961	360.06
391.186	368.06
391.411	378.06
391.636	373.06
391.86	373.06
392.085	357.06
392.31	375.06
392.534	383.06
392.759	366.06
392.984	364.06
393.208	369.06
393.433	376.06
393.658	344.06
393.882	361.06
394.107	356.06
394.331	370.06
394.556	364.06
394.78	368.06
395.005	351.06
395.229	375.06
395.454	369.06
395.678	371.06
395.903	383.06
396.127	380.06
396.352	391.06
396.576	385.06
396.801	365.06
397.025	383.06
397.249	379.06
397.474	381.06
397.698	378.06
397.922	396.06
398.147	397.06
398.371	391.06
398.595	399.06
398.82	374.06
399.044	417.06
399.268	421.06
399.492	435.06
399.717	459.06
399.941	473.06
400.165	486.06
400.389	503.06
400.613	460.06
400.837	427.06
401.062	423.06
401.286	410.06
401.51	392.06
401.734	416.06
401.958	397.06
402.182	398.06
402.406	423.06
402.63	395.06
402.854	420.06
403.078	417.06
403.302	411.06
403.526	444.06
403.75	396.06
403.974	398.06
404.198	436.06
404.422	426.06
404.645	428.06
404.869	413.06
405.093	459.06
405.317	473.06
405.541	482.06
405.765	477.06
405.988	452.06
406.212	460.06
406.436	450.06
406.66	465.06
406.883	449.06
407.107	452.06
407.331	508.06
407.555	544.06
407.778	532.06
408.002	509.06
408.226	481.06
408.449	465.06
408.673	468.06
408.896	466.06
409.12	513.06
409.344	511.06
409.567	461.06
409.791	421.06
410.014	425.06
410.238	402.06
410.461	393.06
410.685	407.06
410.908	436.06
411.132	458.06
411.355	464.06
411.578	464.06
411.802	422.06
412.025	397.06
412.249	406.06
412.472	435.06
412.695	463.06
412.919	460.06
413.142	444.06
413.365	418.06
413.589	404.06
413.812	402.06
414.035	389.06
414.258	374.06
414.482	401.06
414.705	413.06
414.928	397.06
415.151	391.06
415.374	387.06
415.597	405.06
415.821	397.06
416.044	378.06
416.267	391.06
416.49	403.06
416.713	379.06
416.936	383.06
417.159	378.06
417.382	406.06
417.605	404.06
417.828	410.06
418.051	407.06
418.274	411.06
418.497	395.06
418.72	381.06
418.943	389.06
419.166	411.06
419.389	427.06
419.611	437.06
419.834	412.06
420.057	427.06
420.28	428.06
420.503	437.06
420.726	408.06
420.948	419.06
421.171	446.06
421.394	477.06
421.617	431.06
421.839	400.06
422.062	418.06
422.285	419.06
422.507	467.06
422.73	535.06
422.953	491.06
423.175	451.06
423.398	407.06
423.621	416.06
423.843	432.06
424.066	441.06
424.288	438.06
424.511	448.06
424.733	503.06
424.956	555.06
425.178	552.06
425.401	512.06
425.623	548.06
425.846	480.06
426.068	448.06
426.291	435.06
426.513	440.06
426.735	456.06
426.958	483.06
427.18	543.06
427.402	644.06
427.625	687.06
427.847	602.06
428.069	513.06
428.292	473.06
428.514	436.06
428.736	415.06
428.958	411.06
429.181	398.06
429.403	407.06
429.625	395.06
429.847	442.06
430.069	504.06
430.292	488.06
430.514	427.06
430.736	396.06
430.958	413.06
431.18	401.06
431.402	394.06
431.624	378.06
431.846	381.06
432.068	367.06
432.29	377.06
432.512	369.06
432.734	374.06
432.956	389.06
433.178	410.06
433.4	401.06
433.622	403.06
433.844	384.06
434.066	383.06
434.287	383.06
434.509	368.06
434.731	395.06
434.953	379.06
435.175	391.06
435.397	432.06
435.618	447.06
435.84	473.06
436.062	542.06
436.284	581.06
436.505	488.06
436.727	448.06
436.949	417.06
437.17	433.06
437.392	421.06
437.614	429.06
437.835	445.06
438.057	520.06
438.278	585.06
438.5	603.06
438.721	647.06
438.943	600.06
439.165	522.06
439.386	447.06
439.608	458.06
439.829	457.06
440.05	481.06
440.272	489.06
440.493	466.06
440.715	427.06
440.936	401.06
441.158	425.06
441.379	424.06
441.6	410.06
441.822	421.06
442.043	489.06
442.264	530.06
442.486	577.06
442.707	488.06
442.928	461.06
443.149	464.06
443.371	462.06
443.592	494.06
443.813	587.06
444.034	610.06
444.255	505.06
444.476	456.06
444.698	448.06
444.919	443.06
445.14	570.06
445.361	506.06
445.582	484.06
445.803	533.06
446.024	606.06
446.245	602.06
446.466	565.06
446.687	481.06
446.908	442.06
447.129	441.06
447.35	392.06
447.571	409.06
447.792	401.06
448.013	409.06
448.234	422.06
448.455	457.06
448.675	572.06
448.896	660.06
449.117	529.06
449.338	516.06
449.559	622.06
449.779	673.06
450	545.06
450.221	448.06
450.442	415.06
450.662	409.06
450.883	401.06
451.104	416.06
451.324	393.06
451.545	377.06
451.766	379.06
451.986	366.06
452.207	369.06
452.428	358.06
452.648	387.06
452.869	371.06
453.089	367.06
453.31	385.06
453.53	356.06
453.751	355.06
453.971	361.06
454.192	372.06
454.412	367.06
454.633	358.06
454.853	367.06
455.073	357.06
455.294	392.06
455.514	447.06
455.734	431.06
455.955	376.06
456.175	354.06
456.395	356.06
456.616	349.06
456.836	341.06
457.056	351.06
457.276	331.06
457.497	315.06
457.717	347.06
457.937	350.06
458.157	359.06
458.377	337.06
458.598	354.06
458.818	412.06
459.038	458.06
459.258	484.06
459.478	401.06
459.698	379.06
459.918	373.06
460.138	373.06
460.358	370.06
460.578	384.06
460.798	404.06
461.018	376.06
461.238	376.06
461.458	361.06
461.678	375.06
461.898	392.06
462.118	378.06
462.338	395.06
462.558	397.06
462.777	402.06
462.997	410.06
463.217	410.06
463.437	423.06
463.657	378.06
463.876	404.06
464.096	389.06
464.316	384.06
464.536	404.06
464.755	404.06
464.975	402.06
465.195	440.06
465.414	480.06
465.634	420.06
465.854	395.06
466.073	401.06
466.293	379.06
466.512	376.06
466.732	360.06
466.951	362.06
467.171	362.06
467.391	351.06
467.61	381.06
467.829	389.06
468.049	377.06
468.268	353.06
468.488	369.06
468.707	381.06
468.927	381.06
469.146	348.06
469.365	353.06
469.585	359.06
469.804	368.06
470.023	367.06
470.243	385.06
470.462	383.06
470.681	391.06
470.901	378.06
471.12	384.06
471.339	375.06
471.558	381.06
471.777	395.06
471.997	393.06
472.216	381.06
472.435	398.06
472.654	383.06
472.873	366.06
473.092	383.06
473.311	374.06
473.53	369.06
473.749	374.06
473.968	388.06
474.187	488.06
474.406	505.06
474.625	413.06
474.844	396.06
475.063	369.06
475.282	372.06
475.501	389.06
475.72	383.06
475.939	402.06
476.158	397.06
476.377	380.06
476.596	373.06
476.814	395.06
477.033	375.06
477.252	384.06
477.471	387.06
477.69	404.06
477.908	404.06
478.127	418.06
478.346	394.06
478.564	409.06
478.783	398.06
479.002	399.06
479.22	402.06
479.439	422.06
479.658	440.06
479.876	437.06
480.095	450.06
480.313	470.06
480.532	467.06
480.751	453.06
480.969	448.06
481.188	505.06
481.406	517.06
481.624	474.06
481.843	439.06
482.061	418.06
482.28	435.06
482.498	431.06
482.717	443.06
482.935	421.06
483.153	424.06
483.372	442.06
483.59	425.06
483.808	413.06
484.027	440.06
484.245	442.06
484.463	435.06
484.681	445.06
484.9	443.06
485.118	437.06
485.336	436.06
485.554	439.06
485.772	420.06
485.99	449.06
486.209	441.06
486.427	441.06
486.645	484.06
486.863	471.06
487.081	460.06
487.299	471.06
487.517	481.06
487.735	455.06
487.953	469.06
488.171	471.06
488.389	472.06
488.607	453.06
488.825	456.06
489.043	470.06
489.261	475.06
489.479	475.06
489.696	502.06
489.914	481.06
490.132	475.06
490.35	503.06
490.568	499.06
490.786	514.06
491.003	493.06
491.221	530.06
491.439	502.06
491.657	516.06
491.874	539.06
492.092	526.06
492.31	549.06
492.527	549.06
492.745	539.06
492.963	554.06
493.18	535.06
493.398	544.06
493.615	535.06
493.833	556.06
494.05	533.06
494.268	571.06
494.485	550.06
494.703	535.06
494.92	556.06
495.138	573.06
495.355	542.06
495.573	541.06
495.79	580.06
496.008	541.06
496.225	556.06
496.442	566.06
496.66	567.06
496.877	579.06
497.094	550.06
497.312	560.06
497.529	542.06
497.746	562.06
497.963	580.06
498.181	588.06
498.398	581.06
498.615	599.06
498.832	575.06
499.049	610.06
499.267	624.06
499.484	639.06
499.701	666.06
499.918	661.06
500.135	691.06
500.352	720.06
500.569	724.06
500.786	710.06
501.003	711.06
501.22	695.06
501.437	699.06
501.654	671.06
501.871	690.06
502.088	665.06
502.305	628.06
502.522	611.06
502.739	587.06
502.956	586.06
503.172	560.06
503.389	590.06
503.606	559.06
503.823	566.06
504.04	573.06
504.256	566.06
504.473	524.06
504.69	548.06
504.907	529.06
505.123	531.06
505.34	540.06
505.557	533.06
505.773	550.06
505.99	541.06
506.207	529.06
506.423	541.06
506.64	521.06
506.856	484.06
507.073	497.06
507.289	514.06
507.506	506.06
507.722	515.06
507.939	524.06
508.155	490.06
508.372	497.06
508.588	500.06
508.805	489.06
509.021	471.06
509.238	504.06
509.454	507.06
509.67	513.06
509.887	498.06
510.103	494.06
510.319	508.06
510.536	557.06
510.752	887.06
510.968	707.06
511.184	503.06
511.401	488.06
511.617	460.06
511.833	473.06
512.049	479.06
512.265	460.06
512.481	458.06
512.698	461.06
512.914	479.06
513.13	473.06
513.346	469.06
513.562	469.06
513.778	473.06
513.994	475.06
514.21	466.06
514.426	507.06
514.642	517.06
514.858	556.06
515.074	560.06
515.29	649.06
515.506	908.06
515.721	730.06
515.937	543.06
516.153	497.06
516.369	514.06
516.585	477.06
516.801	470.06
517.016	481.06
517.232	481.06
517.448	483.06
517.664	488.06
517.879	478.06
518.095	472.06
518.311	468.06
518.527	463.06
518.742	464.06
518.958	464.06
519.173	464.06
519.389	455.06
519.605	458.06
519.82	483.06
520.036	495.06
520.251	499.06
520.467	519.06
520.682	514.06
520.898	520.06
521.113	518.06
521.329	538.06
521.544	593.06
521.76	771.06
521.975	1166.06
522.19	1096.06
522.406	657.06
522.621	514.06
522.836	484.06
523.052	468.06
523.267	432.06
523.482	425.06
523.698	425.06
523.913	418.06
524.128	428.06
524.343	444.06
524.559	421.06
524.774	399.06
524.989	401.06
525.204	417.06
525.419	420.06
525.634	419.06
525.849	400.06
526.064	383.06
526.28	383.06
526.495	398.06
526.71	383.06
526.925	372.06
527.14	385.06
527.355	367.06
527.57	375.06
527.785	371.06
527.999	358.06
528.214	387.06
528.429	379.06
528.644	381.06
528.859	404.06
529.074	411.06
529.289	413.06
529.503	445.06
529.718	439.06
529.933	403.06
530.148	409.06
530.363	397.06
530.577	380.06
530.792	372.06
531.007	367.06
531.221	375.06
531.436	371.06
531.651	351.06
531.865	362.06
532.08	384.06
532.295	378.06
532.509	358.06
532.724	351.06
532.938	358.06
533.153	373.06
533.367	367.06
533.582	365.06
533.796	377.06
534.011	378.06
534.225	367.06
534.44	360.06
534.654	362.06
534.868	359.06
535.083	370.06
535.297	371.06
535.511	373.06
535.726	376.06
535.94	359.06
536.154	369.06
536.369	364.06
536.583	347.06
536.797	348.06
537.011	349.06
537.225	346.06
537.44	348.06
537.654	351.06
537.868	354.06
538.082	356.06
538.296	339.06
538.51	349.06
538.724	368.06
538.938	373.06
539.153	359.06
539.367	375.06
539.581	363.06
539.795	363.06
540.009	360.06
540.222	346.06
540.436	352.06
540.65	343.06
540.864	352.06
541.078	371.06
541.292	376.06
541.506	359.06
541.72	358.06
541.934	364.06
542.147	357.06
542.361	372.06
542.575	368.06
542.789	337.06
543.002	360.06
543.216	352.06
543.43	356.06
543.644	349.06
543.857	357.06
544.071	373.06
544.285	373.06
544.498	364.06
544.712	369.06
544.925	348.06
545.139	349.06
545.352	344.06
545.566	350.06
545.779	361.06
545.993	354.06
546.206	355.06
546.42	368.06
546.633	365.06
546.847	347.06
547.06	361.06
547.274	352.06
547.487	361.06
547.7	357.06
547.914	357.06
548.127	341.06
548.34	328.06
548.554	347.06
548.767	341.06
548.98	347.06
549.193	340.06
549.407	345.06
549.62	354.06
549.833	343.06
550.046	333.06
550.259	349.06
550.473	338.06
550.686	321.06
550.899	338.06
551.112	324.06
551.325	340.06
551.538	334.06
551.751	336.06
551.964	338.06
552.177	335.06
552.39	336.06
552.603	333.06
552.816	344.06
553.029	342.06
553.242	324.06
553.455	354.06
553.667	362.06
553.88	355.06
554.093	360.06
554.306	327.06
554.519	346.06
554.732	331.06
554.944	316.06
555.157	314.06
555.37	326.06
555.583	321.06
555.795	333.06
556.008	319.06
556.221	311.06
556.433	307.06
556.646	304.06
556.859	311.06
557.071	305.06
557.284	305.06
557.496	307.06
557.709	311.06
557.921	309.06
558.134	313.06
558.346	316.06
558.559	311.06
558.771	313.06
558.984	308.06
559.196	295.06
559.409	294.06
559.621	299.06
559.833	305.06
560.046	313.06
560.258	291.06
560.47	295.06
560.683	315.06
560.895	309.06
561.107	292.06
561.32	316.06
561.532	305.06
561.744	312.06
561.956	307.06
562.168	301.06
562.381	293.06
562.593	311.06
562.805	303.06
563.017	322.06
563.229	301.06
563.441	305.06
563.653	317.06
563.865	313.06
564.077	306.06
564.289	326.06
564.501	321.06
564.713	305.06
564.925	298.06
565.137	319.06
565.349	321.06
565.561	326.06
565.773	322.06
565.985	327.06
566.197	333.06
566.408	329.06
566.62	344.06
566.832	334.06
567.044	361.06
567.255	347.06
567.467	360.06
567.679	367.06
567.891	391.06
568.102	369.06
568.314	353.06
568.526	329.06
568.737	346.06
568.949	332.06
569.161	328.06
569.372	297.06
569.584	304.06
569.795	309.06
570.007	307.06
570.218	320.06
570.43	325.06
570.641	283.06
570.853	284.06
571.064	268.06
571.276	283.06
571.487	275.06
571.698	278.06
571.91	287.06
572.121	296.06
572.333	267.06
572.544	265.06
572.755	258.06
572.966	255.06
573.178	265.06
573.389	270.06
573.6	266.06
573.811	261.06
574.023	270.06
574.234	265.06
574.445	265.06
574.656	257.06
574.867	240.06
575.078	245.06
575.289	264.06
575.501	265.06
575.712	263.06
575.923	277.06
576.134	275.06
576.345	260.06
576.556	262.06
576.767	263.06
576.978	247.06
577.188	241.06
577.399	236.06
577.61	257.06
577.821	247.06
578.032	239.06
578.243	269.06
578.454	412.06
578.665	324.06
578.875	257.06
579.086	263.06
579.297	237.06
579.508	239.06
579.718	251.06
579.929	257.06
580.14	253.06
580.35	252.06
580.561	243.06
580.772	254.06
580.982	233.06
581.193	259.06
581.403	247.06
581.614	240.06
581.825	246.06
582.035	248.06
582.246	230.06
582.456	230.06
582.667	225.06
582.877	234.06
583.087	224.06
583.298	203.06
583.508	224.06
583.719	225.06
583.929	234.06
584.139	225.06
584.35	238.06
584.56	235.06
584.77	224.06
584.981	240.06
585.191	225.06
585.401	245.06
585.611	236.06
585.821	234.06
586.032	235.06
586.242	235.06
586.452	240.06
586.662	219.06
586.872	223.06
587.082	230.06
587.292	239.06
587.502	232.06
587.713	234.06
587.923	244.06
588.133	226.06
588.343	218.06
588.553	233.06
588.762	243.06
588.972	236.06
589.182	227.06
589.392	228.06
589.602	223.06
589.812	230.06
590.022	233.06
590.232	219.06
590.441	222.06
590.651	223.06
590.861	225.06
591.071	252.06
591.281	212.06
591.49	248.06
591.7	220.06
591.91	217.06
592.119	245.06
592.329	228.06
592.539	248.06
592.748	228.06
592.958	236.06
593.167	235.06
593.377	240.06
593.587	227.06
593.796	244.06
594.006	243.06
594.215	219.06
594.424	230.06
594.634	240.06
594.843	234.06
595.053	236.06
595.262	232.06
595.472	221.06
595.681	225.06
595.89	222.06
596.1	231.06
596.309	235.06
596.518	213.06
596.727	229.06
596.937	221.06
597.146	231.06
597.355	217.06
597.564	219.06
597.774	213.06
597.983	207.06
598.192	218.06
598.401	207.06
598.61	220.06
598.819	197.06
599.028	205.06
599.237	199.06
599.446	206.06
599.655	211.06
599.864	209.06
600.073	208.06
600.282	195.06
600.491	214.06
600.7	210.06
600.909	199.06
601.118	220.06
601.327	205.06
601.536	220.06
601.745	192.06
601.953	216.06
602.162	201.06
602.371	209.06
602.58	197.06
602.789	205.06
602.997	204.06
603.206	221.06
603.415	221.06
603.623	203.06
603.832	209.06
604.041	195.06
604.249	211.06
604.458	204.06
604.666	187.06
604.875	189.06
605.084	201.06
605.292	201.06
605.501	194.06
605.709	205.06
605.918	200.06
606.126	204.06
606.334	191.06
606.543	200.06
606.751	204.06
606.96	195.06
607.168	202.06
607.376	199.06
607.585	221.06
607.793	211.06
608.001	213.06
608.21	186.06
608.418	204.06
608.626	204.06
608.834	207.06
609.043	192.06
609.251	198.06
609.459	198.06
609.667	196.06
609.875	192.06
610.083	188.06
610.291	194.06
610.499	189.06
610.707	195.06
610.916	212.06
611.124	214.06
611.332	218.06
611.54	220.06
611.748	211.06
611.955	210.06
612.163	189.06
612.371	208.06
612.579	195.06
612.787	198.06
612.995	205.06
613.203	181.06
613.411	193.06
613.618	205.06
613.826	195.06
614.034	203.06
614.242	202.06
614.449	200.06
614.657	180.06
614.865	207.06
615.072	201.06
615.28	205.06
615.488	203.06
615.695	187.06
615.903	184.06
616.111	187.06
616.318	200.06
616.526	189.06
616.733	189.06
616.941	201.06
617.148	192.06
617.356	185.06
617.563	187.06
617.771	197.06
617.978	191.06
618.185	186.06
618.393	192.06
618.6	187.06
618.807	195.06
619.015	186.06
619.222	178.06
619.429	177.06
619.637	195.06
619.844	171.06
620.051	195.06
620.258	181.06
620.466	188.06
620.673	171.06
620.88	175.06
621.087	181.06
621.294	186.06
621.501	175.06
621.708	179.06
621.915	181.06
622.122	189.06
622.329	183.06
622.536	183.06
622.743	186.06
622.95	180.06
623.157	168.06
623.364	172.06
623.571	177.06
623.778	179.06
623.985	178.06
624.192	180.06
624.399	179.06
624.606	186.06
624.812	164.06
625.019	184.06
625.226	179.06
625.433	179.06
625.639	172.06
625.846	180.06
626.053	184.06
626.259	166.06
626.466	167.06
626.673	172.06
626.879	161.06
627.086	164.06
627.293	188.06
627.499	177.06
627.706	185.06
627.912	173.06
628.119	163.06
628.325	178.06
628.532	184.06
628.738	189.06
628.945	185.06
629.151	160.06
629.357	170.06
629.564	158.06
629.77	159.06
629.976	167.06
630.183	166.06
630.389	176.06
630.595	164.06
630.802	157.06
631.008	167.06
631.214	175.06
631.42	176.06
631.627	172.06
631.833	154.06
632.039	165.06
632.245	160.06
632.451	147.06
632.657	163.06
632.863	168.06
633.069	164.06
633.275	157.06
633.481	175.06
633.688	155.06
633.893	169.06
634.099	161.06
634.305	161.06
634.511	150.06
634.717	149.06
634.923	162.06
635.129	143.06
635.335	149.06
635.541	155.06
635.747	151.06
635.952	157.06
636.158	154.06
636.364	159.06
636.57	159.06
636.775	167.06
636.981	164.06
637.187	150.06
637.392	155.06
637.598	155.06
637.804	142.06
638.009	146.06
638.215	149.06
638.421	145.06
638.626	158.06
638.832	156.06
639.037	163.06
639.243	150.06
639.448	161.06
639.654	163.06
639.859	151.06
640.065	154.06
640.27	163.06
640.475	144.06
640.681	155.06
640.886	149.06
641.091	139.06
641.297	165.06
641.502	155.06
641.707	152.06
641.913	147.06
642.118	134.06
642.323	162.06
642.528	159.06
642.733	155.06
642.939	141.06
643.144	148.06
643.349	151.06
643.554	142.06
643.759	135.06
643.964	147.06
644.169	144.06
644.374	157.06
644.579	142.06
644.784	157.06
644.989	134.06
645.194	156.06
645.399	136.06
645.604	139.06
645.809	151.06
646.014	150.06
646.219	151.06
646.423	148.06
646.628	133.06
646.833	147.06
647.038	141.06
647.243	155.06
647.447	157.06
647.652	148.06
647.857	144.06
648.062	147.06
648.266	160.06
648.471	149.06
648.676	156.06
648.88	132.06
649.085	142.06
649.289	157.06
649.494	150.06
649.698	164.06
649.903	179.06
650.107	142.06
650.312	139.06
650.516	121.06
650.721	148.06
650.925	141.06
651.13	139.06
651.334	135.06
651.539	134.06
651.743	131.06
651.947	129.06
652.152	141.06
652.356	129.06
652.56	131.06
652.764	133.06
652.969	129.06
653.173	128.06
653.377	141.06
653.581	116.06
653.785	112.06
653.99	123.06
654.194	125.06
654.398	128.06
654.602	116.06
654.806	118.06
655.01	122.06
655.214	128.06
655.418	119.06
655.622	123.06
655.826	108.06
656.03	116.06
656.234	129.06
656.438	122.06
656.642	123.06
656.846	117.06
657.049	113.06
657.253	124.06
657.457	111.06
657.661	108.06
657.865	108.06
658.068	102.06
658.272	97.06
658.476	104.06
658.68	96.06
658.883	93.06
659.087	98.06
659.291	96.06
659.494	101.06
659.698	104.06
659.901	96.06
660.105	103.06
660.309	92.06
660.512	102.06
660.716	87.06
660.919	89.06
661.123	95.06
661.326	95.06
661.53	93.06
661.733	91.06
661.936	88.06
662.14	91.06
662.343	96.06
662.546	86.06
662.75	97.06
662.953	91.06
663.156	78.06
663.36	77.06
663.563	89.06
663.766	85.06
663.969	99.06
664.173	85.06
664.376	83.06
664.579	74.06
664.782	92.06
664.985	74.06
665.188	79.06
665.391	91.06
665.594	76.06
665.797	87.06
666	82.06
666.203	72.06
666.406	73.06
666.609	75.06
666.812	76.06
667.015	82.06
667.218	79.06
667.421	87.06
667.624	78.06
667.827	73.06
668.03	84.06
668.232	75.06
668.435	70.06
668.638	81.06
668.841	88.06
669.043	82.06
669.246	84.06
669.449	80.06
669.651	81.06
669.854	80.06
670.057	67.06
670.259	77.06
670.462	79.06
670.665	73.06
670.867	94.06
671.07	87.06
671.272	76.06
671.475	91.06
671.677	75.06
671.88	85.06
672.082	84.06
672.284	84.06
672.487	104.06
672.689	99.06
672.892	78.06
