Data from 1971.PennyLincolnUp.Lamp.En5.5.200Scan.071719.P1._HRD10591_15-19-10-841.txt Node
Date: Thu Jul 18 15:19:10 EDT 2019
User: cochatt
Spectrometer: HR+D1059
Trigger mode: 1
Integration Time (sec): 1.000000E-1
Scans to average: 1
Electric dark correction enabled: true
Nonlinearity correction enabled: false
Boxcar width: 0
XAxis mode: Wavelengths
Number of Pixels in Spectrum: 2048
>>>>>Begin Spectral Data<<<<<
223.165	-22.94
223.4	-22.94
223.635	-22.94
223.869	-28.94
224.104	-14.94
224.338	-8.94
224.573	-10.94
224.808	-11.94
225.042	-2.94
225.277	-11.94
225.511	-3.94
225.746	2.06
225.98	8.06
226.215	-2.94
226.449	15.06
226.683	29.06
226.918	38.06
227.152	28.06
227.387	32.06
227.621	49.06
227.856	37.06
228.09	41.06
228.324	55.06
228.559	65.06
228.793	66.06
229.027	88.06
229.262	109.06
229.496	102.06
229.73	136.06
229.964	131.06
230.199	129.06
230.433	97.06
230.667	104.06
230.901	100.06
231.136	105.06
231.37	101.06
231.604	91.06
231.838	111.06
232.072	117.06
232.306	112.06
232.541	123.06
232.775	103.06
233.009	115.06
233.243	100.06
233.477	107.06
233.711	114.06
233.945	110.06
234.179	107.06
234.413	114.06
234.647	124.06
234.881	110.06
235.115	108.06
235.349	126.06
235.583	121.06
235.817	107.06
236.051	118.06
236.285	129.06
236.519	128.06
236.753	149.06
236.987	127.06
237.221	165.06
237.455	202.06
237.689	170.06
237.922	125.06
238.156	121.06
238.39	124.06
238.624	124.06
238.858	114.06
239.091	125.06
239.325	124.06
239.559	131.06
239.793	133.06
240.027	124.06
240.26	143.06
240.494	151.06
240.728	143.06
240.961	136.06
241.195	125.06
241.429	137.06
241.662	123.06
241.896	143.06
242.13	127.06
242.363	126.06
242.597	118.06
242.83	143.06
243.064	131.06
243.298	139.06
243.531	149.06
243.765	126.06
243.998	141.06
244.232	141.06
244.465	142.06
244.699	142.06
244.932	146.06
245.166	139.06
245.399	147.06
245.633	162.06
245.866	139.06
246.099	148.06
246.333	147.06
246.566	150.06
246.8	149.06
247.033	169.06
247.266	155.06
247.5	170.06
247.733	173.06
247.966	188.06
248.2	167.06
248.433	174.06
248.666	175.06
248.899	183.06
249.133	200.06
249.366	202.06
249.599	203.06
249.832	171.06
250.066	179.06
250.299	193.06
250.532	178.06
250.765	204.06
250.998	220.06
251.231	226.06
251.465	222.06
251.698	229.06
251.931	181.06
252.164	201.06
252.397	190.06
252.63	201.06
252.863	216.06
253.096	233.06
253.329	227.06
253.562	225.06
253.795	197.06
254.028	219.06
254.261	230.06
254.494	215.06
254.727	247.06
254.96	290.06
255.193	266.06
255.426	238.06
255.659	246.06
255.892	226.06
256.124	227.06
256.357	238.06
256.59	216.06
256.823	227.06
257.056	211.06
257.289	204.06
257.521	202.06
257.754	227.06
257.987	232.06
258.22	214.06
258.452	215.06
258.685	218.06
258.918	201.06
259.151	221.06
259.383	220.06
259.616	228.06
259.849	226.06
260.081	207.06
260.314	252.06
260.547	251.06
260.779	237.06
261.012	228.06
261.244	230.06
261.477	245.06
261.71	221.06
261.942	246.06
262.175	251.06
262.407	223.06
262.64	222.06
262.872	219.06
263.105	214.06
263.337	220.06
263.57	228.06
263.802	217.06
264.035	209.06
264.267	220.06
264.499	224.06
264.732	211.06
264.964	230.06
265.197	228.06
265.429	211.06
265.661	216.06
265.894	235.06
266.126	230.06
266.358	205.06
266.591	207.06
266.823	221.06
267.055	245.06
267.287	231.06
267.52	233.06
267.752	228.06
267.984	234.06
268.216	245.06
268.448	231.06
268.681	231.06
268.913	254.06
269.145	278.06
269.377	287.06
269.609	307.06
269.841	276.06
270.073	269.06
270.306	294.06
270.538	299.06
270.77	297.06
271.002	292.06
271.234	285.06
271.466	294.06
271.698	323.06
271.93	327.06
272.162	324.06
272.394	323.06
272.626	289.06
272.858	286.06
273.09	288.06
273.322	283.06
273.553	258.06
273.785	277.06
274.017	271.06
274.249	298.06
274.481	275.06
274.713	269.06
274.945	274.06
275.176	270.06
275.408	278.06
275.64	279.06
275.872	274.06
276.104	274.06
276.335	264.06
276.567	290.06
276.799	293.06
277.031	307.06
277.262	312.06
277.494	331.06
277.726	298.06
277.957	311.06
278.189	277.06
278.421	257.06
278.652	284.06
278.884	265.06
279.115	283.06
279.347	285.06
279.579	287.06
279.81	270.06
280.042	283.06
280.273	272.06
280.505	279.06
280.736	261.06
280.968	273.06
281.199	256.06
281.431	278.06
281.662	272.06
281.894	269.06
282.125	269.06
282.356	295.06
282.588	286.06
282.819	292.06
283.051	295.06
283.282	286.06
283.513	282.06
283.745	299.06
283.976	292.06
284.207	294.06
284.439	292.06
284.67	274.06
284.901	277.06
285.132	290.06
285.364	269.06
285.595	285.06
285.826	286.06
286.057	284.06
286.288	270.06
286.52	290.06
286.751	266.06
286.982	277.06
287.213	293.06
287.444	293.06
287.675	305.06
287.906	291.06
288.138	301.06
288.369	299.06
288.6	302.06
288.831	323.06
289.062	289.06
289.293	280.06
289.524	290.06
289.755	309.06
289.986	303.06
290.217	292.06
290.448	293.06
290.679	299.06
290.91	301.06
291.141	304.06
291.371	296.06
291.602	279.06
291.833	297.06
292.064	312.06
292.295	293.06
292.526	293.06
292.757	300.06
292.987	294.06
293.218	301.06
293.449	297.06
293.68	306.06
293.91	305.06
294.141	301.06
294.372	310.06
294.603	299.06
294.833	299.06
295.064	306.06
295.295	309.06
295.525	314.06
295.756	324.06
295.987	319.06
296.217	338.06
296.448	320.06
296.679	317.06
296.909	303.06
297.14	317.06
297.37	316.06
297.601	295.06
297.831	313.06
298.062	289.06
298.292	293.06
298.523	309.06
298.753	300.06
298.984	313.06
299.214	321.06
299.445	311.06
299.675	300.06
299.905	319.06
300.136	323.06
300.366	306.06
300.597	322.06
300.827	320.06
301.057	314.06
301.288	330.06
301.518	319.06
301.748	339.06
301.979	333.06
302.209	324.06
302.439	339.06
302.669	325.06
302.9	332.06
303.13	311.06
303.36	324.06
303.59	345.06
303.82	356.06
304.051	332.06
304.281	324.06
304.511	326.06
304.741	350.06
304.971	339.06
305.201	341.06
305.431	339.06
305.661	321.06
305.891	343.06
306.121	345.06
306.352	329.06
306.582	348.06
306.812	327.06
307.042	342.06
307.272	328.06
307.502	322.06
307.731	327.06
307.961	344.06
308.191	329.06
308.421	342.06
308.651	351.06
308.881	348.06
309.111	373.06
309.341	361.06
309.571	361.06
309.8	353.06
310.03	377.06
310.26	367.06
310.49	369.06
310.72	373.06
310.949	392.06
311.179	399.06
311.409	383.06
311.639	354.06
311.868	360.06
312.098	372.06
312.328	393.06
312.557	395.06
312.787	410.06
313.017	393.06
313.246	391.06
313.476	371.06
313.706	377.06
313.935	388.06
314.165	379.06
314.394	413.06
314.624	390.06
314.853	389.06
315.083	376.06
315.312	377.06
315.542	385.06
315.771	369.06
316.001	377.06
316.23	380.06
316.46	382.06
316.689	360.06
316.919	388.06
317.148	397.06
317.377	377.06
317.607	374.06
317.836	383.06
318.065	391.06
318.295	376.06
318.524	385.06
318.753	379.06
318.983	375.06
319.212	372.06
319.441	386.06
319.67	389.06
319.9	404.06
320.129	387.06
320.358	398.06
320.587	395.06
320.816	407.06
321.046	403.06
321.275	429.06
321.504	403.06
321.733	412.06
321.962	403.06
322.191	430.06
322.42	426.06
322.649	436.06
322.878	437.06
323.108	451.06
323.337	494.06
323.566	491.06
323.795	520.06
324.024	563.06
324.253	661.06
324.482	937.06
324.71	1376.06
324.939	1867.06
325.168	1545.06
325.397	860.06
325.626	580.06
325.855	510.06
326.084	494.06
326.313	484.06
326.542	492.06
326.77	526.06
326.999	620.06
327.228	827.06
327.457	1171.06
327.686	1397.06
327.914	941.06
328.143	638.06
328.372	600.06
328.6	542.06
328.829	525.06
329.058	540.06
329.287	538.06
329.515	515.06
329.744	503.06
329.972	493.06
330.201	501.06
330.43	528.06
330.658	539.06
330.887	554.06
331.115	548.06
331.344	461.06
331.572	467.06
331.801	468.06
332.03	475.06
332.258	457.06
332.486	467.06
332.715	443.06
332.943	439.06
333.172	448.06
333.4	461.06
333.629	455.06
333.857	468.06
334.085	491.06
334.314	472.06
334.542	489.06
334.771	504.06
334.999	464.06
335.227	454.06
335.455	458.06
335.684	450.06
335.912	443.06
336.14	441.06
336.369	441.06
336.597	454.06
336.825	435.06
337.053	442.06
337.281	415.06
337.51	443.06
337.738	438.06
337.966	437.06
338.194	439.06
338.422	435.06
338.65	422.06
338.878	426.06
339.106	415.06
339.334	438.06
339.562	422.06
339.79	434.06
340.018	425.06
340.246	447.06
340.474	412.06
340.702	418.06
340.93	412.06
341.158	425.06
341.386	413.06
341.614	406.06
341.842	403.06
342.07	415.06
342.298	402.06
342.526	407.06
342.754	406.06
342.981	407.06
343.209	391.06
343.437	414.06
343.665	425.06
343.893	417.06
344.12	424.06
344.348	416.06
344.576	439.06
344.804	424.06
345.031	437.06
345.259	421.06
345.487	430.06
345.714	393.06
345.942	399.06
346.17	398.06
346.397	374.06
346.625	406.06
346.853	419.06
347.08	418.06
347.308	396.06
347.535	400.06
347.763	418.06
347.99	414.06
348.218	396.06
348.445	397.06
348.673	409.06
348.9	397.06
349.128	397.06
349.355	406.06
349.583	393.06
349.81	396.06
350.037	394.06
350.265	382.06
350.492	402.06
350.72	391.06
350.947	393.06
351.174	417.06
351.402	405.06
351.629	419.06
351.856	396.06
352.083	413.06
352.311	421.06
352.538	399.06
352.765	409.06
352.992	383.06
353.22	391.06
353.447	393.06
353.674	377.06
353.901	375.06
354.128	365.06
354.355	389.06
354.583	379.06
354.81	373.06
355.037	387.06
355.264	379.06
355.491	357.06
355.718	366.06
355.945	360.06
356.172	393.06
356.399	374.06
356.626	358.06
356.853	371.06
357.08	364.06
357.307	373.06
357.534	360.06
357.761	380.06
357.988	389.06
358.215	361.06
358.441	381.06
358.668	381.06
358.895	391.06
359.122	356.06
359.349	403.06
359.576	377.06
359.802	420.06
360.029	423.06
360.256	436.06
360.483	419.06
360.709	383.06
360.936	388.06
361.163	394.06
361.39	406.06
361.616	383.06
361.843	374.06
362.07	392.06
362.296	378.06
362.523	385.06
362.749	397.06
362.976	379.06
363.203	391.06
363.429	376.06
363.656	381.06
363.882	364.06
364.109	377.06
364.335	375.06
364.562	365.06
364.788	348.06
365.015	373.06
365.241	383.06
365.468	386.06
365.694	397.06
365.92	358.06
366.147	374.06
366.373	373.06
366.599	358.06
366.826	355.06
367.052	353.06
367.278	343.06
367.505	371.06
367.731	363.06
367.957	350.06
368.184	357.06
368.41	358.06
368.636	386.06
368.862	386.06
369.089	372.06
369.315	362.06
369.541	348.06
369.767	369.06
369.993	365.06
370.219	365.06
370.445	349.06
370.672	382.06
370.898	365.06
371.124	356.06
371.35	346.06
371.576	346.06
371.802	362.06
372.028	350.06
372.254	360.06
372.48	362.06
372.706	365.06
372.932	374.06
373.158	385.06
373.384	381.06
373.61	381.06
373.835	363.06
374.061	369.06
374.287	356.06
374.513	365.06
374.739	364.06
374.965	352.06
375.191	362.06
375.416	377.06
375.642	366.06
375.868	383.06
376.094	377.06
376.319	370.06
376.545	363.06
376.771	356.06
376.997	345.06
377.222	369.06
377.448	359.06
377.674	353.06
377.899	370.06
378.125	364.06
378.35	343.06
378.576	356.06
378.802	364.06
379.027	355.06
379.253	350.06
379.478	348.06
379.704	373.06
379.929	356.06
380.155	334.06
380.38	366.06
380.606	366.06
380.831	359.06
381.057	369.06
381.282	343.06
381.507	353.06
381.733	359.06
381.958	358.06
382.184	372.06
382.409	369.06
382.634	375.06
382.86	350.06
383.085	361.06
383.31	385.06
383.535	361.06
383.761	356.06
383.986	365.06
384.211	366.06
384.436	378.06
384.662	358.06
384.887	377.06
385.112	374.06
385.337	379.06
385.562	375.06
385.787	384.06
386.013	387.06
386.238	370.06
386.463	393.06
386.688	381.06
386.913	381.06
387.138	365.06
387.363	381.06
387.588	373.06
387.813	393.06
388.038	376.06
388.263	359.06
388.488	361.06
388.713	373.06
388.938	383.06
389.163	382.06
389.387	382.06
389.612	372.06
389.837	376.06
390.062	378.06
390.287	382.06
390.512	378.06
390.736	362.06
390.961	375.06
391.186	359.06
391.411	381.06
391.636	383.06
391.86	394.06
392.085	393.06
392.31	377.06
392.534	391.06
392.759	397.06
392.984	386.06
393.208	365.06
393.433	382.06
393.658	394.06
393.882	374.06
394.107	361.06
394.331	373.06
394.556	376.06
394.78	374.06
395.005	379.06
395.229	393.06
395.454	383.06
395.678	385.06
395.903	396.06
396.127	406.06
396.352	419.06
396.576	385.06
396.801	391.06
397.025	384.06
397.249	380.06
397.474	383.06
397.698	385.06
397.922	397.06
398.147	403.06
398.371	413.06
398.595	401.06
398.82	421.06
399.044	441.06
399.268	433.06
399.492	452.06
399.717	455.06
399.941	471.06
400.165	504.06
400.389	506.06
400.613	462.06
400.837	429.06
401.062	429.06
401.286	407.06
401.51	408.06
401.734	405.06
401.958	413.06
402.182	413.06
402.406	426.06
402.63	425.06
402.854	412.06
403.078	428.06
403.302	423.06
403.526	444.06
403.75	431.06
403.974	392.06
404.198	423.06
404.422	433.06
404.645	458.06
404.869	445.06
405.093	449.06
405.317	492.06
405.541	501.06
405.765	482.06
405.988	451.06
406.212	474.06
406.436	476.06
406.66	474.06
406.883	471.06
407.107	473.06
407.331	515.06
407.555	556.06
407.778	551.06
408.002	501.06
408.226	501.06
408.449	471.06
408.673	476.06
408.896	480.06
409.12	521.06
409.344	484.06
409.567	441.06
409.791	429.06
410.014	431.06
410.238	442.06
410.461	425.06
410.685	433.06
410.908	453.06
411.132	472.06
411.355	496.06
411.578	468.06
411.802	455.06
412.025	420.06
412.249	457.06
412.472	437.06
412.695	455.06
412.919	453.06
413.142	435.06
413.365	415.06
413.589	406.06
413.812	429.06
414.035	405.06
414.258	397.06
414.482	418.06
414.705	403.06
414.928	419.06
415.151	410.06
415.374	404.06
415.597	400.06
415.821	408.06
416.044	408.06
416.267	406.06
416.49	411.06
416.713	419.06
416.936	396.06
417.159	405.06
417.382	419.06
417.605	413.06
417.828	427.06
418.051	392.06
418.274	426.06
418.497	427.06
418.72	405.06
418.943	391.06
419.166	419.06
419.389	433.06
419.611	409.06
419.834	425.06
420.057	421.06
420.28	428.06
420.503	410.06
420.726	436.06
420.948	450.06
421.171	471.06
421.394	495.06
421.617	438.06
421.839	410.06
422.062	417.06
422.285	430.06
422.507	487.06
422.73	523.06
422.953	507.06
423.175	449.06
423.398	446.06
423.621	441.06
423.843	458.06
424.066	430.06
424.288	455.06
424.511	475.06
424.733	502.06
424.956	570.06
425.178	548.06
425.401	556.06
425.623	566.06
425.846	482.06
426.068	459.06
426.291	454.06
426.513	461.06
426.735	431.06
426.958	505.06
427.18	554.06
427.402	663.06
427.625	684.06
427.847	613.06
428.069	538.06
428.292	466.06
428.514	445.06
428.736	431.06
428.958	429.06
429.181	414.06
429.403	422.06
429.625	441.06
429.847	445.06
430.069	514.06
430.292	497.06
430.514	449.06
430.736	410.06
430.958	410.06
431.18	398.06
431.402	377.06
431.624	395.06
431.846	392.06
432.068	394.06
432.29	411.06
432.512	408.06
432.734	412.06
432.956	400.06
433.178	408.06
433.4	428.06
433.622	392.06
433.844	393.06
434.066	368.06
434.287	369.06
434.509	409.06
434.731	413.06
434.953	404.06
435.175	435.06
435.397	419.06
435.618	456.06
435.84	492.06
436.062	571.06
436.284	602.06
436.505	489.06
436.727	470.06
436.949	429.06
437.17	442.06
437.392	434.06
437.614	419.06
437.835	456.06
438.057	513.06
438.278	590.06
438.5	590.06
438.721	652.06
438.943	629.06
439.165	479.06
439.386	444.06
439.608	460.06
439.829	468.06
440.05	475.06
440.272	514.06
440.493	485.06
440.715	445.06
440.936	414.06
441.158	426.06
441.379	422.06
441.6	445.06
441.822	452.06
442.043	478.06
442.264	533.06
442.486	576.06
442.707	517.06
442.928	450.06
443.149	459.06
443.371	482.06
443.592	520.06
443.813	598.06
444.034	609.06
444.255	500.06
444.476	486.06
444.698	452.06
444.919	462.06
445.14	581.06
445.361	495.06
445.582	466.06
445.803	547.06
446.024	587.06
446.245	614.06
446.466	534.06
446.687	460.06
446.908	466.06
447.129	435.06
447.35	431.06
447.571	433.06
447.792	420.06
448.013	430.06
448.234	434.06
448.455	491.06
448.675	545.06
448.896	633.06
449.117	573.06
449.338	530.06
449.559	625.06
449.779	672.06
450	554.06
450.221	461.06
450.442	414.06
450.662	405.06
450.883	410.06
451.104	420.06
451.324	406.06
451.545	376.06
451.766	387.06
451.986	371.06
452.207	356.06
452.428	379.06
452.648	361.06
452.869	375.06
453.089	366.06
453.31	381.06
453.53	373.06
453.751	363.06
453.971	377.06
454.192	381.06
454.412	375.06
454.633	362.06
454.853	377.06
455.073	380.06
455.294	394.06
455.514	434.06
455.734	421.06
455.955	365.06
456.175	346.06
456.395	369.06
456.616	337.06
456.836	338.06
457.056	352.06
457.276	343.06
457.497	326.06
457.717	358.06
457.937	357.06
458.157	358.06
458.377	355.06
458.598	363.06
458.818	408.06
459.038	478.06
459.258	501.06
459.478	408.06
459.698	399.06
459.918	375.06
460.138	388.06
460.358	378.06
460.578	381.06
460.798	385.06
461.018	403.06
461.238	387.06
461.458	391.06
461.678	409.06
461.898	409.06
462.118	396.06
462.338	405.06
462.558	407.06
462.777	403.06
462.997	418.06
463.217	429.06
463.437	412.06
463.657	429.06
463.876	407.06
464.096	393.06
464.316	400.06
464.536	405.06
464.755	415.06
464.975	411.06
465.195	429.06
465.414	494.06
465.634	442.06
465.854	397.06
466.073	380.06
466.293	365.06
466.512	377.06
466.732	372.06
466.951	379.06
467.171	365.06
467.391	385.06
467.61	373.06
467.829	369.06
468.049	374.06
468.268	373.06
468.488	398.06
468.707	383.06
468.927	359.06
469.146	364.06
469.365	357.06
469.585	370.06
469.804	377.06
470.023	398.06
470.243	399.06
470.462	380.06
470.681	405.06
470.901	396.06
471.12	388.06
471.339	375.06
471.558	382.06
471.777	374.06
471.997	382.06
472.216	388.06
472.435	411.06
472.654	383.06
472.873	384.06
473.092	385.06
473.311	369.06
473.53	374.06
473.749	396.06
473.968	428.06
474.187	513.06
474.406	496.06
474.625	447.06
474.844	406.06
475.063	397.06
475.282	381.06
475.501	391.06
475.72	382.06
475.939	401.06
476.158	415.06
476.377	411.06
476.596	386.06
476.814	403.06
477.033	397.06
477.252	401.06
477.471	410.06
477.69	409.06
477.908	399.06
478.127	410.06
478.346	434.06
478.564	417.06
478.783	422.06
479.002	439.06
479.22	423.06
479.439	426.06
479.658	437.06
479.876	449.06
480.095	463.06
480.313	491.06
480.532	482.06
480.751	464.06
480.969	464.06
481.188	489.06
481.406	517.06
481.624	476.06
481.843	457.06
482.061	450.06
482.28	442.06
482.498	448.06
482.717	435.06
482.935	429.06
483.153	453.06
483.372	445.06
483.59	447.06
483.808	439.06
484.027	469.06
484.245	435.06
484.463	434.06
484.681	453.06
484.9	449.06
485.118	447.06
485.336	421.06
485.554	454.06
485.772	450.06
485.99	437.06
486.209	474.06
486.427	458.06
486.645	469.06
486.863	494.06
487.081	482.06
487.299	465.06
487.517	472.06
487.735	467.06
487.953	476.06
488.171	489.06
488.389	486.06
488.607	496.06
488.825	458.06
489.043	472.06
489.261	476.06
489.479	476.06
489.696	472.06
489.914	473.06
490.132	490.06
490.35	495.06
490.568	510.06
490.786	491.06
491.003	542.06
491.221	534.06
491.439	530.06
491.657	539.06
491.874	522.06
492.092	534.06
492.31	558.06
492.527	540.06
492.745	562.06
492.963	533.06
493.18	522.06
493.398	556.06
493.615	543.06
493.833	557.06
494.05	577.06
494.268	576.06
494.485	570.06
494.703	546.06
494.92	546.06
495.138	553.06
495.355	544.06
495.573	559.06
495.79	557.06
496.008	571.06
496.225	554.06
496.442	558.06
496.66	553.06
496.877	562.06
497.094	566.06
497.312	572.06
497.529	582.06
497.746	591.06
497.963	591.06
498.181	594.06
498.398	611.06
498.615	629.06
498.832	629.06
499.049	626.06
499.267	609.06
499.484	663.06
499.701	662.06
499.918	674.06
500.135	726.06
500.352	733.06
500.569	749.06
500.786	749.06
501.003	741.06
501.22	740.06
501.437	694.06
501.654	699.06
501.871	683.06
502.088	670.06
502.305	660.06
502.522	647.06
502.739	621.06
502.956	592.06
503.172	579.06
503.389	588.06
503.606	577.06
503.823	561.06
504.04	557.06
504.256	557.06
504.473	563.06
504.69	579.06
504.907	553.06
505.123	539.06
505.34	535.06
505.557	543.06
505.773	549.06
505.99	526.06
506.207	525.06
506.423	539.06
506.64	538.06
506.856	507.06
507.073	527.06
507.289	533.06
507.506	499.06
507.722	531.06
507.939	525.06
508.155	513.06
508.372	496.06
508.588	503.06
508.805	485.06
509.021	523.06
509.238	526.06
509.454	513.06
509.67	519.06
509.887	515.06
510.103	523.06
510.319	533.06
510.536	581.06
510.752	910.06
510.968	731.06
511.184	515.06
511.401	469.06
511.617	488.06
511.833	490.06
512.049	486.06
512.265	478.06
512.481	454.06
512.698	466.06
512.914	497.06
513.13	454.06
513.346	459.06
513.562	453.06
513.778	468.06
513.994	472.06
514.21	502.06
514.426	514.06
514.642	542.06
514.858	545.06
515.074	564.06
515.29	671.06
515.506	959.06
515.721	773.06
515.937	561.06
516.153	527.06
516.369	507.06
516.585	492.06
516.801	474.06
517.016	478.06
517.232	502.06
517.448	504.06
517.664	492.06
517.879	483.06
518.095	481.06
518.311	498.06
518.527	465.06
518.742	480.06
518.958	488.06
519.173	477.06
519.389	465.06
519.605	462.06
519.82	479.06
520.036	475.06
520.251	474.06
520.467	475.06
520.682	512.06
520.898	507.06
521.113	542.06
521.329	561.06
521.544	611.06
521.76	776.06
521.975	1187.06
522.19	1145.06
522.406	678.06
522.621	523.06
522.836	478.06
523.052	468.06
523.267	452.06
523.482	453.06
523.698	425.06
523.913	451.06
524.128	441.06
524.343	445.06
524.559	422.06
524.774	421.06
524.989	431.06
525.204	420.06
525.419	433.06
525.634	422.06
525.849	413.06
526.064	409.06
526.28	384.06
526.495	400.06
526.71	405.06
526.925	398.06
527.14	385.06
527.355	383.06
527.57	383.06
527.785	383.06
527.999	406.06
528.214	391.06
528.429	399.06
528.644	406.06
528.859	385.06
529.074	380.06
529.289	414.06
529.503	469.06
529.718	450.06
529.933	408.06
530.148	396.06
530.363	378.06
530.577	383.06
530.792	391.06
531.007	378.06
531.221	396.06
531.436	378.06
531.651	389.06
531.865	368.06
532.08	376.06
532.295	370.06
532.509	361.06
532.724	357.06
532.938	374.06
533.153	363.06
533.367	371.06
533.582	372.06
533.796	373.06
534.011	389.06
534.225	372.06
534.44	370.06
534.654	357.06
534.868	370.06
535.083	357.06
535.297	378.06
535.511	369.06
535.726	382.06
535.94	363.06
536.154	377.06
536.369	371.06
536.583	375.06
536.797	349.06
537.011	375.06
537.225	358.06
537.44	357.06
537.654	369.06
537.868	373.06
538.082	338.06
538.296	377.06
538.51	352.06
538.724	377.06
538.938	363.06
539.153	377.06
539.367	375.06
539.581	361.06
539.795	358.06
540.009	381.06
540.222	358.06
540.436	372.06
540.65	381.06
540.864	359.06
541.078	384.06
541.292	365.06
541.506	358.06
541.72	364.06
541.934	391.06
542.147	366.06
542.361	379.06
542.575	356.06
542.789	356.06
543.002	359.06
543.216	367.06
543.43	373.06
543.644	371.06
543.857	349.06
544.071	353.06
544.285	382.06
544.498	373.06
544.712	373.06
544.925	367.06
545.139	353.06
545.352	365.06
545.566	376.06
545.779	361.06
545.993	356.06
546.206	356.06
546.42	372.06
546.633	375.06
546.847	361.06
547.06	335.06
547.274	355.06
547.487	343.06
547.7	345.06
547.914	350.06
548.127	346.06
548.34	350.06
548.554	370.06
548.767	357.06
548.98	373.06
549.193	356.06
549.407	359.06
549.62	338.06
549.833	349.06
550.046	343.06
550.259	344.06
550.473	346.06
550.686	342.06
550.899	334.06
551.112	344.06
551.325	334.06
551.538	345.06
551.751	313.06
551.964	332.06
552.177	346.06
552.39	356.06
552.603	373.06
552.816	355.06
553.029	356.06
553.242	351.06
553.455	365.06
553.667	359.06
553.88	355.06
554.093	358.06
554.306	354.06
554.519	341.06
554.732	358.06
554.944	347.06
555.157	343.06
555.37	343.06
555.583	315.06
555.795	335.06
556.008	328.06
556.221	340.06
556.433	323.06
556.646	309.06
556.859	304.06
557.071	318.06
557.284	324.06
557.496	310.06
557.709	323.06
557.921	305.06
558.134	317.06
558.346	321.06
558.559	327.06
558.771	313.06
558.984	327.06
559.196	319.06
559.409	298.06
559.621	317.06
559.833	299.06
560.046	293.06
560.258	323.06
560.47	315.06
560.683	311.06
560.895	307.06
561.107	294.06
561.32	317.06
561.532	300.06
561.744	320.06
561.956	311.06
562.168	309.06
562.381	306.06
562.593	332.06
562.805	323.06
563.017	317.06
563.229	332.06
563.441	329.06
563.653	318.06
563.865	324.06
564.077	317.06
564.289	311.06
564.501	307.06
564.713	324.06
564.925	323.06
565.137	339.06
565.349	330.06
565.561	343.06
565.773	329.06
565.985	313.06
566.197	339.06
566.408	347.06
566.62	359.06
566.832	371.06
567.044	337.06
567.255	350.06
567.467	378.06
567.679	350.06
567.891	357.06
568.102	377.06
568.314	384.06
568.526	324.06
568.737	334.06
568.949	331.06
569.161	315.06
569.372	323.06
569.584	319.06
569.795	309.06
570.007	321.06
570.218	337.06
570.43	320.06
570.641	286.06
570.853	296.06
571.064	292.06
571.276	299.06
571.487	309.06
571.698	296.06
571.91	296.06
572.121	295.06
572.333	276.06
572.544	271.06
572.755	267.06
572.966	269.06
573.178	279.06
573.389	261.06
573.6	281.06
573.811	280.06
574.023	257.06
574.234	263.06
574.445	269.06
574.656	270.06
574.867	269.06
575.078	252.06
575.289	275.06
575.501	258.06
575.712	247.06
575.923	246.06
576.134	257.06
576.345	275.06
576.556	267.06
576.767	258.06
576.978	265.06
577.188	255.06
577.399	263.06
577.61	259.06
577.821	248.06
578.032	247.06
578.243	267.06
578.454	421.06
578.665	328.06
578.875	254.06
579.086	243.06
579.297	251.06
579.508	260.06
579.718	245.06
579.929	228.06
580.14	238.06
580.35	244.06
580.561	246.06
580.772	243.06
580.982	260.06
581.193	241.06
581.403	251.06
581.614	233.06
581.825	243.06
582.035	251.06
582.246	243.06
582.456	228.06
582.667	246.06
582.877	247.06
583.087	231.06
583.298	245.06
583.508	244.06
583.719	227.06
583.929	237.06
584.139	264.06
584.35	241.06
584.56	226.06
584.77	255.06
584.981	230.06
585.191	243.06
585.401	233.06
585.611	225.06
585.821	238.06
586.032	227.06
586.242	228.06
586.452	230.06
586.662	238.06
586.872	247.06
587.082	213.06
587.292	234.06
587.502	235.06
587.713	238.06
587.923	243.06
588.133	241.06
588.343	239.06
588.553	218.06
588.762	224.06
588.972	226.06
589.182	253.06
589.392	229.06
589.602	218.06
589.812	247.06
590.022	217.06
590.232	211.06
590.441	227.06
590.651	230.06
590.861	217.06
591.071	221.06
591.281	239.06
591.49	242.06
591.7	244.06
591.91	238.06
592.119	236.06
592.329	245.06
592.539	236.06
592.748	238.06
592.958	251.06
593.167	241.06
593.377	236.06
593.587	245.06
593.796	246.06
594.006	231.06
594.215	261.06
594.424	249.06
594.634	234.06
594.843	253.06
595.053	249.06
595.262	229.06
595.472	211.06
595.681	234.06
595.89	215.06
596.1	223.06
596.309	220.06
596.518	221.06
596.727	224.06
596.937	213.06
597.146	209.06
597.355	220.06
597.564	218.06
597.774	220.06
597.983	211.06
598.192	211.06
598.401	208.06
598.61	205.06
598.819	216.06
599.028	205.06
599.237	205.06
599.446	217.06
599.655	215.06
599.864	213.06
600.073	213.06
600.282	227.06
600.491	215.06
600.7	207.06
600.909	220.06
601.118	216.06
601.327	230.06
601.536	199.06
601.745	207.06
601.953	209.06
602.162	203.06
602.371	214.06
602.58	226.06
602.789	201.06
602.997	218.06
603.206	228.06
603.415	206.06
603.623	193.06
603.832	215.06
604.041	215.06
604.249	207.06
604.458	201.06
604.666	212.06
604.875	196.06
605.084	196.06
605.292	212.06
605.501	204.06
605.709	209.06
605.918	199.06
606.126	218.06
606.334	214.06
606.543	195.06
606.751	203.06
606.96	213.06
607.168	200.06
607.376	204.06
607.585	186.06
607.793	208.06
608.001	226.06
608.21	205.06
608.418	205.06
608.626	213.06
608.834	195.06
609.043	206.06
609.251	210.06
609.459	207.06
609.667	208.06
609.875	207.06
610.083	201.06
610.291	211.06
610.499	197.06
610.707	195.06
610.916	212.06
611.124	203.06
611.332	201.06
611.54	206.06
611.748	202.06
611.955	210.06
612.163	209.06
612.371	203.06
612.579	189.06
612.787	202.06
612.995	220.06
613.203	203.06
613.411	207.06
613.618	190.06
613.826	204.06
614.034	194.06
614.242	194.06
614.449	216.06
614.657	197.06
614.865	191.06
615.072	182.06
615.28	193.06
615.488	201.06
615.695	203.06
615.903	197.06
616.111	184.06
616.318	204.06
616.526	201.06
616.733	217.06
616.941	207.06
617.148	207.06
617.356	203.06
617.563	200.06
617.771	201.06
617.978	180.06
618.185	215.06
618.393	187.06
618.6	194.06
618.807	192.06
619.015	190.06
619.222	188.06
619.429	183.06
619.637	194.06
619.844	187.06
620.051	185.06
620.258	199.06
620.466	195.06
620.673	185.06
620.88	170.06
621.087	185.06
621.294	190.06
621.501	191.06
621.708	179.06
621.915	193.06
622.122	193.06
622.329	190.06
622.536	197.06
622.743	179.06
622.95	180.06
623.157	182.06
623.364	187.06
623.571	193.06
623.778	203.06
623.985	193.06
624.192	174.06
624.399	175.06
624.606	176.06
624.812	169.06
625.019	174.06
625.226	174.06
625.433	189.06
625.639	191.06
625.846	182.06
626.053	167.06
626.259	157.06
626.466	160.06
626.673	155.06
626.879	170.06
627.086	174.06
627.293	178.06
627.499	173.06
627.706	186.06
627.912	191.06
628.119	191.06
628.325	166.06
628.532	183.06
628.738	171.06
628.945	174.06
629.151	172.06
629.357	173.06
629.564	169.06
629.77	174.06
629.976	153.06
630.183	179.06
630.389	169.06
630.595	159.06
630.802	169.06
631.008	174.06
631.214	155.06
631.42	185.06
631.627	174.06
631.833	171.06
632.039	172.06
632.245	157.06
632.451	166.06
632.657	161.06
632.863	154.06
633.069	147.06
633.275	154.06
633.481	173.06
633.688	160.06
633.893	167.06
634.099	161.06
634.305	157.06
634.511	156.06
634.717	162.06
634.923	151.06
635.129	152.06
635.335	158.06
635.541	155.06
635.747	152.06
635.952	143.06
636.158	163.06
636.364	169.06
636.57	156.06
636.775	167.06
636.981	163.06
637.187	158.06
637.392	142.06
637.598	148.06
637.804	161.06
638.009	168.06
638.215	152.06
638.421	167.06
638.626	158.06
638.832	161.06
639.037	158.06
639.243	165.06
639.448	153.06
639.654	160.06
639.859	152.06
640.065	156.06
640.27	159.06
640.475	168.06
640.681	160.06
640.886	154.06
641.091	155.06
641.297	165.06
641.502	150.06
641.707	139.06
641.913	154.06
642.118	123.06
642.323	150.06
642.528	157.06
642.733	143.06
642.939	159.06
643.144	137.06
643.349	150.06
643.554	155.06
643.759	144.06
643.964	142.06
644.169	149.06
644.374	137.06
644.579	141.06
644.784	149.06
644.989	150.06
645.194	147.06
645.399	150.06
645.604	144.06
645.809	149.06
646.014	155.06
646.219	150.06
646.423	157.06
646.628	137.06
646.833	146.06
647.038	147.06
647.243	142.06
647.447	164.06
647.652	147.06
647.857	131.06
648.062	147.06
648.266	160.06
648.471	152.06
648.676	148.06
648.88	159.06
649.085	130.06
649.289	143.06
649.494	155.06
649.698	177.06
649.903	163.06
650.107	146.06
650.312	143.06
650.516	149.06
650.721	131.06
650.925	137.06
651.13	145.06
651.334	140.06
651.539	151.06
651.743	133.06
651.947	135.06
652.152	134.06
652.356	145.06
652.56	134.06
652.764	129.06
652.969	131.06
653.173	127.06
653.377	130.06
653.581	126.06
653.785	138.06
653.99	138.06
654.194	114.06
654.398	119.06
654.602	124.06
654.806	113.06
655.01	127.06
655.214	133.06
655.418	123.06
655.622	140.06
655.826	109.06
656.03	121.06
656.234	106.06
656.438	126.06
656.642	128.06
656.846	122.06
657.049	131.06
657.253	105.06
657.457	119.06
657.661	116.06
657.865	109.06
658.068	99.06
658.272	107.06
658.476	122.06
658.68	118.06
658.883	109.06
659.087	87.06
659.291	90.06
659.494	106.06
659.698	90.06
659.901	87.06
660.105	114.06
660.309	91.06
660.512	97.06
660.716	104.06
660.919	89.06
661.123	92.06
661.326	89.06
661.53	91.06
661.733	89.06
661.936	86.06
662.14	72.06
662.343	84.06
662.546	77.06
662.75	81.06
662.953	94.06
663.156	79.06
663.36	87.06
663.563	88.06
663.766	84.06
663.969	91.06
664.173	96.06
664.376	88.06
664.579	89.06
664.782	78.06
664.985	87.06
665.188	90.06
665.391	77.06
665.594	94.06
665.797	83.06
666	73.06
666.203	83.06
666.406	85.06
666.609	79.06
666.812	90.06
667.015	78.06
667.218	81.06
667.421	79.06
667.624	74.06
667.827	84.06
668.03	62.06
668.232	80.06
668.435	83.06
668.638	101.06
668.841	79.06
669.043	91.06
669.246	80.06
669.449	79.06
669.651	97.06
669.854	89.06
670.057	82.06
670.259	70.06
670.462	65.06
670.665	81.06
670.867	90.06
671.07	83.06
671.272	82.06
671.475	86.06
671.677	82.06
671.88	87.06
672.082	88.06
672.284	78.06
672.487	90.06
672.689	86.06
672.892	92.06
