Data from 1971.PennyLincolnUp.Lamp.En5.5.200Scan.071719.P1.Scan 2. Changed Angle._HRD10591_15-25-32-842.txt Node
Date: Thu Jul 18 15:25:32 EDT 2019
User: cochatt
Spectrometer: HR+D1059
Trigger mode: 1
Integration Time (sec): 1.000000E-1
Scans to average: 1
Electric dark correction enabled: true
Nonlinearity correction enabled: false
Boxcar width: 0
XAxis mode: Wavelengths
Number of Pixels in Spectrum: 2048
>>>>>Begin Spectral Data<<<<<
223.165	-9.38
223.4	-9.38
223.635	-9.38
223.869	-23.38
224.104	-5.38
224.338	-4.38
224.573	-16.38
224.808	-17.38
225.042	-2.38
225.277	-4.38
225.511	-14.38
225.746	-3.38
225.98	6.62
226.215	5.62
226.449	18.62
226.683	22.62
226.918	24.62
227.152	22.62
227.387	20.62
227.621	50.62
227.856	40.62
228.09	44.62
228.324	44.62
228.559	61.62
228.793	70.62
229.027	104.62
229.262	125.62
229.496	142.62
229.73	145.62
229.964	183.62
230.199	142.62
230.433	123.62
230.667	131.62
230.901	118.62
231.136	124.62
231.37	117.62
231.604	126.62
231.838	124.62
232.072	120.62
232.306	123.62
232.541	128.62
232.775	107.62
233.009	130.62
233.243	126.62
233.477	140.62
233.711	136.62
233.945	126.62
234.179	124.62
234.413	138.62
234.647	134.62
234.881	122.62
235.115	132.62
235.349	134.62
235.583	125.62
235.817	129.62
236.051	133.62
236.285	144.62
236.519	143.62
236.753	144.62
236.987	170.62
237.221	208.62
237.455	274.62
237.689	217.62
237.922	176.62
238.156	155.62
238.39	139.62
238.624	158.62
238.858	146.62
239.091	142.62
239.325	135.62
239.559	140.62
239.793	140.62
240.027	138.62
240.26	162.62
240.494	190.62
240.728	190.62
240.961	156.62
241.195	166.62
241.429	149.62
241.662	148.62
241.896	149.62
242.13	144.62
242.363	162.62
242.597	136.62
242.83	146.62
243.064	167.62
243.298	148.62
243.531	154.62
243.765	148.62
243.998	167.62
244.232	161.62
244.465	159.62
244.699	145.62
244.932	162.62
245.166	149.62
245.399	161.62
245.633	146.62
245.866	163.62
246.099	155.62
246.333	160.62
246.566	152.62
246.8	170.62
247.033	178.62
247.266	182.62
247.5	184.62
247.733	184.62
247.966	189.62
248.2	189.62
248.433	192.62
248.666	202.62
248.899	210.62
249.133	235.62
249.366	239.62
249.599	230.62
249.832	204.62
250.066	201.62
250.299	206.62
250.532	229.62
250.765	235.62
250.998	264.62
251.231	262.62
251.465	231.62
251.698	229.62
251.931	256.62
252.164	220.62
252.397	233.62
252.63	236.62
252.863	241.62
253.096	250.62
253.329	251.62
253.562	271.62
253.795	265.62
254.028	252.62
254.261	249.62
254.494	262.62
254.727	310.62
254.96	337.62
255.193	328.62
255.426	285.62
255.659	268.62
255.892	272.62
256.124	265.62
256.357	262.62
256.59	259.62
256.823	242.62
257.056	252.62
257.289	235.62
257.521	233.62
257.754	248.62
257.987	224.62
258.22	232.62
258.452	228.62
258.685	237.62
258.918	223.62
259.151	239.62
259.383	250.62
259.616	233.62
259.849	242.62
260.081	264.62
260.314	275.62
260.547	302.62
260.779	281.62
261.012	264.62
261.244	278.62
261.477	254.62
261.71	240.62
261.942	266.62
262.175	279.62
262.407	266.62
262.64	240.62
262.872	223.62
263.105	237.62
263.337	219.62
263.57	227.62
263.802	214.62
264.035	214.62
264.267	204.62
264.499	242.62
264.732	224.62
264.964	231.62
265.197	226.62
265.429	215.62
265.661	227.62
265.894	226.62
266.126	214.62
266.358	229.62
266.591	224.62
266.823	251.62
267.055	229.62
267.287	245.62
267.52	244.62
267.752	244.62
267.984	239.62
268.216	242.62
268.448	256.62
268.681	226.62
268.913	264.62
269.145	292.62
269.377	301.62
269.609	298.62
269.841	306.62
270.073	314.62
270.306	326.62
270.538	336.62
270.77	361.62
271.002	326.62
271.234	332.62
271.466	323.62
271.698	353.62
271.93	362.62
272.162	356.62
272.394	372.62
272.626	332.62
272.858	313.62
273.09	294.62
273.322	304.62
273.553	301.62
273.785	289.62
274.017	264.62
274.249	288.62
274.481	274.62
274.713	278.62
274.945	288.62
275.176	279.62
275.408	288.62
275.64	290.62
275.872	277.62
276.104	294.62
276.335	287.62
276.567	292.62
276.799	306.62
277.031	335.62
277.262	355.62
277.494	335.62
277.726	327.62
277.957	318.62
278.189	304.62
278.421	312.62
278.652	280.62
278.884	285.62
279.115	265.62
279.347	272.62
279.579	255.62
279.81	273.62
280.042	287.62
280.273	293.62
280.505	270.62
280.736	278.62
280.968	289.62
281.199	287.62
281.431	278.62
281.662	271.62
281.894	282.62
282.125	284.62
282.356	295.62
282.588	314.62
282.819	310.62
283.051	291.62
283.282	274.62
283.513	294.62
283.745	287.62
283.976	293.62
284.207	269.62
284.439	293.62
284.67	258.62
284.901	274.62
285.132	286.62
285.364	267.62
285.595	280.62
285.826	301.62
286.057	272.62
286.288	303.62
286.52	282.62
286.751	269.62
286.982	289.62
287.213	289.62
287.444	286.62
287.675	309.62
287.906	311.62
288.138	316.62
288.369	313.62
288.6	317.62
288.831	303.62
289.062	298.62
289.293	296.62
289.524	296.62
289.755	291.62
289.986	294.62
290.217	299.62
290.448	286.62
290.679	294.62
290.91	298.62
291.141	306.62
291.371	305.62
291.602	300.62
291.833	294.62
292.064	291.62
292.295	280.62
292.526	274.62
292.757	288.62
292.987	292.62
293.218	296.62
293.449	276.62
293.68	288.62
293.91	280.62
294.141	292.62
294.372	295.62
294.603	291.62
294.833	288.62
295.064	278.62
295.295	302.62
295.525	289.62
295.756	316.62
295.987	318.62
296.217	333.62
296.448	353.62
296.679	322.62
296.909	299.62
297.14	292.62
297.37	291.62
297.601	301.62
297.831	292.62
298.062	304.62
298.292	308.62
298.523	305.62
298.753	283.62
298.984	293.62
299.214	298.62
299.445	314.62
299.675	317.62
299.905	325.62
300.136	312.62
300.366	309.62
300.597	319.62
300.827	319.62
301.057	329.62
301.288	336.62
301.518	332.62
301.748	307.62
301.979	326.62
302.209	329.62
302.439	330.62
302.669	323.62
302.9	327.62
303.13	326.62
303.36	336.62
303.59	340.62
303.82	350.62
304.051	343.62
304.281	338.62
304.511	333.62
304.741	311.62
304.971	325.62
305.201	323.62
305.431	325.62
305.661	316.62
305.891	324.62
306.121	330.62
306.352	347.62
306.582	346.62
306.812	334.62
307.042	335.62
307.272	331.62
307.502	320.62
307.731	360.62
307.961	344.62
308.191	319.62
308.421	358.62
308.651	333.62
308.881	351.62
309.111	338.62
309.341	354.62
309.571	350.62
309.8	361.62
310.03	389.62
310.26	404.62
310.49	388.62
310.72	409.62
310.949	443.62
311.179	455.62
311.409	412.62
311.639	394.62
311.868	390.62
312.098	388.62
312.328	418.62
312.557	458.62
312.787	454.62
313.017	428.62
313.246	424.62
313.476	405.62
313.706	395.62
313.935	408.62
314.165	412.62
314.394	440.62
314.624	421.62
314.853	412.62
315.083	390.62
315.312	380.62
315.542	389.62
315.771	382.62
316.001	380.62
316.23	389.62
316.46	388.62
316.689	386.62
316.919	391.62
317.148	413.62
317.377	408.62
317.607	374.62
317.836	403.62
318.065	389.62
318.295	390.62
318.524	395.62
318.753	374.62
318.983	400.62
319.212	383.62
319.441	407.62
319.67	428.62
319.9	386.62
320.129	379.62
320.358	412.62
320.587	421.62
320.816	413.62
321.046	424.62
321.275	411.62
321.504	420.62
321.733	441.62
321.962	458.62
322.191	452.62
322.42	484.62
322.649	501.62
322.878	495.62
323.108	517.62
323.337	553.62
323.566	594.62
323.795	618.62
324.024	688.62
324.253	876.62
324.482	1274.62
324.71	2022.62
324.939	2824.62
325.168	2440.62
325.397	1262.62
325.626	812.62
325.855	681.62
326.084	620.62
326.313	595.62
326.542	593.62
326.77	638.62
326.999	794.62
327.228	1125.62
327.457	1737.62
327.686	2112.62
327.914	1416.62
328.143	902.62
328.372	786.62
328.6	709.62
328.829	674.62
329.058	706.62
329.287	704.62
329.515	654.62
329.744	616.62
329.972	574.62
330.201	644.62
330.43	657.62
330.658	711.62
330.887	762.62
331.115	726.62
331.344	600.62
331.572	556.62
331.801	540.62
332.03	541.62
332.258	508.62
332.486	485.62
332.715	472.62
332.943	483.62
333.172	476.62
333.4	487.62
333.629	491.62
333.857	520.62
334.085	544.62
334.314	542.62
334.542	581.62
334.771	604.62
334.999	551.62
335.227	489.62
335.455	472.62
335.684	488.62
335.912	467.62
336.14	460.62
336.369	450.62
336.597	492.62
336.825	460.62
337.053	445.62
337.281	439.62
337.51	446.62
337.738	465.62
337.966	477.62
338.194	460.62
338.422	459.62
338.65	466.62
338.878	430.62
339.106	437.62
339.334	444.62
339.562	432.62
339.79	433.62
340.018	433.62
340.246	457.62
340.474	455.62
340.702	440.62
340.93	430.62
341.158	440.62
341.386	447.62
341.614	438.62
341.842	443.62
342.07	441.62
342.298	440.62
342.526	424.62
342.754	441.62
342.981	417.62
343.209	415.62
343.437	431.62
343.665	405.62
343.893	420.62
344.12	444.62
344.348	440.62
344.576	459.62
344.804	471.62
345.031	468.62
345.259	496.62
345.487	472.62
345.714	452.62
345.942	442.62
346.17	452.62
346.397	447.62
346.625	429.62
346.853	431.62
347.08	431.62
347.308	461.62
347.535	436.62
347.763	457.62
347.99	477.62
348.218	455.62
348.445	460.62
348.673	475.62
348.9	459.62
349.128	472.62
349.355	443.62
349.583	432.62
349.81	432.62
350.037	423.62
350.265	438.62
350.492	429.62
350.72	424.62
350.947	456.62
351.174	439.62
351.402	456.62
351.629	464.62
351.856	450.62
352.083	480.62
352.311	462.62
352.538	471.62
352.765	474.62
352.992	452.62
353.22	460.62
353.447	419.62
353.674	440.62
353.901	437.62
354.128	431.62
354.355	436.62
354.583	416.62
354.81	410.62
355.037	393.62
355.264	382.62
355.491	392.62
355.718	395.62
355.945	418.62
356.172	410.62
356.399	418.62
356.626	411.62
356.853	421.62
357.08	402.62
357.307	405.62
357.534	396.62
357.761	424.62
357.988	413.62
358.215	382.62
358.441	412.62
358.668	414.62
358.895	430.62
359.122	404.62
359.349	440.62
359.576	456.62
359.802	481.62
360.029	537.62
360.256	529.62
360.483	540.62
360.709	472.62
360.936	472.62
361.163	466.62
361.39	468.62
361.616	456.62
361.843	452.62
362.07	462.62
362.296	440.62
362.523	451.62
362.749	444.62
362.976	428.62
363.203	427.62
363.429	442.62
363.656	434.62
363.882	424.62
364.109	447.62
364.335	420.62
364.562	433.62
364.788	432.62
365.015	443.62
365.241	423.62
365.468	426.62
365.694	453.62
365.92	454.62
366.147	428.62
366.373	440.62
366.599	444.62
366.826	417.62
367.052	417.62
367.278	432.62
367.505	440.62
367.731	424.62
367.957	420.62
368.184	422.62
368.41	433.62
368.636	447.62
368.862	449.62
369.089	425.62
369.315	439.62
369.541	414.62
369.767	417.62
369.993	445.62
370.219	423.62
370.445	437.62
370.672	411.62
370.898	430.62
371.124	420.62
371.35	411.62
371.576	407.62
371.802	396.62
372.028	408.62
372.254	414.62
372.48	421.62
372.706	406.62
372.932	413.62
373.158	407.62
373.384	406.62
373.61	403.62
373.835	417.62
374.061	446.62
374.287	430.62
374.513	423.62
374.739	431.62
374.965	430.62
375.191	425.62
375.416	410.62
375.642	410.62
375.868	419.62
376.094	425.62
376.319	417.62
376.545	421.62
376.771	419.62
376.997	419.62
377.222	416.62
377.448	417.62
377.674	415.62
377.899	412.62
378.125	403.62
378.35	425.62
378.576	415.62
378.802	402.62
379.027	413.62
379.253	420.62
379.478	416.62
379.704	422.62
379.929	421.62
380.155	402.62
380.38	426.62
380.606	440.62
380.831	441.62
381.057	415.62
381.282	417.62
381.507	415.62
381.733	432.62
381.958	430.62
382.184	424.62
382.409	430.62
382.634	420.62
382.86	429.62
383.085	438.62
383.31	446.62
383.535	440.62
383.761	425.62
383.986	445.62
384.211	417.62
384.436	454.62
384.662	463.62
384.887	452.62
385.112	438.62
385.337	454.62
385.562	447.62
385.787	458.62
386.013	458.62
386.238	479.62
386.463	473.62
386.688	451.62
386.913	460.62
387.138	438.62
387.363	462.62
387.588	446.62
387.813	439.62
388.038	429.62
388.263	444.62
388.488	438.62
388.713	446.62
388.938	430.62
389.163	458.62
389.387	463.62
389.612	456.62
389.837	454.62
390.062	451.62
390.287	428.62
390.512	457.62
390.736	454.62
390.961	452.62
391.186	453.62
391.411	439.62
391.636	462.62
391.86	465.62
392.085	455.62
392.31	457.62
392.534	470.62
392.759	446.62
392.984	454.62
393.208	457.62
393.433	467.62
393.658	470.62
393.882	469.62
394.107	444.62
394.331	456.62
394.556	449.62
394.78	451.62
395.005	464.62
395.229	472.62
395.454	471.62
395.678	465.62
395.903	477.62
396.127	504.62
396.352	502.62
396.576	478.62
396.801	473.62
397.025	473.62
397.249	470.62
397.474	467.62
397.698	470.62
397.922	489.62
398.147	532.62
398.371	528.62
398.595	491.62
398.82	496.62
399.044	503.62
399.268	521.62
399.492	523.62
399.717	573.62
399.941	592.62
400.165	650.62
400.389	642.62
400.613	595.62
400.837	542.62
401.062	540.62
401.286	530.62
401.51	524.62
401.734	500.62
401.958	510.62
402.182	539.62
402.406	537.62
402.63	552.62
402.854	550.62
403.078	532.62
403.302	531.62
403.526	525.62
403.75	545.62
403.974	530.62
404.198	548.62
404.422	550.62
404.645	549.62
404.869	569.62
405.093	600.62
405.317	661.62
405.541	694.62
405.765	613.62
405.988	585.62
406.212	601.62
406.436	616.62
406.66	643.62
406.883	606.62
407.107	614.62
407.331	657.62
407.555	731.62
407.778	740.62
408.002	645.62
408.226	610.62
408.449	605.62
408.673	609.62
408.896	648.62
409.12	682.62
409.344	665.62
409.567	584.62
409.791	576.62
410.014	556.62
410.238	545.62
410.461	554.62
410.685	552.62
410.908	590.62
411.132	631.62
411.355	666.62
411.578	645.62
411.802	552.62
412.025	568.62
412.249	554.62
412.472	585.62
412.695	650.62
412.919	632.62
413.142	583.62
413.365	566.62
413.589	524.62
413.812	520.62
414.035	545.62
414.258	526.62
414.482	506.62
414.705	525.62
414.928	513.62
415.151	508.62
415.374	496.62
415.597	516.62
415.821	519.62
416.044	524.62
416.267	540.62
416.49	512.62
416.713	524.62
416.936	510.62
417.159	513.62
417.382	538.62
417.605	534.62
417.828	523.62
418.051	550.62
418.274	573.62
418.497	531.62
418.72	540.62
418.943	522.62
419.166	533.62
419.389	569.62
419.611	569.62
419.834	555.62
420.057	580.62
420.28	557.62
420.503	549.62
420.726	574.62
420.948	587.62
421.171	634.62
421.394	656.62
421.617	602.62
421.839	574.62
422.062	562.62
422.285	585.62
422.507	656.62
422.73	744.62
422.953	702.62
423.175	626.62
423.398	599.62
423.621	569.62
423.843	602.62
424.066	615.62
424.288	628.62
424.511	630.62
424.733	697.62
424.956	801.62
425.178	764.62
425.401	763.62
425.623	809.62
425.846	694.62
426.068	628.62
426.291	613.62
426.513	637.62
426.735	626.62
426.958	685.62
427.18	780.62
427.402	926.62
427.625	1000.62
427.847	940.62
428.069	808.62
428.292	716.62
428.514	626.62
428.736	613.62
428.958	605.62
429.181	601.62
429.403	579.62
429.625	583.62
429.847	639.62
430.069	732.62
430.292	696.62
430.514	626.62
430.736	581.62
430.958	576.62
431.18	552.62
431.402	562.62
431.624	559.62
431.846	544.62
432.068	530.62
432.29	527.62
432.512	544.62
432.734	564.62
432.956	564.62
433.178	570.62
433.4	557.62
433.622	555.62
433.844	540.62
434.066	554.62
434.287	545.62
434.509	516.62
434.731	563.62
434.953	544.62
435.175	595.62
435.397	594.62
435.618	625.62
435.84	672.62
436.062	794.62
436.284	846.62
436.505	717.62
436.727	653.62
436.949	602.62
437.17	586.62
437.392	581.62
437.614	588.62
437.835	640.62
438.057	776.62
438.278	887.62
438.5	874.62
438.721	945.62
438.943	896.62
439.165	709.62
439.386	694.62
439.608	644.62
439.829	683.62
440.05	698.62
440.272	794.62
440.493	697.62
440.715	656.62
440.936	615.62
441.158	600.62
441.379	586.62
441.6	607.62
441.822	630.62
442.043	649.62
442.264	804.62
442.486	840.62
442.707	697.62
442.928	681.62
443.149	676.62
443.371	706.62
443.592	769.62
443.813	848.62
444.034	890.62
444.255	756.62
444.476	678.62
444.698	661.62
444.919	645.62
445.14	728.62
445.361	696.62
445.582	700.62
445.803	762.62
446.024	892.62
446.245	898.62
446.466	828.62
446.687	727.62
446.908	666.62
447.129	612.62
447.35	603.62
447.571	579.62
447.792	594.62
448.013	605.62
448.234	608.62
448.455	706.62
448.675	820.62
448.896	927.62
449.117	809.62
449.338	784.62
449.559	874.62
449.779	970.62
450	771.62
450.221	654.62
450.442	629.62
450.662	630.62
450.883	618.62
451.104	628.62
451.324	599.62
451.545	564.62
451.766	564.62
451.986	542.62
452.207	522.62
452.428	517.62
452.648	538.62
452.869	547.62
453.089	529.62
453.31	552.62
453.53	546.62
453.751	546.62
453.971	539.62
454.192	542.62
454.412	561.62
454.633	548.62
454.853	535.62
455.073	524.62
455.294	556.62
455.514	635.62
455.734	629.62
455.955	538.62
456.175	500.62
456.395	505.62
456.616	480.62
456.836	492.62
457.056	500.62
457.276	463.62
457.497	494.62
457.717	505.62
457.937	501.62
458.157	501.62
458.377	513.62
458.598	530.62
458.818	609.62
459.038	727.62
459.258	728.62
459.478	615.62
459.698	566.62
459.918	500.62
460.138	525.62
460.358	522.62
460.578	542.62
460.798	544.62
461.018	525.62
461.238	550.62
461.458	528.62
461.678	512.62
461.898	536.62
462.118	535.62
462.338	521.62
462.558	529.62
462.777	534.62
462.997	569.62
463.217	530.62
463.437	550.62
463.657	550.62
463.876	572.62
464.096	580.62
464.316	552.62
464.536	569.62
464.755	555.62
464.975	583.62
465.195	657.62
465.414	778.62
465.634	675.62
465.854	616.62
466.073	586.62
466.293	565.62
466.512	540.62
466.732	512.62
466.951	522.62
467.171	526.62
467.391	569.62
467.61	576.62
467.829	557.62
468.049	557.62
468.268	533.62
468.488	536.62
468.707	532.62
468.927	522.62
469.146	535.62
469.365	508.62
469.585	508.62
469.804	544.62
470.023	545.62
470.243	550.62
470.462	549.62
470.681	561.62
470.901	577.62
471.12	543.62
471.339	568.62
471.558	566.62
471.777	548.62
471.997	544.62
472.216	538.62
472.435	604.62
472.654	572.62
472.873	552.62
473.092	530.62
473.311	519.62
473.53	540.62
473.749	552.62
473.968	610.62
474.187	741.62
474.406	756.62
474.625	633.62
474.844	580.62
475.063	566.62
475.282	540.62
475.501	564.62
475.72	554.62
475.939	550.62
476.158	573.62
476.377	576.62
476.596	572.62
476.814	583.62
477.033	579.62
477.252	597.62
477.471	591.62
477.69	622.62
477.908	588.62
478.127	596.62
478.346	582.62
478.564	595.62
478.783	602.62
479.002	608.62
479.22	620.62
479.439	630.62
479.658	661.62
479.876	688.62
480.095	682.62
480.313	709.62
480.532	668.62
480.751	671.62
480.969	673.62
481.188	729.62
481.406	843.62
481.624	740.62
481.843	708.62
482.061	674.62
482.28	650.62
482.498	633.62
482.717	659.62
482.935	674.62
483.153	662.62
483.372	664.62
483.59	650.62
483.808	660.62
484.027	642.62
484.245	669.62
484.463	652.62
484.681	667.62
484.9	666.62
485.118	672.62
485.336	672.62
485.554	667.62
485.772	674.62
485.99	657.62
486.209	667.62
486.427	684.62
486.645	705.62
486.863	726.62
487.081	710.62
487.299	670.62
487.517	716.62
487.735	729.62
487.953	712.62
488.171	701.62
488.389	710.62
488.607	731.62
488.825	743.62
489.043	709.62
489.261	710.62
489.479	716.62
489.696	739.62
489.914	746.62
490.132	738.62
490.35	722.62
490.568	768.62
490.786	773.62
491.003	781.62
491.221	808.62
491.439	809.62
491.657	809.62
491.874	834.62
492.092	841.62
492.31	853.62
492.527	837.62
492.745	849.62
492.963	829.62
493.18	864.62
493.398	848.62
493.615	832.62
493.833	839.62
494.05	862.62
494.268	876.62
494.485	869.62
494.703	863.62
494.92	841.62
495.138	854.62
495.355	885.62
495.573	860.62
495.79	868.62
496.008	865.62
496.225	846.62
496.442	851.62
496.66	896.62
496.877	863.62
497.094	870.62
497.312	871.62
497.529	856.62
497.746	882.62
497.963	864.62
498.181	913.62
498.398	893.62
498.615	926.62
498.832	914.62
499.049	944.62
499.267	919.62
499.484	952.62
499.701	935.62
499.918	977.62
500.135	998.62
500.352	1038.62
500.569	1016.62
500.786	1020.62
501.003	1040.62
501.22	1021.62
501.437	1009.62
501.654	1009.62
501.871	1029.62
502.088	978.62
502.305	939.62
502.522	932.62
502.739	897.62
502.956	896.62
503.172	891.62
503.389	853.62
503.606	872.62
503.823	874.62
504.04	858.62
504.256	882.62
504.473	853.62
504.69	822.62
504.907	818.62
505.123	842.62
505.34	827.62
505.557	839.62
505.773	853.62
505.99	831.62
506.207	856.62
506.423	826.62
506.64	868.62
506.856	828.62
507.073	790.62
507.289	815.62
507.506	799.62
507.722	825.62
507.939	865.62
508.155	845.62
508.372	810.62
508.588	817.62
508.805	798.62
509.021	793.62
509.238	818.62
509.454	785.62
509.67	824.62
509.887	798.62
510.103	804.62
510.319	789.62
510.536	932.62
510.752	1631.62
510.968	1348.62
511.184	837.62
511.401	790.62
511.617	785.62
511.833	784.62
512.049	778.62
512.265	776.62
512.481	771.62
512.698	765.62
512.914	762.62
513.13	747.62
513.346	733.62
513.562	730.62
513.778	780.62
513.994	794.62
514.21	801.62
514.426	844.62
514.642	897.62
514.858	945.62
515.074	1001.62
515.29	1216.62
515.506	1804.62
515.721	1500.62
515.937	972.62
516.153	842.62
516.369	862.62
516.585	838.62
516.801	779.62
517.016	778.62
517.232	777.62
517.448	762.62
517.664	751.62
517.879	744.62
518.095	756.62
518.311	733.62
518.527	725.62
518.742	772.62
518.958	732.62
519.173	745.62
519.389	767.62
519.605	749.62
519.82	776.62
520.036	777.62
520.251	832.62
520.467	857.62
520.682	860.62
520.898	856.62
521.113	888.62
521.329	1012.62
521.544	1132.62
521.76	1462.62
521.975	2405.62
522.19	2356.62
522.406	1248.62
522.621	925.62
522.836	841.62
523.052	785.62
523.267	751.62
523.482	712.62
523.698	709.62
523.913	720.62
524.128	712.62
524.343	678.62
524.559	682.62
524.774	656.62
524.989	669.62
525.204	674.62
525.419	682.62
525.634	639.62
525.849	640.62
526.064	625.62
526.28	632.62
526.495	623.62
526.71	610.62
526.925	612.62
527.14	610.62
527.355	601.62
527.57	621.62
527.785	601.62
527.999	581.62
528.214	601.62
528.429	610.62
528.644	604.62
528.859	608.62
529.074	598.62
529.289	653.62
529.503	758.62
529.718	739.62
529.933	684.62
530.148	634.62
530.363	616.62
530.577	614.62
530.792	594.62
531.007	556.62
531.221	605.62
531.436	563.62
531.651	577.62
531.865	583.62
532.08	577.62
532.295	572.62
532.509	561.62
532.724	566.62
532.938	564.62
533.153	576.62
533.367	550.62
533.582	559.62
533.796	568.62
534.011	554.62
534.225	537.62
534.44	542.62
534.654	549.62
534.868	556.62
535.083	546.62
535.297	568.62
535.511	542.62
535.726	583.62
535.94	593.62
536.154	580.62
536.369	562.62
536.583	540.62
536.797	523.62
537.011	524.62
537.225	534.62
537.44	521.62
537.654	530.62
537.868	553.62
538.082	537.62
538.296	559.62
538.51	537.62
538.724	556.62
538.938	531.62
539.153	551.62
539.367	577.62
539.581	543.62
539.795	534.62
540.009	549.62
540.222	540.62
540.436	550.62
540.65	551.62
540.864	542.62
541.078	576.62
541.292	561.62
541.506	545.62
541.72	519.62
541.934	552.62
542.147	549.62
542.361	554.62
542.575	513.62
542.789	538.62
543.002	529.62
543.216	534.62
543.43	534.62
543.644	538.62
543.857	551.62
544.071	542.62
544.285	526.62
544.498	539.62
544.712	514.62
544.925	523.62
545.139	512.62
545.352	531.62
545.566	533.62
545.779	528.62
545.993	534.62
546.206	532.62
546.42	536.62
546.633	523.62
546.847	536.62
547.06	492.62
547.274	516.62
547.487	502.62
547.7	496.62
547.914	526.62
548.127	481.62
548.34	493.62
548.554	498.62
548.767	485.62
548.98	507.62
549.193	481.62
549.407	482.62
549.62	501.62
549.833	490.62
550.046	494.62
550.259	490.62
550.473	505.62
550.686	516.62
550.899	481.62
551.112	482.62
551.325	486.62
551.538	481.62
551.751	480.62
551.964	466.62
552.177	496.62
552.39	504.62
552.603	470.62
552.816	505.62
553.029	495.62
553.242	486.62
553.455	520.62
553.667	504.62
553.88	510.62
554.093	539.62
554.306	502.62
554.519	486.62
554.732	509.62
554.944	504.62
555.157	477.62
555.37	481.62
555.583	478.62
555.795	509.62
556.008	458.62
556.221	481.62
556.433	467.62
556.646	477.62
556.859	476.62
557.071	482.62
557.284	454.62
557.496	445.62
557.709	484.62
557.921	464.62
558.134	461.62
558.346	457.62
558.559	456.62
558.771	449.62
558.984	444.62
559.196	447.62
559.409	453.62
559.621	444.62
559.833	445.62
560.046	438.62
560.258	434.62
560.47	456.62
560.683	433.62
560.895	442.62
561.107	430.62
561.32	438.62
561.532	446.62
561.744	436.62
561.956	444.62
562.168	444.62
562.381	461.62
562.593	453.62
562.805	457.62
563.017	454.62
563.229	435.62
563.441	429.62
563.653	457.62
563.865	438.62
564.077	448.62
564.289	468.62
564.501	461.62
564.713	446.62
564.925	456.62
565.137	484.62
565.349	446.62
565.561	462.62
565.773	470.62
565.985	478.62
566.197	473.62
566.408	489.62
566.62	482.62
566.832	513.62
567.044	503.62
567.255	498.62
567.467	496.62
567.679	481.62
567.891	510.62
568.102	519.62
568.314	488.62
568.526	469.62
568.737	466.62
568.949	460.62
569.161	438.62
569.372	445.62
569.584	447.62
569.795	441.62
570.007	461.62
570.218	513.62
570.43	504.62
570.641	412.62
570.853	425.62
571.064	425.62
571.276	413.62
571.487	400.62
571.698	400.62
571.91	411.62
572.121	395.62
572.333	400.62
572.544	405.62
572.755	424.62
572.966	414.62
573.178	392.62
573.389	388.62
573.6	389.62
573.811	379.62
574.023	383.62
574.234	372.62
574.445	372.62
574.656	369.62
574.867	378.62
575.078	376.62
575.289	387.62
575.501	366.62
575.712	384.62
575.923	382.62
576.134	379.62
576.345	383.62
576.556	361.62
576.767	363.62
576.978	375.62
577.188	368.62
577.399	374.62
577.61	380.62
577.821	375.62
578.032	381.62
578.243	441.62
578.454	735.62
578.665	548.62
578.875	391.62
579.086	366.62
579.297	366.62
579.508	375.62
579.718	350.62
579.929	350.62
580.14	359.62
580.35	333.62
580.561	367.62
580.772	338.62
580.982	331.62
581.193	330.62
581.403	355.62
581.614	362.62
581.825	341.62
582.035	346.62
582.246	352.62
582.456	339.62
582.667	341.62
582.877	336.62
583.087	338.62
583.298	340.62
583.508	382.62
583.719	353.62
583.929	350.62
584.139	352.62
584.35	366.62
584.56	348.62
584.77	338.62
584.981	351.62
585.191	336.62
585.401	344.62
585.611	332.62
585.821	354.62
586.032	344.62
586.242	343.62
586.452	349.62
586.662	331.62
586.872	335.62
587.082	333.62
587.292	337.62
587.502	329.62
587.713	339.62
587.923	346.62
588.133	324.62
588.343	335.62
588.553	322.62
588.762	315.62
588.972	328.62
589.182	330.62
589.392	328.62
589.602	336.62
589.812	328.62
590.022	314.62
590.232	326.62
590.441	330.62
590.651	321.62
590.861	323.62
591.071	329.62
591.281	336.62
591.49	317.62
591.7	335.62
591.91	324.62
592.119	320.62
592.329	350.62
592.539	328.62
592.748	352.62
592.958	329.62
593.167	334.62
593.377	316.62
593.587	340.62
593.796	340.62
594.006	336.62
594.215	339.62
594.424	317.62
594.634	331.62
594.843	322.62
595.053	338.62
595.262	325.62
595.472	335.62
595.681	327.62
595.89	330.62
596.1	302.62
596.309	316.62
596.518	326.62
596.727	317.62
596.937	317.62
597.146	331.62
597.355	305.62
597.564	318.62
597.774	292.62
597.983	281.62
598.192	311.62
598.401	303.62
598.61	287.62
598.819	295.62
599.028	292.62
599.237	288.62
599.446	298.62
599.655	297.62
599.864	303.62
600.073	306.62
600.282	283.62
600.491	292.62
600.7	270.62
600.909	306.62
601.118	296.62
601.327	286.62
601.536	296.62
601.745	286.62
601.953	285.62
602.162	292.62
602.371	312.62
602.58	295.62
602.789	296.62
602.997	317.62
603.206	287.62
603.415	296.62
603.623	286.62
603.832	276.62
604.041	285.62
604.249	280.62
604.458	288.62
604.666	273.62
604.875	278.62
605.084	278.62
605.292	295.62
605.501	309.62
605.709	268.62
605.918	278.62
606.126	280.62
606.334	284.62
606.543	266.62
606.751	282.62
606.96	267.62
607.168	288.62
607.376	274.62
607.585	272.62
607.793	273.62
608.001	285.62
608.21	303.62
608.418	279.62
608.626	290.62
608.834	261.62
609.043	271.62
609.251	280.62
609.459	273.62
609.667	264.62
609.875	282.62
610.083	283.62
610.291	292.62
610.499	288.62
610.707	288.62
610.916	274.62
611.124	285.62
611.332	290.62
611.54	281.62
611.748	285.62
611.955	264.62
612.163	272.62
612.371	257.62
612.579	288.62
612.787	274.62
612.995	278.62
613.203	264.62
613.411	274.62
613.618	285.62
613.826	274.62
614.034	262.62
614.242	266.62
614.449	257.62
614.657	274.62
614.865	266.62
615.072	269.62
615.28	273.62
615.488	270.62
615.695	256.62
615.903	272.62
616.111	261.62
616.318	241.62
616.526	275.62
616.733	285.62
616.941	274.62
617.148	260.62
617.356	268.62
617.563	251.62
617.771	264.62
617.978	265.62
618.185	272.62
618.393	272.62
618.6	257.62
618.807	265.62
619.015	280.62
619.222	244.62
619.429	260.62
619.637	255.62
619.844	256.62
620.051	233.62
620.258	269.62
620.466	245.62
620.673	245.62
620.88	225.62
621.087	252.62
621.294	240.62
621.501	249.62
621.708	269.62
621.915	262.62
622.122	249.62
622.329	237.62
622.536	262.62
622.743	261.62
622.95	230.62
623.157	232.62
623.364	263.62
623.571	258.62
623.778	247.62
623.985	252.62
624.192	247.62
624.399	250.62
624.606	246.62
624.812	249.62
625.019	240.62
625.226	238.62
625.433	241.62
625.639	247.62
625.846	226.62
626.053	229.62
626.259	239.62
626.466	232.62
626.673	198.62
626.879	241.62
627.086	228.62
627.293	231.62
627.499	226.62
627.706	226.62
627.912	217.62
628.119	229.62
628.325	224.62
628.532	225.62
628.738	205.62
628.945	236.62
629.151	220.62
629.357	213.62
629.564	225.62
629.77	221.62
629.976	231.62
630.183	231.62
630.389	228.62
630.595	220.62
630.802	196.62
631.008	212.62
631.214	225.62
631.42	226.62
631.627	205.62
631.833	220.62
632.039	193.62
632.245	222.62
632.451	210.62
632.657	217.62
632.863	235.62
633.069	209.62
633.275	214.62
633.481	202.62
633.688	207.62
633.893	204.62
634.099	215.62
634.305	213.62
634.511	198.62
634.717	196.62
634.923	226.62
635.129	194.62
635.335	189.62
635.541	204.62
635.747	204.62
635.952	216.62
636.158	210.62
636.364	217.62
636.57	210.62
636.775	205.62
636.981	218.62
637.187	177.62
637.392	206.62
637.598	208.62
637.804	212.62
638.009	199.62
638.215	204.62
638.421	187.62
638.626	189.62
638.832	213.62
639.037	211.62
639.243	183.62
639.448	195.62
639.654	200.62
639.859	198.62
640.065	207.62
640.27	202.62
640.475	186.62
640.681	197.62
640.886	199.62
641.091	186.62
641.297	194.62
641.502	174.62
641.707	187.62
641.913	190.62
642.118	201.62
642.323	187.62
642.528	184.62
642.733	180.62
642.939	189.62
643.144	171.62
643.349	184.62
643.554	196.62
643.759	191.62
643.964	188.62
644.169	183.62
644.374	171.62
644.579	166.62
644.784	175.62
644.989	177.62
645.194	180.62
645.399	198.62
645.604	190.62
645.809	189.62
646.014	182.62
646.219	174.62
646.423	190.62
646.628	181.62
646.833	187.62
647.038	177.62
647.243	196.62
647.447	191.62
647.652	188.62
647.857	181.62
648.062	198.62
648.266	176.62
648.471	179.62
648.676	177.62
648.88	185.62
649.085	185.62
649.289	189.62
649.494	181.62
649.698	208.62
649.903	199.62
650.107	198.62
650.312	181.62
650.516	168.62
650.721	160.62
650.925	178.62
651.13	166.62
651.334	159.62
651.539	172.62
651.743	163.62
651.947	144.62
652.152	157.62
652.356	160.62
652.56	152.62
652.764	184.62
652.969	157.62
653.173	150.62
653.377	146.62
653.581	147.62
653.785	168.62
653.99	144.62
654.194	140.62
654.398	139.62
654.602	155.62
654.806	150.62
655.01	143.62
655.214	155.62
655.418	130.62
655.622	150.62
655.826	147.62
656.03	142.62
656.234	146.62
656.438	142.62
656.642	124.62
656.846	130.62
657.049	140.62
657.253	133.62
657.457	129.62
657.661	125.62
657.865	129.62
658.068	129.62
658.272	118.62
658.476	114.62
658.68	127.62
658.883	104.62
659.087	115.62
659.291	98.62
659.494	103.62
659.698	111.62
659.901	95.62
660.105	92.62
660.309	110.62
660.512	98.62
660.716	92.62
660.919	85.62
661.123	100.62
661.326	98.62
661.53	90.62
661.733	99.62
661.936	83.62
662.14	79.62
662.343	87.62
662.546	73.62
662.75	90.62
662.953	82.62
663.156	92.62
663.36	94.62
663.563	93.62
663.766	83.62
663.969	90.62
664.173	93.62
664.376	86.62
664.579	79.62
664.782	91.62
664.985	77.62
665.188	91.62
665.391	70.62
665.594	83.62
665.797	82.62
666	86.62
666.203	106.62
666.406	84.62
666.609	82.62
666.812	91.62
667.015	82.62
667.218	96.62
667.421	87.62
667.624	77.62
667.827	83.62
668.03	91.62
668.232	83.62
668.435	74.62
668.638	89.62
668.841	81.62
669.043	88.62
669.246	91.62
669.449	81.62
669.651	79.62
669.854	102.62
670.057	96.62
670.259	67.62
670.462	87.62
670.665	76.62
670.867	79.62
671.07	83.62
671.272	90.62
671.475	97.62
671.677	77.62
671.88	87.62
672.082	97.62
672.284	82.62
672.487	86.62
672.689	82.62
672.892	82.62
