Data from 1971.PennyLincolnUp.Lamp.En5.5.200Scan.071719.P1._HRD10591_15-20-14-842.txt Node
Date: Thu Jul 18 15:20:14 EDT 2019
User: cochatt
Spectrometer: HR+D1059
Trigger mode: 1
Integration Time (sec): 1.000000E-1
Scans to average: 1
Electric dark correction enabled: true
Nonlinearity correction enabled: false
Boxcar width: 0
XAxis mode: Wavelengths
Number of Pixels in Spectrum: 2048
>>>>>Begin Spectral Data<<<<<
223.165	-11.62
223.4	-11.62
223.635	-11.62
223.869	-16.62
224.104	-27.62
224.338	-7.62
224.573	-26.62
224.808	-26.62
225.042	-10.62
225.277	9.38
225.511	2.38
225.746	18.38
225.98	9.38
226.215	22.38
226.449	24.38
226.683	3.38
226.918	12.38
227.152	25.38
227.387	23.38
227.621	41.38
227.856	35.38
228.09	38.38
228.324	59.38
228.559	60.38
228.793	63.38
229.027	97.38
229.262	114.38
229.496	106.38
229.73	123.38
229.964	134.38
230.199	138.38
230.433	113.38
230.667	114.38
230.901	116.38
231.136	103.38
231.37	100.38
231.604	130.38
231.838	123.38
232.072	110.38
232.306	104.38
232.541	107.38
232.775	125.38
233.009	99.38
233.243	107.38
233.477	104.38
233.711	104.38
233.945	122.38
234.179	115.38
234.413	111.38
234.647	119.38
234.881	100.38
235.115	127.38
235.349	133.38
235.583	121.38
235.817	121.38
236.051	123.38
236.285	122.38
236.519	128.38
236.753	135.38
236.987	146.38
237.221	168.38
237.455	220.38
237.689	173.38
237.922	138.38
238.156	127.38
238.39	132.38
238.624	122.38
238.858	117.38
239.091	143.38
239.325	120.38
239.559	124.38
239.793	132.38
240.027	139.38
240.26	135.38
240.494	150.38
240.728	152.38
240.961	155.38
241.195	143.38
241.429	140.38
241.662	136.38
241.896	148.38
242.13	144.38
242.363	138.38
242.597	136.38
242.83	143.38
243.064	150.38
243.298	156.38
243.531	128.38
243.765	145.38
243.998	141.38
244.232	137.38
244.465	144.38
244.699	143.38
244.932	144.38
245.166	144.38
245.399	155.38
245.633	143.38
245.866	163.38
246.099	164.38
246.333	161.38
246.566	170.38
246.8	139.38
247.033	160.38
247.266	154.38
247.5	172.38
247.733	184.38
247.966	173.38
248.2	169.38
248.433	183.38
248.666	192.38
248.899	196.38
249.133	199.38
249.366	217.38
249.599	197.38
249.832	181.38
250.066	201.38
250.299	208.38
250.532	208.38
250.765	208.38
250.998	231.38
251.231	220.38
251.465	222.38
251.698	203.38
251.931	216.38
252.164	204.38
252.397	219.38
252.63	210.38
252.863	221.38
253.096	227.38
253.329	246.38
253.562	244.38
253.795	222.38
254.028	225.38
254.261	215.38
254.494	237.38
254.727	263.38
254.96	280.38
255.193	292.38
255.426	284.38
255.659	248.38
255.892	236.38
256.124	241.38
256.357	252.38
256.59	248.38
256.823	225.38
257.056	232.38
257.289	230.38
257.521	226.38
257.754	220.38
257.987	218.38
258.22	232.38
258.452	245.38
258.685	213.38
258.918	202.38
259.151	226.38
259.383	208.38
259.616	232.38
259.849	254.38
260.081	273.38
260.314	262.38
260.547	277.38
260.779	262.38
261.012	237.38
261.244	235.38
261.477	234.38
261.71	248.38
261.942	237.38
262.175	229.38
262.407	234.38
262.64	226.38
262.872	246.38
263.105	224.38
263.337	236.38
263.57	235.38
263.802	227.38
264.035	235.38
264.267	220.38
264.499	226.38
264.732	230.38
264.964	226.38
265.197	218.38
265.429	217.38
265.661	217.38
265.894	211.38
266.126	241.38
266.358	230.38
266.591	244.38
266.823	233.38
267.055	234.38
267.287	251.38
267.52	256.38
267.752	240.38
267.984	246.38
268.216	247.38
268.448	265.38
268.681	264.38
268.913	263.38
269.145	281.38
269.377	288.38
269.609	292.38
269.841	297.38
270.073	269.38
270.306	313.38
270.538	329.38
270.77	355.38
271.002	319.38
271.234	308.38
271.466	319.38
271.698	328.38
271.93	348.38
272.162	330.38
272.394	324.38
272.626	321.38
272.858	303.38
273.09	306.38
273.322	285.38
273.553	278.38
273.785	269.38
274.017	285.38
274.249	282.38
274.481	283.38
274.713	280.38
274.945	287.38
275.176	290.38
275.408	281.38
275.64	288.38
275.872	269.38
276.104	299.38
276.335	290.38
276.567	312.38
276.799	312.38
277.031	331.38
277.262	350.38
277.494	331.38
277.726	310.38
277.957	326.38
278.189	299.38
278.421	287.38
278.652	298.38
278.884	282.38
279.115	287.38
279.347	289.38
279.579	286.38
279.81	304.38
280.042	294.38
280.273	290.38
280.505	306.38
280.736	286.38
280.968	276.38
281.199	292.38
281.431	293.38
281.662	281.38
281.894	281.38
282.125	281.38
282.356	302.38
282.588	309.38
282.819	296.38
283.051	296.38
283.282	286.38
283.513	285.38
283.745	292.38
283.976	284.38
284.207	314.38
284.439	294.38
284.67	308.38
284.901	306.38
285.132	305.38
285.364	291.38
285.595	288.38
285.826	310.38
286.057	291.38
286.288	301.38
286.52	295.38
286.751	288.38
286.982	290.38
287.213	298.38
287.444	296.38
287.675	310.38
287.906	304.38
288.138	317.38
288.369	314.38
288.6	321.38
288.831	308.38
289.062	300.38
289.293	289.38
289.524	313.38
289.755	310.38
289.986	297.38
290.217	287.38
290.448	284.38
290.679	301.38
290.91	305.38
291.141	305.38
291.371	303.38
291.602	309.38
291.833	306.38
292.064	304.38
292.295	294.38
292.526	326.38
292.757	305.38
292.987	304.38
293.218	300.38
293.449	301.38
293.68	293.38
293.91	310.38
294.141	304.38
294.372	302.38
294.603	301.38
294.833	310.38
295.064	313.38
295.295	312.38
295.525	286.38
295.756	304.38
295.987	327.38
296.217	330.38
296.448	352.38
296.679	326.38
296.909	313.38
297.14	306.38
297.37	312.38
297.601	299.38
297.831	311.38
298.062	330.38
298.292	324.38
298.523	314.38
298.753	319.38
298.984	313.38
299.214	319.38
299.445	309.38
299.675	347.38
299.905	325.38
300.136	320.38
300.366	318.38
300.597	333.38
300.827	323.38
301.057	336.38
301.288	343.38
301.518	349.38
301.748	327.38
301.979	344.38
302.209	343.38
302.439	340.38
302.669	342.38
302.9	350.38
303.13	332.38
303.36	358.38
303.59	342.38
303.82	346.38
304.051	344.38
304.281	347.38
304.511	346.38
304.741	350.38
304.971	335.38
305.201	342.38
305.431	347.38
305.661	330.38
305.891	336.38
306.121	337.38
306.352	357.38
306.582	346.38
306.812	350.38
307.042	351.38
307.272	347.38
307.502	356.38
307.731	332.38
307.961	338.38
308.191	354.38
308.421	361.38
308.651	356.38
308.881	339.38
309.111	350.38
309.341	345.38
309.571	388.38
309.8	364.38
310.03	388.38
310.26	405.38
310.49	394.38
310.72	374.38
310.949	412.38
311.179	413.38
311.409	403.38
311.639	387.38
311.868	385.38
312.098	406.38
312.328	412.38
312.557	428.38
312.787	440.38
313.017	438.38
313.246	405.38
313.476	399.38
313.706	400.38
313.935	407.38
314.165	417.38
314.394	393.38
314.624	413.38
314.853	392.38
315.083	394.38
315.312	405.38
315.542	398.38
315.771	386.38
316.001	391.38
316.23	367.38
316.46	390.38
316.689	403.38
316.919	400.38
317.148	402.38
317.377	400.38
317.607	387.38
317.836	390.38
318.065	390.38
318.295	392.38
318.524	389.38
318.753	391.38
318.983	390.38
319.212	388.38
319.441	406.38
319.67	412.38
319.9	397.38
320.129	396.38
320.358	394.38
320.587	393.38
320.816	393.38
321.046	401.38
321.275	442.38
321.504	414.38
321.733	410.38
321.962	445.38
322.191	427.38
322.42	438.38
322.649	449.38
322.878	458.38
323.108	464.38
323.337	473.38
323.566	524.38
323.795	540.38
324.024	587.38
324.253	714.38
324.482	1005.38
324.71	1472.38
324.939	2017.38
325.168	1705.38
325.397	920.38
325.626	638.38
325.855	568.38
326.084	502.38
326.313	500.38
326.542	519.38
326.77	557.38
326.999	655.38
327.228	896.38
327.457	1310.38
327.686	1513.38
327.914	990.38
328.143	695.38
328.372	628.38
328.6	588.38
328.829	567.38
329.058	568.38
329.287	595.38
329.515	525.38
329.744	522.38
329.972	529.38
330.201	534.38
330.43	556.38
330.658	578.38
330.887	578.38
331.115	582.38
331.344	523.38
331.572	509.38
331.801	504.38
332.03	482.38
332.258	470.38
332.486	458.38
332.715	459.38
332.943	458.38
333.172	454.38
333.4	481.38
333.629	467.38
333.857	473.38
334.085	489.38
334.314	469.38
334.542	512.38
334.771	518.38
334.999	493.38
335.227	478.38
335.455	439.38
335.684	452.38
335.912	444.38
336.14	459.38
336.369	430.38
336.597	461.38
336.825	447.38
337.053	432.38
337.281	449.38
337.51	411.38
337.738	442.38
337.966	448.38
338.194	455.38
338.422	438.38
338.65	447.38
338.878	433.38
339.106	423.38
339.334	423.38
339.562	428.38
339.79	427.38
340.018	447.38
340.246	423.38
340.474	440.38
340.702	453.38
340.93	436.38
341.158	412.38
341.386	429.38
341.614	442.38
341.842	445.38
342.07	409.38
342.298	418.38
342.526	423.38
342.754	417.38
342.981	412.38
343.209	410.38
343.437	426.38
343.665	416.38
343.893	431.38
344.12	408.38
344.348	441.38
344.576	439.38
344.804	423.38
345.031	447.38
345.259	449.38
345.487	429.38
345.714	425.38
345.942	426.38
346.17	414.38
346.397	415.38
346.625	410.38
346.853	414.38
347.08	415.38
347.308	418.38
347.535	417.38
347.763	425.38
347.99	426.38
348.218	422.38
348.445	411.38
348.673	422.38
348.9	415.38
349.128	395.38
349.355	409.38
349.583	400.38
349.81	406.38
350.037	388.38
350.265	409.38
350.492	400.38
350.72	403.38
350.947	402.38
351.174	416.38
351.402	416.38
351.629	408.38
351.856	415.38
352.083	414.38
352.311	414.38
352.538	401.38
352.765	434.38
352.992	404.38
353.22	411.38
353.447	402.38
353.674	386.38
353.901	379.38
354.128	388.38
354.355	385.38
354.583	382.38
354.81	401.38
355.037	379.38
355.264	385.38
355.491	376.38
355.718	384.38
355.945	351.38
356.172	375.38
356.399	367.38
356.626	375.38
356.853	373.38
357.08	370.38
357.307	356.38
357.534	372.38
357.761	369.38
357.988	361.38
358.215	380.38
358.441	366.38
358.668	380.38
358.895	360.38
359.122	388.38
359.349	372.38
359.576	395.38
359.802	423.38
360.029	433.38
360.256	440.38
360.483	422.38
360.709	396.38
360.936	401.38
361.163	383.38
361.39	403.38
361.616	400.38
361.843	380.38
362.07	411.38
362.296	399.38
362.523	390.38
362.749	388.38
362.976	397.38
363.203	365.38
363.429	384.38
363.656	384.38
363.882	369.38
364.109	363.38
364.335	387.38
364.562	374.38
364.788	388.38
365.015	401.38
365.241	383.38
365.468	389.38
365.694	381.38
365.92	377.38
366.147	389.38
366.373	378.38
366.599	368.38
366.826	356.38
367.052	383.38
367.278	356.38
367.505	370.38
367.731	385.38
367.957	374.38
368.184	376.38
368.41	395.38
368.636	410.38
368.862	404.38
369.089	380.38
369.315	385.38
369.541	363.38
369.767	375.38
369.993	360.38
370.219	370.38
370.445	364.38
370.672	366.38
370.898	346.38
371.124	362.38
371.35	383.38
371.576	368.38
371.802	378.38
372.028	370.38
372.254	364.38
372.48	364.38
372.706	376.38
372.932	362.38
373.158	367.38
373.384	372.38
373.61	382.38
373.835	371.38
374.061	346.38
374.287	355.38
374.513	367.38
374.739	365.38
374.965	377.38
375.191	378.38
375.416	373.38
375.642	354.38
375.868	371.38
376.094	366.38
376.319	364.38
376.545	348.38
376.771	353.38
376.997	375.38
377.222	363.38
377.448	362.38
377.674	360.38
377.899	374.38
378.125	356.38
378.35	368.38
378.576	377.38
378.802	362.38
379.027	349.38
379.253	365.38
379.478	362.38
379.704	360.38
379.929	358.38
380.155	364.38
380.38	381.38
380.606	380.38
380.831	366.38
381.057	371.38
381.282	366.38
381.507	365.38
381.733	360.38
381.958	358.38
382.184	381.38
382.409	378.38
382.634	364.38
382.86	372.38
383.085	360.38
383.31	361.38
383.535	370.38
383.761	376.38
383.986	373.38
384.211	382.38
384.436	383.38
384.662	384.38
384.887	392.38
385.112	381.38
385.337	378.38
385.562	398.38
385.787	397.38
386.013	392.38
386.238	408.38
386.463	366.38
386.688	388.38
386.913	380.38
387.138	379.38
387.363	393.38
387.588	394.38
387.813	377.38
388.038	398.38
388.263	354.38
388.488	373.38
388.713	392.38
388.938	391.38
389.163	387.38
389.387	410.38
389.612	369.38
389.837	390.38
390.062	370.38
390.287	372.38
390.512	379.38
390.736	393.38
390.961	373.38
391.186	382.38
391.411	385.38
391.636	372.38
391.86	393.38
392.085	383.38
392.31	380.38
392.534	374.38
392.759	402.38
392.984	389.38
393.208	385.38
393.433	376.38
393.658	373.38
393.882	381.38
394.107	379.38
394.331	379.38
394.556	374.38
394.78	382.38
395.005	373.38
395.229	386.38
395.454	384.38
395.678	401.38
395.903	400.38
396.127	424.38
396.352	416.38
396.576	386.38
396.801	389.38
397.025	413.38
397.249	382.38
397.474	383.38
397.698	395.38
397.922	411.38
398.147	421.38
398.371	432.38
398.595	411.38
398.82	405.38
399.044	434.38
399.268	448.38
399.492	461.38
399.717	467.38
399.941	521.38
400.165	532.38
400.389	509.38
400.613	483.38
400.837	454.38
401.062	407.38
401.286	436.38
401.51	411.38
401.734	429.38
401.958	436.38
402.182	425.38
402.406	428.38
402.63	444.38
402.854	439.38
403.078	428.38
403.302	454.38
403.526	437.38
403.75	424.38
403.974	432.38
404.198	434.38
404.422	433.38
404.645	441.38
404.869	465.38
405.093	469.38
405.317	500.38
405.541	514.38
405.765	481.38
405.988	470.38
406.212	456.38
406.436	488.38
406.66	500.38
406.883	457.38
407.107	478.38
407.331	528.38
407.555	584.38
407.778	556.38
408.002	525.38
408.226	474.38
408.449	450.38
408.673	472.38
408.896	488.38
409.12	543.38
409.344	500.38
409.567	449.38
409.791	441.38
410.014	444.38
410.238	427.38
410.461	440.38
410.685	441.38
410.908	439.38
411.132	467.38
411.355	492.38
411.578	472.38
411.802	463.38
412.025	423.38
412.249	429.38
412.472	448.38
412.695	510.38
412.919	487.38
413.142	444.38
413.365	428.38
413.589	411.38
413.812	416.38
414.035	433.38
414.258	422.38
414.482	396.38
414.705	410.38
414.928	404.38
415.151	397.38
415.374	401.38
415.597	409.38
415.821	417.38
416.044	420.38
416.267	403.38
416.49	403.38
416.713	399.38
416.936	420.38
417.159	403.38
417.382	421.38
417.605	406.38
417.828	413.38
418.051	444.38
418.274	428.38
418.497	417.38
418.72	400.38
418.943	423.38
419.166	429.38
419.389	430.38
419.611	417.38
419.834	437.38
420.057	431.38
420.28	438.38
420.503	425.38
420.726	438.38
420.948	439.38
421.171	488.38
421.394	496.38
421.617	448.38
421.839	421.38
422.062	440.38
422.285	429.38
422.507	466.38
422.73	542.38
422.953	530.38
423.175	477.38
423.398	456.38
423.621	426.38
423.843	472.38
424.066	456.38
424.288	473.38
424.511	469.38
424.733	518.38
424.956	587.38
425.178	581.38
425.401	573.38
425.623	584.38
425.846	504.38
426.068	454.38
426.291	458.38
426.513	479.38
426.735	484.38
426.958	502.38
427.18	568.38
427.402	660.38
427.625	732.38
427.847	630.38
428.069	550.38
428.292	504.38
428.514	464.38
428.736	460.38
428.958	424.38
429.181	402.38
429.403	424.38
429.625	439.38
429.847	446.38
430.069	523.38
430.292	519.38
430.514	451.38
430.736	432.38
430.958	437.38
431.18	408.38
431.402	375.38
431.624	411.38
431.846	380.38
432.068	392.38
432.29	400.38
432.512	413.38
432.734	412.38
432.956	398.38
433.178	406.38
433.4	423.38
433.622	408.38
433.844	418.38
434.066	403.38
434.287	400.38
434.509	395.38
434.731	415.38
434.953	433.38
435.175	461.38
435.397	473.38
435.618	470.38
435.84	492.38
436.062	573.38
436.284	616.38
436.505	519.38
436.727	471.38
436.949	439.38
437.17	420.38
437.392	436.38
437.614	424.38
437.835	470.38
438.057	549.38
438.278	626.38
438.5	622.38
438.721	684.38
438.943	645.38
439.165	552.38
439.386	465.38
439.608	469.38
439.829	464.38
440.05	494.38
440.272	535.38
440.493	480.38
440.715	453.38
440.936	442.38
441.158	432.38
441.379	414.38
441.6	437.38
441.822	445.38
442.043	504.38
442.264	585.38
442.486	605.38
442.707	494.38
442.928	483.38
443.149	480.38
443.371	489.38
443.592	516.38
443.813	612.38
444.034	665.38
444.255	519.38
444.476	465.38
444.698	471.38
444.919	465.38
445.14	561.38
445.361	519.38
445.582	517.38
445.803	549.38
446.024	624.38
446.245	648.38
446.466	589.38
446.687	508.38
446.908	494.38
447.129	444.38
447.35	437.38
447.571	444.38
447.792	418.38
448.013	449.38
448.234	444.38
448.455	498.38
448.675	584.38
448.896	666.38
449.117	547.38
449.338	550.38
449.559	640.38
449.779	697.38
450	549.38
450.221	500.38
450.442	447.38
450.662	426.38
450.883	425.38
451.104	454.38
451.324	436.38
451.545	415.38
451.766	369.38
451.986	383.38
452.207	396.38
452.428	385.38
452.648	395.38
452.869	382.38
453.089	386.38
453.31	396.38
453.53	389.38
453.751	373.38
453.971	376.38
454.192	403.38
454.412	379.38
454.633	376.38
454.853	381.38
455.073	394.38
455.294	397.38
455.514	451.38
455.734	435.38
455.955	390.38
456.175	368.38
456.395	353.38
456.616	344.38
456.836	339.38
457.056	359.38
457.276	345.38
457.497	347.38
457.717	348.38
457.937	368.38
458.157	373.38
458.377	394.38
458.598	400.38
458.818	429.38
459.038	489.38
459.258	489.38
459.478	430.38
459.698	400.38
459.918	400.38
460.138	386.38
460.358	399.38
460.578	384.38
460.798	394.38
461.018	386.38
461.238	395.38
461.458	387.38
461.678	379.38
461.898	386.38
462.118	382.38
462.338	401.38
462.558	397.38
462.777	420.38
462.997	388.38
463.217	420.38
463.437	418.38
463.657	409.38
463.876	409.38
464.096	428.38
464.316	394.38
464.536	422.38
464.755	439.38
464.975	421.38
465.195	456.38
465.414	520.38
465.634	444.38
465.854	400.38
466.073	410.38
466.293	405.38
466.512	384.38
466.732	395.38
466.951	379.38
467.171	366.38
467.391	387.38
467.61	392.38
467.829	400.38
468.049	378.38
468.268	379.38
468.488	368.38
468.707	380.38
468.927	360.38
469.146	394.38
469.365	375.38
469.585	378.38
469.804	390.38
470.023	401.38
470.243	402.38
470.462	390.38
470.681	414.38
470.901	399.38
471.12	380.38
471.339	384.38
471.558	401.38
471.777	390.38
471.997	367.38
472.216	380.38
472.435	410.38
472.654	406.38
472.873	362.38
473.092	385.38
473.311	380.38
473.53	408.38
473.749	409.38
473.968	448.38
474.187	550.38
474.406	528.38
474.625	432.38
474.844	413.38
475.063	383.38
475.282	383.38
475.501	374.38
475.72	402.38
475.939	399.38
476.158	378.38
476.377	398.38
476.596	383.38
476.814	407.38
477.033	386.38
477.252	395.38
477.471	405.38
477.69	423.38
477.908	432.38
478.127	411.38
478.346	446.38
478.564	414.38
478.783	423.38
479.002	422.38
479.22	452.38
479.439	441.38
479.658	444.38
479.876	454.38
480.095	450.38
480.313	491.38
480.532	456.38
480.751	496.38
480.969	468.38
481.188	525.38
481.406	539.38
481.624	493.38
481.843	445.38
482.061	455.38
482.28	447.38
482.498	450.38
482.717	426.38
482.935	456.38
483.153	433.38
483.372	447.38
483.59	472.38
483.808	454.38
484.027	439.38
484.245	450.38
484.463	446.38
484.681	457.38
484.9	440.38
485.118	469.38
485.336	460.38
485.554	468.38
485.772	458.38
485.99	451.38
486.209	459.38
486.427	459.38
486.645	493.38
486.863	484.38
487.081	472.38
487.299	476.38
487.517	489.38
487.735	493.38
487.953	495.38
488.171	483.38
488.389	505.38
488.607	493.38
488.825	480.38
489.043	478.38
489.261	490.38
489.479	480.38
489.696	491.38
489.914	490.38
490.132	502.38
490.35	506.38
490.568	513.38
490.786	526.38
491.003	535.38
491.221	538.38
491.439	532.38
491.657	559.38
491.874	534.38
492.092	550.38
492.31	565.38
492.527	575.38
492.745	556.38
492.963	566.38
493.18	558.38
493.398	575.38
493.615	583.38
493.833	557.38
494.05	555.38
494.268	570.38
494.485	568.38
494.703	576.38
494.92	597.38
495.138	577.38
495.355	577.38
495.573	585.38
495.79	565.38
496.008	578.38
496.225	560.38
496.442	585.38
496.66	582.38
496.877	557.38
497.094	594.38
497.312	582.38
497.529	564.38
497.746	626.38
497.963	589.38
498.181	619.38
498.398	607.38
498.615	631.38
498.832	649.38
499.049	651.38
499.267	669.38
499.484	651.38
499.701	670.38
499.918	698.38
500.135	740.38
500.352	741.38
500.569	737.38
500.786	772.38
501.003	776.38
501.22	740.38
501.437	717.38
501.654	696.38
501.871	664.38
502.088	669.38
502.305	625.38
502.522	642.38
502.739	622.38
502.956	602.38
503.172	583.38
503.389	585.38
503.606	607.38
503.823	586.38
504.04	600.38
504.256	578.38
504.473	566.38
504.69	555.38
504.907	557.38
505.123	546.38
505.34	557.38
505.557	557.38
505.773	538.38
505.99	572.38
506.207	564.38
506.423	553.38
506.64	541.38
506.856	530.38
507.073	550.38
507.289	527.38
507.506	533.38
507.722	528.38
507.939	553.38
508.155	560.38
508.372	513.38
508.588	519.38
508.805	530.38
509.021	531.38
509.238	512.38
509.454	524.38
509.67	547.38
509.887	528.38
510.103	510.38
510.319	548.38
510.536	584.38
510.752	925.38
510.968	743.38
511.184	522.38
511.401	522.38
511.617	504.38
511.833	501.38
512.049	486.38
512.265	494.38
512.481	485.38
512.698	467.38
512.914	503.38
513.13	480.38
513.346	496.38
513.562	473.38
513.778	497.38
513.994	492.38
514.21	510.38
514.426	521.38
514.642	528.38
514.858	552.38
515.074	576.38
515.29	692.38
515.506	982.38
515.721	797.38
515.937	556.38
516.153	529.38
516.369	524.38
516.585	492.38
516.801	484.38
517.016	476.38
517.232	493.38
517.448	475.38
517.664	505.38
517.879	518.38
518.095	487.38
518.311	487.38
518.527	501.38
518.742	488.38
518.958	490.38
519.173	500.38
519.389	478.38
519.605	498.38
519.82	469.38
520.036	495.38
520.251	517.38
520.467	513.38
520.682	516.38
520.898	537.38
521.113	556.38
521.329	553.38
521.544	620.38
521.76	794.38
521.975	1262.38
522.19	1195.38
522.406	699.38
522.621	546.38
522.836	494.38
523.052	489.38
523.267	441.38
523.482	457.38
523.698	422.38
523.913	449.38
524.128	458.38
524.343	441.38
524.559	437.38
524.774	420.38
524.989	436.38
525.204	424.38
525.419	411.38
525.634	412.38
525.849	414.38
526.064	437.38
526.28	416.38
526.495	406.38
526.71	394.38
526.925	410.38
527.14	401.38
527.355	389.38
527.57	400.38
527.785	399.38
527.999	386.38
528.214	385.38
528.429	412.38
528.644	384.38
528.859	409.38
529.074	422.38
529.289	434.38
529.503	485.38
529.718	463.38
529.933	421.38
530.148	414.38
530.363	400.38
530.577	410.38
530.792	392.38
531.007	380.38
531.221	381.38
531.436	393.38
531.651	396.38
531.865	389.38
532.08	385.38
532.295	368.38
532.509	394.38
532.724	356.38
532.938	371.38
533.153	365.38
533.367	387.38
533.582	382.38
533.796	378.38
534.011	369.38
534.225	374.38
534.44	378.38
534.654	389.38
534.868	382.38
535.083	372.38
535.297	386.38
535.511	384.38
535.726	386.38
535.94	383.38
536.154	362.38
536.369	372.38
536.583	373.38
536.797	376.38
537.011	351.38
537.225	385.38
537.44	350.38
537.654	353.38
537.868	358.38
538.082	367.38
538.296	383.38
538.51	372.38
538.724	372.38
538.938	388.38
539.153	368.38
539.367	374.38
539.581	368.38
539.795	360.38
540.009	371.38
540.222	368.38
540.436	360.38
540.65	370.38
540.864	381.38
541.078	392.38
541.292	399.38
541.506	375.38
541.72	390.38
541.934	381.38
542.147	363.38
542.361	370.38
542.575	374.38
542.789	351.38
543.002	358.38
543.216	363.38
543.43	367.38
543.644	366.38
543.857	378.38
544.071	376.38
544.285	392.38
544.498	381.38
544.712	379.38
544.925	364.38
545.139	378.38
545.352	374.38
545.566	367.38
545.779	380.38
545.993	351.38
546.206	373.38
546.42	365.38
546.633	368.38
546.847	364.38
547.06	343.38
547.274	358.38
547.487	354.38
547.7	360.38
547.914	352.38
548.127	342.38
548.34	370.38
548.554	354.38
548.767	350.38
548.98	351.38
549.193	359.38
549.407	375.38
549.62	359.38
549.833	361.38
550.046	350.38
550.259	368.38
550.473	348.38
550.686	351.38
550.899	352.38
551.112	346.38
551.325	331.38
551.538	353.38
551.751	334.38
551.964	346.38
552.177	352.38
552.39	359.38
552.603	339.38
552.816	353.38
553.029	364.38
553.242	347.38
553.455	368.38
553.667	342.38
553.88	370.38
554.093	369.38
554.306	368.38
554.519	361.38
554.732	351.38
554.944	349.38
555.157	333.38
555.37	338.38
555.583	360.38
555.795	334.38
556.008	342.38
556.221	328.38
556.433	334.38
556.646	326.38
556.859	331.38
557.071	313.38
557.284	322.38
557.496	313.38
557.709	331.38
557.921	326.38
558.134	314.38
558.346	315.38
558.559	316.38
558.771	329.38
558.984	331.38
559.196	322.38
559.409	295.38
559.621	311.38
559.833	315.38
560.046	294.38
560.258	319.38
560.47	317.38
560.683	319.38
560.895	315.38
561.107	303.38
561.32	321.38
561.532	299.38
561.744	322.38
561.956	305.38
562.168	323.38
562.381	322.38
562.593	292.38
562.805	330.38
563.017	314.38
563.229	305.38
563.441	316.38
563.653	320.38
563.865	305.38
564.077	328.38
564.289	316.38
564.501	317.38
564.713	332.38
564.925	325.38
565.137	351.38
565.349	352.38
565.561	334.38
565.773	333.38
565.985	328.38
566.197	333.38
566.408	328.38
566.62	368.38
566.832	356.38
567.044	363.38
567.255	357.38
567.467	365.38
567.679	359.38
567.891	369.38
568.102	358.38
568.314	366.38
568.526	376.38
568.737	350.38
568.949	335.38
569.161	317.38
569.372	326.38
569.584	313.38
569.795	314.38
570.007	314.38
570.218	352.38
570.43	324.38
570.641	296.38
570.853	300.38
571.064	297.38
571.276	295.38
571.487	297.38
571.698	288.38
571.91	273.38
572.121	279.38
572.333	284.38
572.544	289.38
572.755	277.38
572.966	296.38
573.178	286.38
573.389	295.38
573.6	279.38
573.811	270.38
574.023	269.38
574.234	270.38
574.445	277.38
574.656	255.38
574.867	259.38
575.078	257.38
575.289	252.38
575.501	252.38
575.712	256.38
575.923	251.38
576.134	240.38
576.345	266.38
576.556	251.38
576.767	264.38
576.978	266.38
577.188	268.38
577.399	277.38
577.61	264.38
577.821	271.38
578.032	250.38
578.243	298.38
578.454	439.38
578.665	324.38
578.875	291.38
579.086	264.38
579.297	250.38
579.508	261.38
579.718	260.38
579.929	228.38
580.14	267.38
580.35	227.38
580.561	248.38
580.772	241.38
580.982	259.38
581.193	258.38
581.403	251.38
581.614	253.38
581.825	249.38
582.035	241.38
582.246	248.38
582.456	260.38
582.667	257.38
582.877	246.38
583.087	261.38
583.298	255.38
583.508	246.38
583.719	245.38
583.929	252.38
584.139	252.38
584.35	244.38
584.56	236.38
584.77	238.38
584.981	243.38
585.191	251.38
585.401	241.38
585.611	242.38
585.821	253.38
586.032	250.38
586.242	235.38
586.452	248.38
586.662	235.38
586.872	255.38
587.082	247.38
587.292	250.38
587.502	239.38
587.713	216.38
587.923	233.38
588.133	230.38
588.343	241.38
588.553	223.38
588.762	240.38
588.972	231.38
589.182	231.38
589.392	247.38
589.602	220.38
589.812	244.38
590.022	239.38
590.232	216.38
590.441	238.38
590.651	240.38
590.861	237.38
591.071	238.38
591.281	244.38
591.49	242.38
591.7	248.38
591.91	226.38
592.119	251.38
592.329	253.38
592.539	239.38
592.748	254.38
592.958	260.38
593.167	253.38
593.377	242.38
593.587	236.38
593.796	248.38
594.006	262.38
594.215	248.38
594.424	252.38
594.634	254.38
594.843	256.38
595.053	239.38
595.262	244.38
595.472	262.38
595.681	246.38
595.89	231.38
596.1	244.38
596.309	228.38
596.518	229.38
596.727	225.38
596.937	233.38
597.146	213.38
597.355	226.38
597.564	219.38
597.774	216.38
597.983	200.38
598.192	221.38
598.401	214.38
598.61	203.38
598.819	208.38
599.028	221.38
599.237	211.38
599.446	206.38
599.655	223.38
599.864	229.38
600.073	217.38
600.282	218.38
600.491	221.38
600.7	225.38
600.909	208.38
601.118	206.38
601.327	206.38
601.536	218.38
601.745	200.38
601.953	228.38
602.162	220.38
602.371	209.38
602.58	217.38
602.789	216.38
602.997	238.38
603.206	210.38
603.415	199.38
603.623	202.38
603.832	200.38
604.041	209.38
604.249	217.38
604.458	217.38
604.666	214.38
604.875	199.38
605.084	204.38
605.292	207.38
605.501	205.38
605.709	210.38
605.918	208.38
606.126	208.38
606.334	196.38
606.543	216.38
606.751	210.38
606.96	212.38
607.168	202.38
607.376	220.38
607.585	208.38
607.793	203.38
608.001	213.38
608.21	204.38
608.418	205.38
608.626	198.38
608.834	203.38
609.043	209.38
609.251	203.38
609.459	202.38
609.667	197.38
609.875	206.38
610.083	199.38
610.291	203.38
610.499	199.38
610.707	209.38
610.916	218.38
611.124	208.38
611.332	214.38
611.54	216.38
611.748	225.38
611.955	217.38
612.163	193.38
612.371	212.38
612.579	207.38
612.787	212.38
612.995	187.38
613.203	227.38
613.411	206.38
613.618	212.38
613.826	209.38
614.034	212.38
614.242	216.38
614.449	204.38
614.657	213.38
614.865	207.38
615.072	209.38
615.28	192.38
615.488	200.38
615.695	197.38
615.903	208.38
616.111	201.38
616.318	200.38
616.526	208.38
616.733	210.38
616.941	204.38
617.148	203.38
617.356	209.38
617.563	184.38
617.771	187.38
617.978	192.38
618.185	198.38
618.393	206.38
618.6	189.38
618.807	205.38
619.015	192.38
619.222	202.38
619.429	191.38
619.637	192.38
619.844	194.38
620.051	191.38
620.258	191.38
620.466	199.38
620.673	194.38
620.88	201.38
621.087	185.38
621.294	193.38
621.501	191.38
621.708	190.38
621.915	202.38
622.122	194.38
622.329	206.38
622.536	197.38
622.743	207.38
622.95	191.38
623.157	191.38
623.364	204.38
623.571	189.38
623.778	180.38
623.985	180.38
624.192	175.38
624.399	178.38
624.606	169.38
624.812	177.38
625.019	197.38
625.226	180.38
625.433	169.38
625.639	180.38
625.846	174.38
626.053	160.38
626.259	170.38
626.466	165.38
626.673	167.38
626.879	177.38
627.086	176.38
627.293	168.38
627.499	183.38
627.706	176.38
627.912	188.38
628.119	164.38
628.325	172.38
628.532	170.38
628.738	158.38
628.945	177.38
629.151	173.38
629.357	179.38
629.564	177.38
629.77	174.38
629.976	180.38
630.183	160.38
630.389	178.38
630.595	157.38
630.802	161.38
631.008	175.38
631.214	166.38
631.42	168.38
631.627	174.38
631.833	165.38
632.039	170.38
632.245	157.38
632.451	168.38
632.657	169.38
632.863	174.38
633.069	166.38
633.275	172.38
633.481	163.38
633.688	162.38
633.893	162.38
634.099	161.38
634.305	167.38
634.511	169.38
634.717	176.38
634.923	154.38
635.129	160.38
635.335	146.38
635.541	174.38
635.747	170.38
635.952	164.38
636.158	150.38
636.364	162.38
636.57	176.38
636.775	169.38
636.981	149.38
637.187	164.38
637.392	162.38
637.598	153.38
637.804	161.38
638.009	154.38
638.215	160.38
638.421	152.38
638.626	143.38
638.832	165.38
639.037	154.38
639.243	166.38
639.448	165.38
639.654	169.38
639.859	154.38
640.065	148.38
640.27	154.38
640.475	160.38
640.681	161.38
640.886	165.38
641.091	143.38
641.297	164.38
641.502	158.38
641.707	146.38
641.913	159.38
642.118	166.38
642.323	154.38
642.528	159.38
642.733	171.38
642.939	147.38
643.144	158.38
643.349	147.38
643.554	164.38
643.759	145.38
643.964	157.38
644.169	160.38
644.374	139.38
644.579	149.38
644.784	146.38
644.989	165.38
645.194	164.38
645.399	144.38
645.604	162.38
645.809	160.38
646.014	138.38
646.219	156.38
646.423	146.38
646.628	144.38
646.833	162.38
647.038	133.38
647.243	152.38
647.447	159.38
647.652	152.38
647.857	139.38
648.062	166.38
648.266	143.38
648.471	152.38
648.676	152.38
648.88	170.38
649.085	162.38
649.289	161.38
649.494	167.38
649.698	176.38
649.903	169.38
650.107	139.38
650.312	154.38
650.516	146.38
650.721	145.38
650.925	165.38
651.13	142.38
651.334	140.38
651.539	139.38
651.743	129.38
651.947	129.38
652.152	153.38
652.356	144.38
652.56	134.38
652.764	125.38
652.969	148.38
653.173	129.38
653.377	126.38
653.581	133.38
653.785	135.38
653.99	127.38
654.194	138.38
654.398	136.38
654.602	131.38
654.806	139.38
655.01	135.38
655.214	134.38
655.418	135.38
655.622	120.38
655.826	114.38
656.03	129.38
656.234	138.38
656.438	134.38
656.642	122.38
656.846	129.38
657.049	118.38
657.253	126.38
657.457	119.38
657.661	127.38
657.865	119.38
658.068	106.38
658.272	114.38
658.476	104.38
658.68	106.38
658.883	96.38
659.087	117.38
659.291	104.38
659.494	104.38
659.698	103.38
659.901	101.38
660.105	92.38
660.309	100.38
660.512	95.38
660.716	82.38
660.919	96.38
661.123	90.38
661.326	97.38
661.53	111.38
661.733	79.38
661.936	99.38
662.14	90.38
662.343	82.38
662.546	92.38
662.75	97.38
662.953	98.38
663.156	83.38
663.36	89.38
663.563	95.38
663.766	90.38
663.969	88.38
664.173	80.38
664.376	83.38
664.579	90.38
664.782	95.38
664.985	95.38
665.188	100.38
665.391	92.38
665.594	88.38
665.797	95.38
666	79.38
666.203	87.38
666.406	87.38
666.609	94.38
666.812	93.38
667.015	84.38
667.218	92.38
667.421	87.38
667.624	79.38
667.827	88.38
668.03	81.38
668.232	87.38
668.435	103.38
668.638	89.38
668.841	100.38
669.043	80.38
669.246	83.38
669.449	82.38
669.651	88.38
669.854	85.38
670.057	86.38
670.259	89.38
670.462	63.38
670.665	84.38
670.867	102.38
671.07	88.38
671.272	89.38
671.475	80.38
671.677	86.38
671.88	73.38
672.082	85.38
672.284	92.38
672.487	86.38
672.689	75.38
672.892	84.38
