Data from 1971.PennyLincolnUp.Lamp.En5.5.200Scan.071719.P1.Scan 2. Changed Angle._HRD10591_15-25-13-843.txt Node
Date: Thu Jul 18 15:25:13 EDT 2019
User: cochatt
Spectrometer: HR+D1059
Trigger mode: 1
Integration Time (sec): 1.000000E-1
Scans to average: 1
Electric dark correction enabled: true
Nonlinearity correction enabled: false
Boxcar width: 0
XAxis mode: Wavelengths
Number of Pixels in Spectrum: 2048
>>>>>Begin Spectral Data<<<<<
223.165	-15.94
223.4	-15.94
223.635	-15.94
223.869	-8.94
224.104	-24.94
224.338	-19.94
224.573	-7.94
224.808	-11.94
225.042	-12.94
225.277	9.06
225.511	-9.94
225.746	1.06
225.98	1.06
226.215	15.06
226.449	10.06
226.683	17.06
226.918	37.06
227.152	22.06
227.387	27.06
227.621	31.06
227.856	48.06
228.09	39.06
228.324	54.06
228.559	39.06
228.793	66.06
229.027	79.06
229.262	117.06
229.496	127.06
229.73	158.06
229.964	182.06
230.199	140.06
230.433	127.06
230.667	123.06
230.901	132.06
231.136	129.06
231.37	108.06
231.604	121.06
231.838	124.06
232.072	112.06
232.306	113.06
232.541	125.06
232.775	120.06
233.009	128.06
233.243	119.06
233.477	112.06
233.711	120.06
233.945	122.06
234.179	118.06
234.413	122.06
234.647	125.06
234.881	118.06
235.115	126.06
235.349	122.06
235.583	115.06
235.817	126.06
236.051	143.06
236.285	125.06
236.519	136.06
236.753	147.06
236.987	156.06
237.221	202.06
237.455	283.06
237.689	220.06
237.922	157.06
238.156	146.06
238.39	136.06
238.624	126.06
238.858	139.06
239.091	131.06
239.325	131.06
239.559	136.06
239.793	142.06
240.027	140.06
240.26	158.06
240.494	188.06
240.728	167.06
240.961	152.06
241.195	141.06
241.429	162.06
241.662	153.06
241.896	158.06
242.13	157.06
242.363	142.06
242.597	142.06
242.83	141.06
243.064	151.06
243.298	141.06
243.531	155.06
243.765	140.06
243.998	152.06
244.232	143.06
244.465	146.06
244.699	166.06
244.932	153.06
245.166	154.06
245.399	150.06
245.633	156.06
245.866	145.06
246.099	152.06
246.333	166.06
246.566	151.06
246.8	170.06
247.033	167.06
247.266	165.06
247.5	163.06
247.733	186.06
247.966	190.06
248.2	188.06
248.433	173.06
248.666	188.06
248.899	192.06
249.133	219.06
249.366	219.06
249.599	218.06
249.832	206.06
250.066	202.06
250.299	208.06
250.532	206.06
250.765	241.06
250.998	253.06
251.231	278.06
251.465	247.06
251.698	231.06
251.931	216.06
252.164	225.06
252.397	203.06
252.63	209.06
252.863	230.06
253.096	232.06
253.329	251.06
253.562	268.06
253.795	254.06
254.028	230.06
254.261	253.06
254.494	244.06
254.727	282.06
254.96	310.06
255.193	311.06
255.426	302.06
255.659	254.06
255.892	263.06
256.124	259.06
256.357	256.06
256.59	262.06
256.823	258.06
257.056	234.06
257.289	235.06
257.521	224.06
257.754	230.06
257.987	224.06
258.22	210.06
258.452	222.06
258.685	227.06
258.918	231.06
259.151	221.06
259.383	237.06
259.616	233.06
259.849	241.06
260.081	250.06
260.314	270.06
260.547	274.06
260.779	261.06
261.012	257.06
261.244	243.06
261.477	246.06
261.71	232.06
261.942	247.06
262.175	261.06
262.407	246.06
262.64	229.06
262.872	232.06
263.105	231.06
263.337	227.06
263.57	237.06
263.802	225.06
264.035	223.06
264.267	225.06
264.499	216.06
264.732	251.06
264.964	207.06
265.197	205.06
265.429	213.06
265.661	221.06
265.894	229.06
266.126	228.06
266.358	225.06
266.591	222.06
266.823	240.06
267.055	229.06
267.287	225.06
267.52	234.06
267.752	214.06
267.984	214.06
268.216	236.06
268.448	236.06
268.681	228.06
268.913	280.06
269.145	269.06
269.377	297.06
269.609	317.06
269.841	286.06
270.073	306.06
270.306	322.06
270.538	326.06
270.77	343.06
271.002	328.06
271.234	333.06
271.466	316.06
271.698	334.06
271.93	348.06
272.162	362.06
272.394	347.06
272.626	327.06
272.858	328.06
273.09	306.06
273.322	297.06
273.553	281.06
273.785	285.06
274.017	277.06
274.249	262.06
274.481	267.06
274.713	285.06
274.945	292.06
275.176	261.06
275.408	285.06
275.64	268.06
275.872	283.06
276.104	284.06
276.335	264.06
276.567	294.06
276.799	309.06
277.031	320.06
277.262	331.06
277.494	322.06
277.726	311.06
277.957	316.06
278.189	274.06
278.421	282.06
278.652	276.06
278.884	284.06
279.115	290.06
279.347	268.06
279.579	279.06
279.81	261.06
280.042	276.06
280.273	247.06
280.505	248.06
280.736	254.06
280.968	275.06
281.199	262.06
281.431	268.06
281.662	264.06
281.894	286.06
282.125	280.06
282.356	289.06
282.588	304.06
282.819	318.06
283.051	268.06
283.282	268.06
283.513	261.06
283.745	261.06
283.976	284.06
284.207	266.06
284.439	273.06
284.67	278.06
284.901	268.06
285.132	280.06
285.364	287.06
285.595	271.06
285.826	282.06
286.057	279.06
286.288	269.06
286.52	278.06
286.751	280.06
286.982	278.06
287.213	267.06
287.444	266.06
287.675	288.06
287.906	297.06
288.138	292.06
288.369	312.06
288.6	310.06
288.831	284.06
289.062	287.06
289.293	288.06
289.524	297.06
289.755	276.06
289.986	285.06
290.217	281.06
290.448	295.06
290.679	281.06
290.91	263.06
291.141	275.06
291.371	286.06
291.602	266.06
291.833	282.06
292.064	258.06
292.295	295.06
292.526	278.06
292.757	301.06
292.987	285.06
293.218	269.06
293.449	291.06
293.68	269.06
293.91	267.06
294.141	276.06
294.372	274.06
294.603	299.06
294.833	298.06
295.064	278.06
295.295	288.06
295.525	283.06
295.756	283.06
295.987	296.06
296.217	321.06
296.448	328.06
296.679	276.06
296.909	308.06
297.14	286.06
297.37	296.06
297.601	313.06
297.831	288.06
298.062	308.06
298.292	276.06
298.523	292.06
298.753	309.06
298.984	292.06
299.214	304.06
299.445	307.06
299.675	286.06
299.905	312.06
300.136	296.06
300.366	303.06
300.597	294.06
300.827	314.06
301.057	302.06
301.288	322.06
301.518	344.06
301.748	314.06
301.979	306.06
302.209	319.06
302.439	320.06
302.669	317.06
302.9	318.06
303.13	330.06
303.36	339.06
303.59	328.06
303.82	325.06
304.051	338.06
304.281	323.06
304.511	320.06
304.741	293.06
304.971	287.06
305.201	320.06
305.431	324.06
305.661	320.06
305.891	324.06
306.121	326.06
306.352	316.06
306.582	341.06
306.812	335.06
307.042	317.06
307.272	316.06
307.502	329.06
307.731	323.06
307.961	342.06
308.191	309.06
308.421	334.06
308.651	350.06
308.881	340.06
309.111	347.06
309.341	361.06
309.571	361.06
309.8	377.06
310.03	379.06
310.26	386.06
310.49	376.06
310.72	402.06
310.949	416.06
311.179	441.06
311.409	382.06
311.639	392.06
311.868	382.06
312.098	397.06
312.328	390.06
312.557	409.06
312.787	435.06
313.017	452.06
313.246	399.06
313.476	387.06
313.706	385.06
313.935	410.06
314.165	413.06
314.394	417.06
314.624	411.06
314.853	406.06
315.083	410.06
315.312	373.06
315.542	389.06
315.771	374.06
316.001	364.06
316.23	360.06
316.46	373.06
316.689	366.06
316.919	397.06
317.148	415.06
317.377	406.06
317.607	406.06
317.836	406.06
318.065	389.06
318.295	378.06
318.524	378.06
318.753	364.06
318.983	384.06
319.212	388.06
319.441	393.06
319.67	390.06
319.9	408.06
320.129	378.06
320.358	414.06
320.587	397.06
320.816	386.06
321.046	405.06
321.275	423.06
321.504	417.06
321.733	424.06
321.962	425.06
322.191	460.06
322.42	461.06
322.649	490.06
322.878	492.06
323.108	501.06
323.337	531.06
323.566	575.06
323.795	624.06
324.024	682.06
324.253	836.06
324.482	1240.06
324.71	1988.06
324.939	2820.06
325.168	2478.06
325.397	1260.06
325.626	822.06
325.855	650.06
326.084	572.06
326.313	559.06
326.542	576.06
326.77	647.06
326.999	775.06
327.228	1092.06
327.457	1704.06
327.686	2097.06
327.914	1412.06
328.143	897.06
328.372	794.06
328.6	732.06
328.829	652.06
329.058	676.06
329.287	706.06
329.515	645.06
329.744	582.06
329.972	568.06
330.201	593.06
330.43	630.06
330.658	707.06
330.887	747.06
331.115	706.06
331.344	608.06
331.572	549.06
331.801	530.06
332.03	516.06
332.258	517.06
332.486	480.06
332.715	484.06
332.943	467.06
333.172	459.06
333.4	454.06
333.629	469.06
333.857	474.06
334.085	493.06
334.314	516.06
334.542	563.06
334.771	582.06
334.999	512.06
335.227	459.06
335.455	478.06
335.684	465.06
335.912	455.06
336.14	448.06
336.369	471.06
336.597	456.06
336.825	451.06
337.053	453.06
337.281	435.06
337.51	438.06
337.738	442.06
337.966	429.06
338.194	453.06
338.422	450.06
338.65	449.06
338.878	427.06
339.106	444.06
339.334	422.06
339.562	413.06
339.79	437.06
340.018	437.06
340.246	448.06
340.474	450.06
340.702	446.06
340.93	449.06
341.158	453.06
341.386	442.06
341.614	457.06
341.842	447.06
342.07	412.06
342.298	420.06
342.526	437.06
342.754	428.06
342.981	389.06
343.209	398.06
343.437	406.06
343.665	416.06
343.893	428.06
344.12	433.06
344.348	440.06
344.576	457.06
344.804	443.06
345.031	451.06
345.259	472.06
345.487	450.06
345.714	442.06
345.942	426.06
346.17	423.06
346.397	418.06
346.625	435.06
346.853	445.06
347.08	420.06
347.308	454.06
347.535	441.06
347.763	450.06
347.99	475.06
348.218	465.06
348.445	455.06
348.673	463.06
348.9	429.06
349.128	431.06
349.355	388.06
349.583	428.06
349.81	428.06
350.037	419.06
350.265	405.06
350.492	442.06
350.72	418.06
350.947	419.06
351.174	447.06
351.402	442.06
351.629	466.06
351.856	469.06
352.083	451.06
352.311	463.06
352.538	456.06
352.765	448.06
352.992	445.06
353.22	470.06
353.447	444.06
353.674	417.06
353.901	418.06
354.128	415.06
354.355	413.06
354.583	412.06
354.81	414.06
355.037	377.06
355.264	410.06
355.491	410.06
355.718	374.06
355.945	398.06
356.172	390.06
356.399	380.06
356.626	390.06
356.853	417.06
357.08	404.06
357.307	399.06
357.534	394.06
357.761	381.06
357.988	395.06
358.215	413.06
358.441	415.06
358.668	386.06
358.895	398.06
359.122	406.06
359.349	419.06
359.576	440.06
359.802	482.06
360.029	507.06
360.256	530.06
360.483	502.06
360.709	479.06
360.936	447.06
361.163	456.06
361.39	466.06
361.616	422.06
361.843	440.06
362.07	439.06
362.296	461.06
362.523	448.06
362.749	438.06
362.976	429.06
363.203	416.06
363.429	404.06
363.656	409.06
363.882	410.06
364.109	433.06
364.335	414.06
364.562	429.06
364.788	398.06
365.015	406.06
365.241	428.06
365.468	417.06
365.694	452.06
365.92	439.06
366.147	444.06
366.373	421.06
366.599	426.06
366.826	423.06
367.052	405.06
367.278	412.06
367.505	406.06
367.731	395.06
367.957	416.06
368.184	398.06
368.41	421.06
368.636	442.06
368.862	427.06
369.089	424.06
369.315	420.06
369.541	415.06
369.767	421.06
369.993	402.06
370.219	418.06
370.445	411.06
370.672	406.06
370.898	388.06
371.124	426.06
371.35	412.06
371.576	412.06
371.802	374.06
372.028	404.06
372.254	401.06
372.48	395.06
372.706	394.06
372.932	388.06
373.158	410.06
373.384	396.06
373.61	410.06
373.835	395.06
374.061	402.06
374.287	415.06
374.513	444.06
374.739	397.06
374.965	409.06
375.191	422.06
375.416	424.06
375.642	410.06
375.868	410.06
376.094	405.06
376.319	420.06
376.545	402.06
376.771	394.06
376.997	408.06
377.222	396.06
377.448	419.06
377.674	420.06
377.899	404.06
378.125	381.06
378.35	394.06
378.576	417.06
378.802	407.06
379.027	413.06
379.253	422.06
379.478	395.06
379.704	403.06
379.929	408.06
380.155	408.06
380.38	410.06
380.606	419.06
380.831	420.06
381.057	424.06
381.282	402.06
381.507	426.06
381.733	404.06
381.958	404.06
382.184	396.06
382.409	425.06
382.634	408.06
382.86	403.06
383.085	404.06
383.31	408.06
383.535	433.06
383.761	410.06
383.986	428.06
384.211	405.06
384.436	408.06
384.662	423.06
384.887	427.06
385.112	419.06
385.337	433.06
385.562	449.06
385.787	428.06
386.013	433.06
386.238	463.06
386.463	449.06
386.688	469.06
386.913	434.06
387.138	442.06
387.363	418.06
387.588	452.06
387.813	450.06
388.038	441.06
388.263	429.06
388.488	417.06
388.713	446.06
388.938	436.06
389.163	463.06
389.387	442.06
389.612	423.06
389.837	446.06
390.062	434.06
390.287	434.06
390.512	445.06
390.736	440.06
390.961	444.06
391.186	437.06
391.411	442.06
391.636	460.06
391.86	450.06
392.085	448.06
392.31	436.06
392.534	436.06
392.759	442.06
392.984	450.06
393.208	432.06
393.433	447.06
393.658	445.06
393.882	441.06
394.107	443.06
394.331	435.06
394.556	425.06
394.78	451.06
395.005	443.06
395.229	437.06
395.454	434.06
395.678	456.06
395.903	455.06
396.127	480.06
396.352	479.06
396.576	474.06
396.801	463.06
397.025	452.06
397.249	449.06
397.474	465.06
397.698	472.06
397.922	481.06
398.147	488.06
398.371	488.06
398.595	507.06
398.82	464.06
399.044	514.06
399.268	506.06
399.492	518.06
399.717	546.06
399.941	573.06
400.165	582.06
400.389	616.06
400.613	581.06
400.837	542.06
401.062	541.06
401.286	503.06
401.51	482.06
401.734	500.06
401.958	514.06
402.182	498.06
402.406	530.06
402.63	525.06
402.854	512.06
403.078	517.06
403.302	549.06
403.526	553.06
403.75	527.06
403.974	518.06
404.198	527.06
404.422	544.06
404.645	532.06
404.869	562.06
405.093	575.06
405.317	604.06
405.541	651.06
405.765	588.06
405.988	566.06
406.212	601.06
406.436	618.06
406.66	617.06
406.883	589.06
407.107	608.06
407.331	648.06
407.555	709.06
407.778	738.06
408.002	641.06
408.226	607.06
408.449	593.06
408.673	621.06
408.896	627.06
409.12	688.06
409.344	632.06
409.567	556.06
409.791	546.06
410.014	544.06
410.238	536.06
410.461	531.06
410.685	553.06
410.908	563.06
411.132	594.06
411.355	622.06
411.578	614.06
411.802	534.06
412.025	565.06
412.249	526.06
412.472	585.06
412.695	611.06
412.919	612.06
413.142	545.06
413.365	537.06
413.589	514.06
413.812	516.06
414.035	521.06
414.258	523.06
414.482	487.06
414.705	517.06
414.928	512.06
415.151	490.06
415.374	498.06
415.597	520.06
415.821	523.06
416.044	515.06
416.267	502.06
416.49	510.06
416.713	502.06
416.936	522.06
417.159	506.06
417.382	544.06
417.605	501.06
417.828	539.06
418.051	542.06
418.274	544.06
418.497	510.06
418.72	524.06
418.943	518.06
419.166	526.06
419.389	530.06
419.611	547.06
419.834	555.06
420.057	550.06
420.28	558.06
420.503	562.06
420.726	564.06
420.948	554.06
421.171	619.06
421.394	627.06
421.617	606.06
421.839	574.06
422.062	546.06
422.285	599.06
422.507	640.06
422.73	717.06
422.953	705.06
423.175	608.06
423.398	580.06
423.621	577.06
423.843	608.06
424.066	606.06
424.288	624.06
424.511	629.06
424.733	690.06
424.956	783.06
425.178	737.06
425.401	744.06
425.623	785.06
425.846	655.06
426.068	632.06
426.291	628.06
426.513	627.06
426.735	652.06
426.958	679.06
427.18	781.06
427.402	852.06
427.625	1002.06
427.847	908.06
428.069	793.06
428.292	708.06
428.514	650.06
428.736	588.06
428.958	596.06
429.181	563.06
429.403	567.06
429.625	591.06
429.847	613.06
430.069	682.06
430.292	685.06
430.514	584.06
430.736	584.06
430.958	557.06
431.18	531.06
431.402	528.06
431.624	510.06
431.846	525.06
432.068	517.06
432.29	504.06
432.512	524.06
432.734	534.06
432.956	548.06
433.178	548.06
433.4	568.06
433.622	541.06
433.844	526.06
434.066	522.06
434.287	506.06
434.509	533.06
434.731	506.06
434.953	524.06
435.175	573.06
435.397	609.06
435.618	615.06
435.84	683.06
436.062	781.06
436.284	836.06
436.505	693.06
436.727	643.06
436.949	595.06
437.17	584.06
437.392	573.06
437.614	577.06
437.835	644.06
438.057	773.06
438.278	909.06
438.5	871.06
438.721	898.06
438.943	894.06
439.165	737.06
439.386	653.06
439.608	638.06
439.829	633.06
440.05	682.06
440.272	743.06
440.493	705.06
440.715	651.06
440.936	590.06
441.158	587.06
441.379	556.06
441.6	625.06
441.822	635.06
442.043	676.06
442.264	768.06
442.486	813.06
442.707	692.06
442.928	630.06
443.149	633.06
443.371	674.06
443.592	717.06
443.813	814.06
444.034	876.06
444.255	707.06
444.476	628.06
444.698	638.06
444.919	626.06
445.14	727.06
445.361	696.06
445.582	652.06
445.803	762.06
446.024	870.06
446.245	906.06
446.466	808.06
446.687	686.06
446.908	654.06
447.129	598.06
447.35	580.06
447.571	571.06
447.792	578.06
448.013	582.06
448.234	580.06
448.455	672.06
448.675	793.06
448.896	921.06
449.117	797.06
449.338	732.06
449.559	854.06
449.779	925.06
450	752.06
450.221	654.06
450.442	606.06
450.662	572.06
450.883	596.06
451.104	643.06
451.324	580.06
451.545	580.06
451.766	564.06
451.986	523.06
452.207	532.06
452.428	503.06
452.648	520.06
452.869	513.06
453.089	522.06
453.31	535.06
453.53	525.06
453.751	505.06
453.971	530.06
454.192	553.06
454.412	532.06
454.633	516.06
454.853	525.06
455.073	510.06
455.294	549.06
455.514	642.06
455.734	612.06
455.955	525.06
456.175	487.06
456.395	473.06
456.616	513.06
456.836	488.06
457.056	474.06
457.276	480.06
457.497	488.06
457.717	484.06
457.937	484.06
458.157	484.06
458.377	512.06
458.598	518.06
458.818	608.06
459.038	727.06
459.258	737.06
459.478	602.06
459.698	538.06
459.918	541.06
460.138	536.06
460.358	557.06
460.578	514.06
460.798	518.06
461.018	525.06
461.238	516.06
461.458	507.06
461.678	508.06
461.898	514.06
462.118	481.06
462.338	514.06
462.558	508.06
462.777	530.06
462.997	512.06
463.217	534.06
463.437	553.06
463.657	555.06
463.876	531.06
464.096	546.06
464.316	540.06
464.536	545.06
464.755	552.06
464.975	566.06
465.195	627.06
465.414	764.06
465.634	658.06
465.854	624.06
466.073	568.06
466.293	537.06
466.512	525.06
466.732	516.06
466.951	519.06
467.171	523.06
467.391	535.06
467.61	516.06
467.829	547.06
468.049	539.06
468.268	558.06
468.488	525.06
468.707	518.06
468.927	506.06
469.146	499.06
469.365	493.06
469.585	494.06
469.804	507.06
470.023	530.06
470.243	544.06
470.462	529.06
470.681	572.06
470.901	550.06
471.12	556.06
471.339	517.06
471.558	537.06
471.777	522.06
471.997	522.06
472.216	528.06
472.435	598.06
472.654	573.06
472.873	541.06
473.092	538.06
473.311	529.06
473.53	518.06
473.749	561.06
473.968	604.06
474.187	708.06
474.406	724.06
474.625	606.06
474.844	574.06
475.063	537.06
475.282	541.06
475.501	545.06
475.72	534.06
475.939	542.06
476.158	535.06
476.377	542.06
476.596	562.06
476.814	546.06
477.033	558.06
477.252	552.06
477.471	554.06
477.69	570.06
477.908	579.06
478.127	557.06
478.346	584.06
478.564	580.06
478.783	589.06
479.002	613.06
479.22	617.06
479.439	605.06
479.658	651.06
479.876	658.06
480.095	644.06
480.313	672.06
480.532	655.06
480.751	647.06
480.969	657.06
481.188	742.06
481.406	792.06
481.624	686.06
481.843	684.06
482.061	645.06
482.28	643.06
482.498	661.06
482.717	618.06
482.935	633.06
483.153	620.06
483.372	646.06
483.59	611.06
483.808	621.06
484.027	620.06
484.245	632.06
484.463	642.06
484.681	655.06
484.9	616.06
485.118	640.06
485.336	631.06
485.554	657.06
485.772	657.06
485.99	640.06
486.209	639.06
486.427	684.06
486.645	690.06
486.863	716.06
487.081	676.06
487.299	696.06
487.517	709.06
487.735	723.06
487.953	694.06
488.171	703.06
488.389	675.06
488.607	697.06
488.825	680.06
489.043	682.06
489.261	714.06
489.479	719.06
489.696	710.06
489.914	715.06
490.132	706.06
490.35	746.06
490.568	744.06
490.786	740.06
491.003	781.06
491.221	793.06
491.439	767.06
491.657	791.06
491.874	816.06
492.092	814.06
492.31	837.06
492.527	853.06
492.745	812.06
492.963	824.06
493.18	822.06
493.398	836.06
493.615	834.06
493.833	842.06
494.05	825.06
494.268	851.06
494.485	844.06
494.703	831.06
494.92	819.06
495.138	837.06
495.355	837.06
495.573	828.06
495.79	815.06
496.008	841.06
496.225	833.06
496.442	833.06
496.66	822.06
496.877	840.06
497.094	820.06
497.312	833.06
497.529	846.06
497.746	853.06
497.963	855.06
498.181	880.06
498.398	890.06
498.615	867.06
498.832	886.06
499.049	903.06
499.267	898.06
499.484	924.06
499.701	924.06
499.918	917.06
500.135	995.06
500.352	1007.06
500.569	997.06
500.786	993.06
501.003	985.06
501.22	988.06
501.437	979.06
501.654	973.06
501.871	979.06
502.088	966.06
502.305	942.06
502.522	908.06
502.739	890.06
502.956	878.06
503.172	860.06
503.389	837.06
503.606	872.06
503.823	864.06
504.04	850.06
504.256	826.06
504.473	845.06
504.69	817.06
504.907	823.06
505.123	805.06
505.34	808.06
505.557	810.06
505.773	820.06
505.99	798.06
506.207	800.06
506.423	792.06
506.64	812.06
506.856	792.06
507.073	779.06
507.289	796.06
507.506	796.06
507.722	818.06
507.939	858.06
508.155	809.06
508.372	808.06
508.588	775.06
508.805	752.06
509.021	783.06
509.238	770.06
509.454	840.06
509.67	779.06
509.887	780.06
510.103	776.06
510.319	785.06
510.536	917.06
510.752	1575.06
510.968	1306.06
511.184	815.06
511.401	781.06
511.617	773.06
511.833	727.06
512.049	716.06
512.265	739.06
512.481	750.06
512.698	720.06
512.914	731.06
513.13	712.06
513.346	728.06
513.562	746.06
513.778	741.06
513.994	773.06
514.21	783.06
514.426	838.06
514.642	884.06
514.858	952.06
515.074	962.06
515.29	1169.06
515.506	1830.06
515.721	1456.06
515.937	973.06
516.153	850.06
516.369	802.06
516.585	783.06
516.801	780.06
517.016	742.06
517.232	757.06
517.448	713.06
517.664	754.06
517.879	740.06
518.095	728.06
518.311	712.06
518.527	723.06
518.742	719.06
518.958	728.06
519.173	721.06
519.389	700.06
519.605	747.06
519.82	738.06
520.036	783.06
520.251	816.06
520.467	855.06
520.682	830.06
520.898	839.06
521.113	891.06
521.329	969.06
521.544	1101.06
521.76	1445.06
521.975	2443.06
522.19	2369.06
522.406	1239.06
522.621	900.06
522.836	792.06
523.052	739.06
523.267	732.06
523.482	690.06
523.698	679.06
523.913	710.06
524.128	702.06
524.343	675.06
524.559	660.06
524.774	660.06
524.989	639.06
525.204	652.06
525.419	666.06
525.634	613.06
525.849	624.06
526.064	610.06
526.28	619.06
526.495	580.06
526.71	598.06
526.925	575.06
527.14	570.06
527.355	570.06
527.57	587.06
527.785	584.06
527.999	585.06
528.214	582.06
528.429	598.06
528.644	583.06
528.859	604.06
529.074	594.06
529.289	627.06
529.503	763.06
529.718	739.06
529.933	658.06
530.148	593.06
530.363	588.06
530.577	596.06
530.792	567.06
531.007	568.06
531.221	582.06
531.436	582.06
531.651	548.06
531.865	549.06
532.08	573.06
532.295	551.06
532.509	537.06
532.724	542.06
532.938	544.06
533.153	550.06
533.367	548.06
533.582	546.06
533.796	552.06
534.011	548.06
534.225	542.06
534.44	534.06
534.654	525.06
534.868	535.06
535.083	552.06
535.297	533.06
535.511	550.06
535.726	555.06
535.94	555.06
536.154	545.06
536.369	549.06
536.583	545.06
536.797	529.06
537.011	540.06
537.225	525.06
537.44	518.06
537.654	526.06
537.868	517.06
538.082	520.06
538.296	520.06
538.51	537.06
538.724	542.06
538.938	549.06
539.153	523.06
539.367	566.06
539.581	567.06
539.795	534.06
540.009	505.06
540.222	507.06
540.436	553.06
540.65	500.06
540.864	536.06
541.078	547.06
541.292	534.06
541.506	540.06
541.72	518.06
541.934	538.06
542.147	538.06
542.361	538.06
542.575	528.06
542.789	497.06
543.002	539.06
543.216	537.06
543.43	524.06
543.644	538.06
543.857	531.06
544.071	524.06
544.285	539.06
544.498	541.06
544.712	514.06
544.925	516.06
545.139	507.06
545.352	514.06
545.566	512.06
545.779	512.06
545.993	502.06
546.206	494.06
546.42	516.06
546.633	526.06
546.847	505.06
547.06	490.06
547.274	496.06
547.487	506.06
547.7	494.06
547.914	492.06
548.127	462.06
548.34	483.06
548.554	486.06
548.767	485.06
548.98	494.06
549.193	493.06
549.407	484.06
549.62	493.06
549.833	485.06
550.046	475.06
550.259	489.06
550.473	487.06
550.686	495.06
550.899	453.06
551.112	457.06
551.325	470.06
551.538	489.06
551.751	462.06
551.964	473.06
552.177	468.06
552.39	463.06
552.603	484.06
552.816	475.06
553.029	504.06
553.242	480.06
553.455	485.06
553.667	488.06
553.88	511.06
554.093	494.06
554.306	487.06
554.519	501.06
554.732	488.06
554.944	473.06
555.157	470.06
555.37	491.06
555.583	472.06
555.795	459.06
556.008	452.06
556.221	448.06
556.433	447.06
556.646	444.06
556.859	439.06
557.071	441.06
557.284	459.06
557.496	441.06
557.709	433.06
557.921	465.06
558.134	429.06
558.346	444.06
558.559	427.06
558.771	434.06
558.984	416.06
559.196	413.06
559.409	420.06
559.621	443.06
559.833	442.06
560.046	434.06
560.258	439.06
560.47	417.06
560.683	429.06
560.895	444.06
561.107	429.06
561.32	449.06
561.532	439.06
561.744	417.06
561.956	416.06
562.168	430.06
562.381	437.06
562.593	427.06
562.805	444.06
563.017	432.06
563.229	473.06
563.441	447.06
563.653	442.06
563.865	442.06
564.077	419.06
564.289	428.06
564.501	426.06
564.713	430.06
564.925	426.06
565.137	464.06
565.349	446.06
565.561	440.06
565.773	460.06
565.985	462.06
566.197	436.06
566.408	469.06
566.62	475.06
566.832	485.06
567.044	491.06
567.255	475.06
567.467	475.06
567.679	479.06
567.891	470.06
568.102	470.06
568.314	485.06
568.526	478.06
568.737	454.06
568.949	461.06
569.161	429.06
569.372	424.06
569.584	447.06
569.795	433.06
570.007	436.06
570.218	478.06
570.43	480.06
570.641	412.06
570.853	397.06
571.064	392.06
571.276	388.06
571.487	398.06
571.698	398.06
571.91	376.06
572.121	398.06
572.333	403.06
572.544	384.06
572.755	411.06
572.966	398.06
573.178	392.06
573.389	384.06
573.6	376.06
573.811	390.06
574.023	369.06
574.234	382.06
574.445	378.06
574.656	387.06
574.867	373.06
575.078	360.06
575.289	378.06
575.501	371.06
575.712	368.06
575.923	360.06
576.134	355.06
576.345	356.06
576.556	369.06
576.767	351.06
576.978	361.06
577.188	370.06
577.399	360.06
577.61	357.06
577.821	353.06
578.032	369.06
578.243	392.06
578.454	704.06
578.665	535.06
578.875	387.06
579.086	363.06
579.297	355.06
579.508	343.06
579.718	348.06
579.929	343.06
580.14	342.06
580.35	340.06
580.561	345.06
580.772	340.06
580.982	356.06
581.193	338.06
581.403	345.06
581.614	337.06
581.825	351.06
582.035	332.06
582.246	336.06
582.456	335.06
582.667	339.06
582.877	334.06
583.087	354.06
583.298	334.06
583.508	338.06
583.719	330.06
583.929	338.06
584.139	317.06
584.35	327.06
584.56	313.06
584.77	328.06
584.981	301.06
585.191	326.06
585.401	331.06
585.611	330.06
585.821	326.06
586.032	325.06
586.242	328.06
586.452	336.06
586.662	322.06
586.872	316.06
587.082	321.06
587.292	317.06
587.502	317.06
587.713	312.06
587.923	322.06
588.133	311.06
588.343	312.06
588.553	328.06
588.762	331.06
588.972	325.06
589.182	317.06
589.392	325.06
589.602	332.06
589.812	308.06
590.022	322.06
590.232	323.06
590.441	308.06
590.651	321.06
590.861	289.06
591.071	309.06
591.281	319.06
591.49	320.06
591.7	324.06
591.91	312.06
592.119	313.06
592.329	323.06
592.539	317.06
592.748	326.06
592.958	338.06
593.167	302.06
593.377	316.06
593.587	322.06
593.796	329.06
594.006	326.06
594.215	320.06
594.424	310.06
594.634	305.06
594.843	318.06
595.053	324.06
595.262	302.06
595.472	310.06
595.681	317.06
595.89	308.06
596.1	296.06
596.309	300.06
596.518	309.06
596.727	298.06
596.937	299.06
597.146	308.06
597.355	293.06
597.564	302.06
597.774	297.06
597.983	281.06
598.192	302.06
598.401	293.06
598.61	283.06
598.819	294.06
599.028	294.06
599.237	294.06
599.446	306.06
599.655	290.06
599.864	286.06
600.073	277.06
600.282	308.06
600.491	286.06
600.7	286.06
600.909	266.06
601.118	274.06
601.327	266.06
601.536	293.06
601.745	273.06
601.953	291.06
602.162	266.06
602.371	264.06
602.58	290.06
602.789	282.06
602.997	272.06
603.206	280.06
603.415	291.06
603.623	270.06
603.832	281.06
604.041	267.06
604.249	273.06
604.458	275.06
604.666	272.06
604.875	262.06
605.084	290.06
605.292	263.06
605.501	258.06
605.709	263.06
605.918	288.06
606.126	267.06
606.334	283.06
606.543	283.06
606.751	272.06
606.96	278.06
607.168	263.06
607.376	267.06
607.585	258.06
607.793	288.06
608.001	264.06
608.21	271.06
608.418	280.06
608.626	254.06
608.834	282.06
609.043	275.06
609.251	266.06
609.459	267.06
609.667	264.06
609.875	264.06
610.083	269.06
610.291	268.06
610.499	278.06
610.707	270.06
610.916	264.06
611.124	274.06
611.332	282.06
611.54	280.06
611.748	278.06
611.955	270.06
612.163	274.06
612.371	286.06
612.579	274.06
612.787	265.06
612.995	259.06
613.203	261.06
613.411	266.06
613.618	237.06
613.826	258.06
614.034	264.06
614.242	261.06
614.449	255.06
614.657	248.06
614.865	265.06
615.072	262.06
615.28	258.06
615.488	251.06
615.695	251.06
615.903	263.06
616.111	262.06
616.318	245.06
616.526	268.06
616.733	250.06
616.941	267.06
617.148	268.06
617.356	247.06
617.563	254.06
617.771	245.06
617.978	240.06
618.185	240.06
618.393	251.06
618.6	257.06
618.807	261.06
619.015	260.06
619.222	246.06
619.429	250.06
619.637	244.06
619.844	264.06
620.051	245.06
620.258	247.06
620.466	243.06
620.673	252.06
620.88	245.06
621.087	241.06
621.294	248.06
621.501	235.06
621.708	227.06
621.915	226.06
622.122	245.06
622.329	260.06
622.536	257.06
622.743	241.06
622.95	222.06
623.157	244.06
623.364	235.06
623.571	258.06
623.778	259.06
623.985	235.06
624.192	234.06
624.399	229.06
624.606	249.06
624.812	223.06
625.019	246.06
625.226	242.06
625.433	230.06
625.639	234.06
625.846	233.06
626.053	234.06
626.259	227.06
626.466	226.06
626.673	222.06
626.879	221.06
627.086	230.06
627.293	224.06
627.499	231.06
627.706	229.06
627.912	224.06
628.119	229.06
628.325	218.06
628.532	227.06
628.738	246.06
628.945	221.06
629.151	213.06
629.357	214.06
629.564	219.06
629.77	212.06
629.976	220.06
630.183	205.06
630.389	218.06
630.595	213.06
630.802	210.06
631.008	200.06
631.214	213.06
631.42	197.06
631.627	210.06
631.833	209.06
632.039	225.06
632.245	213.06
632.451	205.06
632.657	210.06
632.863	217.06
633.069	212.06
633.275	210.06
633.481	209.06
633.688	205.06
633.893	211.06
634.099	205.06
634.305	194.06
634.511	200.06
634.717	189.06
634.923	206.06
635.129	184.06
635.335	196.06
635.541	198.06
635.747	213.06
635.952	199.06
636.158	193.06
636.364	187.06
636.57	194.06
636.775	200.06
636.981	205.06
637.187	187.06
637.392	184.06
637.598	200.06
637.804	197.06
638.009	184.06
638.215	186.06
638.421	188.06
638.626	189.06
638.832	198.06
639.037	192.06
639.243	182.06
639.448	201.06
639.654	188.06
639.859	194.06
640.065	185.06
640.27	199.06
640.475	190.06
640.681	203.06
640.886	198.06
641.091	177.06
641.297	183.06
641.502	196.06
641.707	189.06
641.913	183.06
642.118	178.06
642.323	184.06
642.528	180.06
642.733	180.06
642.939	188.06
643.144	177.06
643.349	185.06
643.554	190.06
643.759	181.06
643.964	188.06
644.169	177.06
644.374	176.06
644.579	186.06
644.784	180.06
644.989	183.06
645.194	190.06
645.399	169.06
645.604	193.06
645.809	184.06
646.014	185.06
646.219	172.06
646.423	197.06
646.628	177.06
646.833	181.06
647.038	185.06
647.243	166.06
647.447	181.06
647.652	174.06
647.857	190.06
648.062	176.06
648.266	180.06
648.471	188.06
648.676	179.06
648.88	190.06
649.085	176.06
649.289	193.06
649.494	182.06
649.698	188.06
649.903	196.06
650.107	169.06
650.312	183.06
650.516	180.06
650.721	169.06
650.925	174.06
651.13	165.06
651.334	165.06
651.539	171.06
651.743	157.06
651.947	158.06
652.152	151.06
652.356	169.06
652.56	160.06
652.764	138.06
652.969	144.06
653.173	146.06
653.377	158.06
653.581	134.06
653.785	145.06
653.99	152.06
654.194	150.06
654.398	148.06
654.602	141.06
654.806	152.06
655.01	152.06
655.214	142.06
655.418	140.06
655.622	149.06
655.826	156.06
656.03	138.06
656.234	119.06
656.438	117.06
656.642	138.06
656.846	128.06
657.049	133.06
657.253	122.06
657.457	121.06
657.661	109.06
657.865	115.06
658.068	123.06
658.272	100.06
658.476	110.06
658.68	109.06
658.883	89.06
659.087	108.06
659.291	104.06
659.494	113.06
659.698	103.06
659.901	104.06
660.105	108.06
660.309	89.06
660.512	90.06
660.716	98.06
660.919	96.06
661.123	102.06
661.326	86.06
661.53	87.06
661.733	85.06
661.936	100.06
662.14	99.06
662.343	95.06
662.546	86.06
662.75	74.06
662.953	86.06
663.156	69.06
663.36	89.06
663.563	86.06
663.766	81.06
663.969	82.06
664.173	84.06
664.376	83.06
664.579	90.06
664.782	75.06
664.985	80.06
665.188	77.06
665.391	72.06
665.594	87.06
665.797	76.06
666	70.06
666.203	84.06
666.406	96.06
666.609	81.06
666.812	70.06
667.015	68.06
667.218	82.06
667.421	89.06
667.624	76.06
667.827	76.06
668.03	82.06
668.232	84.06
668.435	85.06
668.638	83.06
668.841	72.06
669.043	96.06
669.246	88.06
669.449	73.06
669.651	91.06
669.854	87.06
670.057	79.06
670.259	75.06
670.462	69.06
670.665	74.06
670.867	81.06
671.07	90.06
671.272	87.06
671.475	86.06
671.677	84.06
671.88	78.06
672.082	89.06
672.284	87.06
672.487	87.06
672.689	80.06
672.892	86.06
