Data from 1971.PennyLincolnUp.Lamp.En5.5.200Scan.071719.P1.Scan 2. Changed Angle._HRD10591_15-22-41-841.txt Node
Date: Thu Jul 18 15:22:41 EDT 2019
User: cochatt
Spectrometer: HR+D1059
Trigger mode: 1
Integration Time (sec): 1.000000E-1
Scans to average: 1
Electric dark correction enabled: true
Nonlinearity correction enabled: false
Boxcar width: 0
XAxis mode: Wavelengths
Number of Pixels in Spectrum: 2048
>>>>>Begin Spectral Data<<<<<
223.165	-19.12
223.4	-19.12
223.635	-19.12
223.869	-5.12
224.104	-6.12
224.338	-15.12
224.573	-0.12
224.808	-21.12
225.042	-17.12
225.277	-10.12
225.511	-8.12
225.746	10.88
225.98	6.88
226.215	4.88
226.449	-4.12
226.683	30.88
226.918	17.88
227.152	34.88
227.387	43.88
227.621	27.88
227.856	35.88
228.09	37.88
228.324	64.88
228.559	49.88
228.793	71.88
229.027	79.88
229.262	102.88
229.496	111.88
229.73	132.88
229.964	141.88
230.199	130.88
230.433	129.88
230.667	104.88
230.901	107.88
231.136	113.88
231.37	121.88
231.604	112.88
231.838	107.88
232.072	104.88
232.306	107.88
232.541	120.88
232.775	108.88
233.009	107.88
233.243	103.88
233.477	106.88
233.711	113.88
233.945	102.88
234.179	116.88
234.413	110.88
234.647	111.88
234.881	110.88
235.115	110.88
235.349	107.88
235.583	122.88
235.817	119.88
236.051	124.88
236.285	104.88
236.519	124.88
236.753	128.88
236.987	126.88
237.221	182.88
237.455	224.88
237.689	184.88
237.922	135.88
238.156	126.88
238.39	121.88
238.624	119.88
238.858	119.88
239.091	124.88
239.325	119.88
239.559	129.88
239.793	112.88
240.027	143.88
240.26	142.88
240.494	147.88
240.728	150.88
240.961	143.88
241.195	153.88
241.429	157.88
241.662	126.88
241.896	140.88
242.13	143.88
242.363	133.88
242.597	139.88
242.83	132.88
243.064	136.88
243.298	131.88
243.531	139.88
243.765	124.88
243.998	133.88
244.232	135.88
244.465	148.88
244.699	151.88
244.932	129.88
245.166	144.88
245.399	129.88
245.633	133.88
245.866	147.88
246.099	141.88
246.333	150.88
246.566	139.88
246.8	137.88
247.033	162.88
247.266	162.88
247.5	157.88
247.733	147.88
247.966	150.88
248.2	179.88
248.433	170.88
248.666	162.88
248.899	164.88
249.133	195.88
249.366	204.88
249.599	185.88
249.832	177.88
250.066	175.88
250.299	167.88
250.532	181.88
250.765	183.88
250.998	192.88
251.231	215.88
251.465	214.88
251.698	184.88
251.931	193.88
252.164	196.88
252.397	207.88
252.63	195.88
252.863	202.88
253.096	217.88
253.329	222.88
253.562	222.88
253.795	222.88
254.028	198.88
254.261	206.88
254.494	215.88
254.727	250.88
254.96	255.88
255.193	282.88
255.426	231.88
255.659	225.88
255.892	224.88
256.124	213.88
256.357	217.88
256.59	222.88
256.823	209.88
257.056	185.88
257.289	191.88
257.521	197.88
257.754	189.88
257.987	188.88
258.22	214.88
258.452	195.88
258.685	199.88
258.918	188.88
259.151	198.88
259.383	205.88
259.616	228.88
259.849	200.88
260.081	204.88
260.314	246.88
260.547	229.88
260.779	228.88
261.012	227.88
261.244	193.88
261.477	227.88
261.71	223.88
261.942	208.88
262.175	206.88
262.407	198.88
262.64	204.88
262.872	200.88
263.105	199.88
263.337	203.88
263.57	195.88
263.802	197.88
264.035	199.88
264.267	203.88
264.499	202.88
264.732	183.88
264.964	191.88
265.197	191.88
265.429	190.88
265.661	170.88
265.894	199.88
266.126	194.88
266.358	198.88
266.591	188.88
266.823	187.88
267.055	215.88
267.287	197.88
267.52	195.88
267.752	211.88
267.984	210.88
268.216	206.88
268.448	215.88
268.681	221.88
268.913	209.88
269.145	218.88
269.377	221.88
269.609	243.88
269.841	228.88
270.073	254.88
270.306	271.88
270.538	271.88
270.77	281.88
271.002	252.88
271.234	246.88
271.466	277.88
271.698	282.88
271.93	284.88
272.162	283.88
272.394	285.88
272.626	277.88
272.858	269.88
273.09	247.88
273.322	235.88
273.553	247.88
273.785	230.88
274.017	249.88
274.249	228.88
274.481	231.88
274.713	240.88
274.945	243.88
275.176	245.88
275.408	227.88
275.64	214.88
275.872	238.88
276.104	223.88
276.335	230.88
276.567	243.88
276.799	240.88
277.031	273.88
277.262	293.88
277.494	290.88
277.726	254.88
277.957	256.88
278.189	230.88
278.421	239.88
278.652	250.88
278.884	221.88
279.115	240.88
279.347	265.88
279.579	234.88
279.81	221.88
280.042	237.88
280.273	223.88
280.505	233.88
280.736	239.88
280.968	232.88
281.199	232.88
281.431	233.88
281.662	225.88
281.894	248.88
282.125	252.88
282.356	250.88
282.588	257.88
282.819	270.88
283.051	229.88
283.282	230.88
283.513	240.88
283.745	229.88
283.976	259.88
284.207	257.88
284.439	251.88
284.67	241.88
284.901	234.88
285.132	222.88
285.364	245.88
285.595	230.88
285.826	226.88
286.057	243.88
286.288	224.88
286.52	219.88
286.751	232.88
286.982	233.88
287.213	238.88
287.444	254.88
287.675	236.88
287.906	238.88
288.138	248.88
288.369	243.88
288.6	263.88
288.831	235.88
289.062	251.88
289.293	247.88
289.524	245.88
289.755	245.88
289.986	252.88
290.217	244.88
290.448	245.88
290.679	245.88
290.91	236.88
291.141	249.88
291.371	241.88
291.602	249.88
291.833	248.88
292.064	245.88
292.295	233.88
292.526	238.88
292.757	248.88
292.987	251.88
293.218	237.88
293.449	257.88
293.68	231.88
293.91	229.88
294.141	245.88
294.372	243.88
294.603	260.88
294.833	231.88
295.064	219.88
295.295	232.88
295.525	253.88
295.756	265.88
295.987	252.88
296.217	271.88
296.448	270.88
296.679	266.88
296.909	249.88
297.14	243.88
297.37	245.88
297.601	245.88
297.831	255.88
298.062	248.88
298.292	266.88
298.523	259.88
298.753	273.88
298.984	275.88
299.214	241.88
299.445	268.88
299.675	259.88
299.905	244.88
300.136	265.88
300.366	268.88
300.597	277.88
300.827	247.88
301.057	263.88
301.288	284.88
301.518	288.88
301.748	284.88
301.979	251.88
302.209	272.88
302.439	265.88
302.669	273.88
302.9	264.88
303.13	287.88
303.36	279.88
303.59	263.88
303.82	294.88
304.051	287.88
304.281	291.88
304.511	245.88
304.741	276.88
304.971	275.88
305.201	276.88
305.431	259.88
305.661	270.88
305.891	275.88
306.121	269.88
306.352	278.88
306.582	297.88
306.812	275.88
307.042	274.88
307.272	272.88
307.502	278.88
307.731	283.88
307.961	271.88
308.191	275.88
308.421	271.88
308.651	263.88
308.881	278.88
309.111	297.88
309.341	283.88
309.571	306.88
309.8	311.88
310.03	299.88
310.26	308.88
310.49	304.88
310.72	316.88
310.949	341.88
311.179	329.88
311.409	333.88
311.639	302.88
311.868	316.88
312.098	322.88
312.328	334.88
312.557	355.88
312.787	348.88
313.017	360.88
313.246	340.88
313.476	319.88
313.706	342.88
313.935	324.88
314.165	329.88
314.394	353.88
314.624	336.88
314.853	327.88
315.083	322.88
315.312	327.88
315.542	304.88
315.771	329.88
316.001	321.88
316.23	312.88
316.46	312.88
316.689	316.88
316.919	325.88
317.148	335.88
317.377	345.88
317.607	334.88
317.836	354.88
318.065	311.88
318.295	337.88
318.524	321.88
318.753	311.88
318.983	322.88
319.212	312.88
319.441	333.88
319.67	323.88
319.9	334.88
320.129	330.88
320.358	344.88
320.587	326.88
320.816	336.88
321.046	348.88
321.275	354.88
321.504	330.88
321.733	339.88
321.962	366.88
322.191	375.88
322.42	359.88
322.649	356.88
322.878	408.88
323.108	404.88
323.337	419.88
323.566	427.88
323.795	465.88
324.024	501.88
324.253	660.88
324.482	880.88
324.71	1367.88
324.939	1975.88
325.168	1702.88
325.397	869.88
325.626	600.88
325.855	481.88
326.084	430.88
326.313	437.88
326.542	433.88
326.77	502.88
326.999	566.88
327.228	793.88
327.457	1211.88
327.686	1483.88
327.914	1019.88
328.143	662.88
328.372	558.88
328.6	521.88
328.829	520.88
329.058	516.88
329.287	512.88
329.515	481.88
329.744	444.88
329.972	446.88
330.201	451.88
330.43	499.88
330.658	499.88
330.887	522.88
331.115	518.88
331.344	453.88
331.572	428.88
331.801	428.88
332.03	409.88
332.258	391.88
332.486	405.88
332.715	383.88
332.943	386.88
333.172	379.88
333.4	383.88
333.629	406.88
333.857	385.88
334.085	390.88
334.314	407.88
334.542	409.88
334.771	435.88
334.999	405.88
335.227	394.88
335.455	392.88
335.684	376.88
335.912	367.88
336.14	371.88
336.369	365.88
336.597	389.88
336.825	397.88
337.053	380.88
337.281	361.88
337.51	360.88
337.738	366.88
337.966	384.88
338.194	375.88
338.422	372.88
338.65	349.88
338.878	362.88
339.106	348.88
339.334	380.88
339.562	360.88
339.79	368.88
340.018	377.88
340.246	366.88
340.474	389.88
340.702	376.88
340.93	358.88
341.158	364.88
341.386	377.88
341.614	361.88
341.842	376.88
342.07	377.88
342.298	372.88
342.526	356.88
342.754	353.88
342.981	373.88
343.209	371.88
343.437	366.88
343.665	367.88
343.893	368.88
344.12	366.88
344.348	356.88
344.576	376.88
344.804	391.88
345.031	390.88
345.259	394.88
345.487	385.88
345.714	380.88
345.942	355.88
346.17	373.88
346.397	362.88
346.625	375.88
346.853	364.88
347.08	364.88
347.308	358.88
347.535	377.88
347.763	391.88
347.99	389.88
348.218	355.88
348.445	379.88
348.673	385.88
348.9	375.88
349.128	362.88
349.355	349.88
349.583	356.88
349.81	342.88
350.037	361.88
350.265	332.88
350.492	363.88
350.72	372.88
350.947	340.88
351.174	360.88
351.402	387.88
351.629	409.88
351.856	382.88
352.083	365.88
352.311	368.88
352.538	394.88
352.765	383.88
352.992	347.88
353.22	360.88
353.447	338.88
353.674	369.88
353.901	366.88
354.128	342.88
354.355	342.88
354.583	343.88
354.81	334.88
355.037	353.88
355.264	346.88
355.491	349.88
355.718	325.88
355.945	348.88
356.172	349.88
356.399	332.88
356.626	342.88
356.853	356.88
357.08	348.88
357.307	336.88
357.534	341.88
357.761	330.88
357.988	341.88
358.215	341.88
358.441	341.88
358.668	337.88
358.895	350.88
359.122	358.88
359.349	371.88
359.576	383.88
359.802	394.88
360.029	427.88
360.256	413.88
360.483	402.88
360.709	382.88
360.936	381.88
361.163	371.88
361.39	373.88
361.616	371.88
361.843	366.88
362.07	373.88
362.296	381.88
362.523	368.88
362.749	369.88
362.976	388.88
363.203	359.88
363.429	339.88
363.656	356.88
363.882	339.88
364.109	329.88
364.335	360.88
364.562	349.88
364.788	357.88
365.015	364.88
365.241	356.88
365.468	376.88
365.694	361.88
365.92	370.88
366.147	364.88
366.373	353.88
366.599	360.88
366.826	367.88
367.052	356.88
367.278	363.88
367.505	365.88
367.731	376.88
367.957	371.88
368.184	367.88
368.41	353.88
368.636	386.88
368.862	371.88
369.089	375.88
369.315	348.88
369.541	371.88
369.767	343.88
369.993	358.88
370.219	353.88
370.445	360.88
370.672	368.88
370.898	372.88
371.124	347.88
371.35	373.88
371.576	359.88
371.802	350.88
372.028	357.88
372.254	373.88
372.48	356.88
372.706	368.88
372.932	362.88
373.158	358.88
373.384	372.88
373.61	367.88
373.835	368.88
374.061	389.88
374.287	362.88
374.513	373.88
374.739	362.88
374.965	378.88
375.191	343.88
375.416	367.88
375.642	367.88
375.868	376.88
376.094	381.88
376.319	384.88
376.545	367.88
376.771	364.88
376.997	356.88
377.222	380.88
377.448	355.88
377.674	373.88
377.899	369.88
378.125	341.88
378.35	383.88
378.576	347.88
378.802	362.88
379.027	375.88
379.253	357.88
379.478	342.88
379.704	373.88
379.929	364.88
380.155	363.88
380.38	375.88
380.606	379.88
380.831	387.88
381.057	363.88
381.282	374.88
381.507	356.88
381.733	373.88
381.958	379.88
382.184	359.88
382.409	391.88
382.634	389.88
382.86	389.88
383.085	390.88
383.31	379.88
383.535	368.88
383.761	381.88
383.986	377.88
384.211	396.88
384.436	371.88
384.662	375.88
384.887	367.88
385.112	389.88
385.337	372.88
385.562	393.88
385.787	375.88
386.013	376.88
386.238	389.88
386.463	421.88
386.688	400.88
386.913	399.88
387.138	391.88
387.363	390.88
387.588	397.88
387.813	404.88
388.038	374.88
388.263	391.88
388.488	390.88
388.713	410.88
388.938	397.88
389.163	375.88
389.387	399.88
389.612	398.88
389.837	405.88
390.062	393.88
390.287	383.88
390.512	375.88
390.736	389.88
390.961	379.88
391.186	397.88
391.411	413.88
391.636	392.88
391.86	395.88
392.085	412.88
392.31	404.88
392.534	392.88
392.759	397.88
392.984	397.88
393.208	401.88
393.433	443.88
393.658	437.88
393.882	391.88
394.107	399.88
394.331	392.88
394.556	402.88
394.78	402.88
395.005	410.88
395.229	385.88
395.454	414.88
395.678	416.88
395.903	403.88
396.127	451.88
396.352	434.88
396.576	442.88
396.801	423.88
397.025	437.88
397.249	446.88
397.474	423.88
397.698	408.88
397.922	413.88
398.147	443.88
398.371	446.88
398.595	443.88
398.82	433.88
399.044	467.88
399.268	464.88
399.492	478.88
399.717	495.88
399.941	512.88
400.165	545.88
400.389	570.88
400.613	512.88
400.837	479.88
401.062	447.88
401.286	447.88
401.51	431.88
401.734	443.88
401.958	456.88
402.182	448.88
402.406	474.88
402.63	469.88
402.854	471.88
403.078	462.88
403.302	460.88
403.526	462.88
403.75	454.88
403.974	472.88
404.198	476.88
404.422	464.88
404.645	481.88
404.869	484.88
405.093	521.88
405.317	532.88
405.541	571.88
405.765	513.88
405.988	529.88
406.212	501.88
406.436	527.88
406.66	540.88
406.883	524.88
407.107	530.88
407.331	566.88
407.555	614.88
407.778	649.88
408.002	584.88
408.226	552.88
408.449	537.88
408.673	524.88
408.896	543.88
409.12	588.88
409.344	558.88
409.567	513.88
409.791	502.88
410.014	494.88
410.238	492.88
410.461	487.88
410.685	498.88
410.908	487.88
411.132	503.88
411.355	558.88
411.578	529.88
411.802	470.88
412.025	476.88
412.249	480.88
412.472	477.88
412.695	508.88
412.919	529.88
413.142	477.88
413.365	479.88
413.589	476.88
413.812	461.88
414.035	457.88
414.258	454.88
414.482	464.88
414.705	453.88
414.928	449.88
415.151	443.88
415.374	449.88
415.597	432.88
415.821	460.88
416.044	463.88
416.267	475.88
416.49	489.88
416.713	469.88
416.936	435.88
417.159	444.88
417.382	461.88
417.605	457.88
417.828	475.88
418.051	463.88
418.274	470.88
418.497	468.88
418.72	464.88
418.943	455.88
419.166	476.88
419.389	484.88
419.611	494.88
419.834	482.88
420.057	515.88
420.28	467.88
420.503	480.88
420.726	458.88
420.948	491.88
421.171	544.88
421.394	571.88
421.617	505.88
421.839	497.88
422.062	491.88
422.285	517.88
422.507	535.88
422.73	618.88
422.953	603.88
423.175	523.88
423.398	512.88
423.621	517.88
423.843	509.88
424.066	543.88
424.288	533.88
424.511	543.88
424.733	589.88
424.956	649.88
425.178	649.88
425.401	627.88
425.623	659.88
425.846	585.88
426.068	553.88
426.291	534.88
426.513	529.88
426.735	519.88
426.958	565.88
427.18	644.88
427.402	761.88
427.625	869.88
427.847	737.88
428.069	651.88
428.292	560.88
428.514	550.88
428.736	507.88
428.958	515.88
429.181	486.88
429.403	460.88
429.625	478.88
429.847	548.88
430.069	588.88
430.292	587.88
430.514	526.88
430.736	492.88
430.958	500.88
431.18	463.88
431.402	478.88
431.624	464.88
431.846	463.88
432.068	463.88
432.29	457.88
432.512	467.88
432.734	500.88
432.956	463.88
433.178	473.88
433.4	499.88
433.622	488.88
433.844	454.88
434.066	464.88
434.287	459.88
434.509	481.88
434.731	473.88
434.953	470.88
435.175	489.88
435.397	523.88
435.618	542.88
435.84	576.88
436.062	657.88
436.284	720.88
436.505	615.88
436.727	548.88
436.949	515.88
437.17	505.88
437.392	495.88
437.614	536.88
437.835	527.88
438.057	620.88
438.278	730.88
438.5	737.88
438.721	795.88
438.943	764.88
439.165	627.88
439.386	569.88
439.608	563.88
439.829	544.88
440.05	582.88
440.272	613.88
440.493	601.88
440.715	520.88
440.936	491.88
441.158	486.88
441.379	515.88
441.6	518.88
441.822	542.88
442.043	565.88
442.264	667.88
442.486	678.88
442.707	579.88
442.928	561.88
443.149	589.88
443.371	582.88
443.592	622.88
443.813	691.88
444.034	754.88
444.255	638.88
444.476	561.88
444.698	542.88
444.919	528.88
445.14	630.88
445.361	621.88
445.582	579.88
445.803	647.88
446.024	735.88
446.245	742.88
446.466	684.88
446.687	577.88
446.908	554.88
447.129	541.88
447.35	512.88
447.571	530.88
447.792	499.88
448.013	477.88
448.234	513.88
448.455	595.88
448.675	685.88
448.896	759.88
449.117	667.88
449.338	638.88
449.559	740.88
449.779	819.88
450	674.88
450.221	561.88
450.442	515.88
450.662	466.88
450.883	509.88
451.104	485.88
451.324	505.88
451.545	469.88
451.766	469.88
451.986	464.88
452.207	446.88
452.428	442.88
452.648	452.88
452.869	461.88
453.089	458.88
453.31	476.88
453.53	446.88
453.751	454.88
453.971	484.88
454.192	481.88
454.412	471.88
454.633	447.88
454.853	426.88
455.073	430.88
455.294	485.88
455.514	529.88
455.734	533.88
455.955	447.88
456.175	427.88
456.395	437.88
456.616	433.88
456.836	429.88
457.056	420.88
457.276	393.88
457.497	407.88
457.717	419.88
457.937	432.88
458.157	427.88
458.377	421.88
458.598	455.88
458.818	489.88
459.038	584.88
459.258	602.88
459.478	512.88
459.698	489.88
459.918	454.88
460.138	442.88
460.358	458.88
460.578	454.88
460.798	471.88
461.018	484.88
461.238	467.88
461.458	462.88
461.678	462.88
461.898	474.88
462.118	469.88
462.338	489.88
462.558	473.88
462.777	480.88
462.997	477.88
463.217	486.88
463.437	496.88
463.657	475.88
463.876	464.88
464.096	482.88
464.316	489.88
464.536	507.88
464.755	514.88
464.975	513.88
465.195	543.88
465.414	615.88
465.634	569.88
465.854	515.88
466.073	492.88
466.293	465.88
466.512	475.88
466.732	466.88
466.951	458.88
467.171	462.88
467.391	463.88
467.61	461.88
467.829	472.88
468.049	471.88
468.268	463.88
468.488	441.88
468.707	435.88
468.927	451.88
469.146	424.88
469.365	456.88
469.585	440.88
469.804	443.88
470.023	462.88
470.243	461.88
470.462	486.88
470.681	481.88
470.901	485.88
471.12	475.88
471.339	457.88
471.558	461.88
471.777	470.88
471.997	488.88
472.216	464.88
472.435	484.88
472.654	465.88
472.873	463.88
473.092	464.88
473.311	437.88
473.53	454.88
473.749	483.88
473.968	506.88
474.187	603.88
474.406	609.88
474.625	540.88
474.844	482.88
475.063	468.88
475.282	463.88
475.501	456.88
475.72	489.88
475.939	483.88
476.158	479.88
476.377	477.88
476.596	496.88
476.814	490.88
477.033	499.88
477.252	493.88
477.471	479.88
477.69	490.88
477.908	500.88
478.127	517.88
478.346	521.88
478.564	529.88
478.783	512.88
479.002	529.88
479.22	529.88
479.439	530.88
479.658	544.88
479.876	560.88
480.095	550.88
480.313	587.88
480.532	567.88
480.751	544.88
480.969	558.88
481.188	596.88
481.406	628.88
481.624	587.88
481.843	563.88
482.061	567.88
482.28	545.88
482.498	541.88
482.717	541.88
482.935	566.88
483.153	550.88
483.372	568.88
483.59	568.88
483.808	547.88
484.027	541.88
484.245	565.88
484.463	542.88
484.681	571.88
484.9	577.88
485.118	563.88
485.336	551.88
485.554	571.88
485.772	590.88
485.99	561.88
486.209	592.88
486.427	591.88
486.645	566.88
486.863	619.88
487.081	606.88
487.299	613.88
487.517	585.88
487.735	563.88
487.953	608.88
488.171	612.88
488.389	590.88
488.607	620.88
488.825	597.88
489.043	602.88
489.261	594.88
489.479	627.88
489.696	583.88
489.914	619.88
490.132	639.88
490.35	633.88
490.568	663.88
490.786	656.88
491.003	660.88
491.221	638.88
491.439	653.88
491.657	678.88
491.874	703.88
492.092	683.88
492.31	677.88
492.527	693.88
492.745	699.88
492.963	694.88
493.18	702.88
493.398	682.88
493.615	697.88
493.833	697.88
494.05	702.88
494.268	704.88
494.485	684.88
494.703	714.88
494.92	706.88
495.138	709.88
495.355	707.88
495.573	740.88
495.79	701.88
496.008	704.88
496.225	681.88
496.442	691.88
496.66	729.88
496.877	709.88
497.094	725.88
497.312	715.88
497.529	729.88
497.746	730.88
497.963	764.88
498.181	773.88
498.398	765.88
498.615	774.88
498.832	771.88
499.049	783.88
499.267	813.88
499.484	836.88
499.701	869.88
499.918	876.88
500.135	874.88
500.352	919.88
500.569	924.88
500.786	931.88
501.003	941.88
501.22	901.88
501.437	879.88
501.654	855.88
501.871	867.88
502.088	832.88
502.305	811.88
502.522	788.88
502.739	800.88
502.956	746.88
503.172	752.88
503.389	732.88
503.606	725.88
503.823	757.88
504.04	710.88
504.256	729.88
504.473	705.88
504.69	699.88
504.907	721.88
505.123	702.88
505.34	725.88
505.557	695.88
505.773	692.88
505.99	704.88
506.207	672.88
506.423	696.88
506.64	675.88
506.856	677.88
507.073	676.88
507.289	653.88
507.506	686.88
507.722	711.88
507.939	719.88
508.155	675.88
508.372	657.88
508.588	663.88
508.805	633.88
509.021	667.88
509.238	677.88
509.454	672.88
509.67	675.88
509.887	655.88
510.103	654.88
510.319	676.88
510.536	763.88
510.752	1247.88
510.968	1003.88
511.184	678.88
511.401	629.88
511.617	643.88
511.833	622.88
512.049	645.88
512.265	639.88
512.481	605.88
512.698	613.88
512.914	629.88
513.13	608.88
513.346	622.88
513.562	631.88
513.778	610.88
513.994	621.88
514.21	652.88
514.426	690.88
514.642	715.88
514.858	736.88
515.074	771.88
515.29	909.88
515.506	1353.88
515.721	1143.88
515.937	753.88
516.153	699.88
516.369	671.88
516.585	663.88
516.801	627.88
517.016	638.88
517.232	638.88
517.448	636.88
517.664	635.88
517.879	634.88
518.095	613.88
518.311	636.88
518.527	626.88
518.742	622.88
518.958	629.88
519.173	627.88
519.389	613.88
519.605	608.88
519.82	615.88
520.036	640.88
520.251	662.88
520.467	694.88
520.682	675.88
520.898	685.88
521.113	737.88
521.329	759.88
521.544	830.88
521.76	1080.88
521.975	1753.88
522.19	1783.88
522.406	986.88
522.621	740.88
522.836	648.88
523.052	626.88
523.267	585.88
523.482	601.88
523.698	567.88
523.913	570.88
524.128	555.88
524.343	584.88
524.559	572.88
524.774	558.88
524.989	556.88
525.204	560.88
525.419	584.88
525.634	541.88
525.849	509.88
526.064	536.88
526.28	520.88
526.495	509.88
526.71	499.88
526.925	508.88
527.14	517.88
527.355	515.88
527.57	521.88
527.785	492.88
527.999	501.88
528.214	521.88
528.429	503.88
528.644	514.88
528.859	524.88
529.074	525.88
529.289	554.88
529.503	638.88
529.718	620.88
529.933	553.88
530.148	523.88
530.363	519.88
530.577	507.88
530.792	493.88
531.007	511.88
531.221	520.88
531.436	505.88
531.651	502.88
531.865	495.88
532.08	492.88
532.295	491.88
532.509	455.88
532.724	475.88
532.938	467.88
533.153	480.88
533.367	485.88
533.582	482.88
533.796	497.88
534.011	477.88
534.225	482.88
534.44	473.88
534.654	474.88
534.868	451.88
535.083	455.88
535.297	458.88
535.511	460.88
535.726	498.88
535.94	469.88
536.154	480.88
536.369	480.88
536.583	470.88
536.797	462.88
537.011	466.88
537.225	458.88
537.44	453.88
537.654	458.88
537.868	454.88
538.082	475.88
538.296	457.88
538.51	474.88
538.724	478.88
538.938	479.88
539.153	468.88
539.367	494.88
539.581	485.88
539.795	482.88
540.009	457.88
540.222	467.88
540.436	462.88
540.65	453.88
540.864	484.88
541.078	466.88
541.292	479.88
541.506	494.88
541.72	472.88
541.934	480.88
542.147	504.88
542.361	461.88
542.575	459.88
542.789	474.88
543.002	464.88
543.216	456.88
543.43	460.88
543.644	475.88
543.857	452.88
544.071	472.88
544.285	483.88
544.498	491.88
544.712	458.88
544.925	454.88
545.139	434.88
545.352	479.88
545.566	458.88
545.779	462.88
545.993	464.88
546.206	453.88
546.42	463.88
546.633	466.88
546.847	444.88
547.06	436.88
547.274	441.88
547.487	448.88
547.7	447.88
547.914	446.88
548.127	455.88
548.34	449.88
548.554	432.88
548.767	442.88
548.98	448.88
549.193	463.88
549.407	421.88
549.62	439.88
549.833	439.88
550.046	461.88
550.259	445.88
550.473	435.88
550.686	437.88
550.899	448.88
551.112	444.88
551.325	427.88
551.538	450.88
551.751	429.88
551.964	414.88
552.177	423.88
552.39	441.88
552.603	427.88
552.816	453.88
553.029	425.88
553.242	456.88
553.455	472.88
553.667	457.88
553.88	460.88
554.093	475.88
554.306	447.88
554.519	452.88
554.732	452.88
554.944	460.88
555.157	422.88
555.37	417.88
555.583	432.88
555.795	427.88
556.008	420.88
556.221	422.88
556.433	421.88
556.646	402.88
556.859	401.88
557.071	378.88
557.284	408.88
557.496	415.88
557.709	410.88
557.921	418.88
558.134	384.88
558.346	408.88
558.559	380.88
558.771	395.88
558.984	417.88
559.196	411.88
559.409	402.88
559.621	398.88
559.833	383.88
560.046	382.88
560.258	400.88
560.47	399.88
560.683	401.88
560.895	409.88
561.107	395.88
561.32	393.88
561.532	408.88
561.744	390.88
561.956	410.88
562.168	389.88
562.381	397.88
562.593	398.88
562.805	398.88
563.017	397.88
563.229	422.88
563.441	397.88
563.653	398.88
563.865	410.88
564.077	404.88
564.289	399.88
564.501	421.88
564.713	395.88
564.925	425.88
565.137	427.88
565.349	431.88
565.561	421.88
565.773	445.88
565.985	419.88
566.197	428.88
566.408	444.88
566.62	435.88
566.832	456.88
567.044	441.88
567.255	441.88
567.467	436.88
567.679	460.88
567.891	476.88
568.102	457.88
568.314	453.88
568.526	423.88
568.737	425.88
568.949	410.88
569.161	419.88
569.372	399.88
569.584	415.88
569.795	412.88
570.007	396.88
570.218	442.88
570.43	407.88
570.641	400.88
570.853	374.88
571.064	388.88
571.276	382.88
571.487	385.88
571.698	360.88
571.91	342.88
572.121	363.88
572.333	333.88
572.544	363.88
572.755	335.88
572.966	350.88
573.178	358.88
573.389	353.88
573.6	353.88
573.811	361.88
574.023	335.88
574.234	351.88
574.445	343.88
574.656	348.88
574.867	375.88
575.078	349.88
575.289	337.88
575.501	335.88
575.712	336.88
575.923	351.88
576.134	340.88
576.345	323.88
576.556	348.88
576.767	341.88
576.978	324.88
577.188	320.88
577.399	322.88
577.61	334.88
577.821	328.88
578.032	327.88
578.243	362.88
578.454	603.88
578.665	451.88
578.875	342.88
579.086	349.88
579.297	326.88
579.508	322.88
579.718	309.88
579.929	322.88
580.14	325.88
580.35	335.88
580.561	311.88
580.772	327.88
580.982	311.88
581.193	327.88
581.403	316.88
581.614	313.88
581.825	319.88
582.035	309.88
582.246	305.88
582.456	313.88
582.667	300.88
582.877	320.88
583.087	319.88
583.298	290.88
583.508	305.88
583.719	300.88
583.929	323.88
584.139	328.88
584.35	319.88
584.56	313.88
584.77	311.88
584.981	282.88
585.191	295.88
585.401	316.88
585.611	297.88
585.821	320.88
586.032	317.88
586.242	319.88
586.452	300.88
586.662	300.88
586.872	318.88
587.082	306.88
587.292	298.88
587.502	285.88
587.713	305.88
587.923	288.88
588.133	311.88
588.343	297.88
588.553	308.88
588.762	301.88
588.972	314.88
589.182	302.88
589.392	301.88
589.602	291.88
589.812	296.88
590.022	311.88
590.232	302.88
590.441	321.88
590.651	279.88
590.861	291.88
591.071	292.88
591.281	287.88
591.49	294.88
591.7	293.88
591.91	308.88
592.119	297.88
592.329	313.88
592.539	301.88
592.748	303.88
592.958	303.88
593.167	308.88
593.377	294.88
593.587	295.88
593.796	304.88
594.006	300.88
594.215	319.88
594.424	307.88
594.634	309.88
594.843	293.88
595.053	279.88
595.262	302.88
595.472	301.88
595.681	280.88
595.89	283.88
596.1	277.88
596.309	304.88
596.518	291.88
596.727	274.88
596.937	285.88
597.146	280.88
597.355	280.88
597.564	293.88
597.774	273.88
597.983	277.88
598.192	275.88
598.401	288.88
598.61	287.88
598.819	278.88
599.028	270.88
599.237	271.88
599.446	281.88
599.655	276.88
599.864	268.88
600.073	273.88
600.282	270.88
600.491	264.88
600.7	281.88
600.909	265.88
601.118	261.88
601.327	265.88
601.536	266.88
601.745	270.88
601.953	269.88
602.162	272.88
602.371	282.88
602.58	266.88
602.789	271.88
602.997	251.88
603.206	263.88
603.415	248.88
603.623	248.88
603.832	257.88
604.041	256.88
604.249	252.88
604.458	260.88
604.666	257.88
604.875	235.88
605.084	240.88
605.292	261.88
605.501	231.88
605.709	260.88
605.918	259.88
606.126	271.88
606.334	247.88
606.543	255.88
606.751	269.88
606.96	253.88
607.168	266.88
607.376	245.88
607.585	259.88
607.793	261.88
608.001	228.88
608.21	237.88
608.418	270.88
608.626	255.88
608.834	256.88
609.043	254.88
609.251	230.88
609.459	251.88
609.667	245.88
609.875	236.88
610.083	240.88
610.291	253.88
610.499	259.88
610.707	252.88
610.916	266.88
611.124	271.88
611.332	245.88
611.54	272.88
611.748	263.88
611.955	268.88
612.163	261.88
612.371	257.88
612.579	247.88
612.787	244.88
612.995	257.88
613.203	264.88
613.411	258.88
613.618	248.88
613.826	243.88
614.034	253.88
614.242	251.88
614.449	273.88
614.657	240.88
614.865	259.88
615.072	252.88
615.28	246.88
615.488	264.88
615.695	244.88
615.903	240.88
616.111	260.88
616.318	234.88
616.526	236.88
616.733	246.88
616.941	238.88
617.148	253.88
617.356	236.88
617.563	238.88
617.771	240.88
617.978	238.88
618.185	241.88
618.393	248.88
618.6	257.88
618.807	251.88
619.015	231.88
619.222	239.88
619.429	224.88
619.637	222.88
619.844	229.88
620.051	235.88
620.258	219.88
620.466	237.88
620.673	236.88
620.88	230.88
621.087	237.88
621.294	235.88
621.501	228.88
621.708	223.88
621.915	231.88
622.122	227.88
622.329	238.88
622.536	243.88
622.743	225.88
622.95	232.88
623.157	221.88
623.364	211.88
623.571	233.88
623.778	229.88
623.985	234.88
624.192	240.88
624.399	213.88
624.606	234.88
624.812	207.88
625.019	216.88
625.226	221.88
625.433	217.88
625.639	229.88
625.846	221.88
626.053	203.88
626.259	229.88
626.466	219.88
626.673	213.88
626.879	218.88
627.086	212.88
627.293	220.88
627.499	213.88
627.706	206.88
627.912	193.88
628.119	200.88
628.325	221.88
628.532	205.88
628.738	205.88
628.945	200.88
629.151	219.88
629.357	207.88
629.564	202.88
629.77	215.88
629.976	217.88
630.183	191.88
630.389	197.88
630.595	204.88
630.802	213.88
631.008	208.88
631.214	195.88
631.42	207.88
631.627	206.88
631.833	210.88
632.039	195.88
632.245	203.88
632.451	204.88
632.657	184.88
632.863	193.88
633.069	190.88
633.275	201.88
633.481	203.88
633.688	198.88
633.893	193.88
634.099	189.88
634.305	212.88
634.511	203.88
634.717	197.88
634.923	178.88
635.129	188.88
635.335	204.88
635.541	178.88
635.747	185.88
635.952	204.88
636.158	202.88
636.364	196.88
636.57	190.88
636.775	195.88
636.981	205.88
637.187	190.88
637.392	212.88
637.598	184.88
637.804	189.88
638.009	192.88
638.215	190.88
638.421	187.88
638.626	179.88
638.832	182.88
639.037	188.88
639.243	195.88
639.448	184.88
639.654	204.88
639.859	183.88
640.065	174.88
640.27	188.88
640.475	176.88
640.681	191.88
640.886	161.88
641.091	185.88
641.297	168.88
641.502	169.88
641.707	173.88
641.913	191.88
642.118	181.88
642.323	174.88
642.528	199.88
642.733	186.88
642.939	161.88
643.144	169.88
643.349	173.88
643.554	187.88
643.759	182.88
643.964	166.88
644.169	176.88
644.374	169.88
644.579	180.88
644.784	175.88
644.989	175.88
645.194	160.88
645.399	184.88
645.604	185.88
645.809	168.88
646.014	168.88
646.219	174.88
646.423	165.88
646.628	174.88
646.833	182.88
647.038	169.88
647.243	173.88
647.447	184.88
647.652	189.88
647.857	180.88
648.062	185.88
648.266	169.88
648.471	161.88
648.676	171.88
648.88	180.88
649.085	187.88
649.289	178.88
649.494	188.88
649.698	189.88
649.903	192.88
650.107	181.88
650.312	174.88
650.516	167.88
650.721	157.88
650.925	166.88
651.13	147.88
651.334	151.88
651.539	154.88
651.743	155.88
651.947	154.88
652.152	157.88
652.356	169.88
652.56	131.88
652.764	139.88
652.969	148.88
653.173	149.88
653.377	143.88
653.581	125.88
653.785	132.88
653.99	133.88
654.194	138.88
654.398	131.88
654.602	136.88
654.806	130.88
655.01	142.88
655.214	122.88
655.418	136.88
655.622	151.88
655.826	157.88
656.03	126.88
656.234	122.88
656.438	145.88
656.642	131.88
656.846	137.88
657.049	116.88
657.253	137.88
657.457	123.88
657.661	118.88
657.865	131.88
658.068	125.88
658.272	116.88
658.476	120.88
658.68	102.88
658.883	119.88
659.087	122.88
659.291	102.88
659.494	102.88
659.698	87.88
659.901	91.88
660.105	100.88
660.309	91.88
660.512	106.88
660.716	97.88
660.919	101.88
661.123	112.88
661.326	85.88
661.53	76.88
661.733	100.88
661.936	92.88
662.14	85.88
662.343	90.88
662.546	84.88
662.75	96.88
662.953	89.88
663.156	96.88
663.36	84.88
663.563	102.88
663.766	93.88
663.969	68.88
664.173	80.88
664.376	88.88
664.579	92.88
664.782	78.88
664.985	90.88
665.188	83.88
665.391	88.88
665.594	82.88
665.797	81.88
666	91.88
666.203	77.88
666.406	79.88
666.609	90.88
666.812	97.88
667.015	93.88
667.218	86.88
667.421	83.88
667.624	84.88
667.827	89.88
668.03	78.88
668.232	84.88
668.435	86.88
668.638	79.88
668.841	88.88
669.043	71.88
669.246	81.88
669.449	74.88
669.651	79.88
669.854	88.88
670.057	86.88
670.259	81.88
670.462	90.88
670.665	87.88
670.867	76.88
671.07	80.88
671.272	89.88
671.475	95.88
671.677	76.88
671.88	79.88
672.082	80.88
672.284	86.88
672.487	85.88
672.689	93.88
672.892	79.88
