Data from 1971.PennyLincolnUp.Lamp.En5.5.200Scan.071719.P1.Scan 2. Changed Angle._HRD10591_15-23-54-842.txt Node
Date: Thu Jul 18 15:23:54 EDT 2019
User: cochatt
Spectrometer: HR+D1059
Trigger mode: 1
Integration Time (sec): 1.000000E-1
Scans to average: 1
Electric dark correction enabled: true
Nonlinearity correction enabled: false
Boxcar width: 0
XAxis mode: Wavelengths
Number of Pixels in Spectrum: 2048
>>>>>Begin Spectral Data<<<<<
223.165	-23.19
223.4	-23.19
223.635	-23.19
223.869	-23.19
224.104	-18.19
224.338	-17.19
224.573	-17.19
224.808	-13.19
225.042	-2.19
225.277	-0.19
225.511	-8.19
225.746	-17.19
225.98	13.81
226.215	10.81
226.449	11.81
226.683	23.81
226.918	43.81
227.152	35.81
227.387	36.81
227.621	51.81
227.856	27.81
228.09	42.81
228.324	56.81
228.559	55.81
228.793	62.81
229.027	98.81
229.262	123.81
229.496	126.81
229.73	152.81
229.964	188.81
230.199	143.81
230.433	112.81
230.667	119.81
230.901	139.81
231.136	104.81
231.37	125.81
231.604	113.81
231.838	117.81
232.072	116.81
232.306	123.81
232.541	122.81
232.775	116.81
233.009	110.81
233.243	119.81
233.477	121.81
233.711	122.81
233.945	128.81
234.179	115.81
234.413	112.81
234.647	131.81
234.881	125.81
235.115	129.81
235.349	132.81
235.583	131.81
235.817	118.81
236.051	131.81
236.285	127.81
236.519	117.81
236.753	129.81
236.987	153.81
237.221	212.81
237.455	269.81
237.689	223.81
237.922	163.81
238.156	159.81
238.39	121.81
238.624	135.81
238.858	123.81
239.091	131.81
239.325	139.81
239.559	139.81
239.793	145.81
240.027	145.81
240.26	156.81
240.494	165.81
240.728	158.81
240.961	156.81
241.195	169.81
241.429	149.81
241.662	148.81
241.896	143.81
242.13	145.81
242.363	149.81
242.597	143.81
242.83	145.81
243.064	159.81
243.298	152.81
243.531	149.81
243.765	148.81
243.998	136.81
244.232	143.81
244.465	160.81
244.699	160.81
244.932	165.81
245.166	129.81
245.399	170.81
245.633	143.81
245.866	152.81
246.099	153.81
246.333	152.81
246.566	152.81
246.8	157.81
247.033	166.81
247.266	172.81
247.5	187.81
247.733	179.81
247.966	192.81
248.2	191.81
248.433	181.81
248.666	174.81
248.899	203.81
249.133	230.81
249.366	232.81
249.599	220.81
249.832	202.81
250.066	195.81
250.299	202.81
250.532	184.81
250.765	215.81
250.998	243.81
251.231	264.81
251.465	244.81
251.698	235.81
251.931	228.81
252.164	221.81
252.397	217.81
252.63	222.81
252.863	220.81
253.096	231.81
253.329	248.81
253.562	248.81
253.795	233.81
254.028	250.81
254.261	235.81
254.494	250.81
254.727	287.81
254.96	304.81
255.193	313.81
255.426	288.81
255.659	272.81
255.892	262.81
256.124	243.81
256.357	251.81
256.59	266.81
256.823	225.81
257.056	235.81
257.289	229.81
257.521	229.81
257.754	224.81
257.987	218.81
258.22	226.81
258.452	223.81
258.685	206.81
258.918	228.81
259.151	223.81
259.383	239.81
259.616	216.81
259.849	220.81
260.081	258.81
260.314	255.81
260.547	284.81
260.779	274.81
261.012	259.81
261.244	235.81
261.477	236.81
261.71	221.81
261.942	251.81
262.175	260.81
262.407	259.81
262.64	239.81
262.872	234.81
263.105	228.81
263.337	234.81
263.57	222.81
263.802	217.81
264.035	230.81
264.267	210.81
264.499	231.81
264.732	233.81
264.964	221.81
265.197	203.81
265.429	225.81
265.661	221.81
265.894	209.81
266.126	220.81
266.358	213.81
266.591	204.81
266.823	225.81
267.055	229.81
267.287	224.81
267.52	238.81
267.752	222.81
267.984	215.81
268.216	238.81
268.448	228.81
268.681	230.81
268.913	250.81
269.145	261.81
269.377	284.81
269.609	283.81
269.841	284.81
270.073	285.81
270.306	311.81
270.538	328.81
270.77	347.81
271.002	313.81
271.234	301.81
271.466	309.81
271.698	331.81
271.93	337.81
272.162	318.81
272.394	334.81
272.626	320.81
272.858	284.81
273.09	285.81
273.322	286.81
273.553	272.81
273.785	284.81
274.017	287.81
274.249	263.81
274.481	271.81
274.713	263.81
274.945	262.81
275.176	281.81
275.408	287.81
275.64	271.81
275.872	252.81
276.104	251.81
276.335	277.81
276.567	276.81
276.799	287.81
277.031	323.81
277.262	325.81
277.494	338.81
277.726	319.81
277.957	279.81
278.189	290.81
278.421	275.81
278.652	265.81
278.884	267.81
279.115	265.81
279.347	283.81
279.579	277.81
279.81	260.81
280.042	270.81
280.273	272.81
280.505	244.81
280.736	245.81
280.968	267.81
281.199	263.81
281.431	266.81
281.662	251.81
281.894	245.81
282.125	262.81
282.356	267.81
282.588	293.81
282.819	297.81
283.051	284.81
283.282	253.81
283.513	252.81
283.745	251.81
283.976	271.81
284.207	284.81
284.439	296.81
284.67	258.81
284.901	265.81
285.132	244.81
285.364	254.81
285.595	268.81
285.826	259.81
286.057	264.81
286.288	262.81
286.52	276.81
286.751	278.81
286.982	274.81
287.213	271.81
287.444	267.81
287.675	285.81
287.906	277.81
288.138	287.81
288.369	291.81
288.6	287.81
288.831	286.81
289.062	279.81
289.293	276.81
289.524	288.81
289.755	285.81
289.986	287.81
290.217	274.81
290.448	260.81
290.679	277.81
290.91	268.81
291.141	259.81
291.371	262.81
291.602	271.81
291.833	272.81
292.064	275.81
292.295	264.81
292.526	266.81
292.757	277.81
292.987	279.81
293.218	266.81
293.449	292.81
293.68	279.81
293.91	263.81
294.141	274.81
294.372	285.81
294.603	287.81
294.833	276.81
295.064	265.81
295.295	294.81
295.525	273.81
295.756	272.81
295.987	297.81
296.217	331.81
296.448	335.81
296.679	283.81
296.909	270.81
297.14	273.81
297.37	276.81
297.601	271.81
297.831	274.81
298.062	252.81
298.292	268.81
298.523	293.81
298.753	296.81
298.984	308.81
299.214	275.81
299.445	282.81
299.675	286.81
299.905	316.81
300.136	303.81
300.366	287.81
300.597	292.81
300.827	285.81
301.057	297.81
301.288	309.81
301.518	312.81
301.748	284.81
301.979	304.81
302.209	323.81
302.439	327.81
302.669	314.81
302.9	307.81
303.13	307.81
303.36	315.81
303.59	304.81
303.82	321.81
304.051	334.81
304.281	321.81
304.511	309.81
304.741	311.81
304.971	294.81
305.201	313.81
305.431	312.81
305.661	317.81
305.891	317.81
306.121	307.81
306.352	329.81
306.582	305.81
306.812	316.81
307.042	301.81
307.272	316.81
307.502	317.81
307.731	328.81
307.961	301.81
308.191	314.81
308.421	315.81
308.651	334.81
308.881	323.81
309.111	348.81
309.341	311.81
309.571	356.81
309.8	349.81
310.03	357.81
310.26	359.81
310.49	382.81
310.72	387.81
310.949	391.81
311.179	392.81
311.409	376.81
311.639	388.81
311.868	380.81
312.098	381.81
312.328	385.81
312.557	421.81
312.787	410.81
313.017	412.81
313.246	400.81
313.476	374.81
313.706	345.81
313.935	375.81
314.165	383.81
314.394	424.81
314.624	403.81
314.853	370.81
315.083	391.81
315.312	384.81
315.542	379.81
315.771	363.81
316.001	367.81
316.23	345.81
316.46	365.81
316.689	356.81
316.919	366.81
317.148	385.81
317.377	391.81
317.607	377.81
317.836	377.81
318.065	362.81
318.295	356.81
318.524	375.81
318.753	381.81
318.983	374.81
319.212	352.81
319.441	375.81
319.67	380.81
319.9	382.81
320.129	371.81
320.358	380.81
320.587	379.81
320.816	391.81
321.046	393.81
321.275	390.81
321.504	395.81
321.733	419.81
321.962	423.81
322.191	423.81
322.42	442.81
322.649	476.81
322.878	473.81
323.108	472.81
323.337	510.81
323.566	525.81
323.795	574.81
324.024	650.81
324.253	816.81
324.482	1191.81
324.71	1851.81
324.939	2607.81
325.168	2209.81
325.397	1161.81
325.626	782.81
325.855	623.81
326.084	565.81
326.313	539.81
326.542	551.81
326.77	633.81
326.999	727.81
327.228	1029.81
327.457	1629.81
327.686	1935.81
327.914	1318.81
328.143	856.81
328.372	727.81
328.6	660.81
328.829	641.81
329.058	629.81
329.287	671.81
329.515	617.81
329.744	566.81
329.972	567.81
330.201	561.81
330.43	613.81
330.658	653.81
330.887	710.81
331.115	681.81
331.344	560.81
331.572	545.81
331.801	545.81
332.03	525.81
332.258	486.81
332.486	459.81
332.715	444.81
332.943	442.81
333.172	440.81
333.4	456.81
333.629	452.81
333.857	482.81
334.085	496.81
334.314	509.81
334.542	560.81
334.771	567.81
334.999	515.81
335.227	476.81
335.455	441.81
335.684	451.81
335.912	454.81
336.14	432.81
336.369	448.81
336.597	442.81
336.825	466.81
337.053	446.81
337.281	409.81
337.51	422.81
337.738	464.81
337.966	424.81
338.194	419.81
338.422	444.81
338.65	419.81
338.878	417.81
339.106	399.81
339.334	419.81
339.562	413.81
339.79	422.81
340.018	437.81
340.246	416.81
340.474	443.81
340.702	435.81
340.93	432.81
341.158	423.81
341.386	417.81
341.614	425.81
341.842	404.81
342.07	436.81
342.298	408.81
342.526	411.81
342.754	416.81
342.981	387.81
343.209	405.81
343.437	408.81
343.665	415.81
343.893	406.81
344.12	416.81
344.348	435.81
344.576	432.81
344.804	437.81
345.031	430.81
345.259	458.81
345.487	446.81
345.714	443.81
345.942	427.81
346.17	416.81
346.397	433.81
346.625	439.81
346.853	415.81
347.08	402.81
347.308	431.81
347.535	411.81
347.763	429.81
347.99	467.81
348.218	429.81
348.445	437.81
348.673	429.81
348.9	422.81
349.128	412.81
349.355	373.81
349.583	393.81
349.81	406.81
350.037	399.81
350.265	404.81
350.492	409.81
350.72	411.81
350.947	429.81
351.174	417.81
351.402	443.81
351.629	437.81
351.856	440.81
352.083	456.81
352.311	456.81
352.538	462.81
352.765	456.81
352.992	431.81
353.22	429.81
353.447	432.81
353.674	399.81
353.901	380.81
354.128	388.81
354.355	389.81
354.583	416.81
354.81	383.81
355.037	389.81
355.264	381.81
355.491	372.81
355.718	383.81
355.945	373.81
356.172	368.81
356.399	374.81
356.626	383.81
356.853	393.81
357.08	398.81
357.307	383.81
357.534	371.81
357.761	384.81
357.988	374.81
358.215	388.81
358.441	391.81
358.668	385.81
358.895	404.81
359.122	399.81
359.349	407.81
359.576	437.81
359.802	469.81
360.029	488.81
360.256	509.81
360.483	455.81
360.709	436.81
360.936	420.81
361.163	422.81
361.39	400.81
361.616	438.81
361.843	414.81
362.07	417.81
362.296	438.81
362.523	424.81
362.749	416.81
362.976	413.81
363.203	426.81
363.429	419.81
363.656	407.81
363.882	381.81
364.109	411.81
364.335	400.81
364.562	411.81
364.788	399.81
365.015	392.81
365.241	414.81
365.468	401.81
365.694	421.81
365.92	419.81
366.147	404.81
366.373	413.81
366.599	384.81
366.826	391.81
367.052	395.81
367.278	391.81
367.505	399.81
367.731	393.81
367.957	398.81
368.184	410.81
368.41	386.81
368.636	425.81
368.862	409.81
369.089	400.81
369.315	405.81
369.541	401.81
369.767	403.81
369.993	397.81
370.219	397.81
370.445	427.81
370.672	387.81
370.898	393.81
371.124	411.81
371.35	400.81
371.576	397.81
371.802	368.81
372.028	373.81
372.254	375.81
372.48	395.81
372.706	417.81
372.932	401.81
373.158	389.81
373.384	395.81
373.61	406.81
373.835	397.81
374.061	397.81
374.287	414.81
374.513	425.81
374.739	384.81
374.965	397.81
375.191	407.81
375.416	403.81
375.642	404.81
375.868	406.81
376.094	407.81
376.319	404.81
376.545	373.81
376.771	392.81
376.997	388.81
377.222	404.81
377.448	408.81
377.674	402.81
377.899	405.81
378.125	380.81
378.35	399.81
378.576	393.81
378.802	393.81
379.027	405.81
379.253	409.81
379.478	382.81
379.704	406.81
379.929	398.81
380.155	396.81
380.38	397.81
380.606	406.81
380.831	412.81
381.057	391.81
381.282	401.81
381.507	409.81
381.733	407.81
381.958	415.81
382.184	398.81
382.409	392.81
382.634	400.81
382.86	406.81
383.085	409.81
383.31	405.81
383.535	399.81
383.761	413.81
383.986	420.81
384.211	431.81
384.436	430.81
384.662	420.81
384.887	421.81
385.112	420.81
385.337	409.81
385.562	430.81
385.787	442.81
386.013	434.81
386.238	459.81
386.463	449.81
386.688	431.81
386.913	411.81
387.138	424.81
387.363	410.81
387.588	415.81
387.813	432.81
388.038	437.81
388.263	440.81
388.488	431.81
388.713	425.81
388.938	437.81
389.163	436.81
389.387	422.81
389.612	437.81
389.837	444.81
390.062	422.81
390.287	441.81
390.512	427.81
390.736	429.81
390.961	405.81
391.186	424.81
391.411	446.81
391.636	441.81
391.86	427.81
392.085	422.81
392.31	436.81
392.534	422.81
392.759	444.81
392.984	445.81
393.208	405.81
393.433	453.81
393.658	454.81
393.882	448.81
394.107	429.81
394.331	444.81
394.556	419.81
394.78	416.81
395.005	430.81
395.229	434.81
395.454	465.81
395.678	438.81
395.903	441.81
396.127	456.81
396.352	489.81
396.576	463.81
396.801	443.81
397.025	466.81
397.249	474.81
397.474	442.81
397.698	462.81
397.922	480.81
398.147	490.81
398.371	521.81
398.595	466.81
398.82	479.81
399.044	503.81
399.268	496.81
399.492	511.81
399.717	557.81
399.941	596.81
400.165	600.81
400.389	620.81
400.613	549.81
400.837	504.81
401.062	488.81
401.286	505.81
401.51	504.81
401.734	484.81
401.958	487.81
402.182	505.81
402.406	514.81
402.63	527.81
402.854	508.81
403.078	515.81
403.302	504.81
403.526	535.81
403.75	513.81
403.974	509.81
404.198	514.81
404.422	527.81
404.645	543.81
404.869	534.81
405.093	558.81
405.317	598.81
405.541	631.81
405.765	587.81
405.988	547.81
406.212	553.81
406.436	587.81
406.66	622.81
406.883	559.81
407.107	604.81
407.331	637.81
407.555	714.81
407.778	726.81
408.002	615.81
408.226	597.81
408.449	588.81
408.673	565.81
408.896	610.81
409.12	654.81
409.344	624.81
409.567	548.81
409.791	547.81
410.014	534.81
410.238	524.81
410.461	537.81
410.685	521.81
410.908	554.81
411.132	592.81
411.355	641.81
411.578	606.81
411.802	558.81
412.025	536.81
412.249	523.81
412.472	546.81
412.695	583.81
412.919	560.81
413.142	522.81
413.365	503.81
413.589	500.81
413.812	517.81
414.035	503.81
414.258	501.81
414.482	494.81
414.705	491.81
414.928	491.81
415.151	486.81
415.374	485.81
415.597	500.81
415.821	483.81
416.044	493.81
416.267	495.81
416.49	494.81
416.713	495.81
416.936	500.81
417.159	493.81
417.382	509.81
417.605	525.81
417.828	524.81
418.051	545.81
418.274	526.81
418.497	499.81
418.72	500.81
418.943	522.81
419.166	520.81
419.389	521.81
419.611	551.81
419.834	524.81
420.057	532.81
420.28	550.81
420.503	546.81
420.726	527.81
420.948	561.81
421.171	597.81
421.394	642.81
421.617	566.81
421.839	534.81
422.062	550.81
422.285	581.81
422.507	614.81
422.73	723.81
422.953	664.81
423.175	593.81
423.398	571.81
423.621	587.81
423.843	575.81
424.066	608.81
424.288	602.81
424.511	602.81
424.733	679.81
424.956	762.81
425.178	733.81
425.401	721.81
425.623	757.81
425.846	642.81
426.068	600.81
426.291	585.81
426.513	589.81
426.735	609.81
426.958	638.81
427.18	738.81
427.402	870.81
427.625	968.81
427.847	916.81
428.069	745.81
428.292	651.81
428.514	635.81
428.736	611.81
428.958	598.81
429.181	580.81
429.403	544.81
429.625	570.81
429.847	605.81
430.069	694.81
430.292	704.81
430.514	585.81
430.736	545.81
430.958	532.81
431.18	518.81
431.402	533.81
431.624	511.81
431.846	517.81
432.068	503.81
432.29	500.81
432.512	525.81
432.734	527.81
432.956	520.81
433.178	537.81
433.4	550.81
433.622	538.81
433.844	496.81
434.066	502.81
434.287	501.81
434.509	507.81
434.731	520.81
434.953	535.81
435.175	555.81
435.397	601.81
435.618	618.81
435.84	643.81
436.062	757.81
436.284	811.81
436.505	720.81
436.727	633.81
436.949	586.81
437.17	547.81
437.392	542.81
437.614	569.81
437.835	637.81
438.057	773.81
438.278	858.81
438.5	841.81
438.721	883.81
438.943	869.81
439.165	720.81
439.386	645.81
439.608	631.81
439.829	636.81
440.05	668.81
440.272	720.81
440.493	648.81
440.715	609.81
440.936	582.81
441.158	582.81
441.379	572.81
441.6	576.81
441.822	588.81
442.043	651.81
442.264	750.81
442.486	778.81
442.707	662.81
442.928	666.81
443.149	639.81
443.371	647.81
443.592	695.81
443.813	798.81
444.034	835.81
444.255	669.81
444.476	641.81
444.698	598.81
444.919	599.81
445.14	696.81
445.361	662.81
445.582	681.81
445.803	721.81
446.024	847.81
446.245	884.81
446.466	783.81
446.687	667.81
446.908	611.81
447.129	591.81
447.35	575.81
447.571	575.81
447.792	535.81
448.013	562.81
448.234	612.81
448.455	660.81
448.675	775.81
448.896	896.81
449.117	750.81
449.338	724.81
449.559	834.81
449.779	919.81
450	771.81
450.221	636.81
450.442	597.81
450.662	571.81
450.883	602.81
451.104	605.81
451.324	583.81
451.545	559.81
451.766	537.81
451.986	500.81
452.207	501.81
452.428	505.81
452.648	503.81
452.869	527.81
453.089	526.81
453.31	533.81
453.53	517.81
453.751	514.81
453.971	519.81
454.192	543.81
454.412	540.81
454.633	500.81
454.853	476.81
455.073	492.81
455.294	539.81
455.514	635.81
455.734	612.81
455.955	522.81
456.175	491.81
456.395	472.81
456.616	451.81
456.836	455.81
457.056	462.81
457.276	442.81
457.497	468.81
457.717	462.81
457.937	483.81
458.157	491.81
458.377	486.81
458.598	519.81
458.818	607.81
459.038	694.81
459.258	698.81
459.478	584.81
459.698	527.81
459.918	488.81
460.138	515.81
460.358	488.81
460.578	503.81
460.798	487.81
461.018	504.81
461.238	518.81
461.458	504.81
461.678	507.81
461.898	495.81
462.118	506.81
462.338	504.81
462.558	521.81
462.777	511.81
462.997	505.81
463.217	552.81
463.437	530.81
463.657	521.81
463.876	533.81
464.096	533.81
464.316	534.81
464.536	550.81
464.755	560.81
464.975	552.81
465.195	618.81
465.414	746.81
465.634	642.81
465.854	592.81
466.073	563.81
466.293	516.81
466.512	504.81
466.732	506.81
466.951	520.81
467.171	487.81
467.391	492.81
467.61	529.81
467.829	566.81
468.049	531.81
468.268	512.81
468.488	507.81
468.707	491.81
468.927	484.81
469.146	503.81
469.365	494.81
469.585	488.81
469.804	497.81
470.023	503.81
470.243	527.81
470.462	527.81
470.681	553.81
470.901	563.81
471.12	541.81
471.339	492.81
471.558	519.81
471.777	522.81
471.997	494.81
472.216	532.81
472.435	558.81
472.654	543.81
472.873	529.81
473.092	511.81
473.311	517.81
473.53	513.81
473.749	525.81
473.968	568.81
474.187	703.81
474.406	730.81
474.625	605.81
474.844	540.81
475.063	547.81
475.282	556.81
475.501	532.81
475.72	529.81
475.939	544.81
476.158	525.81
476.377	523.81
476.596	540.81
476.814	539.81
477.033	579.81
477.252	552.81
477.471	561.81
477.69	575.81
477.908	544.81
478.127	552.81
478.346	553.81
478.564	571.81
478.783	557.81
479.002	564.81
479.22	575.81
479.439	586.81
479.658	640.81
479.876	632.81
480.095	619.81
480.313	656.81
480.532	646.81
480.751	622.81
480.969	633.81
481.188	699.81
481.406	773.81
481.624	679.81
481.843	651.81
482.061	643.81
482.28	616.81
482.498	596.81
482.717	617.81
482.935	608.81
483.153	620.81
483.372	634.81
483.59	615.81
483.808	622.81
484.027	616.81
484.245	640.81
484.463	608.81
484.681	616.81
484.9	644.81
485.118	654.81
485.336	636.81
485.554	635.81
485.772	628.81
485.99	639.81
486.209	643.81
486.427	633.81
486.645	649.81
486.863	714.81
487.081	684.81
487.299	675.81
487.517	679.81
487.735	657.81
487.953	697.81
488.171	664.81
488.389	688.81
488.607	694.81
488.825	699.81
489.043	678.81
489.261	671.81
489.479	686.81
489.696	700.81
489.914	686.81
490.132	694.81
490.35	734.81
490.568	703.81
490.786	723.81
491.003	735.81
491.221	736.81
491.439	760.81
491.657	774.81
491.874	770.81
492.092	793.81
492.31	798.81
492.527	798.81
492.745	778.81
492.963	789.81
493.18	819.81
493.398	821.81
493.615	841.81
493.833	827.81
494.05	822.81
494.268	823.81
494.485	820.81
494.703	838.81
494.92	809.81
495.138	820.81
495.355	810.81
495.573	816.81
495.79	836.81
496.008	835.81
496.225	819.81
496.442	811.81
496.66	839.81
496.877	803.81
497.094	810.81
497.312	796.81
497.529	835.81
497.746	829.81
497.963	839.81
498.181	852.81
498.398	855.81
498.615	868.81
498.832	858.81
499.049	885.81
499.267	876.81
499.484	914.81
499.701	899.81
499.918	922.81
500.135	968.81
500.352	960.81
500.569	984.81
500.786	999.81
501.003	979.81
501.22	980.81
501.437	960.81
501.654	922.81
501.871	944.81
502.088	921.81
502.305	909.81
502.522	885.81
502.739	889.81
502.956	871.81
503.172	822.81
503.389	852.81
503.606	809.81
503.823	832.81
504.04	829.81
504.256	820.81
504.473	807.81
504.69	774.81
504.907	794.81
505.123	802.81
505.34	782.81
505.557	785.81
505.773	801.81
505.99	776.81
506.207	783.81
506.423	771.81
506.64	785.81
506.856	771.81
507.073	760.81
507.289	738.81
507.506	748.81
507.722	793.81
507.939	812.81
508.155	791.81
508.372	761.81
508.588	756.81
508.805	752.81
509.021	736.81
509.238	743.81
509.454	781.81
509.67	806.81
509.887	782.81
510.103	747.81
510.319	771.81
510.536	899.81
510.752	1564.81
510.968	1244.81
511.184	776.81
511.401	742.81
511.617	743.81
511.833	735.81
512.049	711.81
512.265	729.81
512.481	715.81
512.698	688.81
512.914	697.81
513.13	730.81
513.346	699.81
513.562	711.81
513.778	748.81
513.994	743.81
514.21	746.81
514.426	793.81
514.642	847.81
514.858	908.81
515.074	941.81
515.29	1152.81
515.506	1804.81
515.721	1423.81
515.937	928.81
516.153	845.81
516.369	777.81
516.585	737.81
516.801	762.81
517.016	741.81
517.232	731.81
517.448	734.81
517.664	709.81
517.879	717.81
518.095	725.81
518.311	693.81
518.527	685.81
518.742	723.81
518.958	707.81
519.173	720.81
519.389	720.81
519.605	702.81
519.82	712.81
520.036	748.81
520.251	784.81
520.467	825.81
520.682	800.81
520.898	823.81
521.113	862.81
521.329	943.81
521.544	1104.81
521.76	1425.81
521.975	2384.81
522.19	2283.81
522.406	1230.81
522.621	909.81
522.836	782.81
523.052	730.81
523.267	695.81
523.482	709.81
523.698	677.81
523.913	662.81
524.128	679.81
524.343	653.81
524.559	644.81
524.774	627.81
524.989	628.81
525.204	615.81
525.419	634.81
525.634	631.81
525.849	588.81
526.064	591.81
526.28	603.81
526.495	589.81
526.71	559.81
526.925	582.81
527.14	582.81
527.355	574.81
527.57	586.81
527.785	577.81
527.999	577.81
528.214	571.81
528.429	577.81
528.644	603.81
528.859	591.81
529.074	591.81
529.289	599.81
529.503	729.81
529.718	705.81
529.933	605.81
530.148	587.81
530.363	607.81
530.577	550.81
530.792	559.81
531.007	546.81
531.221	550.81
531.436	560.81
531.651	558.81
531.865	564.81
532.08	533.81
532.295	527.81
532.509	542.81
532.724	542.81
532.938	528.81
533.153	550.81
533.367	531.81
533.582	527.81
533.796	529.81
534.011	533.81
534.225	537.81
534.44	504.81
534.654	514.81
534.868	542.81
535.083	530.81
535.297	527.81
535.511	534.81
535.726	557.81
535.94	561.81
536.154	550.81
536.369	527.81
536.583	541.81
536.797	511.81
537.011	519.81
537.225	514.81
537.44	530.81
537.654	529.81
537.868	492.81
538.082	533.81
538.296	525.81
538.51	537.81
538.724	534.81
538.938	529.81
539.153	501.81
539.367	565.81
539.581	525.81
539.795	533.81
540.009	519.81
540.222	534.81
540.436	506.81
540.65	546.81
540.864	507.81
541.078	517.81
541.292	533.81
541.506	542.81
541.72	529.81
541.934	496.81
542.147	499.81
542.361	513.81
542.575	503.81
542.789	497.81
543.002	520.81
543.216	520.81
543.43	515.81
543.644	506.81
543.857	519.81
544.071	519.81
544.285	500.81
544.498	515.81
544.712	513.81
544.925	496.81
545.139	524.81
545.352	501.81
545.566	493.81
545.779	482.81
545.993	494.81
546.206	511.81
546.42	503.81
546.633	481.81
546.847	477.81
547.06	469.81
547.274	492.81
547.487	492.81
547.7	481.81
547.914	495.81
548.127	479.81
548.34	505.81
548.554	495.81
548.767	488.81
548.98	481.81
549.193	464.81
549.407	472.81
549.62	488.81
549.833	471.81
550.046	464.81
550.259	461.81
550.473	478.81
550.686	460.81
550.899	471.81
551.112	468.81
551.325	489.81
551.538	474.81
551.751	449.81
551.964	455.81
552.177	463.81
552.39	457.81
552.603	454.81
552.816	477.81
553.029	475.81
553.242	483.81
553.455	471.81
553.667	507.81
553.88	499.81
554.093	504.81
554.306	483.81
554.519	484.81
554.732	478.81
554.944	448.81
555.157	466.81
555.37	454.81
555.583	460.81
555.795	452.81
556.008	462.81
556.221	459.81
556.433	432.81
556.646	429.81
556.859	445.81
557.071	427.81
557.284	449.81
557.496	418.81
557.709	448.81
557.921	436.81
558.134	428.81
558.346	413.81
558.559	435.81
558.771	439.81
558.984	443.81
559.196	440.81
559.409	436.81
559.621	422.81
559.833	435.81
560.046	424.81
560.258	442.81
560.47	394.81
560.683	404.81
560.895	432.81
561.107	436.81
561.32	424.81
561.532	433.81
561.744	424.81
561.956	419.81
562.168	437.81
562.381	436.81
562.593	412.81
562.805	427.81
563.017	454.81
563.229	443.81
563.441	424.81
563.653	427.81
563.865	438.81
564.077	428.81
564.289	432.81
564.501	417.81
564.713	443.81
564.925	455.81
565.137	457.81
565.349	426.81
565.561	425.81
565.773	447.81
565.985	439.81
566.197	464.81
566.408	464.81
566.62	459.81
566.832	454.81
567.044	480.81
567.255	478.81
567.467	455.81
567.679	466.81
567.891	475.81
568.102	476.81
568.314	464.81
568.526	465.81
568.737	447.81
568.949	450.81
569.161	420.81
569.372	424.81
569.584	440.81
569.795	417.81
570.007	435.81
570.218	487.81
570.43	462.81
570.641	423.81
570.853	420.81
571.064	408.81
571.276	390.81
571.487	385.81
571.698	384.81
571.91	380.81
572.121	406.81
572.333	401.81
572.544	376.81
572.755	365.81
572.966	377.81
573.178	353.81
573.389	373.81
573.6	388.81
573.811	376.81
574.023	367.81
574.234	377.81
574.445	351.81
574.656	347.81
574.867	365.81
575.078	360.81
575.289	377.81
575.501	364.81
575.712	369.81
575.923	361.81
576.134	357.81
576.345	366.81
576.556	364.81
576.767	364.81
576.978	363.81
577.188	339.81
577.399	360.81
577.61	357.81
577.821	355.81
578.032	369.81
578.243	412.81
578.454	735.81
578.665	526.81
578.875	376.81
579.086	344.81
579.297	364.81
579.508	369.81
579.718	349.81
579.929	341.81
580.14	330.81
580.35	326.81
580.561	337.81
580.772	328.81
580.982	348.81
581.193	328.81
581.403	335.81
581.614	325.81
581.825	328.81
582.035	336.81
582.246	319.81
582.456	348.81
582.667	332.81
582.877	320.81
583.087	332.81
583.298	332.81
583.508	347.81
583.719	330.81
583.929	315.81
584.139	325.81
584.35	347.81
584.56	331.81
584.77	331.81
584.981	333.81
585.191	339.81
585.401	337.81
585.611	307.81
585.821	303.81
586.032	330.81
586.242	327.81
586.452	312.81
586.662	315.81
586.872	325.81
587.082	304.81
587.292	294.81
587.502	318.81
587.713	311.81
587.923	307.81
588.133	336.81
588.343	308.81
588.553	314.81
588.762	323.81
588.972	318.81
589.182	309.81
589.392	313.81
589.602	321.81
589.812	298.81
590.022	293.81
590.232	325.81
590.441	314.81
590.651	302.81
590.861	299.81
591.071	301.81
591.281	323.81
591.49	331.81
591.7	322.81
591.91	328.81
592.119	302.81
592.329	322.81
592.539	327.81
592.748	303.81
592.958	303.81
593.167	323.81
593.377	336.81
593.587	315.81
593.796	309.81
594.006	310.81
594.215	324.81
594.424	296.81
594.634	313.81
594.843	298.81
595.053	309.81
595.262	302.81
595.472	311.81
595.681	302.81
595.89	293.81
596.1	307.81
596.309	289.81
596.518	293.81
596.727	297.81
596.937	311.81
597.146	292.81
597.355	300.81
597.564	307.81
597.774	304.81
597.983	292.81
598.192	301.81
598.401	272.81
598.61	279.81
598.819	269.81
599.028	285.81
599.237	273.81
599.446	282.81
599.655	289.81
599.864	281.81
600.073	282.81
600.282	275.81
600.491	264.81
600.7	271.81
600.909	275.81
601.118	292.81
601.327	276.81
601.536	274.81
601.745	268.81
601.953	277.81
602.162	286.81
602.371	274.81
602.58	261.81
602.789	274.81
602.997	285.81
603.206	284.81
603.415	280.81
603.623	271.81
603.832	276.81
604.041	271.81
604.249	279.81
604.458	264.81
604.666	274.81
604.875	254.81
605.084	277.81
605.292	263.81
605.501	275.81
605.709	260.81
605.918	270.81
606.126	269.81
606.334	271.81
606.543	247.81
606.751	267.81
606.96	270.81
607.168	276.81
607.376	250.81
607.585	251.81
607.793	257.81
608.001	267.81
608.21	265.81
608.418	268.81
608.626	261.81
608.834	256.81
609.043	268.81
609.251	283.81
609.459	267.81
609.667	254.81
609.875	243.81
610.083	253.81
610.291	259.81
610.499	260.81
610.707	245.81
610.916	265.81
611.124	265.81
611.332	268.81
611.54	288.81
611.748	280.81
611.955	273.81
612.163	285.81
612.371	260.81
612.579	267.81
612.787	272.81
612.995	264.81
613.203	246.81
613.411	279.81
613.618	259.81
613.826	256.81
614.034	260.81
614.242	250.81
614.449	257.81
614.657	259.81
614.865	262.81
615.072	262.81
615.28	277.81
615.488	264.81
615.695	244.81
615.903	251.81
616.111	251.81
616.318	276.81
616.526	267.81
616.733	269.81
616.941	270.81
617.148	236.81
617.356	270.81
617.563	273.81
617.771	253.81
617.978	257.81
618.185	251.81
618.393	236.81
618.6	253.81
618.807	235.81
619.015	237.81
619.222	262.81
619.429	238.81
619.637	240.81
619.844	267.81
620.051	247.81
620.258	232.81
620.466	259.81
620.673	221.81
620.88	247.81
621.087	248.81
621.294	236.81
621.501	250.81
621.708	244.81
621.915	256.81
622.122	234.81
622.329	236.81
622.536	240.81
622.743	251.81
622.95	231.81
623.157	239.81
623.364	236.81
623.571	232.81
623.778	233.81
623.985	234.81
624.192	241.81
624.399	246.81
624.606	233.81
624.812	242.81
625.019	230.81
625.226	231.81
625.433	243.81
625.639	239.81
625.846	228.81
626.053	236.81
626.259	229.81
626.466	223.81
626.673	203.81
626.879	221.81
627.086	215.81
627.293	220.81
627.499	219.81
627.706	216.81
627.912	250.81
628.119	228.81
628.325	236.81
628.532	227.81
628.738	229.81
628.945	227.81
629.151	206.81
629.357	221.81
629.564	227.81
629.77	232.81
629.976	220.81
630.183	215.81
630.389	220.81
630.595	212.81
630.802	212.81
631.008	203.81
631.214	204.81
631.42	213.81
631.627	216.81
631.833	213.81
632.039	208.81
632.245	194.81
632.451	216.81
632.657	203.81
632.863	214.81
633.069	216.81
633.275	185.81
633.481	196.81
633.688	206.81
633.893	203.81
634.099	191.81
634.305	201.81
634.511	199.81
634.717	190.81
634.923	191.81
635.129	195.81
635.335	185.81
635.541	199.81
635.747	195.81
635.952	190.81
636.158	205.81
636.364	207.81
636.57	223.81
636.775	193.81
636.981	194.81
637.187	193.81
637.392	205.81
637.598	192.81
637.804	195.81
638.009	197.81
638.215	197.81
638.421	184.81
638.626	192.81
638.832	186.81
639.037	203.81
639.243	196.81
639.448	187.81
639.654	192.81
639.859	188.81
640.065	184.81
640.27	199.81
640.475	197.81
640.681	186.81
640.886	185.81
641.091	190.81
641.297	193.81
641.502	180.81
641.707	186.81
641.913	200.81
642.118	181.81
642.323	183.81
642.528	199.81
642.733	183.81
642.939	180.81
643.144	182.81
643.349	185.81
643.554	166.81
643.759	185.81
643.964	174.81
644.169	170.81
644.374	176.81
644.579	186.81
644.784	182.81
644.989	192.81
645.194	189.81
645.399	180.81
645.604	175.81
645.809	189.81
646.014	179.81
646.219	176.81
646.423	185.81
646.628	165.81
646.833	184.81
647.038	172.81
647.243	159.81
647.447	177.81
647.652	176.81
647.857	175.81
648.062	174.81
648.266	177.81
648.471	193.81
648.676	176.81
648.88	167.81
649.085	175.81
649.289	178.81
649.494	184.81
649.698	190.81
649.903	192.81
650.107	189.81
650.312	183.81
650.516	176.81
650.721	164.81
650.925	170.81
651.13	172.81
651.334	156.81
651.539	179.81
651.743	170.81
651.947	154.81
652.152	143.81
652.356	153.81
652.56	150.81
652.764	163.81
652.969	148.81
653.173	146.81
653.377	150.81
653.581	149.81
653.785	150.81
653.99	142.81
654.194	133.81
654.398	136.81
654.602	159.81
654.806	151.81
655.01	159.81
655.214	157.81
655.418	141.81
655.622	131.81
655.826	124.81
656.03	133.81
656.234	126.81
656.438	147.81
656.642	160.81
656.846	139.81
657.049	130.81
657.253	124.81
657.457	119.81
657.661	121.81
657.865	110.81
658.068	115.81
658.272	105.81
658.476	123.81
658.68	115.81
658.883	91.81
659.087	112.81
659.291	101.81
659.494	99.81
659.698	100.81
659.901	99.81
660.105	91.81
660.309	105.81
660.512	113.81
660.716	101.81
660.919	95.81
661.123	85.81
661.326	109.81
661.53	97.81
661.733	88.81
661.936	87.81
662.14	84.81
662.343	97.81
662.546	86.81
662.75	88.81
662.953	85.81
663.156	82.81
663.36	90.81
663.563	94.81
663.766	93.81
663.969	91.81
664.173	86.81
664.376	92.81
664.579	89.81
664.782	74.81
664.985	85.81
665.188	104.81
665.391	91.81
665.594	79.81
665.797	87.81
666	85.81
666.203	79.81
666.406	77.81
666.609	86.81
666.812	94.81
667.015	84.81
667.218	91.81
667.421	95.81
667.624	78.81
667.827	77.81
668.03	93.81
668.232	93.81
668.435	87.81
668.638	76.81
668.841	92.81
669.043	90.81
669.246	94.81
669.449	78.81
669.651	79.81
669.854	68.81
670.057	83.81
670.259	86.81
670.462	72.81
670.665	85.81
670.867	84.81
671.07	86.81
671.272	91.81
671.475	85.81
671.677	101.81
671.88	71.81
672.082	91.81
672.284	83.81
672.487	98.81
672.689	81.81
672.892	76.81
