Data from 1971.PennyLincolnUp.Lamp.En5.5.200Scan.071719.P1.Scan 2. Changed Angle._HRD10591_15-22-40-842.txt Node
Date: Thu Jul 18 15:22:40 EDT 2019
User: cochatt
Spectrometer: HR+D1059
Trigger mode: 1
Integration Time (sec): 1.000000E-1
Scans to average: 1
Electric dark correction enabled: true
Nonlinearity correction enabled: false
Boxcar width: 0
XAxis mode: Wavelengths
Number of Pixels in Spectrum: 2048
>>>>>Begin Spectral Data<<<<<
223.165	-15.12
223.4	-15.12
223.635	-15.12
223.869	-25.12
224.104	-9.12
224.338	-7.12
224.573	-14.12
224.808	-11.12
225.042	-22.12
225.277	-14.12
225.511	-6.12
225.746	8.88
225.98	6.88
226.215	11.88
226.449	13.88
226.683	13.88
226.918	27.88
227.152	40.88
227.387	38.88
227.621	41.88
227.856	32.88
228.09	47.88
228.324	46.88
228.559	48.88
228.793	74.88
229.027	100.88
229.262	104.88
229.496	110.88
229.73	137.88
229.964	158.88
230.199	132.88
230.433	117.88
230.667	120.88
230.901	109.88
231.136	120.88
231.37	121.88
231.604	117.88
231.838	111.88
232.072	107.88
232.306	130.88
232.541	129.88
232.775	123.88
233.009	104.88
233.243	105.88
233.477	113.88
233.711	120.88
233.945	116.88
234.179	115.88
234.413	133.88
234.647	119.88
234.881	105.88
235.115	113.88
235.349	116.88
235.583	109.88
235.817	99.88
236.051	129.88
236.285	128.88
236.519	129.88
236.753	127.88
236.987	142.88
237.221	167.88
237.455	217.88
237.689	194.88
237.922	139.88
238.156	129.88
238.39	128.88
238.624	121.88
238.858	128.88
239.091	137.88
239.325	124.88
239.559	122.88
239.793	131.88
240.027	121.88
240.26	137.88
240.494	141.88
240.728	141.88
240.961	144.88
241.195	127.88
241.429	140.88
241.662	126.88
241.896	128.88
242.13	121.88
242.363	138.88
242.597	145.88
242.83	134.88
243.064	132.88
243.298	132.88
243.531	138.88
243.765	146.88
243.998	132.88
244.232	137.88
244.465	144.88
244.699	139.88
244.932	143.88
245.166	139.88
245.399	133.88
245.633	155.88
245.866	126.88
246.099	135.88
246.333	152.88
246.566	149.88
246.8	142.88
247.033	147.88
247.266	154.88
247.5	156.88
247.733	172.88
247.966	159.88
248.2	154.88
248.433	160.88
248.666	160.88
248.899	182.88
249.133	189.88
249.366	203.88
249.599	189.88
249.832	188.88
250.066	165.88
250.299	187.88
250.532	196.88
250.765	201.88
250.998	196.88
251.231	211.88
251.465	192.88
251.698	206.88
251.931	196.88
252.164	186.88
252.397	204.88
252.63	191.88
252.863	202.88
253.096	210.88
253.329	209.88
253.562	222.88
253.795	192.88
254.028	220.88
254.261	200.88
254.494	206.88
254.727	233.88
254.96	266.88
255.193	265.88
255.426	246.88
255.659	233.88
255.892	221.88
256.124	208.88
256.357	210.88
256.59	196.88
256.823	210.88
257.056	202.88
257.289	203.88
257.521	194.88
257.754	198.88
257.987	201.88
258.22	212.88
258.452	192.88
258.685	201.88
258.918	214.88
259.151	191.88
259.383	194.88
259.616	216.88
259.849	220.88
260.081	223.88
260.314	221.88
260.547	231.88
260.779	218.88
261.012	227.88
261.244	217.88
261.477	218.88
261.71	216.88
261.942	219.88
262.175	222.88
262.407	217.88
262.64	206.88
262.872	191.88
263.105	194.88
263.337	198.88
263.57	201.88
263.802	210.88
264.035	184.88
264.267	187.88
264.499	190.88
264.732	187.88
264.964	196.88
265.197	188.88
265.429	197.88
265.661	200.88
265.894	180.88
266.126	193.88
266.358	169.88
266.591	198.88
266.823	190.88
267.055	196.88
267.287	192.88
267.52	214.88
267.752	217.88
267.984	191.88
268.216	205.88
268.448	196.88
268.681	218.88
268.913	206.88
269.145	237.88
269.377	247.88
269.609	252.88
269.841	247.88
270.073	220.88
270.306	264.88
270.538	280.88
270.77	285.88
271.002	275.88
271.234	274.88
271.466	274.88
271.698	266.88
271.93	279.88
272.162	290.88
272.394	274.88
272.626	272.88
272.858	266.88
273.09	235.88
273.322	241.88
273.553	257.88
273.785	244.88
274.017	224.88
274.249	224.88
274.481	225.88
274.713	232.88
274.945	233.88
275.176	236.88
275.408	233.88
275.64	256.88
275.872	238.88
276.104	235.88
276.335	226.88
276.567	264.88
276.799	230.88
277.031	281.88
277.262	275.88
277.494	287.88
277.726	259.88
277.957	251.88
278.189	257.88
278.421	226.88
278.652	244.88
278.884	244.88
279.115	239.88
279.347	224.88
279.579	232.88
279.81	233.88
280.042	214.88
280.273	229.88
280.505	233.88
280.736	216.88
280.968	235.88
281.199	221.88
281.431	233.88
281.662	226.88
281.894	245.88
282.125	232.88
282.356	239.88
282.588	269.88
282.819	262.88
283.051	233.88
283.282	241.88
283.513	245.88
283.745	229.88
283.976	224.88
284.207	230.88
284.439	250.88
284.67	249.88
284.901	240.88
285.132	240.88
285.364	241.88
285.595	227.88
285.826	225.88
286.057	245.88
286.288	255.88
286.52	238.88
286.751	239.88
286.982	239.88
287.213	237.88
287.444	229.88
287.675	246.88
287.906	244.88
288.138	256.88
288.369	245.88
288.6	252.88
288.831	258.88
289.062	237.88
289.293	253.88
289.524	250.88
289.755	253.88
289.986	245.88
290.217	238.88
290.448	235.88
290.679	251.88
290.91	247.88
291.141	237.88
291.371	236.88
291.602	253.88
291.833	249.88
292.064	241.88
292.295	235.88
292.526	260.88
292.757	246.88
292.987	240.88
293.218	245.88
293.449	239.88
293.68	243.88
293.91	253.88
294.141	240.88
294.372	239.88
294.603	263.88
294.833	246.88
295.064	248.88
295.295	240.88
295.525	249.88
295.756	241.88
295.987	264.88
296.217	283.88
296.448	290.88
296.679	271.88
296.909	256.88
297.14	263.88
297.37	265.88
297.601	260.88
297.831	260.88
298.062	257.88
298.292	276.88
298.523	264.88
298.753	258.88
298.984	251.88
299.214	274.88
299.445	254.88
299.675	270.88
299.905	270.88
300.136	253.88
300.366	249.88
300.597	264.88
300.827	270.88
301.057	276.88
301.288	271.88
301.518	271.88
301.748	281.88
301.979	278.88
302.209	273.88
302.439	263.88
302.669	276.88
302.9	273.88
303.13	265.88
303.36	284.88
303.59	288.88
303.82	270.88
304.051	288.88
304.281	274.88
304.511	281.88
304.741	261.88
304.971	271.88
305.201	269.88
305.431	276.88
305.661	286.88
305.891	268.88
306.121	281.88
306.352	289.88
306.582	291.88
306.812	289.88
307.042	289.88
307.272	272.88
307.502	274.88
307.731	288.88
307.961	265.88
308.191	273.88
308.421	301.88
308.651	285.88
308.881	302.88
309.111	291.88
309.341	278.88
309.571	312.88
309.8	326.88
310.03	326.88
310.26	328.88
310.49	321.88
310.72	331.88
310.949	335.88
311.179	315.88
311.409	329.88
311.639	332.88
311.868	314.88
312.098	317.88
312.328	314.88
312.557	324.88
312.787	350.88
313.017	352.88
313.246	338.88
313.476	317.88
313.706	325.88
313.935	329.88
314.165	350.88
314.394	326.88
314.624	340.88
314.853	347.88
315.083	345.88
315.312	324.88
315.542	309.88
315.771	332.88
316.001	336.88
316.23	325.88
316.46	317.88
316.689	325.88
316.919	314.88
317.148	332.88
317.377	344.88
317.607	326.88
317.836	341.88
318.065	331.88
318.295	336.88
318.524	322.88
318.753	318.88
318.983	317.88
319.212	317.88
319.441	342.88
319.67	326.88
319.9	324.88
320.129	336.88
320.358	333.88
320.587	335.88
320.816	334.88
321.046	342.88
321.275	343.88
321.504	334.88
321.733	344.88
321.962	369.88
322.191	373.88
322.42	362.88
322.649	390.88
322.878	397.88
323.108	394.88
323.337	408.88
323.566	438.88
323.795	455.88
324.024	515.88
324.253	604.88
324.482	880.88
324.71	1341.88
324.939	1933.88
325.168	1681.88
325.397	882.88
325.626	591.88
325.855	492.88
326.084	434.88
326.313	417.88
326.542	426.88
326.77	465.88
326.999	573.88
327.228	789.88
327.457	1197.88
327.686	1433.88
327.914	958.88
328.143	638.88
328.372	555.88
328.6	532.88
328.829	502.88
329.058	496.88
329.287	508.88
329.515	480.88
329.744	454.88
329.972	446.88
330.201	464.88
330.43	489.88
330.658	507.88
330.887	537.88
331.115	528.88
331.344	448.88
331.572	425.88
331.801	416.88
332.03	431.88
332.258	400.88
332.486	374.88
332.715	382.88
332.943	400.88
333.172	370.88
333.4	377.88
333.629	394.88
333.857	405.88
334.085	413.88
334.314	406.88
334.542	442.88
334.771	457.88
334.999	424.88
335.227	402.88
335.455	386.88
335.684	375.88
335.912	388.88
336.14	373.88
336.369	388.88
336.597	386.88
336.825	374.88
337.053	380.88
337.281	394.88
337.51	383.88
337.738	386.88
337.966	382.88
338.194	372.88
338.422	367.88
338.65	374.88
338.878	360.88
339.106	376.88
339.334	368.88
339.562	374.88
339.79	377.88
340.018	386.88
340.246	373.88
340.474	369.88
340.702	365.88
340.93	373.88
341.158	363.88
341.386	359.88
341.614	376.88
341.842	382.88
342.07	352.88
342.298	381.88
342.526	356.88
342.754	364.88
342.981	359.88
343.209	350.88
343.437	368.88
343.665	376.88
343.893	370.88
344.12	385.88
344.348	369.88
344.576	382.88
344.804	372.88
345.031	393.88
345.259	394.88
345.487	392.88
345.714	393.88
345.942	365.88
346.17	369.88
346.397	358.88
346.625	371.88
346.853	366.88
347.08	350.88
347.308	384.88
347.535	383.88
347.763	381.88
347.99	375.88
348.218	382.88
348.445	384.88
348.673	395.88
348.9	371.88
349.128	352.88
349.355	356.88
349.583	343.88
349.81	354.88
350.037	359.88
350.265	360.88
350.492	349.88
350.72	352.88
350.947	350.88
351.174	366.88
351.402	385.88
351.629	383.88
351.856	389.88
352.083	383.88
352.311	376.88
352.538	373.88
352.765	382.88
352.992	369.88
353.22	372.88
353.447	374.88
353.674	356.88
353.901	344.88
354.128	378.88
354.355	360.88
354.583	351.88
354.81	355.88
355.037	343.88
355.264	347.88
355.491	353.88
355.718	353.88
355.945	337.88
356.172	351.88
356.399	337.88
356.626	356.88
356.853	343.88
357.08	347.88
357.307	325.88
357.534	346.88
357.761	362.88
357.988	345.88
358.215	347.88
358.441	334.88
358.668	356.88
358.895	339.88
359.122	363.88
359.349	369.88
359.576	387.88
359.802	401.88
360.029	437.88
360.256	458.88
360.483	420.88
360.709	385.88
360.936	373.88
361.163	387.88
361.39	369.88
361.616	388.88
361.843	382.88
362.07	380.88
362.296	384.88
362.523	358.88
362.749	367.88
362.976	363.88
363.203	359.88
363.429	359.88
363.656	361.88
363.882	357.88
364.109	356.88
364.335	363.88
364.562	378.88
364.788	362.88
365.015	348.88
365.241	378.88
365.468	349.88
365.694	392.88
365.92	382.88
366.147	377.88
366.373	364.88
366.599	354.88
366.826	372.88
367.052	362.88
367.278	376.88
367.505	367.88
367.731	352.88
367.957	373.88
368.184	358.88
368.41	360.88
368.636	374.88
368.862	371.88
369.089	375.88
369.315	381.88
369.541	349.88
369.767	379.88
369.993	349.88
370.219	353.88
370.445	355.88
370.672	344.88
370.898	379.88
371.124	362.88
371.35	358.88
371.576	350.88
371.802	360.88
372.028	346.88
372.254	361.88
372.48	370.88
372.706	360.88
372.932	364.88
373.158	382.88
373.384	365.88
373.61	382.88
373.835	352.88
374.061	365.88
374.287	367.88
374.513	373.88
374.739	370.88
374.965	376.88
375.191	360.88
375.416	365.88
375.642	362.88
375.868	356.88
376.094	372.88
376.319	369.88
376.545	372.88
376.771	368.88
376.997	363.88
377.222	352.88
377.448	378.88
377.674	374.88
377.899	362.88
378.125	372.88
378.35	363.88
378.576	357.88
378.802	369.88
379.027	382.88
379.253	386.88
379.478	365.88
379.704	356.88
379.929	357.88
380.155	376.88
380.38	373.88
380.606	381.88
380.831	354.88
381.057	367.88
381.282	373.88
381.507	359.88
381.733	347.88
381.958	366.88
382.184	364.88
382.409	382.88
382.634	384.88
382.86	374.88
383.085	397.88
383.31	382.88
383.535	381.88
383.761	388.88
383.986	354.88
384.211	381.88
384.436	384.88
384.662	381.88
384.887	377.88
385.112	367.88
385.337	376.88
385.562	385.88
385.787	395.88
386.013	408.88
386.238	386.88
386.463	418.88
386.688	401.88
386.913	402.88
387.138	396.88
387.363	386.88
387.588	396.88
387.813	400.88
388.038	379.88
388.263	408.88
388.488	379.88
388.713	388.88
388.938	405.88
389.163	399.88
389.387	421.88
389.612	401.88
389.837	391.88
390.062	385.88
390.287	402.88
390.512	413.88
390.736	394.88
390.961	385.88
391.186	401.88
391.411	411.88
391.636	413.88
391.86	405.88
392.085	407.88
392.31	411.88
392.534	398.88
392.759	413.88
392.984	393.88
393.208	398.88
393.433	430.88
393.658	441.88
393.882	415.88
394.107	392.88
394.331	393.88
394.556	407.88
394.78	413.88
395.005	422.88
395.229	414.88
395.454	421.88
395.678	420.88
395.903	436.88
396.127	453.88
396.352	459.88
396.576	439.88
396.801	426.88
397.025	423.88
397.249	435.88
397.474	400.88
397.698	421.88
397.922	442.88
398.147	442.88
398.371	459.88
398.595	460.88
398.82	432.88
399.044	457.88
399.268	466.88
399.492	491.88
399.717	508.88
399.941	520.88
400.165	542.88
400.389	550.88
400.613	503.88
400.837	458.88
401.062	462.88
401.286	473.88
401.51	474.88
401.734	472.88
401.958	461.88
402.182	479.88
402.406	485.88
402.63	480.88
402.854	461.88
403.078	461.88
403.302	472.88
403.526	464.88
403.75	491.88
403.974	472.88
404.198	472.88
404.422	479.88
404.645	481.88
404.869	500.88
405.093	518.88
405.317	527.88
405.541	569.88
405.765	536.88
405.988	514.88
406.212	508.88
406.436	538.88
406.66	543.88
406.883	515.88
407.107	544.88
407.331	562.88
407.555	636.88
407.778	631.88
408.002	576.88
408.226	535.88
408.449	532.88
408.673	537.88
408.896	552.88
409.12	583.88
409.344	575.88
409.567	513.88
409.791	486.88
410.014	498.88
410.238	495.88
410.461	486.88
410.685	469.88
410.908	505.88
411.132	544.88
411.355	553.88
411.578	528.88
411.802	503.88
412.025	499.88
412.249	488.88
412.472	491.88
412.695	514.88
412.919	529.88
413.142	495.88
413.365	449.88
413.589	478.88
413.812	456.88
414.035	485.88
414.258	438.88
414.482	439.88
414.705	468.88
414.928	439.88
415.151	468.88
415.374	454.88
415.597	461.88
415.821	455.88
416.044	450.88
416.267	463.88
416.49	488.88
416.713	455.88
416.936	472.88
417.159	446.88
417.382	453.88
417.605	476.88
417.828	484.88
418.051	484.88
418.274	486.88
418.497	489.88
418.72	490.88
418.943	474.88
419.166	469.88
419.389	478.88
419.611	496.88
419.834	503.88
420.057	490.88
420.28	478.88
420.503	489.88
420.726	456.88
420.948	478.88
421.171	543.88
421.394	554.88
421.617	515.88
421.839	502.88
422.062	478.88
422.285	506.88
422.507	549.88
422.73	640.88
422.953	596.88
423.175	521.88
423.398	514.88
423.621	505.88
423.843	518.88
424.066	549.88
424.288	530.88
424.511	551.88
424.733	592.88
424.956	674.88
425.178	632.88
425.401	631.88
425.623	656.88
425.846	587.88
426.068	549.88
426.291	542.88
426.513	543.88
426.735	556.88
426.958	576.88
427.18	654.88
427.402	763.88
427.625	824.88
427.847	758.88
428.069	635.88
428.292	601.88
428.514	537.88
428.736	529.88
428.958	492.88
429.181	483.88
429.403	525.88
429.625	486.88
429.847	527.88
430.069	596.88
430.292	575.88
430.514	539.88
430.736	508.88
430.958	489.88
431.18	470.88
431.402	467.88
431.624	428.88
431.846	463.88
432.068	465.88
432.29	472.88
432.512	492.88
432.734	482.88
432.956	482.88
433.178	485.88
433.4	481.88
433.622	464.88
433.844	485.88
434.066	479.88
434.287	454.88
434.509	465.88
434.731	477.88
434.953	461.88
435.175	525.88
435.397	535.88
435.618	548.88
435.84	599.88
436.062	653.88
436.284	738.88
436.505	629.88
436.727	540.88
436.949	515.88
437.17	512.88
437.392	518.88
437.614	522.88
437.835	554.88
438.057	650.88
438.278	737.88
438.5	721.88
438.721	793.88
438.943	774.88
439.165	619.88
439.386	570.88
439.608	542.88
439.829	538.88
440.05	583.88
440.272	617.88
440.493	569.88
440.715	544.88
440.936	508.88
441.158	505.88
441.379	478.88
441.6	522.88
441.822	547.88
442.043	585.88
442.264	649.88
442.486	681.88
442.707	607.88
442.928	558.88
443.149	542.88
443.371	583.88
443.592	630.88
443.813	722.88
444.034	737.88
444.255	629.88
444.476	572.88
444.698	528.88
444.919	550.88
445.14	644.88
445.361	604.88
445.582	578.88
445.803	656.88
446.024	740.88
446.245	728.88
446.466	687.88
446.687	584.88
446.908	541.88
447.129	524.88
447.35	494.88
447.571	497.88
447.792	494.88
448.013	509.88
448.234	524.88
448.455	591.88
448.675	668.88
448.896	777.88
449.117	665.88
449.338	631.88
449.559	719.88
449.779	784.88
450	666.88
450.221	564.88
450.442	534.88
450.662	535.88
450.883	504.88
451.104	528.88
451.324	498.88
451.545	477.88
451.766	477.88
451.986	449.88
452.207	449.88
452.428	433.88
452.648	462.88
452.869	466.88
453.089	455.88
453.31	474.88
453.53	460.88
453.751	462.88
453.971	462.88
454.192	455.88
454.412	474.88
454.633	462.88
454.853	454.88
455.073	467.88
455.294	476.88
455.514	526.88
455.734	525.88
455.955	449.88
456.175	419.88
456.395	433.88
456.616	415.88
456.836	422.88
457.056	421.88
457.276	401.88
457.497	442.88
457.717	407.88
457.937	425.88
458.157	446.88
458.377	435.88
458.598	450.88
458.818	516.88
459.038	582.88
459.258	638.88
459.478	526.88
459.698	470.88
459.918	480.88
460.138	447.88
460.358	452.88
460.578	480.88
460.798	448.88
461.018	468.88
461.238	450.88
461.458	478.88
461.678	470.88
461.898	476.88
462.118	447.88
462.338	467.88
462.558	458.88
462.777	481.88
462.997	490.88
463.217	488.88
463.437	522.88
463.657	518.88
463.876	496.88
464.096	476.88
464.316	474.88
464.536	495.88
464.755	517.88
464.975	505.88
465.195	559.88
465.414	650.88
465.634	562.88
465.854	522.88
466.073	488.88
466.293	462.88
466.512	463.88
466.732	450.88
466.951	475.88
467.171	450.88
467.391	448.88
467.61	469.88
467.829	460.88
468.049	448.88
468.268	472.88
468.488	463.88
468.707	449.88
468.927	443.88
469.146	439.88
469.365	450.88
469.585	434.88
469.804	436.88
470.023	458.88
470.243	463.88
470.462	461.88
470.681	483.88
470.901	468.88
471.12	472.88
471.339	463.88
471.558	483.88
471.777	482.88
471.997	456.88
472.216	480.88
472.435	503.88
472.654	486.88
472.873	459.88
473.092	453.88
473.311	454.88
473.53	476.88
473.749	502.88
473.968	525.88
474.187	612.88
474.406	628.88
474.625	551.88
474.844	503.88
475.063	491.88
475.282	482.88
475.501	469.88
475.72	484.88
475.939	469.88
476.158	495.88
476.377	478.88
476.596	487.88
476.814	495.88
477.033	493.88
477.252	496.88
477.471	502.88
477.69	500.88
477.908	502.88
478.127	511.88
478.346	488.88
478.564	508.88
478.783	521.88
479.002	529.88
479.22	538.88
479.439	542.88
479.658	563.88
479.876	557.88
480.095	537.88
480.313	574.88
480.532	568.88
480.751	560.88
480.969	574.88
481.188	620.88
481.406	643.88
481.624	570.88
481.843	576.88
482.061	588.88
482.28	549.88
482.498	554.88
482.717	534.88
482.935	539.88
483.153	555.88
483.372	557.88
483.59	566.88
483.808	539.88
484.027	579.88
484.245	562.88
484.463	557.88
484.681	577.88
484.9	577.88
485.118	544.88
485.336	569.88
485.554	562.88
485.772	560.88
485.99	577.88
486.209	575.88
486.427	570.88
486.645	589.88
486.863	595.88
487.081	606.88
487.299	614.88
487.517	623.88
487.735	617.88
487.953	648.88
488.171	593.88
488.389	589.88
488.607	600.88
488.825	600.88
489.043	578.88
489.261	600.88
489.479	618.88
489.696	621.88
489.914	635.88
490.132	645.88
490.35	632.88
490.568	646.88
490.786	658.88
491.003	644.88
491.221	633.88
491.439	664.88
491.657	698.88
491.874	670.88
492.092	689.88
492.31	733.88
492.527	709.88
492.745	700.88
492.963	704.88
493.18	693.88
493.398	733.88
493.615	740.88
493.833	729.88
494.05	690.88
494.268	710.88
494.485	708.88
494.703	707.88
494.92	722.88
495.138	689.88
495.355	700.88
495.573	729.88
495.79	728.88
496.008	720.88
496.225	726.88
496.442	721.88
496.66	721.88
496.877	747.88
497.094	737.88
497.312	721.88
497.529	750.88
497.746	738.88
497.963	751.88
498.181	739.88
498.398	774.88
498.615	802.88
498.832	785.88
499.049	802.88
499.267	801.88
499.484	805.88
499.701	860.88
499.918	842.88
500.135	902.88
500.352	942.88
500.569	878.88
500.786	930.88
501.003	924.88
501.22	902.88
501.437	870.88
501.654	868.88
501.871	886.88
502.088	857.88
502.305	829.88
502.522	797.88
502.739	766.88
502.956	763.88
503.172	778.88
503.389	734.88
503.606	778.88
503.823	780.88
504.04	756.88
504.256	734.88
504.473	713.88
504.69	728.88
504.907	710.88
505.123	724.88
505.34	714.88
505.557	727.88
505.773	705.88
505.99	671.88
506.207	704.88
506.423	694.88
506.64	704.88
506.856	669.88
507.073	695.88
507.289	675.88
507.506	684.88
507.722	695.88
507.939	702.88
508.155	673.88
508.372	671.88
508.588	658.88
508.805	682.88
509.021	654.88
509.238	658.88
509.454	685.88
509.67	677.88
509.887	652.88
510.103	637.88
510.319	668.88
510.536	792.88
510.752	1254.88
510.968	1038.88
511.184	677.88
511.401	637.88
511.617	641.88
511.833	642.88
512.049	599.88
512.265	636.88
512.481	630.88
512.698	618.88
512.914	620.88
513.13	613.88
513.346	605.88
513.562	625.88
513.778	630.88
513.994	624.88
514.21	628.88
514.426	670.88
514.642	703.88
514.858	741.88
515.074	786.88
515.29	938.88
515.506	1356.88
515.721	1151.88
515.937	778.88
516.153	703.88
516.369	666.88
516.585	656.88
516.801	652.88
517.016	641.88
517.232	649.88
517.448	620.88
517.664	648.88
517.879	654.88
518.095	625.88
518.311	616.88
518.527	615.88
518.742	629.88
518.958	595.88
519.173	601.88
519.389	617.88
519.605	635.88
519.82	644.88
520.036	646.88
520.251	643.88
520.467	684.88
520.682	676.88
520.898	689.88
521.113	719.88
521.329	767.88
521.544	850.88
521.76	1094.88
521.975	1780.88
522.19	1760.88
522.406	938.88
522.621	722.88
522.836	652.88
523.052	628.88
523.267	599.88
523.482	598.88
523.698	603.88
523.913	587.88
524.128	572.88
524.343	551.88
524.559	564.88
524.774	540.88
524.989	558.88
525.204	558.88
525.419	579.88
525.634	539.88
525.849	537.88
526.064	536.88
526.28	532.88
526.495	506.88
526.71	500.88
526.925	521.88
527.14	538.88
527.355	524.88
527.57	510.88
527.785	502.88
527.999	524.88
528.214	514.88
528.429	512.88
528.644	505.88
528.859	521.88
529.074	524.88
529.289	545.88
529.503	617.88
529.718	597.88
529.933	546.88
530.148	513.88
530.363	510.88
530.577	506.88
530.792	502.88
531.007	508.88
531.221	497.88
531.436	514.88
531.651	491.88
531.865	498.88
532.08	510.88
532.295	497.88
532.509	492.88
532.724	486.88
532.938	488.88
533.153	496.88
533.367	480.88
533.582	504.88
533.796	477.88
534.011	458.88
534.225	494.88
534.44	473.88
534.654	472.88
534.868	465.88
535.083	487.88
535.297	466.88
535.511	482.88
535.726	497.88
535.94	494.88
536.154	490.88
536.369	479.88
536.583	486.88
536.797	462.88
537.011	478.88
537.225	476.88
537.44	473.88
537.654	471.88
537.868	462.88
538.082	482.88
538.296	474.88
538.51	465.88
538.724	474.88
538.938	485.88
539.153	494.88
539.367	468.88
539.581	465.88
539.795	481.88
540.009	473.88
540.222	442.88
540.436	466.88
540.65	467.88
540.864	483.88
541.078	474.88
541.292	473.88
541.506	479.88
541.72	484.88
541.934	468.88
542.147	491.88
542.361	473.88
542.575	476.88
542.789	466.88
543.002	469.88
543.216	453.88
543.43	481.88
543.644	453.88
543.857	470.88
544.071	476.88
544.285	446.88
544.498	482.88
544.712	439.88
544.925	451.88
545.139	470.88
545.352	456.88
545.566	457.88
545.779	448.88
545.993	456.88
546.206	450.88
546.42	452.88
546.633	447.88
546.847	473.88
547.06	476.88
547.274	455.88
547.487	460.88
547.7	451.88
547.914	441.88
548.127	460.88
548.34	463.88
548.554	462.88
548.767	455.88
548.98	454.88
549.193	447.88
549.407	444.88
549.62	438.88
549.833	441.88
550.046	418.88
550.259	447.88
550.473	459.88
550.686	458.88
550.899	432.88
551.112	437.88
551.325	422.88
551.538	440.88
551.751	442.88
551.964	440.88
552.177	450.88
552.39	429.88
552.603	453.88
552.816	441.88
553.029	437.88
553.242	447.88
553.455	451.88
553.667	462.88
553.88	481.88
554.093	431.88
554.306	448.88
554.519	437.88
554.732	443.88
554.944	438.88
555.157	421.88
555.37	437.88
555.583	440.88
555.795	430.88
556.008	412.88
556.221	409.88
556.433	414.88
556.646	421.88
556.859	408.88
557.071	421.88
557.284	422.88
557.496	420.88
557.709	424.88
557.921	408.88
558.134	413.88
558.346	396.88
558.559	409.88
558.771	410.88
558.984	420.88
559.196	424.88
559.409	409.88
559.621	398.88
559.833	402.88
560.046	415.88
560.258	390.88
560.47	405.88
560.683	398.88
560.895	415.88
561.107	406.88
561.32	401.88
561.532	416.88
561.744	414.88
561.956	408.88
562.168	390.88
562.381	386.88
562.593	383.88
562.805	407.88
563.017	410.88
563.229	418.88
563.441	406.88
563.653	399.88
563.865	412.88
564.077	416.88
564.289	417.88
564.501	426.88
564.713	435.88
564.925	418.88
565.137	447.88
565.349	433.88
565.561	426.88
565.773	448.88
565.985	438.88
566.197	444.88
566.408	429.88
566.62	457.88
566.832	436.88
567.044	452.88
567.255	453.88
567.467	461.88
567.679	466.88
567.891	484.88
568.102	468.88
568.314	452.88
568.526	454.88
568.737	445.88
568.949	430.88
569.161	408.88
569.372	407.88
569.584	393.88
569.795	408.88
570.007	418.88
570.218	450.88
570.43	442.88
570.641	381.88
570.853	383.88
571.064	387.88
571.276	385.88
571.487	376.88
571.698	360.88
571.91	372.88
572.121	364.88
572.333	363.88
572.544	361.88
572.755	353.88
572.966	363.88
573.178	354.88
573.389	346.88
573.6	365.88
573.811	374.88
574.023	352.88
574.234	351.88
574.445	344.88
574.656	346.88
574.867	341.88
575.078	351.88
575.289	334.88
575.501	336.88
575.712	340.88
575.923	331.88
576.134	342.88
576.345	347.88
576.556	328.88
576.767	326.88
576.978	342.88
577.188	343.88
577.399	362.88
577.61	337.88
577.821	333.88
578.032	342.88
578.243	375.88
578.454	614.88
578.665	461.88
578.875	333.88
579.086	328.88
579.297	338.88
579.508	319.88
579.718	325.88
579.929	343.88
580.14	321.88
580.35	314.88
580.561	320.88
580.772	310.88
580.982	296.88
581.193	309.88
581.403	313.88
581.614	314.88
581.825	300.88
582.035	285.88
582.246	301.88
582.456	293.88
582.667	321.88
582.877	320.88
583.087	285.88
583.298	297.88
583.508	320.88
583.719	315.88
583.929	333.88
584.139	327.88
584.35	289.88
584.56	317.88
584.77	315.88
584.981	304.88
585.191	324.88
585.401	306.88
585.611	300.88
585.821	304.88
586.032	303.88
586.242	305.88
586.452	296.88
586.662	301.88
586.872	281.88
587.082	311.88
587.292	299.88
587.502	307.88
587.713	303.88
587.923	310.88
588.133	310.88
588.343	298.88
588.553	292.88
588.762	304.88
588.972	293.88
589.182	304.88
589.392	301.88
589.602	290.88
589.812	289.88
590.022	312.88
590.232	302.88
590.441	295.88
590.651	306.88
590.861	287.88
591.071	296.88
591.281	287.88
591.49	312.88
591.7	298.88
591.91	309.88
592.119	308.88
592.329	302.88
592.539	296.88
592.748	309.88
592.958	289.88
593.167	299.88
593.377	312.88
593.587	301.88
593.796	308.88
594.006	323.88
594.215	303.88
594.424	300.88
594.634	288.88
594.843	294.88
595.053	293.88
595.262	281.88
595.472	299.88
595.681	300.88
595.89	289.88
596.1	282.88
596.309	269.88
596.518	291.88
596.727	277.88
596.937	289.88
597.146	280.88
597.355	289.88
597.564	289.88
597.774	290.88
597.983	271.88
598.192	286.88
598.401	271.88
598.61	287.88
598.819	266.88
599.028	271.88
599.237	280.88
599.446	300.88
599.655	284.88
599.864	268.88
600.073	277.88
600.282	276.88
600.491	255.88
600.7	271.88
600.909	268.88
601.118	273.88
601.327	273.88
601.536	271.88
601.745	265.88
601.953	269.88
602.162	261.88
602.371	271.88
602.58	273.88
602.789	274.88
602.997	265.88
603.206	274.88
603.415	280.88
603.623	265.88
603.832	277.88
604.041	272.88
604.249	239.88
604.458	246.88
604.666	246.88
604.875	246.88
605.084	228.88
605.292	249.88
605.501	253.88
605.709	265.88
605.918	264.88
606.126	266.88
606.334	250.88
606.543	269.88
606.751	273.88
606.96	257.88
607.168	269.88
607.376	254.88
607.585	249.88
607.793	238.88
608.001	241.88
608.21	252.88
608.418	239.88
608.626	256.88
608.834	257.88
609.043	245.88
609.251	269.88
609.459	262.88
609.667	249.88
609.875	244.88
610.083	269.88
610.291	259.88
610.499	249.88
610.707	248.88
610.916	264.88
611.124	262.88
611.332	259.88
611.54	258.88
611.748	264.88
611.955	263.88
612.163	243.88
612.371	254.88
612.579	251.88
612.787	242.88
612.995	270.88
613.203	273.88
613.411	251.88
613.618	265.88
613.826	256.88
614.034	249.88
614.242	235.88
614.449	242.88
614.657	240.88
614.865	239.88
615.072	238.88
615.28	240.88
615.488	237.88
615.695	244.88
615.903	252.88
616.111	226.88
616.318	264.88
616.526	265.88
616.733	269.88
616.941	265.88
617.148	248.88
617.356	236.88
617.563	231.88
617.771	245.88
617.978	227.88
618.185	239.88
618.393	238.88
618.6	228.88
618.807	245.88
619.015	249.88
619.222	234.88
619.429	251.88
619.637	246.88
619.844	236.88
620.051	241.88
620.258	224.88
620.466	222.88
620.673	242.88
620.88	231.88
621.087	232.88
621.294	229.88
621.501	217.88
621.708	226.88
621.915	235.88
622.122	229.88
622.329	235.88
622.536	256.88
622.743	250.88
622.95	241.88
623.157	217.88
623.364	225.88
623.571	238.88
623.778	245.88
623.985	234.88
624.192	236.88
624.399	209.88
624.606	209.88
624.812	230.88
625.019	215.88
625.226	221.88
625.433	216.88
625.639	225.88
625.846	227.88
626.053	203.88
626.259	210.88
626.466	212.88
626.673	201.88
626.879	194.88
627.086	198.88
627.293	200.88
627.499	201.88
627.706	209.88
627.912	204.88
628.119	210.88
628.325	215.88
628.532	216.88
628.738	206.88
628.945	219.88
629.151	209.88
629.357	230.88
629.564	204.88
629.77	202.88
629.976	201.88
630.183	202.88
630.389	198.88
630.595	192.88
630.802	196.88
631.008	216.88
631.214	205.88
631.42	200.88
631.627	202.88
631.833	192.88
632.039	197.88
632.245	210.88
632.451	204.88
632.657	201.88
632.863	187.88
633.069	188.88
633.275	212.88
633.481	198.88
633.688	192.88
633.893	200.88
634.099	193.88
634.305	188.88
634.511	199.88
634.717	188.88
634.923	186.88
635.129	187.88
635.335	193.88
635.541	184.88
635.747	182.88
635.952	191.88
636.158	196.88
636.364	199.88
636.57	203.88
636.775	203.88
636.981	210.88
637.187	178.88
637.392	176.88
637.598	191.88
637.804	190.88
638.009	184.88
638.215	192.88
638.421	203.88
638.626	178.88
638.832	177.88
639.037	184.88
639.243	168.88
639.448	180.88
639.654	203.88
639.859	184.88
640.065	171.88
640.27	193.88
640.475	193.88
640.681	182.88
640.886	188.88
641.091	204.88
641.297	177.88
641.502	172.88
641.707	189.88
641.913	183.88
642.118	181.88
642.323	190.88
642.528	175.88
642.733	189.88
642.939	164.88
643.144	174.88
643.349	187.88
643.554	168.88
643.759	174.88
643.964	188.88
644.169	168.88
644.374	165.88
644.579	168.88
644.784	171.88
644.989	182.88
645.194	190.88
645.399	173.88
645.604	190.88
645.809	168.88
646.014	182.88
646.219	174.88
646.423	193.88
646.628	170.88
646.833	179.88
647.038	175.88
647.243	187.88
647.447	169.88
647.652	193.88
647.857	190.88
648.062	177.88
648.266	171.88
648.471	169.88
648.676	165.88
648.88	170.88
649.085	162.88
649.289	177.88
649.494	172.88
649.698	180.88
649.903	198.88
650.107	170.88
650.312	153.88
650.516	162.88
650.721	166.88
650.925	156.88
651.13	183.88
651.334	165.88
651.539	149.88
651.743	165.88
651.947	165.88
652.152	153.88
652.356	154.88
652.56	148.88
652.764	164.88
652.969	149.88
653.173	157.88
653.377	146.88
653.581	162.88
653.785	155.88
653.99	150.88
654.194	142.88
654.398	135.88
654.602	143.88
654.806	144.88
655.01	145.88
655.214	159.88
655.418	132.88
655.622	140.88
655.826	123.88
656.03	128.88
656.234	148.88
656.438	142.88
656.642	143.88
656.846	136.88
657.049	128.88
657.253	140.88
657.457	122.88
657.661	122.88
657.865	118.88
658.068	123.88
658.272	116.88
658.476	113.88
658.68	97.88
658.883	113.88
659.087	115.88
659.291	106.88
659.494	109.88
659.698	103.88
659.901	99.88
660.105	99.88
660.309	98.88
660.512	87.88
660.716	98.88
660.919	97.88
661.123	99.88
661.326	91.88
661.53	102.88
661.733	98.88
661.936	96.88
662.14	87.88
662.343	98.88
662.546	84.88
662.75	100.88
662.953	78.88
663.156	80.88
663.36	91.88
663.563	85.88
663.766	87.88
663.969	73.88
664.173	102.88
664.376	90.88
664.579	80.88
664.782	81.88
664.985	93.88
665.188	107.88
665.391	92.88
665.594	88.88
665.797	73.88
666	85.88
666.203	83.88
666.406	94.88
666.609	65.88
666.812	89.88
667.015	94.88
667.218	82.88
667.421	78.88
667.624	90.88
667.827	81.88
668.03	79.88
668.232	81.88
668.435	84.88
668.638	70.88
668.841	103.88
669.043	84.88
669.246	86.88
669.449	81.88
669.651	74.88
669.854	82.88
670.057	88.88
670.259	82.88
670.462	88.88
670.665	88.88
670.867	90.88
671.07	92.88
671.272	88.88
671.475	80.88
671.677	84.88
671.88	94.88
672.082	91.88
672.284	81.88
672.487	90.88
672.689	75.88
672.892	82.88
