Data from 1971.PennyLincolnUp.Lamp.En5.5.200Scan.071719.P1._HRD10591_15-19-12-841.txt Node
Date: Thu Jul 18 15:19:12 EDT 2019
User: cochatt
Spectrometer: HR+D1059
Trigger mode: 1
Integration Time (sec): 1.000000E-1
Scans to average: 1
Electric dark correction enabled: true
Nonlinearity correction enabled: false
Boxcar width: 0
XAxis mode: Wavelengths
Number of Pixels in Spectrum: 2048
>>>>>Begin Spectral Data<<<<<
223.165	-25.31
223.4	-25.31
223.635	-25.31
223.869	-23.31
224.104	-14.31
224.338	-17.31
224.573	-19.31
224.808	-20.31
225.042	-6.31
225.277	-4.31
225.511	10.69
225.746	13.69
225.98	4.69
226.215	8.69
226.449	6.69
226.683	31.69
226.918	19.69
227.152	34.69
227.387	46.69
227.621	40.69
227.856	41.69
228.09	40.69
228.324	54.69
228.559	59.69
228.793	68.69
229.027	102.69
229.262	92.69
229.496	106.69
229.73	130.69
229.964	136.69
230.199	120.69
230.433	109.69
230.667	104.69
230.901	108.69
231.136	103.69
231.37	121.69
231.604	110.69
231.838	105.69
232.072	110.69
232.306	113.69
232.541	124.69
232.775	99.69
233.009	110.69
233.243	114.69
233.477	107.69
233.711	96.69
233.945	121.69
234.179	116.69
234.413	103.69
234.647	114.69
234.881	110.69
235.115	114.69
235.349	122.69
235.583	121.69
235.817	117.69
236.051	115.69
236.285	125.69
236.519	117.69
236.753	139.69
236.987	152.69
237.221	162.69
237.455	208.69
237.689	168.69
237.922	138.69
238.156	126.69
238.39	131.69
238.624	120.69
238.858	127.69
239.091	127.69
239.325	115.69
239.559	124.69
239.793	122.69
240.027	136.69
240.26	135.69
240.494	156.69
240.728	153.69
240.961	151.69
241.195	149.69
241.429	137.69
241.662	138.69
241.896	133.69
242.13	137.69
242.363	136.69
242.597	129.69
242.83	143.69
243.064	130.69
243.298	124.69
243.531	138.69
243.765	132.69
243.998	143.69
244.232	142.69
244.465	144.69
244.699	129.69
244.932	152.69
245.166	148.69
245.399	140.69
245.633	147.69
245.866	139.69
246.099	156.69
246.333	149.69
246.566	149.69
246.8	160.69
247.033	174.69
247.266	157.69
247.5	167.69
247.733	163.69
247.966	179.69
248.2	174.69
248.433	154.69
248.666	162.69
248.899	166.69
249.133	200.69
249.366	214.69
249.599	188.69
249.832	183.69
250.066	171.69
250.299	186.69
250.532	198.69
250.765	190.69
250.998	201.69
251.231	223.69
251.465	208.69
251.698	217.69
251.931	208.69
252.164	206.69
252.397	179.69
252.63	216.69
252.863	231.69
253.096	214.69
253.329	228.69
253.562	225.69
253.795	226.69
254.028	218.69
254.261	225.69
254.494	234.69
254.727	264.69
254.96	283.69
255.193	284.69
255.426	276.69
255.659	248.69
255.892	248.69
256.124	222.69
256.357	238.69
256.59	226.69
256.823	227.69
257.056	213.69
257.289	234.69
257.521	219.69
257.754	214.69
257.987	212.69
258.22	218.69
258.452	208.69
258.685	211.69
258.918	216.69
259.151	196.69
259.383	223.69
259.616	223.69
259.849	222.69
260.081	236.69
260.314	268.69
260.547	259.69
260.779	242.69
261.012	244.69
261.244	210.69
261.477	217.69
261.71	224.69
261.942	240.69
262.175	243.69
262.407	222.69
262.64	237.69
262.872	219.69
263.105	221.69
263.337	234.69
263.57	215.69
263.802	231.69
264.035	209.69
264.267	220.69
264.499	213.69
264.732	221.69
264.964	208.69
265.197	231.69
265.429	214.69
265.661	223.69
265.894	224.69
266.126	223.69
266.358	217.69
266.591	236.69
266.823	212.69
267.055	247.69
267.287	229.69
267.52	241.69
267.752	264.69
267.984	251.69
268.216	237.69
268.448	228.69
268.681	248.69
268.913	250.69
269.145	268.69
269.377	280.69
269.609	266.69
269.841	278.69
270.073	282.69
270.306	295.69
270.538	313.69
270.77	326.69
271.002	312.69
271.234	313.69
271.466	323.69
271.698	323.69
271.93	312.69
272.162	311.69
272.394	335.69
272.626	302.69
272.858	280.69
273.09	280.69
273.322	282.69
273.553	284.69
273.785	277.69
274.017	258.69
274.249	263.69
274.481	266.69
274.713	267.69
274.945	272.69
275.176	275.69
275.408	259.69
275.64	257.69
275.872	263.69
276.104	265.69
276.335	262.69
276.567	277.69
276.799	307.69
277.031	316.69
277.262	310.69
277.494	319.69
277.726	298.69
277.957	306.69
278.189	294.69
278.421	286.69
278.652	291.69
278.884	276.69
279.115	272.69
279.347	257.69
279.579	278.69
279.81	280.69
280.042	262.69
280.273	275.69
280.505	274.69
280.736	285.69
280.968	263.69
281.199	264.69
281.431	295.69
281.662	282.69
281.894	286.69
282.125	290.69
282.356	298.69
282.588	320.69
282.819	310.69
283.051	284.69
283.282	275.69
283.513	288.69
283.745	278.69
283.976	284.69
284.207	297.69
284.439	295.69
284.67	287.69
284.901	299.69
285.132	285.69
285.364	272.69
285.595	303.69
285.826	270.69
286.057	256.69
286.288	299.69
286.52	285.69
286.751	298.69
286.982	290.69
287.213	286.69
287.444	295.69
287.675	300.69
287.906	271.69
288.138	299.69
288.369	315.69
288.6	305.69
288.831	307.69
289.062	308.69
289.293	283.69
289.524	297.69
289.755	309.69
289.986	290.69
290.217	282.69
290.448	283.69
290.679	305.69
290.91	294.69
291.141	297.69
291.371	296.69
291.602	299.69
291.833	295.69
292.064	304.69
292.295	311.69
292.526	279.69
292.757	308.69
292.987	297.69
293.218	281.69
293.449	296.69
293.68	280.69
293.91	290.69
294.141	285.69
294.372	295.69
294.603	293.69
294.833	273.69
295.064	290.69
295.295	271.69
295.525	297.69
295.756	295.69
295.987	297.69
296.217	310.69
296.448	316.69
296.679	310.69
296.909	320.69
297.14	314.69
297.37	310.69
297.601	303.69
297.831	312.69
298.062	292.69
298.292	301.69
298.523	308.69
298.753	327.69
298.984	316.69
299.214	303.69
299.445	317.69
299.675	319.69
299.905	304.69
300.136	320.69
300.366	318.69
300.597	312.69
300.827	312.69
301.057	328.69
301.288	341.69
301.518	317.69
301.748	332.69
301.979	333.69
302.209	331.69
302.439	327.69
302.669	316.69
302.9	337.69
303.13	331.69
303.36	319.69
303.59	313.69
303.82	344.69
304.051	335.69
304.281	346.69
304.511	339.69
304.741	335.69
304.971	329.69
305.201	348.69
305.431	319.69
305.661	333.69
305.891	335.69
306.121	346.69
306.352	347.69
306.582	337.69
306.812	333.69
307.042	343.69
307.272	335.69
307.502	330.69
307.731	347.69
307.961	335.69
308.191	358.69
308.421	343.69
308.651	349.69
308.881	342.69
309.111	344.69
309.341	343.69
309.571	346.69
309.8	354.69
310.03	372.69
310.26	386.69
310.49	375.69
310.72	387.69
310.949	398.69
311.179	380.69
311.409	365.69
311.639	360.69
311.868	397.69
312.098	379.69
312.328	388.69
312.557	389.69
312.787	420.69
313.017	386.69
313.246	391.69
313.476	365.69
313.706	377.69
313.935	382.69
314.165	381.69
314.394	384.69
314.624	400.69
314.853	379.69
315.083	376.69
315.312	380.69
315.542	359.69
315.771	380.69
316.001	370.69
316.23	387.69
316.46	381.69
316.689	386.69
316.919	390.69
317.148	381.69
317.377	407.69
317.607	385.69
317.836	388.69
318.065	405.69
318.295	380.69
318.524	370.69
318.753	390.69
318.983	381.69
319.212	367.69
319.441	387.69
319.67	391.69
319.9	386.69
320.129	394.69
320.358	393.69
320.587	395.69
320.816	405.69
321.046	400.69
321.275	420.69
321.504	395.69
321.733	409.69
321.962	409.69
322.191	416.69
322.42	427.69
322.649	436.69
322.878	427.69
323.108	458.69
323.337	451.69
323.566	467.69
323.795	517.69
324.024	549.69
324.253	693.69
324.482	952.69
324.71	1420.69
324.939	1946.69
325.168	1620.69
325.397	845.69
325.626	604.69
325.855	535.69
326.084	491.69
326.313	477.69
326.542	486.69
326.77	536.69
326.999	630.69
327.228	836.69
327.457	1222.69
327.686	1428.69
327.914	950.69
328.143	639.69
328.372	573.69
328.6	556.69
328.829	530.69
329.058	544.69
329.287	544.69
329.515	500.69
329.744	485.69
329.972	495.69
330.201	502.69
330.43	525.69
330.658	559.69
330.887	564.69
331.115	553.69
331.344	485.69
331.572	472.69
331.801	469.69
332.03	490.69
332.258	466.69
332.486	449.69
332.715	438.69
332.943	459.69
333.172	445.69
333.4	445.69
333.629	456.69
333.857	463.69
334.085	485.69
334.314	494.69
334.542	498.69
334.771	492.69
334.999	479.69
335.227	463.69
335.455	424.69
335.684	455.69
335.912	443.69
336.14	439.69
336.369	404.69
336.597	443.69
336.825	423.69
337.053	420.69
337.281	415.69
337.51	396.69
337.738	426.69
337.966	436.69
338.194	436.69
338.422	438.69
338.65	415.69
338.878	415.69
339.106	414.69
339.334	394.69
339.562	424.69
339.79	416.69
340.018	427.69
340.246	412.69
340.474	420.69
340.702	427.69
340.93	411.69
341.158	418.69
341.386	419.69
341.614	394.69
341.842	372.69
342.07	394.69
342.298	407.69
342.526	390.69
342.754	384.69
342.981	393.69
343.209	404.69
343.437	406.69
343.665	402.69
343.893	410.69
344.12	395.69
344.348	420.69
344.576	417.69
344.804	438.69
345.031	429.69
345.259	404.69
345.487	418.69
345.714	410.69
345.942	403.69
346.17	395.69
346.397	412.69
346.625	407.69
346.853	371.69
347.08	406.69
347.308	389.69
347.535	405.69
347.763	388.69
347.99	416.69
348.218	397.69
348.445	415.69
348.673	403.69
348.9	394.69
349.128	384.69
349.355	382.69
349.583	393.69
349.81	367.69
350.037	377.69
350.265	375.69
350.492	373.69
350.72	391.69
350.947	378.69
351.174	404.69
351.402	404.69
351.629	381.69
351.856	398.69
352.083	432.69
352.311	411.69
352.538	406.69
352.765	418.69
352.992	398.69
353.22	400.69
353.447	376.69
353.674	374.69
353.901	371.69
354.128	370.69
354.355	375.69
354.583	381.69
354.81	373.69
355.037	361.69
355.264	371.69
355.491	356.69
355.718	371.69
355.945	360.69
356.172	342.69
356.399	386.69
356.626	366.69
356.853	372.69
357.08	372.69
357.307	358.69
357.534	366.69
357.761	361.69
357.988	378.69
358.215	375.69
358.441	349.69
358.668	358.69
358.895	362.69
359.122	370.69
359.349	364.69
359.576	378.69
359.802	418.69
360.029	422.69
360.256	421.69
360.483	398.69
360.709	381.69
360.936	394.69
361.163	387.69
361.39	375.69
361.616	397.69
361.843	373.69
362.07	378.69
362.296	390.69
362.523	370.69
362.749	385.69
362.976	354.69
363.203	366.69
363.429	366.69
363.656	361.69
363.882	370.69
364.109	376.69
364.335	373.69
364.562	364.69
364.788	350.69
365.015	372.69
365.241	365.69
365.468	359.69
365.694	370.69
365.92	378.69
366.147	367.69
366.373	370.69
366.599	372.69
366.826	383.69
367.052	356.69
367.278	363.69
367.505	359.69
367.731	367.69
367.957	346.69
368.184	359.69
368.41	376.69
368.636	383.69
368.862	364.69
369.089	372.69
369.315	355.69
369.541	359.69
369.767	371.69
369.993	385.69
370.219	360.69
370.445	365.69
370.672	363.69
370.898	357.69
371.124	366.69
371.35	355.69
371.576	372.69
371.802	355.69
372.028	363.69
372.254	386.69
372.48	340.69
372.706	341.69
372.932	364.69
373.158	377.69
373.384	356.69
373.61	376.69
373.835	364.69
374.061	359.69
374.287	365.69
374.513	342.69
374.739	351.69
374.965	377.69
375.191	362.69
375.416	364.69
375.642	378.69
375.868	379.69
376.094	378.69
376.319	355.69
376.545	367.69
376.771	365.69
376.997	339.69
377.222	348.69
377.448	360.69
377.674	363.69
377.899	338.69
378.125	344.69
378.35	345.69
378.576	346.69
378.802	356.69
379.027	339.69
379.253	348.69
379.478	351.69
379.704	342.69
379.929	353.69
380.155	351.69
380.38	336.69
380.606	365.69
380.831	348.69
381.057	351.69
381.282	331.69
381.507	349.69
381.733	358.69
381.958	356.69
382.184	356.69
382.409	360.69
382.634	356.69
382.86	361.69
383.085	354.69
383.31	347.69
383.535	362.69
383.761	370.69
383.986	352.69
384.211	361.69
384.436	371.69
384.662	362.69
384.887	363.69
385.112	371.69
385.337	383.69
385.562	356.69
385.787	370.69
386.013	384.69
386.238	368.69
386.463	372.69
386.688	386.69
386.913	375.69
387.138	365.69
387.363	360.69
387.588	366.69
387.813	374.69
388.038	363.69
388.263	376.69
388.488	367.69
388.713	370.69
388.938	379.69
389.163	374.69
389.387	375.69
389.612	360.69
389.837	378.69
390.062	352.69
390.287	360.69
390.512	363.69
390.736	359.69
390.961	373.69
391.186	386.69
391.411	365.69
391.636	374.69
391.86	365.69
392.085	371.69
392.31	374.69
392.534	367.69
392.759	369.69
392.984	372.69
393.208	391.69
393.433	384.69
393.658	368.69
393.882	361.69
394.107	375.69
394.331	354.69
394.556	378.69
394.78	367.69
395.005	375.69
395.229	382.69
395.454	375.69
395.678	384.69
395.903	391.69
396.127	413.69
396.352	410.69
396.576	384.69
396.801	357.69
397.025	382.69
397.249	376.69
397.474	399.69
397.698	406.69
397.922	398.69
398.147	419.69
398.371	414.69
398.595	421.69
398.82	403.69
399.044	426.69
399.268	415.69
399.492	429.69
399.717	471.69
399.941	481.69
400.165	484.69
400.389	500.69
400.613	475.69
400.837	442.69
401.062	430.69
401.286	414.69
401.51	414.69
401.734	409.69
401.958	424.69
402.182	396.69
402.406	420.69
402.63	406.69
402.854	403.69
403.078	416.69
403.302	426.69
403.526	401.69
403.75	427.69
403.974	397.69
404.198	421.69
404.422	443.69
404.645	445.69
404.869	443.69
405.093	446.69
405.317	476.69
405.541	521.69
405.765	464.69
405.988	455.69
406.212	446.69
406.436	459.69
406.66	477.69
406.883	442.69
407.107	488.69
407.331	509.69
407.555	557.69
407.778	563.69
408.002	497.69
408.226	455.69
408.449	441.69
408.673	466.69
408.896	514.69
409.12	534.69
409.344	483.69
409.567	435.69
409.791	445.69
410.014	437.69
410.238	412.69
410.461	426.69
410.685	425.69
410.908	453.69
411.132	482.69
411.355	466.69
411.578	478.69
411.802	444.69
412.025	423.69
412.249	443.69
412.472	453.69
412.695	483.69
412.919	469.69
413.142	438.69
413.365	431.69
413.589	412.69
413.812	397.69
414.035	391.69
414.258	422.69
414.482	376.69
414.705	414.69
414.928	400.69
415.151	385.69
415.374	406.69
415.597	390.69
415.821	396.69
416.044	380.69
416.267	407.69
416.49	386.69
416.713	383.69
416.936	387.69
417.159	377.69
417.382	395.69
417.605	415.69
417.828	405.69
418.051	422.69
418.274	418.69
418.497	389.69
418.72	405.69
418.943	382.69
419.166	406.69
419.389	421.69
419.611	421.69
419.834	422.69
420.057	414.69
420.28	414.69
420.503	422.69
420.726	424.69
420.948	432.69
421.171	454.69
421.394	487.69
421.617	446.69
421.839	408.69
422.062	436.69
422.285	432.69
422.507	475.69
422.73	566.69
422.953	489.69
423.175	438.69
423.398	437.69
423.621	447.69
423.843	453.69
424.066	453.69
424.288	431.69
424.511	459.69
424.733	486.69
424.956	571.69
425.178	559.69
425.401	547.69
425.623	558.69
425.846	489.69
426.068	474.69
426.291	454.69
426.513	442.69
426.735	469.69
426.958	492.69
427.18	566.69
427.402	681.69
427.625	708.69
427.847	631.69
428.069	552.69
428.292	475.69
428.514	435.69
428.736	415.69
428.958	453.69
429.181	422.69
429.403	412.69
429.625	408.69
429.847	438.69
430.069	500.69
430.292	482.69
430.514	439.69
430.736	411.69
430.958	396.69
431.18	409.69
431.402	384.69
431.624	413.69
431.846	378.69
432.068	355.69
432.29	376.69
432.512	400.69
432.734	395.69
432.956	404.69
433.178	428.69
433.4	408.69
433.622	426.69
433.844	387.69
434.066	404.69
434.287	382.69
434.509	386.69
434.731	390.69
434.953	411.69
435.175	408.69
435.397	432.69
435.618	436.69
435.84	477.69
436.062	555.69
436.284	620.69
436.505	531.69
436.727	454.69
436.949	432.69
437.17	434.69
437.392	413.69
437.614	439.69
437.835	461.69
438.057	522.69
438.278	619.69
438.5	603.69
438.721	652.69
438.943	631.69
439.165	507.69
439.386	468.69
439.608	459.69
439.829	460.69
440.05	490.69
440.272	527.69
440.493	462.69
440.715	440.69
440.936	427.69
441.158	438.69
441.379	415.69
441.6	426.69
441.822	462.69
442.043	468.69
442.264	532.69
442.486	573.69
442.707	510.69
442.928	451.69
443.149	465.69
443.371	452.69
443.592	509.69
443.813	592.69
444.034	616.69
444.255	532.69
444.476	473.69
444.698	442.69
444.919	459.69
445.14	547.69
445.361	513.69
445.582	475.69
445.803	560.69
446.024	602.69
446.245	611.69
446.466	553.69
446.687	486.69
446.908	451.69
447.129	439.69
447.35	397.69
447.571	410.69
447.792	430.69
448.013	410.69
448.234	440.69
448.455	483.69
448.675	561.69
448.896	609.69
449.117	535.69
449.338	538.69
449.559	618.69
449.779	672.69
450	550.69
450.221	461.69
450.442	429.69
450.662	410.69
450.883	402.69
451.104	403.69
451.324	401.69
451.545	405.69
451.766	376.69
451.986	377.69
452.207	357.69
452.428	378.69
452.648	359.69
452.869	406.69
453.089	361.69
453.31	388.69
453.53	367.69
453.751	353.69
453.971	370.69
454.192	370.69
454.412	367.69
454.633	355.69
454.853	362.69
455.073	355.69
455.294	402.69
455.514	443.69
455.734	438.69
455.955	380.69
456.175	365.69
456.395	332.69
456.616	347.69
456.836	358.69
457.056	350.69
457.276	334.69
457.497	356.69
457.717	350.69
457.937	339.69
458.157	361.69
458.377	362.69
458.598	367.69
458.818	414.69
459.038	458.69
459.258	480.69
459.478	428.69
459.698	404.69
459.918	370.69
460.138	376.69
460.358	377.69
460.578	375.69
460.798	357.69
461.018	396.69
461.238	386.69
461.458	377.69
461.678	391.69
461.898	414.69
462.118	384.69
462.338	407.69
462.558	387.69
462.777	414.69
462.997	417.69
463.217	417.69
463.437	412.69
463.657	406.69
463.876	404.69
464.096	407.69
464.316	410.69
464.536	424.69
464.755	392.69
464.975	399.69
465.195	443.69
465.414	495.69
465.634	426.69
465.854	401.69
466.073	372.69
466.293	390.69
466.512	365.69
466.732	392.69
466.951	376.69
467.171	360.69
467.391	382.69
467.61	391.69
467.829	405.69
468.049	387.69
468.268	386.69
468.488	381.69
468.707	367.69
468.927	366.69
469.146	371.69
469.365	378.69
469.585	373.69
469.804	378.69
470.023	381.69
470.243	375.69
470.462	372.69
470.681	401.69
470.901	398.69
471.12	383.69
471.339	392.69
471.558	376.69
471.777	373.69
471.997	383.69
472.216	380.69
472.435	403.69
472.654	382.69
472.873	386.69
473.092	383.69
473.311	372.69
473.53	364.69
473.749	403.69
473.968	420.69
474.187	507.69
474.406	503.69
474.625	425.69
474.844	414.69
475.063	373.69
475.282	378.69
475.501	383.69
475.72	375.69
475.939	375.69
476.158	397.69
476.377	390.69
476.596	400.69
476.814	399.69
477.033	407.69
477.252	397.69
477.471	414.69
477.69	413.69
477.908	394.69
478.127	400.69
478.346	399.69
478.564	414.69
478.783	429.69
479.002	423.69
479.22	419.69
479.439	415.69
479.658	444.69
479.876	449.69
480.095	471.69
480.313	471.69
480.532	467.69
480.751	451.69
480.969	466.69
481.188	507.69
481.406	477.69
481.624	474.69
481.843	476.69
482.061	444.69
482.28	463.69
482.498	438.69
482.717	454.69
482.935	449.69
483.153	448.69
483.372	461.69
483.59	469.69
483.808	418.69
484.027	425.69
484.245	438.69
484.463	428.69
484.681	445.69
484.9	457.69
485.118	447.69
485.336	442.69
485.554	449.69
485.772	430.69
485.99	457.69
486.209	442.69
486.427	440.69
486.645	469.69
486.863	472.69
487.081	486.69
487.299	461.69
487.517	481.69
487.735	472.69
487.953	469.69
488.171	475.69
488.389	474.69
488.607	477.69
488.825	486.69
489.043	481.69
489.261	485.69
489.479	468.69
489.696	487.69
489.914	492.69
490.132	476.69
490.35	480.69
490.568	472.69
490.786	495.69
491.003	505.69
491.221	518.69
491.439	548.69
491.657	503.69
491.874	547.69
492.092	561.69
492.31	550.69
492.527	560.69
492.745	568.69
492.963	563.69
493.18	559.69
493.398	551.69
493.615	552.69
493.833	557.69
494.05	555.69
494.268	535.69
494.485	555.69
494.703	548.69
494.92	550.69
495.138	592.69
495.355	562.69
495.573	559.69
495.79	554.69
496.008	549.69
496.225	571.69
496.442	559.69
496.66	571.69
496.877	562.69
497.094	576.69
497.312	587.69
497.529	590.69
497.746	563.69
497.963	589.69
498.181	593.69
498.398	581.69
498.615	594.69
498.832	626.69
499.049	620.69
499.267	622.69
499.484	650.69
499.701	653.69
499.918	698.69
500.135	698.69
500.352	701.69
500.569	746.69
500.786	743.69
501.003	713.69
501.22	728.69
501.437	686.69
501.654	701.69
501.871	682.69
502.088	661.69
502.305	656.69
502.522	618.69
502.739	590.69
502.956	606.69
503.172	604.69
503.389	582.69
503.606	575.69
503.823	556.69
504.04	557.69
504.256	572.69
504.473	538.69
504.69	549.69
504.907	569.69
505.123	542.69
505.34	538.69
505.557	520.69
505.773	532.69
505.99	539.69
506.207	541.69
506.423	539.69
506.64	540.69
506.856	511.69
507.073	517.69
507.289	524.69
507.506	517.69
507.722	531.69
507.939	516.69
508.155	528.69
508.372	494.69
508.588	498.69
508.805	479.69
509.021	502.69
509.238	526.69
509.454	515.69
509.67	533.69
509.887	512.69
510.103	494.69
510.319	531.69
510.536	607.69
510.752	919.69
510.968	703.69
511.184	504.69
511.401	473.69
511.617	477.69
511.833	509.69
512.049	487.69
512.265	479.69
512.481	470.69
512.698	472.69
512.914	467.69
513.13	448.69
513.346	456.69
513.562	463.69
513.778	466.69
513.994	466.69
514.21	492.69
514.426	478.69
514.642	524.69
514.858	538.69
515.074	546.69
515.29	674.69
515.506	938.69
515.721	764.69
515.937	551.69
516.153	522.69
516.369	496.69
516.585	495.69
516.801	486.69
517.016	488.69
517.232	493.69
517.448	492.69
517.664	471.69
517.879	482.69
518.095	486.69
518.311	500.69
518.527	449.69
518.742	474.69
518.958	487.69
519.173	452.69
519.389	467.69
519.605	464.69
519.82	457.69
520.036	493.69
520.251	485.69
520.467	511.69
520.682	526.69
520.898	532.69
521.113	529.69
521.329	560.69
521.544	612.69
521.76	763.69
521.975	1204.69
522.19	1130.69
522.406	657.69
522.621	516.69
522.836	483.69
523.052	460.69
523.267	447.69
523.482	449.69
523.698	440.69
523.913	444.69
524.128	439.69
524.343	434.69
524.559	400.69
524.774	415.69
524.989	434.69
525.204	422.69
525.419	426.69
525.634	416.69
525.849	385.69
526.064	406.69
526.28	420.69
526.495	394.69
526.71	403.69
526.925	393.69
527.14	391.69
527.355	383.69
527.57	391.69
527.785	386.69
527.999	394.69
528.214	401.69
528.429	397.69
528.644	393.69
528.859	396.69
529.074	384.69
529.289	392.69
529.503	452.69
529.718	458.69
529.933	429.69
530.148	400.69
530.363	405.69
530.577	390.69
530.792	387.69
531.007	359.69
531.221	364.69
531.436	372.69
531.651	363.69
531.865	374.69
532.08	374.69
532.295	379.69
532.509	380.69
532.724	375.69
532.938	367.69
533.153	360.69
533.367	368.69
533.582	361.69
533.796	367.69
534.011	378.69
534.225	382.69
534.44	354.69
534.654	361.69
534.868	359.69
535.083	365.69
535.297	377.69
535.511	374.69
535.726	375.69
535.94	368.69
536.154	357.69
536.369	362.69
536.583	343.69
536.797	343.69
537.011	347.69
537.225	347.69
537.44	351.69
537.654	342.69
537.868	338.69
538.082	354.69
538.296	357.69
538.51	372.69
538.724	360.69
538.938	359.69
539.153	372.69
539.367	364.69
539.581	367.69
539.795	363.69
540.009	352.69
540.222	360.69
540.436	351.69
540.65	366.69
540.864	366.69
541.078	381.69
541.292	380.69
541.506	365.69
541.72	353.69
541.934	368.69
542.147	363.69
542.361	359.69
542.575	374.69
542.789	374.69
543.002	351.69
543.216	356.69
543.43	363.69
543.644	355.69
543.857	358.69
544.071	370.69
544.285	381.69
544.498	386.69
544.712	368.69
544.925	378.69
545.139	356.69
545.352	365.69
545.566	375.69
545.779	340.69
545.993	355.69
546.206	358.69
546.42	362.69
546.633	379.69
546.847	352.69
547.06	356.69
547.274	371.69
547.487	347.69
547.7	354.69
547.914	338.69
548.127	348.69
548.34	355.69
548.554	347.69
548.767	367.69
548.98	351.69
549.193	371.69
549.407	346.69
549.62	350.69
549.833	343.69
550.046	353.69
550.259	361.69
550.473	351.69
550.686	354.69
550.899	329.69
551.112	354.69
551.325	334.69
551.538	341.69
551.751	332.69
551.964	341.69
552.177	336.69
552.39	350.69
552.603	359.69
552.816	334.69
553.029	348.69
553.242	350.69
553.455	331.69
553.667	345.69
553.88	363.69
554.093	364.69
554.306	358.69
554.519	350.69
554.732	352.69
554.944	328.69
555.157	346.69
555.37	342.69
555.583	336.69
555.795	333.69
556.008	336.69
556.221	322.69
556.433	318.69
556.646	314.69
556.859	308.69
557.071	332.69
557.284	317.69
557.496	297.69
557.709	308.69
557.921	322.69
558.134	310.69
558.346	320.69
558.559	315.69
558.771	303.69
558.984	302.69
559.196	316.69
559.409	319.69
559.621	325.69
559.833	310.69
560.046	307.69
560.258	286.69
560.47	297.69
560.683	330.69
560.895	319.69
561.107	304.69
561.32	301.69
561.532	311.69
561.744	303.69
561.956	311.69
562.168	306.69
562.381	318.69
562.593	317.69
562.805	319.69
563.017	306.69
563.229	314.69
563.441	310.69
563.653	298.69
563.865	308.69
564.077	317.69
564.289	300.69
564.501	312.69
564.713	309.69
564.925	308.69
565.137	320.69
565.349	330.69
565.561	310.69
565.773	324.69
565.985	328.69
566.197	340.69
566.408	355.69
566.62	332.69
566.832	367.69
567.044	372.69
567.255	365.69
567.467	350.69
567.679	373.69
567.891	376.69
568.102	352.69
568.314	354.69
568.526	339.69
568.737	356.69
568.949	329.69
569.161	319.69
569.372	318.69
569.584	300.69
569.795	292.69
570.007	315.69
570.218	332.69
570.43	326.69
570.641	291.69
570.853	280.69
571.064	298.69
571.276	280.69
571.487	293.69
571.698	302.69
571.91	285.69
572.121	275.69
572.333	272.69
572.544	277.69
572.755	264.69
572.966	275.69
573.178	260.69
573.389	266.69
573.6	256.69
573.811	264.69
574.023	249.69
574.234	261.69
574.445	248.69
574.656	250.69
574.867	264.69
575.078	261.69
575.289	262.69
575.501	249.69
575.712	240.69
575.923	262.69
576.134	268.69
576.345	271.69
576.556	253.69
576.767	275.69
576.978	270.69
577.188	244.69
577.399	257.69
577.61	252.69
577.821	258.69
578.032	258.69
578.243	272.69
578.454	423.69
578.665	312.69
578.875	270.69
579.086	266.69
579.297	235.69
579.508	261.69
579.718	258.69
579.929	245.69
580.14	233.69
580.35	244.69
580.561	236.69
580.772	221.69
580.982	259.69
581.193	238.69
581.403	242.69
581.614	267.69
581.825	229.69
582.035	226.69
582.246	233.69
582.456	221.69
582.667	248.69
582.877	248.69
583.087	235.69
583.298	262.69
583.508	237.69
583.719	224.69
583.929	230.69
584.139	235.69
584.35	234.69
584.56	225.69
584.77	232.69
584.981	239.69
585.191	232.69
585.401	243.69
585.611	232.69
585.821	238.69
586.032	238.69
586.242	229.69
586.452	231.69
586.662	226.69
586.872	234.69
587.082	246.69
587.292	236.69
587.502	212.69
587.713	214.69
587.923	230.69
588.133	228.69
588.343	231.69
588.553	223.69
588.762	225.69
588.972	234.69
589.182	239.69
589.392	226.69
589.602	232.69
589.812	227.69
590.022	234.69
590.232	229.69
590.441	239.69
590.651	231.69
590.861	227.69
591.071	235.69
591.281	245.69
591.49	225.69
591.7	235.69
591.91	221.69
592.119	222.69
592.329	232.69
592.539	244.69
592.748	236.69
592.958	237.69
593.167	221.69
593.377	246.69
593.587	234.69
593.796	239.69
594.006	223.69
594.215	236.69
594.424	246.69
594.634	223.69
594.843	239.69
595.053	231.69
595.262	243.69
595.472	227.69
595.681	228.69
595.89	229.69
596.1	228.69
596.309	226.69
596.518	223.69
596.727	219.69
596.937	222.69
597.146	225.69
597.355	232.69
597.564	219.69
597.774	233.69
597.983	210.69
598.192	216.69
598.401	204.69
598.61	218.69
598.819	206.69
599.028	207.69
599.237	216.69
599.446	202.69
599.655	205.69
599.864	208.69
600.073	200.69
600.282	211.69
600.491	202.69
600.7	214.69
600.909	213.69
601.118	207.69
601.327	218.69
601.536	223.69
601.745	213.69
601.953	192.69
602.162	217.69
602.371	180.69
602.58	205.69
602.789	206.69
602.997	186.69
603.206	206.69
603.415	213.69
603.623	207.69
603.832	212.69
604.041	218.69
604.249	200.69
604.458	194.69
604.666	212.69
604.875	195.69
605.084	215.69
605.292	209.69
605.501	199.69
605.709	221.69
605.918	215.69
606.126	218.69
606.334	195.69
606.543	207.69
606.751	192.69
606.96	206.69
607.168	205.69
607.376	195.69
607.585	205.69
607.793	203.69
608.001	192.69
608.21	201.69
608.418	204.69
608.626	208.69
608.834	210.69
609.043	197.69
609.251	219.69
609.459	198.69
609.667	216.69
609.875	205.69
610.083	204.69
610.291	219.69
610.499	216.69
610.707	205.69
610.916	197.69
611.124	221.69
611.332	206.69
611.54	224.69
611.748	196.69
611.955	184.69
612.163	199.69
612.371	195.69
612.579	198.69
612.787	210.69
612.995	198.69
613.203	184.69
613.411	192.69
613.618	197.69
613.826	201.69
614.034	193.69
614.242	189.69
614.449	186.69
614.657	174.69
614.865	194.69
615.072	199.69
615.28	190.69
615.488	196.69
615.695	197.69
615.903	205.69
616.111	202.69
616.318	194.69
616.526	197.69
616.733	184.69
616.941	185.69
617.148	190.69
617.356	195.69
617.563	198.69
617.771	186.69
617.978	182.69
618.185	186.69
618.393	196.69
618.6	187.69
618.807	190.69
619.015	186.69
619.222	185.69
619.429	193.69
619.637	180.69
619.844	184.69
620.051	181.69
620.258	191.69
620.466	195.69
620.673	199.69
620.88	175.69
621.087	193.69
621.294	170.69
621.501	174.69
621.708	188.69
621.915	176.69
622.122	183.69
622.329	189.69
622.536	198.69
622.743	204.69
622.95	192.69
623.157	185.69
623.364	179.69
623.571	197.69
623.778	192.69
623.985	172.69
624.192	172.69
624.399	181.69
624.606	177.69
624.812	186.69
625.019	190.69
625.226	180.69
625.433	182.69
625.639	186.69
625.846	155.69
626.053	189.69
626.259	173.69
626.466	177.69
626.673	174.69
626.879	170.69
627.086	182.69
627.293	167.69
627.499	181.69
627.706	183.69
627.912	173.69
628.119	190.69
628.325	185.69
628.532	182.69
628.738	168.69
628.945	168.69
629.151	183.69
629.357	181.69
629.564	163.69
629.77	167.69
629.976	169.69
630.183	162.69
630.389	163.69
630.595	169.69
630.802	181.69
631.008	152.69
631.214	159.69
631.42	161.69
631.627	167.69
631.833	167.69
632.039	172.69
632.245	144.69
632.451	163.69
632.657	172.69
632.863	166.69
633.069	158.69
633.275	170.69
633.481	168.69
633.688	156.69
633.893	176.69
634.099	149.69
634.305	153.69
634.511	167.69
634.717	147.69
634.923	175.69
635.129	165.69
635.335	142.69
635.541	159.69
635.747	154.69
635.952	166.69
636.158	180.69
636.364	181.69
636.57	159.69
636.775	147.69
636.981	164.69
637.187	155.69
637.392	157.69
637.598	160.69
637.804	158.69
638.009	163.69
638.215	164.69
638.421	159.69
638.626	154.69
638.832	156.69
639.037	150.69
639.243	160.69
639.448	158.69
639.654	152.69
639.859	132.69
640.065	142.69
640.27	148.69
640.475	157.69
640.681	146.69
640.886	150.69
641.091	143.69
641.297	156.69
641.502	148.69
641.707	146.69
641.913	153.69
642.118	163.69
642.323	132.69
642.528	163.69
642.733	154.69
642.939	152.69
643.144	162.69
643.349	145.69
643.554	151.69
643.759	140.69
643.964	144.69
644.169	147.69
644.374	154.69
644.579	132.69
644.784	153.69
644.989	158.69
645.194	147.69
645.399	132.69
645.604	149.69
645.809	138.69
646.014	140.69
646.219	143.69
646.423	145.69
646.628	140.69
646.833	143.69
647.038	156.69
647.243	154.69
647.447	158.69
647.652	151.69
647.857	163.69
648.062	149.69
648.266	138.69
648.471	150.69
648.676	152.69
648.88	148.69
649.085	165.69
649.289	159.69
649.494	159.69
649.698	166.69
649.903	165.69
650.107	158.69
650.312	154.69
650.516	142.69
650.721	165.69
650.925	136.69
651.13	138.69
651.334	131.69
651.539	130.69
651.743	142.69
651.947	154.69
652.152	138.69
652.356	133.69
652.56	148.69
652.764	133.69
652.969	127.69
653.173	132.69
653.377	118.69
653.581	134.69
653.785	138.69
653.99	120.69
654.194	123.69
654.398	106.69
654.602	139.69
654.806	124.69
655.01	133.69
655.214	137.69
655.418	110.69
655.622	127.69
655.826	135.69
656.03	127.69
656.234	114.69
656.438	128.69
656.642	135.69
656.846	121.69
657.049	119.69
657.253	109.69
657.457	107.69
657.661	116.69
657.865	100.69
658.068	115.69
658.272	103.69
658.476	98.69
658.68	103.69
658.883	103.69
659.087	103.69
659.291	103.69
659.494	105.69
659.698	101.69
659.901	111.69
660.105	103.69
660.309	93.69
660.512	99.69
660.716	91.69
660.919	88.69
661.123	95.69
661.326	85.69
661.53	89.69
661.733	99.69
661.936	82.69
662.14	92.69
662.343	83.69
662.546	87.69
662.75	84.69
662.953	74.69
663.156	93.69
663.36	68.69
663.563	87.69
663.766	85.69
663.969	77.69
664.173	85.69
664.376	88.69
664.579	84.69
664.782	78.69
664.985	88.69
665.188	93.69
665.391	88.69
665.594	90.69
665.797	87.69
666	77.69
666.203	92.69
666.406	87.69
666.609	80.69
666.812	75.69
667.015	75.69
667.218	78.69
667.421	76.69
667.624	76.69
667.827	87.69
668.03	86.69
668.232	72.69
668.435	79.69
668.638	78.69
668.841	83.69
669.043	99.69
669.246	87.69
669.449	79.69
669.651	95.69
669.854	80.69
670.057	93.69
670.259	79.69
670.462	80.69
670.665	86.69
670.867	71.69
671.07	85.69
671.272	90.69
671.475	86.69
671.677	86.69
671.88	78.69
672.082	69.69
672.284	80.69
672.487	82.69
672.689	79.69
672.892	84.69
