Data from 1971.PennyLincolnUp.Lamp.En5.5.200Scan.071719.P1._HRD10591_15-20-25-841.txt Node
Date: Thu Jul 18 15:20:25 EDT 2019
User: cochatt
Spectrometer: HR+D1059
Trigger mode: 1
Integration Time (sec): 1.000000E-1
Scans to average: 1
Electric dark correction enabled: true
Nonlinearity correction enabled: false
Boxcar width: 0
XAxis mode: Wavelengths
Number of Pixels in Spectrum: 2048
>>>>>Begin Spectral Data<<<<<
223.165	-5.12
223.4	-5.12
223.635	-5.12
223.869	-18.12
224.104	-9.12
224.338	-6.12
224.573	-17.12
224.808	-19.12
225.042	-1.12
225.277	-5.12
225.511	-0.12
225.746	-7.12
225.98	3.88
226.215	11.88
226.449	3.88
226.683	11.88
226.918	25.88
227.152	30.88
227.387	30.88
227.621	47.88
227.856	47.88
228.09	55.88
228.324	38.88
228.559	38.88
228.793	60.88
229.027	102.88
229.262	98.88
229.496	105.88
229.73	108.88
229.964	127.88
230.199	124.88
230.433	112.88
230.667	107.88
230.901	106.88
231.136	119.88
231.37	98.88
231.604	108.88
231.838	113.88
232.072	114.88
232.306	114.88
232.541	124.88
232.775	107.88
233.009	116.88
233.243	118.88
233.477	116.88
233.711	113.88
233.945	99.88
234.179	132.88
234.413	128.88
234.647	134.88
234.881	115.88
235.115	105.88
235.349	116.88
235.583	116.88
235.817	116.88
236.051	125.88
236.285	119.88
236.519	126.88
236.753	141.88
236.987	141.88
237.221	185.88
237.455	218.88
237.689	158.88
237.922	144.88
238.156	137.88
238.39	135.88
238.624	121.88
238.858	120.88
239.091	135.88
239.325	114.88
239.559	127.88
239.793	123.88
240.027	125.88
240.26	139.88
240.494	158.88
240.728	151.88
240.961	140.88
241.195	152.88
241.429	125.88
241.662	145.88
241.896	128.88
242.13	132.88
242.363	131.88
242.597	145.88
242.83	151.88
243.064	137.88
243.298	142.88
243.531	132.88
243.765	138.88
243.998	130.88
244.232	135.88
244.465	144.88
244.699	144.88
244.932	131.88
245.166	144.88
245.399	154.88
245.633	152.88
245.866	152.88
246.099	143.88
246.333	146.88
246.566	158.88
246.8	153.88
247.033	172.88
247.266	174.88
247.5	151.88
247.733	176.88
247.966	182.88
248.2	194.88
248.433	179.88
248.666	182.88
248.899	173.88
249.133	198.88
249.366	212.88
249.599	204.88
249.832	191.88
250.066	187.88
250.299	207.88
250.532	198.88
250.765	221.88
250.998	234.88
251.231	231.88
251.465	218.88
251.698	219.88
251.931	222.88
252.164	219.88
252.397	211.88
252.63	211.88
252.863	212.88
253.096	227.88
253.329	223.88
253.562	239.88
253.795	228.88
254.028	231.88
254.261	217.88
254.494	223.88
254.727	251.88
254.96	288.88
255.193	287.88
255.426	280.88
255.659	249.88
255.892	244.88
256.124	252.88
256.357	229.88
256.59	246.88
256.823	219.88
257.056	243.88
257.289	227.88
257.521	214.88
257.754	213.88
257.987	226.88
258.22	223.88
258.452	217.88
258.685	206.88
258.918	221.88
259.151	223.88
259.383	239.88
259.616	223.88
259.849	249.88
260.081	255.88
260.314	261.88
260.547	263.88
260.779	247.88
261.012	234.88
261.244	237.88
261.477	245.88
261.71	243.88
261.942	229.88
262.175	239.88
262.407	234.88
262.64	226.88
262.872	227.88
263.105	228.88
263.337	217.88
263.57	220.88
263.802	225.88
264.035	214.88
264.267	230.88
264.499	213.88
264.732	221.88
264.964	218.88
265.197	215.88
265.429	223.88
265.661	227.88
265.894	228.88
266.126	233.88
266.358	212.88
266.591	229.88
266.823	231.88
267.055	244.88
267.287	259.88
267.52	232.88
267.752	238.88
267.984	232.88
268.216	254.88
268.448	235.88
268.681	253.88
268.913	247.88
269.145	292.88
269.377	291.88
269.609	301.88
269.841	295.88
270.073	288.88
270.306	300.88
270.538	345.88
270.77	346.88
271.002	322.88
271.234	328.88
271.466	301.88
271.698	328.88
271.93	319.88
272.162	315.88
272.394	324.88
272.626	315.88
272.858	294.88
273.09	315.88
273.322	292.88
273.553	279.88
273.785	299.88
274.017	294.88
274.249	287.88
274.481	269.88
274.713	283.88
274.945	294.88
275.176	280.88
275.408	271.88
275.64	280.88
275.872	266.88
276.104	274.88
276.335	269.88
276.567	311.88
276.799	314.88
277.031	327.88
277.262	327.88
277.494	365.88
277.726	307.88
277.957	306.88
278.189	303.88
278.421	292.88
278.652	300.88
278.884	304.88
279.115	272.88
279.347	271.88
279.579	274.88
279.81	278.88
280.042	278.88
280.273	280.88
280.505	270.88
280.736	291.88
280.968	283.88
281.199	282.88
281.431	276.88
281.662	280.88
281.894	303.88
282.125	280.88
282.356	299.88
282.588	300.88
282.819	323.88
283.051	282.88
283.282	296.88
283.513	296.88
283.745	290.88
283.976	289.88
284.207	292.88
284.439	282.88
284.67	295.88
284.901	295.88
285.132	299.88
285.364	294.88
285.595	283.88
285.826	302.88
286.057	292.88
286.288	296.88
286.52	300.88
286.751	288.88
286.982	296.88
287.213	308.88
287.444	294.88
287.675	298.88
287.906	314.88
288.138	308.88
288.369	320.88
288.6	311.88
288.831	303.88
289.062	330.88
289.293	325.88
289.524	313.88
289.755	299.88
289.986	298.88
290.217	303.88
290.448	290.88
290.679	321.88
290.91	292.88
291.141	312.88
291.371	309.88
291.602	304.88
291.833	290.88
292.064	308.88
292.295	313.88
292.526	309.88
292.757	294.88
292.987	318.88
293.218	306.88
293.449	308.88
293.68	309.88
293.91	304.88
294.141	302.88
294.372	297.88
294.603	322.88
294.833	312.88
295.064	301.88
295.295	314.88
295.525	301.88
295.756	317.88
295.987	316.88
296.217	315.88
296.448	326.88
296.679	314.88
296.909	327.88
297.14	316.88
297.37	311.88
297.601	310.88
297.831	315.88
298.062	300.88
298.292	320.88
298.523	331.88
298.753	332.88
298.984	334.88
299.214	332.88
299.445	316.88
299.675	327.88
299.905	320.88
300.136	322.88
300.366	316.88
300.597	329.88
300.827	333.88
301.057	352.88
301.288	346.88
301.518	335.88
301.748	328.88
301.979	346.88
302.209	351.88
302.439	351.88
302.669	335.88
302.9	351.88
303.13	343.88
303.36	344.88
303.59	342.88
303.82	343.88
304.051	348.88
304.281	352.88
304.511	352.88
304.741	335.88
304.971	340.88
305.201	340.88
305.431	353.88
305.661	361.88
305.891	374.88
306.121	358.88
306.352	339.88
306.582	333.88
306.812	354.88
307.042	346.88
307.272	331.88
307.502	349.88
307.731	335.88
307.961	357.88
308.191	338.88
308.421	340.88
308.651	347.88
308.881	352.88
309.111	354.88
309.341	357.88
309.571	378.88
309.8	372.88
310.03	376.88
310.26	353.88
310.49	406.88
310.72	390.88
310.949	397.88
311.179	389.88
311.409	395.88
311.639	404.88
311.868	382.88
312.098	399.88
312.328	393.88
312.557	428.88
312.787	416.88
313.017	422.88
313.246	407.88
313.476	381.88
313.706	406.88
313.935	415.88
314.165	392.88
314.394	426.88
314.624	415.88
314.853	413.88
315.083	390.88
315.312	397.88
315.542	410.88
315.771	388.88
316.001	392.88
316.23	365.88
316.46	384.88
316.689	378.88
316.919	398.88
317.148	407.88
317.377	412.88
317.607	415.88
317.836	416.88
318.065	392.88
318.295	391.88
318.524	399.88
318.753	387.88
318.983	380.88
319.212	383.88
319.441	399.88
319.67	392.88
319.9	394.88
320.129	390.88
320.358	412.88
320.587	404.88
320.816	385.88
321.046	416.88
321.275	417.88
321.504	423.88
321.733	399.88
321.962	416.88
322.191	419.88
322.42	454.88
322.649	468.88
322.878	471.88
323.108	467.88
323.337	488.88
323.566	530.88
323.795	548.88
324.024	607.88
324.253	727.88
324.482	1014.88
324.71	1512.88
324.939	2082.88
325.168	1736.88
325.397	920.88
325.626	667.88
325.855	550.88
326.084	538.88
326.313	522.88
326.542	523.88
326.77	564.88
326.999	675.88
327.228	905.88
327.457	1330.88
327.686	1557.88
327.914	1046.88
328.143	706.88
328.372	608.88
328.6	601.88
328.829	580.88
329.058	584.88
329.287	566.88
329.515	554.88
329.744	527.88
329.972	518.88
330.201	556.88
330.43	565.88
330.658	586.88
330.887	606.88
331.115	559.88
331.344	513.88
331.572	503.88
331.801	508.88
332.03	471.88
332.258	458.88
332.486	476.88
332.715	472.88
332.943	462.88
333.172	446.88
333.4	468.88
333.629	478.88
333.857	475.88
334.085	473.88
334.314	498.88
334.542	550.88
334.771	547.88
334.999	504.88
335.227	470.88
335.455	491.88
335.684	466.88
335.912	464.88
336.14	452.88
336.369	465.88
336.597	457.88
336.825	451.88
337.053	442.88
337.281	438.88
337.51	445.88
337.738	460.88
337.966	447.88
338.194	443.88
338.422	451.88
338.65	450.88
338.878	425.88
339.106	423.88
339.334	416.88
339.562	440.88
339.79	438.88
340.018	430.88
340.246	427.88
340.474	424.88
340.702	428.88
340.93	460.88
341.158	438.88
341.386	431.88
341.614	444.88
341.842	436.88
342.07	404.88
342.298	419.88
342.526	397.88
342.754	413.88
342.981	397.88
343.209	394.88
343.437	397.88
343.665	426.88
343.893	428.88
344.12	415.88
344.348	424.88
344.576	441.88
344.804	434.88
345.031	434.88
345.259	452.88
345.487	415.88
345.714	442.88
345.942	430.88
346.17	410.88
346.397	421.88
346.625	416.88
346.853	399.88
347.08	422.88
347.308	415.88
347.535	405.88
347.763	419.88
347.99	410.88
348.218	432.88
348.445	422.88
348.673	396.88
348.9	405.88
349.128	406.88
349.355	395.88
349.583	392.88
349.81	414.88
350.037	390.88
350.265	396.88
350.492	385.88
350.72	404.88
350.947	392.88
351.174	399.88
351.402	423.88
351.629	434.88
351.856	427.88
352.083	421.88
352.311	406.88
352.538	414.88
352.765	410.88
352.992	413.88
353.22	403.88
353.447	422.88
353.674	399.88
353.901	374.88
354.128	393.88
354.355	384.88
354.583	374.88
354.81	362.88
355.037	370.88
355.264	370.88
355.491	377.88
355.718	364.88
355.945	375.88
356.172	358.88
356.399	376.88
356.626	378.88
356.853	370.88
357.08	363.88
357.307	378.88
357.534	368.88
357.761	367.88
357.988	367.88
358.215	364.88
358.441	376.88
358.668	382.88
358.895	367.88
359.122	388.88
359.349	384.88
359.576	392.88
359.802	410.88
360.029	440.88
360.256	446.88
360.483	436.88
360.709	422.88
360.936	414.88
361.163	384.88
361.39	382.88
361.616	392.88
361.843	383.88
362.07	406.88
362.296	388.88
362.523	370.88
362.749	361.88
362.976	390.88
363.203	375.88
363.429	396.88
363.656	382.88
363.882	389.88
364.109	365.88
364.335	384.88
364.562	386.88
364.788	375.88
365.015	400.88
365.241	394.88
365.468	376.88
365.694	369.88
365.92	376.88
366.147	375.88
366.373	365.88
366.599	366.88
366.826	361.88
367.052	364.88
367.278	371.88
367.505	354.88
367.731	373.88
367.957	392.88
368.184	357.88
368.41	375.88
368.636	380.88
368.862	383.88
369.089	391.88
369.315	355.88
369.541	372.88
369.767	380.88
369.993	382.88
370.219	366.88
370.445	341.88
370.672	374.88
370.898	361.88
371.124	357.88
371.35	372.88
371.576	362.88
371.802	364.88
372.028	356.88
372.254	373.88
372.48	380.88
372.706	367.88
372.932	374.88
373.158	360.88
373.384	358.88
373.61	355.88
373.835	380.88
374.061	368.88
374.287	376.88
374.513	353.88
374.739	365.88
374.965	376.88
375.191	364.88
375.416	378.88
375.642	372.88
375.868	387.88
376.094	354.88
376.319	363.88
376.545	366.88
376.771	381.88
376.997	363.88
377.222	340.88
377.448	345.88
377.674	344.88
377.899	340.88
378.125	379.88
378.35	363.88
378.576	358.88
378.802	372.88
379.027	349.88
379.253	350.88
379.478	370.88
379.704	360.88
379.929	369.88
380.155	354.88
380.38	356.88
380.606	359.88
380.831	355.88
381.057	363.88
381.282	352.88
381.507	349.88
381.733	370.88
381.958	365.88
382.184	374.88
382.409	353.88
382.634	370.88
382.86	356.88
383.085	374.88
383.31	384.88
383.535	348.88
383.761	359.88
383.986	377.88
384.211	382.88
384.436	356.88
384.662	360.88
384.887	383.88
385.112	379.88
385.337	383.88
385.562	371.88
385.787	384.88
386.013	389.88
386.238	392.88
386.463	389.88
386.688	398.88
386.913	375.88
387.138	382.88
387.363	386.88
387.588	385.88
387.813	385.88
388.038	368.88
388.263	380.88
388.488	374.88
388.713	372.88
388.938	374.88
389.163	380.88
389.387	380.88
389.612	387.88
389.837	378.88
390.062	358.88
390.287	374.88
390.512	364.88
390.736	378.88
390.961	373.88
391.186	379.88
391.411	383.88
391.636	374.88
391.86	393.88
392.085	379.88
392.31	374.88
392.534	376.88
392.759	377.88
392.984	383.88
393.208	382.88
393.433	370.88
393.658	395.88
393.882	375.88
394.107	370.88
394.331	381.88
394.556	396.88
394.78	380.88
395.005	382.88
395.229	377.88
395.454	378.88
395.678	394.88
395.903	412.88
396.127	409.88
396.352	420.88
396.576	412.88
396.801	397.88
397.025	381.88
397.249	380.88
397.474	390.88
397.698	383.88
397.922	387.88
398.147	404.88
398.371	427.88
398.595	430.88
398.82	423.88
399.044	440.88
399.268	426.88
399.492	468.88
399.717	484.88
399.941	485.88
400.165	503.88
400.389	506.88
400.613	487.88
400.837	438.88
401.062	420.88
401.286	421.88
401.51	416.88
401.734	400.88
401.958	425.88
402.182	435.88
402.406	430.88
402.63	416.88
402.854	422.88
403.078	446.88
403.302	450.88
403.526	437.88
403.75	454.88
403.974	410.88
404.198	424.88
404.422	421.88
404.645	446.88
404.869	444.88
405.093	462.88
405.317	512.88
405.541	527.88
405.765	471.88
405.988	468.88
406.212	476.88
406.436	486.88
406.66	492.88
406.883	470.88
407.107	500.88
407.331	533.88
407.555	567.88
407.778	576.88
408.002	521.88
408.226	472.88
408.449	485.88
408.673	486.88
408.896	502.88
409.12	534.88
409.344	494.88
409.567	462.88
409.791	439.88
410.014	416.88
410.238	441.88
410.461	434.88
410.685	450.88
410.908	448.88
411.132	482.88
411.355	505.88
411.578	490.88
411.802	447.88
412.025	438.88
412.249	450.88
412.472	468.88
412.695	483.88
412.919	473.88
413.142	437.88
413.365	420.88
413.589	437.88
413.812	415.88
414.035	425.88
414.258	414.88
414.482	410.88
414.705	395.88
414.928	388.88
415.151	400.88
415.374	398.88
415.597	404.88
415.821	403.88
416.044	396.88
416.267	421.88
416.49	416.88
416.713	403.88
416.936	402.88
417.159	413.88
417.382	409.88
417.605	426.88
417.828	441.88
418.051	436.88
418.274	401.88
418.497	418.88
418.72	408.88
418.943	407.88
419.166	423.88
419.389	441.88
419.611	424.88
419.834	447.88
420.057	424.88
420.28	436.88
420.503	443.88
420.726	434.88
420.948	443.88
421.171	475.88
421.394	507.88
421.617	456.88
421.839	416.88
422.062	438.88
422.285	460.88
422.507	498.88
422.73	567.88
422.953	521.88
423.175	474.88
423.398	442.88
423.621	460.88
423.843	479.88
424.066	458.88
424.288	468.88
424.511	477.88
424.733	532.88
424.956	583.88
425.178	548.88
425.401	560.88
425.623	579.88
425.846	498.88
426.068	476.88
426.291	451.88
426.513	450.88
426.735	461.88
426.958	509.88
427.18	573.88
427.402	675.88
427.625	728.88
427.847	649.88
428.069	573.88
428.292	510.88
428.514	461.88
428.736	440.88
428.958	436.88
429.181	435.88
429.403	437.88
429.625	412.88
429.847	471.88
430.069	515.88
430.292	503.88
430.514	439.88
430.736	430.88
430.958	410.88
431.18	407.88
431.402	428.88
431.624	391.88
431.846	399.88
432.068	408.88
432.29	389.88
432.512	421.88
432.734	411.88
432.956	408.88
433.178	430.88
433.4	412.88
433.622	420.88
433.844	400.88
434.066	409.88
434.287	394.88
434.509	390.88
434.731	419.88
434.953	422.88
435.175	414.88
435.397	449.88
435.618	454.88
435.84	487.88
436.062	578.88
436.284	616.88
436.505	525.88
436.727	464.88
436.949	421.88
437.17	450.88
437.392	424.88
437.614	446.88
437.835	498.88
438.057	529.88
438.278	629.88
438.5	625.88
438.721	671.88
438.943	655.88
439.165	513.88
439.386	479.88
439.608	479.88
439.829	472.88
440.05	510.88
440.272	543.88
440.493	494.88
440.715	460.88
440.936	427.88
441.158	431.88
441.379	421.88
441.6	422.88
441.822	474.88
442.043	506.88
442.264	587.88
442.486	583.88
442.707	510.88
442.928	465.88
443.149	474.88
443.371	521.88
443.592	536.88
443.813	608.88
444.034	654.88
444.255	554.88
444.476	501.88
444.698	480.88
444.919	467.88
445.14	560.88
445.361	536.88
445.582	487.88
445.803	560.88
446.024	642.88
446.245	632.88
446.466	599.88
446.687	532.88
446.908	458.88
447.129	448.88
447.35	445.88
447.571	445.88
447.792	416.88
448.013	426.88
448.234	448.88
448.455	486.88
448.675	587.88
448.896	676.88
449.117	563.88
449.338	556.88
449.559	639.88
449.779	684.88
450	546.88
450.221	480.88
450.442	453.88
450.662	422.88
450.883	430.88
451.104	440.88
451.324	414.88
451.545	406.88
451.766	407.88
451.986	395.88
452.207	376.88
452.428	389.88
452.648	378.88
452.869	377.88
453.089	411.88
453.31	386.88
453.53	384.88
453.751	401.88
453.971	394.88
454.192	385.88
454.412	380.88
454.633	363.88
454.853	375.88
455.073	379.88
455.294	392.88
455.514	464.88
455.734	444.88
455.955	391.88
456.175	362.88
456.395	344.88
456.616	357.88
456.836	355.88
457.056	362.88
457.276	351.88
457.497	337.88
457.717	350.88
457.937	377.88
458.157	366.88
458.377	361.88
458.598	379.88
458.818	432.88
459.038	516.88
459.258	517.88
459.478	423.88
459.698	409.88
459.918	415.88
460.138	391.88
460.358	393.88
460.578	392.88
460.798	392.88
461.018	411.88
461.238	414.88
461.458	394.88
461.678	392.88
461.898	395.88
462.118	392.88
462.338	378.88
462.558	406.88
462.777	403.88
462.997	423.88
463.217	414.88
463.437	434.88
463.657	412.88
463.876	415.88
464.096	407.88
464.316	429.88
464.536	418.88
464.755	429.88
464.975	434.88
465.195	460.88
465.414	494.88
465.634	431.88
465.854	441.88
466.073	401.88
466.293	386.88
466.512	402.88
466.732	386.88
466.951	397.88
467.171	388.88
467.391	382.88
467.61	403.88
467.829	414.88
468.049	380.88
468.268	400.88
468.488	395.88
468.707	367.88
468.927	380.88
469.146	364.88
469.365	371.88
469.585	370.88
469.804	374.88
470.023	394.88
470.243	398.88
470.462	406.88
470.681	424.88
470.901	408.88
471.12	407.88
471.339	387.88
471.558	393.88
471.777	398.88
471.997	378.88
472.216	401.88
472.435	410.88
472.654	399.88
472.873	366.88
473.092	404.88
473.311	388.88
473.53	398.88
473.749	396.88
473.968	436.88
474.187	531.88
474.406	543.88
474.625	450.88
474.844	392.88
475.063	406.88
475.282	392.88
475.501	388.88
475.72	409.88
475.939	397.88
476.158	399.88
476.377	400.88
476.596	417.88
476.814	419.88
477.033	421.88
477.252	431.88
477.471	416.88
477.69	423.88
477.908	403.88
478.127	423.88
478.346	430.88
478.564	421.88
478.783	414.88
479.002	435.88
479.22	422.88
479.439	463.88
479.658	462.88
479.876	462.88
480.095	458.88
480.313	512.88
480.532	469.88
480.751	450.88
480.969	492.88
481.188	522.88
481.406	544.88
481.624	487.88
481.843	473.88
482.061	456.88
482.28	437.88
482.498	460.88
482.717	429.88
482.935	464.88
483.153	450.88
483.372	447.88
483.59	462.88
483.808	442.88
484.027	462.88
484.245	455.88
484.463	446.88
484.681	465.88
484.9	431.88
485.118	477.88
485.336	456.88
485.554	469.88
485.772	450.88
485.99	466.88
486.209	474.88
486.427	468.88
486.645	476.88
486.863	490.88
487.081	470.88
487.299	461.88
487.517	498.88
487.735	471.88
487.953	478.88
488.171	498.88
488.389	490.88
488.607	490.88
488.825	484.88
489.043	494.88
489.261	504.88
489.479	493.88
489.696	505.88
489.914	514.88
490.132	503.88
490.35	490.88
490.568	506.88
490.786	526.88
491.003	519.88
491.221	526.88
491.439	559.88
491.657	550.88
491.874	540.88
492.092	571.88
492.31	557.88
492.527	578.88
492.745	582.88
492.963	574.88
493.18	576.88
493.398	563.88
493.615	559.88
493.833	562.88
494.05	560.88
494.268	566.88
494.485	552.88
494.703	580.88
494.92	579.88
495.138	583.88
495.355	584.88
495.573	577.88
495.79	576.88
496.008	595.88
496.225	566.88
496.442	573.88
496.66	559.88
496.877	592.88
497.094	591.88
497.312	605.88
497.529	607.88
497.746	622.88
497.963	584.88
498.181	642.88
498.398	637.88
498.615	593.88
498.832	633.88
499.049	660.88
499.267	659.88
499.484	672.88
499.701	693.88
499.918	719.88
500.135	733.88
500.352	738.88
500.569	758.88
500.786	750.88
501.003	758.88
501.22	740.88
501.437	713.88
501.654	703.88
501.871	719.88
502.088	692.88
502.305	655.88
502.522	634.88
502.739	608.88
502.956	605.88
503.172	605.88
503.389	598.88
503.606	584.88
503.823	600.88
504.04	576.88
504.256	579.88
504.473	586.88
504.69	560.88
504.907	574.88
505.123	578.88
505.34	571.88
505.557	558.88
505.773	583.88
505.99	549.88
506.207	547.88
506.423	546.88
506.64	542.88
506.856	540.88
507.073	515.88
507.289	532.88
507.506	557.88
507.722	542.88
507.939	556.88
508.155	543.88
508.372	520.88
508.588	518.88
508.805	513.88
509.021	530.88
509.238	540.88
509.454	543.88
509.67	532.88
509.887	518.88
510.103	520.88
510.319	536.88
510.536	611.88
510.752	941.88
510.968	717.88
511.184	553.88
511.401	494.88
511.617	512.88
511.833	498.88
512.049	523.88
512.265	491.88
512.481	482.88
512.698	504.88
512.914	498.88
513.13	480.88
513.346	492.88
513.562	496.88
513.778	498.88
513.994	504.88
514.21	485.88
514.426	519.88
514.642	556.88
514.858	570.88
515.074	620.88
515.29	687.88
515.506	987.88
515.721	790.88
515.937	565.88
516.153	532.88
516.369	522.88
516.585	533.88
516.801	516.88
517.016	516.88
517.232	510.88
517.448	499.88
517.664	505.88
517.879	513.88
518.095	492.88
518.311	498.88
518.527	483.88
518.742	493.88
518.958	498.88
519.173	480.88
519.389	497.88
519.605	512.88
519.82	475.88
520.036	494.88
520.251	540.88
520.467	551.88
520.682	540.88
520.898	536.88
521.113	564.88
521.329	571.88
521.544	663.88
521.76	797.88
521.975	1305.88
522.19	1197.88
522.406	700.88
522.621	570.88
522.836	491.88
523.052	491.88
523.267	457.88
523.482	452.88
523.698	446.88
523.913	469.88
524.128	458.88
524.343	442.88
524.559	451.88
524.774	426.88
524.989	425.88
525.204	439.88
525.419	419.88
525.634	410.88
525.849	418.88
526.064	422.88
526.28	415.88
526.495	420.88
526.71	415.88
526.925	424.88
527.14	398.88
527.355	404.88
527.57	394.88
527.785	384.88
527.999	382.88
528.214	396.88
528.429	401.88
528.644	412.88
528.859	392.88
529.074	406.88
529.289	401.88
529.503	473.88
529.718	460.88
529.933	458.88
530.148	402.88
530.363	421.88
530.577	392.88
530.792	391.88
531.007	396.88
531.221	395.88
531.436	407.88
531.651	390.88
531.865	378.88
532.08	373.88
532.295	383.88
532.509	395.88
532.724	372.88
532.938	374.88
533.153	379.88
533.367	366.88
533.582	382.88
533.796	385.88
534.011	375.88
534.225	374.88
534.44	378.88
534.654	367.88
534.868	374.88
535.083	372.88
535.297	383.88
535.511	375.88
535.726	376.88
535.94	372.88
536.154	370.88
536.369	361.88
536.583	361.88
536.797	367.88
537.011	375.88
537.225	358.88
537.44	372.88
537.654	349.88
537.868	357.88
538.082	368.88
538.296	365.88
538.51	361.88
538.724	380.88
538.938	386.88
539.153	370.88
539.367	382.88
539.581	376.88
539.795	376.88
540.009	388.88
540.222	370.88
540.436	364.88
540.65	382.88
540.864	381.88
541.078	397.88
541.292	394.88
541.506	382.88
541.72	387.88
541.934	383.88
542.147	393.88
542.361	386.88
542.575	366.88
542.789	362.88
543.002	371.88
543.216	376.88
543.43	379.88
543.644	374.88
543.857	388.88
544.071	388.88
544.285	392.88
544.498	403.88
544.712	377.88
544.925	380.88
545.139	372.88
545.352	388.88
545.566	372.88
545.779	378.88
545.993	384.88
546.206	397.88
546.42	390.88
546.633	396.88
546.847	355.88
547.06	349.88
547.274	372.88
547.487	368.88
547.7	354.88
547.914	361.88
548.127	364.88
548.34	376.88
548.554	364.88
548.767	354.88
548.98	350.88
549.193	343.88
549.407	374.88
549.62	329.88
549.833	362.88
550.046	349.88
550.259	360.88
550.473	359.88
550.686	342.88
550.899	347.88
551.112	358.88
551.325	357.88
551.538	345.88
551.751	349.88
551.964	359.88
552.177	352.88
552.39	346.88
552.603	363.88
552.816	351.88
553.029	352.88
553.242	369.88
553.455	356.88
553.667	368.88
553.88	380.88
554.093	370.88
554.306	376.88
554.519	367.88
554.732	363.88
554.944	350.88
555.157	335.88
555.37	338.88
555.583	346.88
555.795	377.88
556.008	330.88
556.221	330.88
556.433	340.88
556.646	308.88
556.859	328.88
557.071	333.88
557.284	329.88
557.496	310.88
557.709	319.88
557.921	315.88
558.134	310.88
558.346	292.88
558.559	331.88
558.771	310.88
558.984	307.88
559.196	312.88
559.409	312.88
559.621	336.88
559.833	314.88
560.046	313.88
560.258	315.88
560.47	316.88
560.683	277.88
560.895	311.88
561.107	318.88
561.32	314.88
561.532	311.88
561.744	302.88
561.956	340.88
562.168	320.88
562.381	302.88
562.593	308.88
562.805	308.88
563.017	311.88
563.229	318.88
563.441	316.88
563.653	312.88
563.865	297.88
564.077	324.88
564.289	316.88
564.501	315.88
564.713	330.88
564.925	333.88
565.137	335.88
565.349	326.88
565.561	336.88
565.773	344.88
565.985	345.88
566.197	339.88
566.408	357.88
566.62	349.88
566.832	348.88
567.044	351.88
567.255	359.88
567.467	374.88
567.679	346.88
567.891	360.88
568.102	371.88
568.314	365.88
568.526	352.88
568.737	328.88
568.949	343.88
569.161	349.88
569.372	327.88
569.584	320.88
569.795	326.88
570.007	322.88
570.218	354.88
570.43	333.88
570.641	314.88
570.853	310.88
571.064	286.88
571.276	304.88
571.487	280.88
571.698	300.88
571.91	280.88
572.121	286.88
572.333	299.88
572.544	290.88
572.755	278.88
572.966	283.88
573.178	267.88
573.389	271.88
573.6	266.88
573.811	279.88
574.023	269.88
574.234	267.88
574.445	262.88
574.656	276.88
574.867	274.88
575.078	284.88
575.289	287.88
575.501	264.88
575.712	270.88
575.923	256.88
576.134	259.88
576.345	276.88
576.556	264.88
576.767	260.88
576.978	260.88
577.188	254.88
577.399	259.88
577.61	274.88
577.821	260.88
578.032	279.88
578.243	302.88
578.454	442.88
578.665	334.88
578.875	268.88
579.086	261.88
579.297	252.88
579.508	244.88
579.718	239.88
579.929	246.88
580.14	249.88
580.35	238.88
580.561	256.88
580.772	251.88
580.982	239.88
581.193	231.88
581.403	264.88
581.614	239.88
581.825	234.88
582.035	246.88
582.246	234.88
582.456	243.88
582.667	250.88
582.877	224.88
583.087	245.88
583.298	238.88
583.508	240.88
583.719	254.88
583.929	229.88
584.139	218.88
584.35	238.88
584.56	247.88
584.77	223.88
584.981	242.88
585.191	240.88
585.401	242.88
585.611	221.88
585.821	235.88
586.032	243.88
586.242	229.88
586.452	231.88
586.662	248.88
586.872	221.88
587.082	237.88
587.292	239.88
587.502	256.88
587.713	249.88
587.923	247.88
588.133	221.88
588.343	229.88
588.553	232.88
588.762	239.88
588.972	222.88
589.182	233.88
589.392	232.88
589.602	236.88
589.812	223.88
590.022	251.88
590.232	228.88
590.441	214.88
590.651	218.88
590.861	243.88
591.071	212.88
591.281	231.88
591.49	238.88
591.7	247.88
591.91	265.88
592.119	252.88
592.329	244.88
592.539	239.88
592.748	234.88
592.958	261.88
593.167	260.88
593.377	254.88
593.587	249.88
593.796	242.88
594.006	229.88
594.215	237.88
594.424	248.88
594.634	240.88
594.843	230.88
595.053	248.88
595.262	227.88
595.472	237.88
595.681	227.88
595.89	243.88
596.1	242.88
596.309	211.88
596.518	222.88
596.727	218.88
596.937	218.88
597.146	230.88
597.355	239.88
597.564	211.88
597.774	216.88
597.983	222.88
598.192	218.88
598.401	223.88
598.61	230.88
598.819	204.88
599.028	225.88
599.237	213.88
599.446	204.88
599.655	224.88
599.864	210.88
600.073	224.88
600.282	226.88
600.491	214.88
600.7	230.88
600.909	203.88
601.118	201.88
601.327	204.88
601.536	235.88
601.745	195.88
601.953	225.88
602.162	222.88
602.371	218.88
602.58	219.88
602.789	203.88
602.997	216.88
603.206	199.88
603.415	221.88
603.623	218.88
603.832	195.88
604.041	208.88
604.249	219.88
604.458	208.88
604.666	194.88
604.875	193.88
605.084	204.88
605.292	222.88
605.501	204.88
605.709	217.88
605.918	203.88
606.126	212.88
606.334	217.88
606.543	209.88
606.751	209.88
606.96	208.88
607.168	221.88
607.376	202.88
607.585	210.88
607.793	189.88
608.001	208.88
608.21	204.88
608.418	198.88
608.626	201.88
608.834	221.88
609.043	206.88
609.251	182.88
609.459	200.88
609.667	210.88
609.875	198.88
610.083	202.88
610.291	218.88
610.499	212.88
610.707	219.88
610.916	206.88
611.124	197.88
611.332	211.88
611.54	198.88
611.748	213.88
611.955	202.88
612.163	196.88
612.371	217.88
612.579	217.88
612.787	219.88
612.995	202.88
613.203	191.88
613.411	200.88
613.618	190.88
613.826	206.88
614.034	198.88
614.242	211.88
614.449	212.88
614.657	207.88
614.865	220.88
615.072	208.88
615.28	200.88
615.488	208.88
615.695	203.88
615.903	193.88
616.111	205.88
616.318	217.88
616.526	205.88
616.733	184.88
616.941	188.88
617.148	200.88
617.356	202.88
617.563	198.88
617.771	194.88
617.978	191.88
618.185	190.88
618.393	193.88
618.6	202.88
618.807	202.88
619.015	189.88
619.222	188.88
619.429	207.88
619.637	218.88
619.844	190.88
620.051	191.88
620.258	197.88
620.466	199.88
620.673	164.88
620.88	181.88
621.087	186.88
621.294	190.88
621.501	182.88
621.708	197.88
621.915	191.88
622.122	188.88
622.329	188.88
622.536	194.88
622.743	200.88
622.95	185.88
623.157	183.88
623.364	172.88
623.571	182.88
623.778	180.88
623.985	173.88
624.192	173.88
624.399	191.88
624.606	186.88
624.812	175.88
625.019	182.88
625.226	181.88
625.433	178.88
625.639	175.88
625.846	185.88
626.053	166.88
626.259	151.88
626.466	172.88
626.673	174.88
626.879	169.88
627.086	187.88
627.293	194.88
627.499	176.88
627.706	186.88
627.912	180.88
628.119	185.88
628.325	182.88
628.532	184.88
628.738	174.88
628.945	176.88
629.151	160.88
629.357	169.88
629.564	170.88
629.77	161.88
629.976	184.88
630.183	165.88
630.389	163.88
630.595	170.88
630.802	170.88
631.008	155.88
631.214	167.88
631.42	161.88
631.627	170.88
631.833	177.88
632.039	161.88
632.245	163.88
632.451	142.88
632.657	159.88
632.863	170.88
633.069	172.88
633.275	166.88
633.481	147.88
633.688	168.88
633.893	183.88
634.099	150.88
634.305	143.88
634.511	157.88
634.717	148.88
634.923	142.88
635.129	154.88
635.335	146.88
635.541	153.88
635.747	152.88
635.952	170.88
636.158	155.88
636.364	159.88
636.57	173.88
636.775	174.88
636.981	147.88
637.187	158.88
637.392	169.88
637.598	150.88
637.804	155.88
638.009	160.88
638.215	144.88
638.421	152.88
638.626	164.88
638.832	169.88
639.037	145.88
639.243	155.88
639.448	157.88
639.654	159.88
639.859	171.88
640.065	168.88
640.27	166.88
640.475	157.88
640.681	158.88
640.886	153.88
641.091	150.88
641.297	162.88
641.502	145.88
641.707	150.88
641.913	162.88
642.118	154.88
642.323	137.88
642.528	146.88
642.733	137.88
642.939	135.88
643.144	143.88
643.349	149.88
643.554	155.88
643.759	139.88
643.964	134.88
644.169	151.88
644.374	150.88
644.579	149.88
644.784	156.88
644.989	156.88
645.194	157.88
645.399	157.88
645.604	148.88
645.809	145.88
646.014	161.88
646.219	140.88
646.423	144.88
646.628	151.88
646.833	154.88
647.038	148.88
647.243	139.88
647.447	144.88
647.652	165.88
647.857	140.88
648.062	142.88
648.266	145.88
648.471	150.88
648.676	137.88
648.88	140.88
649.085	150.88
649.289	160.88
649.494	157.88
649.698	186.88
649.903	157.88
650.107	155.88
650.312	143.88
650.516	128.88
650.721	139.88
650.925	139.88
651.13	137.88
651.334	133.88
651.539	138.88
651.743	148.88
651.947	123.88
652.152	126.88
652.356	140.88
652.56	145.88
652.764	149.88
652.969	138.88
653.173	131.88
653.377	123.88
653.581	126.88
653.785	123.88
653.99	134.88
654.194	124.88
654.398	135.88
654.602	115.88
654.806	130.88
655.01	134.88
655.214	110.88
655.418	122.88
655.622	122.88
655.826	123.88
656.03	123.88
656.234	128.88
656.438	133.88
656.642	120.88
656.846	124.88
657.049	122.88
657.253	114.88
657.457	124.88
657.661	114.88
657.865	120.88
658.068	116.88
658.272	99.88
658.476	106.88
658.68	104.88
658.883	110.88
659.087	100.88
659.291	95.88
659.494	93.88
659.698	98.88
659.901	93.88
660.105	82.88
660.309	98.88
660.512	98.88
660.716	102.88
660.919	94.88
661.123	90.88
661.326	101.88
661.53	87.88
661.733	91.88
661.936	87.88
662.14	91.88
662.343	84.88
662.546	86.88
662.75	71.88
662.953	88.88
663.156	76.88
663.36	86.88
663.563	87.88
663.766	84.88
663.969	86.88
664.173	54.88
664.376	82.88
664.579	64.88
664.782	93.88
664.985	91.88
665.188	83.88
665.391	105.88
665.594	74.88
665.797	76.88
666	92.88
666.203	95.88
666.406	80.88
666.609	100.88
666.812	76.88
667.015	79.88
667.218	91.88
667.421	91.88
667.624	80.88
667.827	80.88
668.03	82.88
668.232	84.88
668.435	91.88
668.638	81.88
668.841	86.88
669.043	104.88
669.246	86.88
669.449	82.88
669.651	105.88
669.854	67.88
670.057	79.88
670.259	77.88
670.462	86.88
670.665	92.88
670.867	75.88
671.07	81.88
671.272	80.88
671.475	84.88
671.677	78.88
671.88	71.88
672.082	83.88
672.284	86.88
672.487	91.88
672.689	78.88
672.892	76.88
