Data from 1971.PennyLincolnUp.Lamp.En5.5.200Scan.071719.P1._HRD10591_15-20-39-841.txt Node
Date: Thu Jul 18 15:20:39 EDT 2019
User: cochatt
Spectrometer: HR+D1059
Trigger mode: 1
Integration Time (sec): 1.000000E-1
Scans to average: 1
Electric dark correction enabled: true
Nonlinearity correction enabled: false
Boxcar width: 0
XAxis mode: Wavelengths
Number of Pixels in Spectrum: 2048
>>>>>Begin Spectral Data<<<<<
223.165	-11.94
223.4	-11.94
223.635	-11.94
223.869	-15.94
224.104	-15.94
224.338	-16.94
224.573	-1.94
224.808	-8.94
225.042	-8.94
225.277	-15.94
225.511	-8.94
225.746	-4.94
225.98	-4.94
226.215	11.06
226.449	22.06
226.683	30.06
226.918	27.06
227.152	25.06
227.387	40.06
227.621	39.06
227.856	43.06
228.09	60.06
228.324	59.06
228.559	56.06
228.793	70.06
229.027	90.06
229.262	105.06
229.496	116.06
229.73	106.06
229.964	158.06
230.199	136.06
230.433	134.06
230.667	115.06
230.901	122.06
231.136	105.06
231.37	115.06
231.604	113.06
231.838	104.06
232.072	100.06
232.306	111.06
232.541	101.06
232.775	108.06
233.009	110.06
233.243	133.06
233.477	109.06
233.711	121.06
233.945	117.06
234.179	116.06
234.413	109.06
234.647	110.06
234.881	127.06
235.115	119.06
235.349	112.06
235.583	121.06
235.817	128.06
236.051	124.06
236.285	123.06
236.519	141.06
236.753	139.06
236.987	147.06
237.221	186.06
237.455	213.06
237.689	182.06
237.922	133.06
238.156	132.06
238.39	140.06
238.624	124.06
238.858	119.06
239.091	136.06
239.325	140.06
239.559	127.06
239.793	118.06
240.027	144.06
240.26	153.06
240.494	165.06
240.728	168.06
240.961	143.06
241.195	150.06
241.429	146.06
241.662	140.06
241.896	135.06
242.13	136.06
242.363	133.06
242.597	138.06
242.83	138.06
243.064	135.06
243.298	138.06
243.531	150.06
243.765	140.06
243.998	138.06
244.232	150.06
244.465	138.06
244.699	135.06
244.932	142.06
245.166	143.06
245.399	147.06
245.633	142.06
245.866	129.06
246.099	153.06
246.333	153.06
246.566	150.06
246.8	156.06
247.033	154.06
247.266	167.06
247.5	170.06
247.733	179.06
247.966	169.06
248.2	171.06
248.433	183.06
248.666	187.06
248.899	176.06
249.133	212.06
249.366	196.06
249.599	208.06
249.832	180.06
250.066	218.06
250.299	205.06
250.532	200.06
250.765	213.06
250.998	229.06
251.231	228.06
251.465	239.06
251.698	230.06
251.931	217.06
252.164	214.06
252.397	200.06
252.63	192.06
252.863	216.06
253.096	219.06
253.329	239.06
253.562	228.06
253.795	224.06
254.028	232.06
254.261	225.06
254.494	234.06
254.727	265.06
254.96	294.06
255.193	278.06
255.426	271.06
255.659	237.06
255.892	239.06
256.124	239.06
256.357	247.06
256.59	236.06
256.823	230.06
257.056	228.06
257.289	228.06
257.521	231.06
257.754	219.06
257.987	220.06
258.22	219.06
258.452	221.06
258.685	212.06
258.918	229.06
259.151	227.06
259.383	218.06
259.616	227.06
259.849	248.06
260.081	231.06
260.314	270.06
260.547	282.06
260.779	258.06
261.012	265.06
261.244	245.06
261.477	234.06
261.71	223.06
261.942	244.06
262.175	236.06
262.407	232.06
262.64	228.06
262.872	216.06
263.105	230.06
263.337	218.06
263.57	206.06
263.802	219.06
264.035	217.06
264.267	217.06
264.499	227.06
264.732	212.06
264.964	232.06
265.197	227.06
265.429	230.06
265.661	210.06
265.894	207.06
266.126	221.06
266.358	234.06
266.591	225.06
266.823	237.06
267.055	248.06
267.287	239.06
267.52	255.06
267.752	230.06
267.984	238.06
268.216	244.06
268.448	250.06
268.681	250.06
268.913	278.06
269.145	302.06
269.377	300.06
269.609	297.06
269.841	290.06
270.073	299.06
270.306	312.06
270.538	338.06
270.77	334.06
271.002	323.06
271.234	310.06
271.466	323.06
271.698	336.06
271.93	347.06
272.162	332.06
272.394	333.06
272.626	340.06
272.858	296.06
273.09	300.06
273.322	291.06
273.553	267.06
273.785	263.06
274.017	286.06
274.249	286.06
274.481	267.06
274.713	280.06
274.945	291.06
275.176	273.06
275.408	287.06
275.64	287.06
275.872	303.06
276.104	287.06
276.335	288.06
276.567	301.06
276.799	312.06
277.031	318.06
277.262	335.06
277.494	326.06
277.726	306.06
277.957	313.06
278.189	291.06
278.421	296.06
278.652	302.06
278.884	278.06
279.115	268.06
279.347	291.06
279.579	280.06
279.81	280.06
280.042	274.06
280.273	284.06
280.505	281.06
280.736	298.06
280.968	291.06
281.199	265.06
281.431	285.06
281.662	284.06
281.894	282.06
282.125	286.06
282.356	291.06
282.588	299.06
282.819	322.06
283.051	306.06
283.282	280.06
283.513	291.06
283.745	301.06
283.976	284.06
284.207	301.06
284.439	288.06
284.67	276.06
284.901	299.06
285.132	290.06
285.364	287.06
285.595	293.06
285.826	293.06
286.057	295.06
286.288	300.06
286.52	295.06
286.751	303.06
286.982	288.06
287.213	287.06
287.444	308.06
287.675	300.06
287.906	318.06
288.138	312.06
288.369	318.06
288.6	291.06
288.831	312.06
289.062	325.06
289.293	319.06
289.524	319.06
289.755	316.06
289.986	319.06
290.217	312.06
290.448	318.06
290.679	299.06
290.91	310.06
291.141	310.06
291.371	312.06
291.602	314.06
291.833	291.06
292.064	298.06
292.295	288.06
292.526	293.06
292.757	304.06
292.987	299.06
293.218	298.06
293.449	310.06
293.68	318.06
293.91	303.06
294.141	324.06
294.372	302.06
294.603	285.06
294.833	303.06
295.064	312.06
295.295	295.06
295.525	311.06
295.756	327.06
295.987	321.06
296.217	334.06
296.448	319.06
296.679	339.06
296.909	304.06
297.14	316.06
297.37	303.06
297.601	326.06
297.831	318.06
298.062	324.06
298.292	301.06
298.523	303.06
298.753	316.06
298.984	336.06
299.214	328.06
299.445	323.06
299.675	322.06
299.905	317.06
300.136	318.06
300.366	326.06
300.597	322.06
300.827	322.06
301.057	351.06
301.288	340.06
301.518	334.06
301.748	340.06
301.979	349.06
302.209	344.06
302.439	341.06
302.669	364.06
302.9	340.06
303.13	354.06
303.36	345.06
303.59	338.06
303.82	343.06
304.051	330.06
304.281	351.06
304.511	324.06
304.741	350.06
304.971	343.06
305.201	342.06
305.431	349.06
305.661	341.06
305.891	347.06
306.121	341.06
306.352	355.06
306.582	350.06
306.812	335.06
307.042	344.06
307.272	350.06
307.502	335.06
307.731	355.06
307.961	361.06
308.191	337.06
308.421	351.06
308.651	355.06
308.881	358.06
309.111	356.06
309.341	361.06
309.571	354.06
309.8	370.06
310.03	384.06
310.26	391.06
310.49	392.06
310.72	379.06
310.949	387.06
311.179	421.06
311.409	374.06
311.639	380.06
311.868	382.06
312.098	387.06
312.328	404.06
312.557	413.06
312.787	418.06
313.017	415.06
313.246	414.06
313.476	398.06
313.706	391.06
313.935	387.06
314.165	384.06
314.394	406.06
314.624	397.06
314.853	383.06
315.083	394.06
315.312	391.06
315.542	385.06
315.771	403.06
316.001	395.06
316.23	404.06
316.46	386.06
316.689	394.06
316.919	405.06
317.148	380.06
317.377	409.06
317.607	392.06
317.836	391.06
318.065	391.06
318.295	390.06
318.524	398.06
318.753	409.06
318.983	403.06
319.212	384.06
319.441	396.06
319.67	409.06
319.9	406.06
320.129	400.06
320.358	388.06
320.587	412.06
320.816	425.06
321.046	394.06
321.275	408.06
321.504	410.06
321.733	430.06
321.962	423.06
322.191	431.06
322.42	443.06
322.649	460.06
322.878	460.06
323.108	474.06
323.337	503.06
323.566	513.06
323.795	530.06
324.024	580.06
324.253	720.06
324.482	1000.06
324.71	1496.06
324.939	2007.06
325.168	1678.06
325.397	922.06
325.626	654.06
325.855	540.06
326.084	519.06
326.313	501.06
326.542	512.06
326.77	555.06
326.999	653.06
327.228	898.06
327.457	1335.06
327.686	1494.06
327.914	1006.06
328.143	680.06
328.372	618.06
328.6	568.06
328.829	549.06
329.058	575.06
329.287	548.06
329.515	560.06
329.744	514.06
329.972	519.06
330.201	550.06
330.43	563.06
330.658	576.06
330.887	591.06
331.115	554.06
331.344	519.06
331.572	493.06
331.801	496.06
332.03	480.06
332.258	476.06
332.486	482.06
332.715	469.06
332.943	462.06
333.172	461.06
333.4	451.06
333.629	460.06
333.857	486.06
334.085	491.06
334.314	503.06
334.542	506.06
334.771	525.06
334.999	480.06
335.227	486.06
335.455	447.06
335.684	444.06
335.912	449.06
336.14	453.06
336.369	445.06
336.597	457.06
336.825	453.06
337.053	459.06
337.281	452.06
337.51	437.06
337.738	440.06
337.966	456.06
338.194	432.06
338.422	467.06
338.65	437.06
338.878	423.06
339.106	436.06
339.334	438.06
339.562	444.06
339.79	430.06
340.018	446.06
340.246	428.06
340.474	418.06
340.702	438.06
340.93	416.06
341.158	419.06
341.386	411.06
341.614	440.06
341.842	436.06
342.07	438.06
342.298	405.06
342.526	409.06
342.754	431.06
342.981	420.06
343.209	409.06
343.437	420.06
343.665	436.06
343.893	438.06
344.12	420.06
344.348	433.06
344.576	427.06
344.804	416.06
345.031	449.06
345.259	426.06
345.487	436.06
345.714	423.06
345.942	413.06
346.17	396.06
346.397	392.06
346.625	411.06
346.853	394.06
347.08	399.06
347.308	408.06
347.535	394.06
347.763	421.06
347.99	425.06
348.218	436.06
348.445	426.06
348.673	410.06
348.9	395.06
349.128	395.06
349.355	383.06
349.583	395.06
349.81	386.06
350.037	397.06
350.265	398.06
350.492	401.06
350.72	390.06
350.947	401.06
351.174	408.06
351.402	424.06
351.629	412.06
351.856	412.06
352.083	399.06
352.311	430.06
352.538	431.06
352.765	441.06
352.992	408.06
353.22	404.06
353.447	406.06
353.674	395.06
353.901	386.06
354.128	386.06
354.355	394.06
354.583	361.06
354.81	386.06
355.037	383.06
355.264	391.06
355.491	381.06
355.718	368.06
355.945	376.06
356.172	376.06
356.399	371.06
356.626	372.06
356.853	358.06
357.08	397.06
357.307	379.06
357.534	390.06
357.761	367.06
357.988	370.06
358.215	362.06
358.441	384.06
358.668	379.06
358.895	370.06
359.122	388.06
359.349	390.06
359.576	378.06
359.802	399.06
360.029	417.06
360.256	454.06
360.483	431.06
360.709	403.06
360.936	410.06
361.163	402.06
361.39	395.06
361.616	410.06
361.843	392.06
362.07	400.06
362.296	384.06
362.523	375.06
362.749	386.06
362.976	390.06
363.203	379.06
363.429	369.06
363.656	367.06
363.882	383.06
364.109	376.06
364.335	382.06
364.562	376.06
364.788	363.06
365.015	375.06
365.241	394.06
365.468	388.06
365.694	374.06
365.92	377.06
366.147	372.06
366.373	379.06
366.599	372.06
366.826	379.06
367.052	372.06
367.278	377.06
367.505	372.06
367.731	388.06
367.957	363.06
368.184	375.06
368.41	370.06
368.636	381.06
368.862	390.06
369.089	382.06
369.315	359.06
369.541	370.06
369.767	395.06
369.993	360.06
370.219	374.06
370.445	350.06
370.672	361.06
370.898	374.06
371.124	365.06
371.35	359.06
371.576	339.06
371.802	365.06
372.028	367.06
372.254	375.06
372.48	360.06
372.706	349.06
372.932	342.06
373.158	383.06
373.384	378.06
373.61	363.06
373.835	367.06
374.061	360.06
374.287	380.06
374.513	369.06
374.739	378.06
374.965	366.06
375.191	380.06
375.416	386.06
375.642	368.06
375.868	364.06
376.094	382.06
376.319	366.06
376.545	360.06
376.771	382.06
376.997	363.06
377.222	357.06
377.448	346.06
377.674	354.06
377.899	348.06
378.125	354.06
378.35	365.06
378.576	365.06
378.802	362.06
379.027	360.06
379.253	367.06
379.478	371.06
379.704	357.06
379.929	355.06
380.155	342.06
380.38	351.06
380.606	357.06
380.831	348.06
381.057	361.06
381.282	350.06
381.507	360.06
381.733	372.06
381.958	365.06
382.184	361.06
382.409	368.06
382.634	375.06
382.86	365.06
383.085	386.06
383.31	370.06
383.535	360.06
383.761	372.06
383.986	364.06
384.211	370.06
384.436	380.06
384.662	365.06
384.887	404.06
385.112	388.06
385.337	380.06
385.562	367.06
385.787	366.06
386.013	392.06
386.238	394.06
386.463	378.06
386.688	385.06
386.913	371.06
387.138	357.06
387.363	376.06
387.588	362.06
387.813	382.06
388.038	365.06
388.263	378.06
388.488	380.06
388.713	378.06
388.938	379.06
389.163	372.06
389.387	380.06
389.612	366.06
389.837	367.06
390.062	381.06
390.287	372.06
390.512	371.06
390.736	397.06
390.961	374.06
391.186	370.06
391.411	391.06
391.636	375.06
391.86	381.06
392.085	386.06
392.31	378.06
392.534	382.06
392.759	362.06
392.984	372.06
393.208	377.06
393.433	371.06
393.658	351.06
393.882	380.06
394.107	367.06
394.331	381.06
394.556	381.06
394.78	379.06
395.005	371.06
395.229	367.06
395.454	396.06
395.678	358.06
395.903	390.06
396.127	396.06
396.352	424.06
396.576	383.06
396.801	401.06
397.025	386.06
397.249	381.06
397.474	395.06
397.698	395.06
397.922	407.06
398.147	418.06
398.371	396.06
398.595	414.06
398.82	407.06
399.044	424.06
399.268	414.06
399.492	464.06
399.717	483.06
399.941	493.06
400.165	502.06
400.389	525.06
400.613	473.06
400.837	462.06
401.062	424.06
401.286	424.06
401.51	438.06
401.734	436.06
401.958	414.06
402.182	413.06
402.406	451.06
402.63	428.06
402.854	424.06
403.078	446.06
403.302	436.06
403.526	442.06
403.75	424.06
403.974	420.06
404.198	439.06
404.422	446.06
404.645	437.06
404.869	440.06
405.093	438.06
405.317	495.06
405.541	532.06
405.765	472.06
405.988	449.06
406.212	466.06
406.436	475.06
406.66	497.06
406.883	465.06
407.107	499.06
407.331	529.06
407.555	571.06
407.778	571.06
408.002	533.06
408.226	466.06
408.449	463.06
408.673	490.06
408.896	506.06
409.12	534.06
409.344	509.06
409.567	466.06
409.791	438.06
410.014	443.06
410.238	434.06
410.461	420.06
410.685	448.06
410.908	461.06
411.132	482.06
411.355	507.06
411.578	486.06
411.802	438.06
412.025	419.06
412.249	447.06
412.472	479.06
412.695	490.06
412.919	468.06
413.142	431.06
413.365	419.06
413.589	412.06
413.812	412.06
414.035	412.06
414.258	404.06
414.482	410.06
414.705	397.06
414.928	398.06
415.151	423.06
415.374	410.06
415.597	386.06
415.821	411.06
416.044	414.06
416.267	410.06
416.49	421.06
416.713	400.06
416.936	395.06
417.159	404.06
417.382	417.06
417.605	406.06
417.828	407.06
418.051	425.06
418.274	438.06
418.497	403.06
418.72	414.06
418.943	406.06
419.166	404.06
419.389	438.06
419.611	426.06
419.834	446.06
420.057	431.06
420.28	418.06
420.503	438.06
420.726	415.06
420.948	434.06
421.171	491.06
421.394	509.06
421.617	425.06
421.839	436.06
422.062	441.06
422.285	459.06
422.507	496.06
422.73	539.06
422.953	522.06
423.175	470.06
423.398	468.06
423.621	440.06
423.843	451.06
424.066	456.06
424.288	455.06
424.511	474.06
424.733	514.06
424.956	572.06
425.178	562.06
425.401	560.06
425.623	570.06
425.846	527.06
426.068	467.06
426.291	466.06
426.513	460.06
426.735	477.06
426.958	498.06
427.18	596.06
427.402	669.06
427.625	745.06
427.847	650.06
428.069	560.06
428.292	494.06
428.514	431.06
428.736	438.06
428.958	429.06
429.181	427.06
429.403	428.06
429.625	435.06
429.847	468.06
430.069	516.06
430.292	504.06
430.514	440.06
430.736	419.06
430.958	432.06
431.18	406.06
431.402	378.06
431.624	401.06
431.846	389.06
432.068	406.06
432.29	405.06
432.512	409.06
432.734	420.06
432.956	399.06
433.178	416.06
433.4	399.06
433.622	404.06
433.844	386.06
434.066	383.06
434.287	390.06
434.509	411.06
434.731	414.06
434.953	424.06
435.175	429.06
435.397	461.06
435.618	468.06
435.84	516.06
436.062	564.06
436.284	608.06
436.505	493.06
436.727	460.06
436.949	438.06
437.17	429.06
437.392	435.06
437.614	466.06
437.835	463.06
438.057	545.06
438.278	630.06
438.5	638.06
438.721	656.06
438.943	632.06
439.165	519.06
439.386	469.06
439.608	486.06
439.829	467.06
440.05	503.06
440.272	522.06
440.493	488.06
440.715	471.06
440.936	450.06
441.158	437.06
441.379	422.06
441.6	440.06
441.822	453.06
442.043	503.06
442.264	572.06
442.486	596.06
442.707	520.06
442.928	465.06
443.149	461.06
443.371	487.06
443.592	523.06
443.813	586.06
444.034	651.06
444.255	549.06
444.476	492.06
444.698	452.06
444.919	468.06
445.14	545.06
445.361	493.06
445.582	478.06
445.803	550.06
446.024	649.06
446.245	614.06
446.466	604.06
446.687	496.06
446.908	468.06
447.129	419.06
447.35	426.06
447.571	444.06
447.792	417.06
448.013	421.06
448.234	426.06
448.455	469.06
448.675	573.06
448.896	661.06
449.117	581.06
449.338	534.06
449.559	631.06
449.779	688.06
450	554.06
450.221	469.06
450.442	420.06
450.662	428.06
450.883	428.06
451.104	420.06
451.324	420.06
451.545	426.06
451.766	391.06
451.986	377.06
452.207	377.06
452.428	379.06
452.648	376.06
452.869	386.06
453.089	363.06
453.31	403.06
453.53	366.06
453.751	378.06
453.971	396.06
454.192	409.06
454.412	385.06
454.633	379.06
454.853	378.06
455.073	382.06
455.294	403.06
455.514	456.06
455.734	451.06
455.955	396.06
456.175	367.06
456.395	362.06
456.616	362.06
456.836	357.06
457.056	333.06
457.276	341.06
457.497	344.06
457.717	348.06
457.937	343.06
458.157	334.06
458.377	363.06
458.598	389.06
458.818	417.06
459.038	501.06
459.258	473.06
459.478	430.06
459.698	406.06
459.918	393.06
460.138	388.06
460.358	423.06
460.578	384.06
460.798	400.06
461.018	395.06
461.238	387.06
461.458	391.06
461.678	382.06
461.898	383.06
462.118	386.06
462.338	402.06
462.558	399.06
462.777	417.06
462.997	413.06
463.217	409.06
463.437	424.06
463.657	426.06
463.876	405.06
464.096	404.06
464.316	420.06
464.536	427.06
464.755	428.06
464.975	419.06
465.195	451.06
465.414	492.06
465.634	456.06
465.854	418.06
466.073	399.06
466.293	375.06
466.512	377.06
466.732	367.06
466.951	368.06
467.171	373.06
467.391	396.06
467.61	382.06
467.829	409.06
468.049	397.06
468.268	380.06
468.488	371.06
468.707	361.06
468.927	365.06
469.146	373.06
469.365	376.06
469.585	388.06
469.804	378.06
470.023	394.06
470.243	389.06
470.462	393.06
470.681	407.06
470.901	378.06
471.12	390.06
471.339	398.06
471.558	392.06
471.777	397.06
471.997	390.06
472.216	379.06
472.435	404.06
472.654	381.06
472.873	387.06
473.092	372.06
473.311	384.06
473.53	395.06
473.749	400.06
473.968	448.06
474.187	529.06
474.406	540.06
474.625	438.06
474.844	406.06
475.063	409.06
475.282	406.06
475.501	383.06
475.72	401.06
475.939	395.06
476.158	396.06
476.377	397.06
476.596	380.06
476.814	402.06
477.033	416.06
477.252	418.06
477.471	414.06
477.69	386.06
477.908	426.06
478.127	424.06
478.346	421.06
478.564	450.06
478.783	418.06
479.002	415.06
479.22	449.06
479.439	446.06
479.658	467.06
479.876	439.06
480.095	489.06
480.313	501.06
480.532	482.06
480.751	476.06
480.969	474.06
481.188	503.06
481.406	534.06
481.624	477.06
481.843	450.06
482.061	437.06
482.28	440.06
482.498	455.06
482.717	431.06
482.935	440.06
483.153	432.06
483.372	452.06
483.59	441.06
483.808	436.06
484.027	461.06
484.245	454.06
484.463	431.06
484.681	464.06
484.9	451.06
485.118	464.06
485.336	458.06
485.554	475.06
485.772	476.06
485.99	447.06
486.209	445.06
486.427	464.06
486.645	477.06
486.863	488.06
487.081	484.06
487.299	500.06
487.517	482.06
487.735	490.06
487.953	488.06
488.171	499.06
488.389	481.06
488.607	494.06
488.825	479.06
489.043	489.06
489.261	496.06
489.479	494.06
489.696	479.06
489.914	498.06
490.132	486.06
490.35	494.06
490.568	514.06
490.786	541.06
491.003	537.06
491.221	555.06
491.439	559.06
491.657	546.06
491.874	570.06
492.092	566.06
492.31	558.06
492.527	572.06
492.745	569.06
492.963	595.06
493.18	573.06
493.398	562.06
493.615	578.06
493.833	603.06
494.05	570.06
494.268	578.06
494.485	570.06
494.703	570.06
494.92	565.06
495.138	595.06
495.355	591.06
495.573	599.06
495.79	589.06
496.008	578.06
496.225	579.06
496.442	580.06
496.66	593.06
496.877	577.06
497.094	590.06
497.312	581.06
497.529	596.06
497.746	596.06
497.963	609.06
498.181	620.06
498.398	616.06
498.615	632.06
498.832	630.06
499.049	639.06
499.267	659.06
499.484	650.06
499.701	687.06
499.918	724.06
500.135	724.06
500.352	730.06
500.569	755.06
500.786	776.06
501.003	750.06
501.22	775.06
501.437	696.06
501.654	695.06
501.871	695.06
502.088	659.06
502.305	659.06
502.522	642.06
502.739	635.06
502.956	598.06
503.172	603.06
503.389	587.06
503.606	599.06
503.823	578.06
504.04	569.06
504.256	566.06
504.473	555.06
504.69	599.06
504.907	554.06
505.123	562.06
505.34	546.06
505.557	541.06
505.773	539.06
505.99	539.06
506.207	548.06
506.423	544.06
506.64	544.06
506.856	535.06
507.073	538.06
507.289	517.06
507.506	525.06
507.722	543.06
507.939	547.06
508.155	522.06
508.372	519.06
508.588	491.06
508.805	505.06
509.021	535.06
509.238	532.06
509.454	537.06
509.67	547.06
509.887	541.06
510.103	508.06
510.319	518.06
510.536	601.06
510.752	914.06
510.968	745.06
511.184	524.06
511.401	499.06
511.617	515.06
511.833	489.06
512.049	482.06
512.265	514.06
512.481	503.06
512.698	499.06
512.914	480.06
513.13	477.06
513.346	478.06
513.562	480.06
513.778	479.06
513.994	509.06
514.21	489.06
514.426	503.06
514.642	544.06
514.858	564.06
515.074	575.06
515.29	663.06
515.506	958.06
515.721	767.06
515.937	581.06
516.153	540.06
516.369	494.06
516.585	516.06
516.801	506.06
517.016	503.06
517.232	478.06
517.448	492.06
517.664	503.06
517.879	492.06
518.095	478.06
518.311	461.06
518.527	487.06
518.742	499.06
518.958	491.06
519.173	472.06
519.389	477.06
519.605	483.06
519.82	499.06
520.036	516.06
520.251	495.06
520.467	514.06
520.682	540.06
520.898	542.06
521.113	562.06
521.329	578.06
521.544	655.06
521.76	769.06
521.975	1191.06
522.19	1170.06
522.406	694.06
522.621	526.06
522.836	480.06
523.052	476.06
523.267	467.06
523.482	443.06
523.698	445.06
523.913	457.06
524.128	433.06
524.343	415.06
524.559	413.06
524.774	426.06
524.989	428.06
525.204	415.06
525.419	435.06
525.634	429.06
525.849	408.06
526.064	406.06
526.28	391.06
526.495	412.06
526.71	394.06
526.925	400.06
527.14	374.06
527.355	395.06
527.57	406.06
527.785	381.06
527.999	390.06
528.214	388.06
528.429	392.06
528.644	399.06
528.859	410.06
529.074	394.06
529.289	446.06
529.503	469.06
529.718	462.06
529.933	444.06
530.148	421.06
530.363	374.06
530.577	376.06
530.792	394.06
531.007	407.06
531.221	397.06
531.436	394.06
531.651	402.06
531.865	377.06
532.08	381.06
532.295	384.06
532.509	381.06
532.724	350.06
532.938	372.06
533.153	383.06
533.367	380.06
533.582	382.06
533.796	400.06
534.011	378.06
534.225	356.06
534.44	380.06
534.654	372.06
534.868	383.06
535.083	376.06
535.297	356.06
535.511	379.06
535.726	394.06
535.94	373.06
536.154	361.06
536.369	364.06
536.583	350.06
536.797	370.06
537.011	372.06
537.225	367.06
537.44	374.06
537.654	380.06
537.868	358.06
538.082	356.06
538.296	370.06
538.51	359.06
538.724	364.06
538.938	374.06
539.153	370.06
539.367	388.06
539.581	381.06
539.795	367.06
540.009	352.06
540.222	368.06
540.436	380.06
540.65	372.06
540.864	378.06
541.078	374.06
541.292	400.06
541.506	392.06
541.72	392.06
541.934	366.06
542.147	377.06
542.361	376.06
542.575	354.06
542.789	354.06
543.002	376.06
543.216	381.06
543.43	379.06
543.644	385.06
543.857	399.06
544.071	385.06
544.285	384.06
544.498	380.06
544.712	374.06
544.925	375.06
545.139	383.06
545.352	383.06
545.566	372.06
545.779	374.06
545.993	374.06
546.206	389.06
546.42	371.06
546.633	343.06
546.847	359.06
547.06	374.06
547.274	354.06
547.487	374.06
547.7	356.06
547.914	370.06
548.127	350.06
548.34	344.06
548.554	369.06
548.767	349.06
548.98	366.06
549.193	361.06
549.407	356.06
549.62	354.06
549.833	357.06
550.046	348.06
550.259	348.06
550.473	331.06
550.686	356.06
550.899	347.06
551.112	336.06
551.325	328.06
551.538	343.06
551.751	324.06
551.964	321.06
552.177	343.06
552.39	365.06
552.603	364.06
552.816	355.06
553.029	347.06
553.242	365.06
553.455	364.06
553.667	376.06
553.88	376.06
554.093	357.06
554.306	359.06
554.519	345.06
554.732	350.06
554.944	363.06
555.157	348.06
555.37	333.06
555.583	354.06
555.795	338.06
556.008	338.06
556.221	331.06
556.433	328.06
556.646	354.06
556.859	330.06
557.071	331.06
557.284	329.06
557.496	329.06
557.709	336.06
557.921	333.06
558.134	340.06
558.346	318.06
558.559	298.06
558.771	325.06
558.984	319.06
559.196	297.06
559.409	316.06
559.621	307.06
559.833	290.06
560.046	299.06
560.258	316.06
560.47	325.06
560.683	334.06
560.895	311.06
561.107	295.06
561.32	318.06
561.532	311.06
561.744	318.06
561.956	306.06
562.168	331.06
562.381	308.06
562.593	320.06
562.805	316.06
563.017	314.06
563.229	320.06
563.441	310.06
563.653	290.06
563.865	297.06
564.077	326.06
564.289	319.06
564.501	317.06
564.713	324.06
564.925	300.06
565.137	326.06
565.349	330.06
565.561	327.06
565.773	331.06
565.985	326.06
566.197	335.06
566.408	349.06
566.62	368.06
566.832	344.06
567.044	365.06
567.255	359.06
567.467	391.06
567.679	364.06
567.891	365.06
568.102	362.06
568.314	363.06
568.526	375.06
568.737	346.06
568.949	338.06
569.161	343.06
569.372	333.06
569.584	314.06
569.795	307.06
570.007	309.06
570.218	341.06
570.43	330.06
570.641	319.06
570.853	299.06
571.064	297.06
571.276	288.06
571.487	267.06
571.698	291.06
571.91	281.06
572.121	281.06
572.333	292.06
572.544	286.06
572.755	283.06
572.966	259.06
573.178	280.06
573.389	276.06
573.6	270.06
573.811	264.06
574.023	264.06
574.234	271.06
574.445	270.06
574.656	271.06
574.867	270.06
575.078	264.06
575.289	268.06
575.501	289.06
575.712	271.06
575.923	264.06
576.134	268.06
576.345	268.06
576.556	269.06
576.767	271.06
576.978	276.06
577.188	267.06
577.399	281.06
577.61	272.06
577.821	274.06
578.032	251.06
578.243	278.06
578.454	419.06
578.665	341.06
578.875	269.06
579.086	261.06
579.297	243.06
579.508	255.06
579.718	255.06
579.929	261.06
580.14	245.06
580.35	234.06
580.561	266.06
580.772	254.06
580.982	243.06
581.193	246.06
581.403	245.06
581.614	250.06
581.825	235.06
582.035	255.06
582.246	257.06
582.456	243.06
582.667	252.06
582.877	236.06
583.087	229.06
583.298	247.06
583.508	249.06
583.719	234.06
583.929	244.06
584.139	222.06
584.35	232.06
584.56	244.06
584.77	248.06
584.981	235.06
585.191	229.06
585.401	232.06
585.611	223.06
585.821	230.06
586.032	254.06
586.242	256.06
586.452	242.06
586.662	235.06
586.872	239.06
587.082	246.06
587.292	239.06
587.502	230.06
587.713	221.06
587.923	240.06
588.133	238.06
588.343	233.06
588.553	226.06
588.762	247.06
588.972	216.06
589.182	235.06
589.392	233.06
589.602	230.06
589.812	222.06
590.022	240.06
590.232	230.06
590.441	240.06
590.651	231.06
590.861	223.06
591.071	248.06
591.281	235.06
591.49	241.06
591.7	226.06
591.91	230.06
592.119	225.06
592.329	243.06
592.539	243.06
592.748	240.06
592.958	247.06
593.167	247.06
593.377	243.06
593.587	247.06
593.796	235.06
594.006	248.06
594.215	245.06
594.424	240.06
594.634	250.06
594.843	244.06
595.053	237.06
595.262	245.06
595.472	251.06
595.681	231.06
595.89	234.06
596.1	226.06
596.309	227.06
596.518	219.06
596.727	212.06
596.937	222.06
597.146	223.06
597.355	226.06
597.564	235.06
597.774	229.06
597.983	232.06
598.192	218.06
598.401	211.06
598.61	210.06
598.819	216.06
599.028	228.06
599.237	212.06
599.446	211.06
599.655	213.06
599.864	215.06
600.073	213.06
600.282	226.06
600.491	215.06
600.7	222.06
600.909	215.06
601.118	213.06
601.327	215.06
601.536	216.06
601.745	207.06
601.953	214.06
602.162	203.06
602.371	229.06
602.58	216.06
602.789	213.06
602.997	192.06
603.206	206.06
603.415	210.06
603.623	222.06
603.832	217.06
604.041	197.06
604.249	208.06
604.458	206.06
604.666	205.06
604.875	205.06
605.084	227.06
605.292	211.06
605.501	199.06
605.709	201.06
605.918	219.06
606.126	214.06
606.334	209.06
606.543	207.06
606.751	212.06
606.96	191.06
607.168	207.06
607.376	207.06
607.585	217.06
607.793	210.06
608.001	197.06
608.21	198.06
608.418	218.06
608.626	210.06
608.834	190.06
609.043	207.06
609.251	202.06
609.459	202.06
609.667	199.06
609.875	213.06
610.083	214.06
610.291	218.06
610.499	194.06
610.707	197.06
610.916	195.06
611.124	216.06
611.332	222.06
611.54	221.06
611.748	204.06
611.955	204.06
612.163	208.06
612.371	203.06
612.579	206.06
612.787	194.06
612.995	212.06
613.203	215.06
613.411	200.06
613.618	191.06
613.826	216.06
614.034	199.06
614.242	198.06
614.449	194.06
614.657	216.06
614.865	211.06
615.072	200.06
615.28	208.06
615.488	200.06
615.695	201.06
615.903	192.06
616.111	201.06
616.318	208.06
616.526	194.06
616.733	198.06
616.941	207.06
617.148	200.06
617.356	206.06
617.563	189.06
617.771	204.06
617.978	186.06
618.185	200.06
618.393	193.06
618.6	205.06
618.807	190.06
619.015	188.06
619.222	188.06
619.429	206.06
619.637	178.06
619.844	196.06
620.051	191.06
620.258	191.06
620.466	182.06
620.673	175.06
620.88	190.06
621.087	182.06
621.294	190.06
621.501	186.06
621.708	201.06
621.915	189.06
622.122	195.06
622.329	186.06
622.536	189.06
622.743	183.06
622.95	194.06
623.157	189.06
623.364	184.06
623.571	182.06
623.778	194.06
623.985	202.06
624.192	190.06
624.399	195.06
624.606	190.06
624.812	170.06
625.019	172.06
625.226	187.06
625.433	188.06
625.639	181.06
625.846	197.06
626.053	180.06
626.259	166.06
626.466	164.06
626.673	174.06
626.879	170.06
627.086	179.06
627.293	197.06
627.499	158.06
627.706	184.06
627.912	167.06
628.119	189.06
628.325	182.06
628.532	192.06
628.738	174.06
628.945	173.06
629.151	183.06
629.357	172.06
629.564	165.06
629.77	180.06
629.976	163.06
630.183	173.06
630.389	176.06
630.595	167.06
630.802	151.06
631.008	164.06
631.214	182.06
631.42	180.06
631.627	181.06
631.833	170.06
632.039	165.06
632.245	160.06
632.451	154.06
632.657	164.06
632.863	159.06
633.069	170.06
633.275	165.06
633.481	146.06
633.688	169.06
633.893	175.06
634.099	155.06
634.305	158.06
634.511	158.06
634.717	170.06
634.923	157.06
635.129	153.06
635.335	162.06
635.541	150.06
635.747	165.06
635.952	156.06
636.158	168.06
636.364	165.06
636.57	186.06
636.775	157.06
636.981	157.06
637.187	155.06
637.392	156.06
637.598	156.06
637.804	157.06
638.009	161.06
638.215	153.06
638.421	168.06
638.626	144.06
638.832	158.06
639.037	158.06
639.243	157.06
639.448	152.06
639.654	163.06
639.859	148.06
640.065	139.06
640.27	161.06
640.475	143.06
640.681	164.06
640.886	160.06
641.091	142.06
641.297	160.06
641.502	158.06
641.707	162.06
641.913	155.06
642.118	145.06
642.323	159.06
642.528	142.06
642.733	139.06
642.939	159.06
643.144	150.06
643.349	149.06
643.554	149.06
643.759	154.06
643.964	153.06
644.169	148.06
644.374	145.06
644.579	163.06
644.784	157.06
644.989	159.06
645.194	145.06
645.399	152.06
645.604	164.06
645.809	146.06
646.014	142.06
646.219	123.06
646.423	142.06
646.628	152.06
646.833	140.06
647.038	147.06
647.243	157.06
647.447	151.06
647.652	163.06
647.857	145.06
648.062	144.06
648.266	129.06
648.471	153.06
648.676	151.06
648.88	154.06
649.085	144.06
649.289	140.06
649.494	141.06
649.698	167.06
649.903	164.06
650.107	150.06
650.312	153.06
650.516	134.06
650.721	127.06
650.925	143.06
651.13	132.06
651.334	132.06
651.539	154.06
651.743	144.06
651.947	138.06
652.152	136.06
652.356	134.06
652.56	130.06
652.764	140.06
652.969	132.06
653.173	126.06
653.377	134.06
653.581	132.06
653.785	132.06
653.99	144.06
654.194	132.06
654.398	135.06
654.602	135.06
654.806	130.06
655.01	130.06
655.214	134.06
655.418	118.06
655.622	139.06
655.826	119.06
656.03	116.06
656.234	125.06
656.438	123.06
656.642	122.06
656.846	140.06
657.049	125.06
657.253	119.06
657.457	117.06
657.661	107.06
657.865	129.06
658.068	94.06
658.272	126.06
658.476	102.06
658.68	109.06
658.883	103.06
659.087	104.06
659.291	95.06
659.494	94.06
659.698	105.06
659.901	107.06
660.105	95.06
660.309	96.06
660.512	93.06
660.716	87.06
660.919	102.06
661.123	96.06
661.326	96.06
661.53	90.06
661.733	90.06
661.936	97.06
662.14	84.06
662.343	98.06
662.546	85.06
662.75	84.06
662.953	88.06
663.156	93.06
663.36	99.06
663.563	91.06
663.766	73.06
663.969	79.06
664.173	82.06
664.376	86.06
664.579	95.06
664.782	98.06
664.985	93.06
665.188	83.06
665.391	93.06
665.594	79.06
665.797	92.06
666	92.06
666.203	87.06
666.406	78.06
666.609	92.06
666.812	83.06
667.015	87.06
667.218	96.06
667.421	87.06
667.624	79.06
667.827	76.06
668.03	92.06
668.232	91.06
668.435	76.06
668.638	79.06
668.841	75.06
669.043	80.06
669.246	72.06
669.449	92.06
669.651	88.06
669.854	86.06
670.057	71.06
670.259	90.06
670.462	72.06
670.665	81.06
670.867	94.06
671.07	79.06
671.272	84.06
671.475	88.06
671.677	83.06
671.88	89.06
672.082	83.06
672.284	94.06
672.487	85.06
672.689	74.06
672.892	92.06
