Data from 1971.PennyLincolnUp.Lamp.En5.5.200Scan.071719.P1.Scan 2. Changed Angle._HRD10591_15-24-49-842.txt Node
Date: Thu Jul 18 15:24:49 EDT 2019
User: cochatt
Spectrometer: HR+D1059
Trigger mode: 1
Integration Time (sec): 1.000000E-1
Scans to average: 1
Electric dark correction enabled: true
Nonlinearity correction enabled: false
Boxcar width: 0
XAxis mode: Wavelengths
Number of Pixels in Spectrum: 2048
>>>>>Begin Spectral Data<<<<<
223.165	-14.25
223.4	-14.25
223.635	-14.25
223.869	-12.25
224.104	-19.25
224.338	-13.25
224.573	-21.25
224.808	-15.25
225.042	-18.25
225.277	-5.25
225.511	-15.25
225.746	-3.25
225.98	8.75
226.215	16.75
226.449	17.75
226.683	40.75
226.918	22.75
227.152	30.75
227.387	37.75
227.621	35.75
227.856	46.75
228.09	47.75
228.324	47.75
228.559	53.75
228.793	67.75
229.027	90.75
229.262	128.75
229.496	150.75
229.73	174.75
229.964	203.75
230.199	146.75
230.433	126.75
230.667	123.75
230.901	128.75
231.136	117.75
231.37	118.75
231.604	123.75
231.838	115.75
232.072	108.75
232.306	135.75
232.541	119.75
232.775	119.75
233.009	120.75
233.243	129.75
233.477	124.75
233.711	116.75
233.945	130.75
234.179	131.75
234.413	115.75
234.647	129.75
234.881	131.75
235.115	133.75
235.349	123.75
235.583	134.75
235.817	136.75
236.051	153.75
236.285	144.75
236.519	139.75
236.753	147.75
236.987	162.75
237.221	226.75
237.455	271.75
237.689	216.75
237.922	152.75
238.156	145.75
238.39	133.75
238.624	144.75
238.858	130.75
239.091	134.75
239.325	137.75
239.559	143.75
239.793	146.75
240.027	149.75
240.26	156.75
240.494	176.75
240.728	154.75
240.961	181.75
241.195	163.75
241.429	157.75
241.662	139.75
241.896	164.75
242.13	152.75
242.363	155.75
242.597	149.75
242.83	131.75
243.064	135.75
243.298	153.75
243.531	146.75
243.765	130.75
243.998	156.75
244.232	168.75
244.465	160.75
244.699	160.75
244.932	169.75
245.166	152.75
245.399	171.75
245.633	162.75
245.866	150.75
246.099	162.75
246.333	156.75
246.566	144.75
246.8	160.75
247.033	175.75
247.266	182.75
247.5	186.75
247.733	173.75
247.966	178.75
248.2	179.75
248.433	202.75
248.666	184.75
248.899	213.75
249.133	220.75
249.366	232.75
249.599	219.75
249.832	202.75
250.066	197.75
250.299	214.75
250.532	231.75
250.765	237.75
250.998	251.75
251.231	262.75
251.465	258.75
251.698	230.75
251.931	233.75
252.164	222.75
252.397	221.75
252.63	218.75
252.863	231.75
253.096	245.75
253.329	268.75
253.562	255.75
253.795	248.75
254.028	240.75
254.261	241.75
254.494	258.75
254.727	296.75
254.96	346.75
255.193	323.75
255.426	301.75
255.659	270.75
255.892	267.75
256.124	278.75
256.357	271.75
256.59	246.75
256.823	249.75
257.056	238.75
257.289	235.75
257.521	233.75
257.754	233.75
257.987	236.75
258.22	230.75
258.452	234.75
258.685	226.75
258.918	226.75
259.151	234.75
259.383	242.75
259.616	234.75
259.849	256.75
260.081	251.75
260.314	291.75
260.547	298.75
260.779	270.75
261.012	267.75
261.244	249.75
261.477	244.75
261.71	242.75
261.942	258.75
262.175	264.75
262.407	259.75
262.64	238.75
262.872	242.75
263.105	229.75
263.337	231.75
263.57	238.75
263.802	228.75
264.035	224.75
264.267	225.75
264.499	222.75
264.732	218.75
264.964	234.75
265.197	231.75
265.429	249.75
265.661	227.75
265.894	225.75
266.126	233.75
266.358	227.75
266.591	233.75
266.823	234.75
267.055	228.75
267.287	244.75
267.52	251.75
267.752	254.75
267.984	230.75
268.216	238.75
268.448	241.75
268.681	244.75
268.913	268.75
269.145	306.75
269.377	308.75
269.609	288.75
269.841	300.75
270.073	305.75
270.306	312.75
270.538	361.75
270.77	359.75
271.002	321.75
271.234	318.75
271.466	354.75
271.698	345.75
271.93	348.75
272.162	351.75
272.394	367.75
272.626	354.75
272.858	324.75
273.09	295.75
273.322	292.75
273.553	282.75
273.785	293.75
274.017	283.75
274.249	280.75
274.481	282.75
274.713	269.75
274.945	281.75
275.176	274.75
275.408	278.75
275.64	260.75
275.872	287.75
276.104	285.75
276.335	277.75
276.567	297.75
276.799	327.75
277.031	344.75
277.262	354.75
277.494	334.75
277.726	341.75
277.957	312.75
278.189	275.75
278.421	275.75
278.652	270.75
278.884	280.75
279.115	284.75
279.347	267.75
279.579	278.75
279.81	262.75
280.042	282.75
280.273	287.75
280.505	284.75
280.736	270.75
280.968	268.75
281.199	265.75
281.431	279.75
281.662	272.75
281.894	267.75
282.125	271.75
282.356	297.75
282.588	312.75
282.819	327.75
283.051	310.75
283.282	264.75
283.513	282.75
283.745	278.75
283.976	271.75
284.207	281.75
284.439	288.75
284.67	277.75
284.901	282.75
285.132	291.75
285.364	270.75
285.595	272.75
285.826	279.75
286.057	301.75
286.288	263.75
286.52	283.75
286.751	277.75
286.982	291.75
287.213	289.75
287.444	288.75
287.675	288.75
287.906	290.75
288.138	315.75
288.369	302.75
288.6	312.75
288.831	303.75
289.062	303.75
289.293	286.75
289.524	300.75
289.755	290.75
289.986	288.75
290.217	292.75
290.448	279.75
290.679	310.75
290.91	290.75
291.141	295.75
291.371	295.75
291.602	281.75
291.833	286.75
292.064	282.75
292.295	291.75
292.526	306.75
292.757	294.75
292.987	287.75
293.218	284.75
293.449	296.75
293.68	297.75
293.91	290.75
294.141	280.75
294.372	296.75
294.603	287.75
294.833	303.75
295.064	285.75
295.295	287.75
295.525	299.75
295.756	284.75
295.987	323.75
296.217	347.75
296.448	339.75
296.679	314.75
296.909	286.75
297.14	290.75
297.37	295.75
297.601	306.75
297.831	282.75
298.062	287.75
298.292	296.75
298.523	298.75
298.753	300.75
298.984	301.75
299.214	299.75
299.445	302.75
299.675	299.75
299.905	342.75
300.136	312.75
300.366	306.75
300.597	292.75
300.827	313.75
301.057	342.75
301.288	328.75
301.518	331.75
301.748	315.75
301.979	327.75
302.209	307.75
302.439	312.75
302.669	324.75
302.9	331.75
303.13	311.75
303.36	331.75
303.59	340.75
303.82	346.75
304.051	338.75
304.281	335.75
304.511	322.75
304.741	324.75
304.971	313.75
305.201	340.75
305.431	335.75
305.661	338.75
305.891	330.75
306.121	339.75
306.352	336.75
306.582	346.75
306.812	332.75
307.042	358.75
307.272	335.75
307.502	332.75
307.731	367.75
307.961	352.75
308.191	343.75
308.421	330.75
308.651	325.75
308.881	333.75
309.111	335.75
309.341	356.75
309.571	374.75
309.8	363.75
310.03	400.75
310.26	400.75
310.49	381.75
310.72	399.75
310.949	426.75
311.179	436.75
311.409	413.75
311.639	415.75
311.868	402.75
312.098	399.75
312.328	410.75
312.557	453.75
312.787	436.75
313.017	436.75
313.246	421.75
313.476	396.75
313.706	391.75
313.935	394.75
314.165	407.75
314.394	430.75
314.624	447.75
314.853	422.75
315.083	413.75
315.312	382.75
315.542	378.75
315.771	397.75
316.001	382.75
316.23	391.75
316.46	398.75
316.689	410.75
316.919	412.75
317.148	439.75
317.377	417.75
317.607	404.75
317.836	383.75
318.065	386.75
318.295	398.75
318.524	403.75
318.753	396.75
318.983	389.75
319.212	404.75
319.441	410.75
319.67	413.75
319.9	412.75
320.129	407.75
320.358	399.75
320.587	392.75
320.816	400.75
321.046	426.75
321.275	437.75
321.504	436.75
321.733	430.75
321.962	449.75
322.191	460.75
322.42	484.75
322.649	501.75
322.878	514.75
323.108	504.75
323.337	565.75
323.566	566.75
323.795	634.75
324.024	686.75
324.253	853.75
324.482	1286.75
324.71	1951.75
324.939	2858.75
325.168	2445.75
325.397	1248.75
325.626	846.75
325.855	662.75
326.084	602.75
326.313	594.75
326.542	592.75
326.77	636.75
326.999	785.75
327.228	1092.75
327.457	1732.75
327.686	2071.75
327.914	1387.75
328.143	928.75
328.372	760.75
328.6	728.75
328.829	662.75
329.058	700.75
329.287	695.75
329.515	667.75
329.744	584.75
329.972	582.75
330.201	617.75
330.43	667.75
330.658	703.75
330.887	742.75
331.115	705.75
331.344	615.75
331.572	582.75
331.801	570.75
332.03	549.75
332.258	508.75
332.486	486.75
332.715	496.75
332.943	470.75
333.172	485.75
333.4	470.75
333.629	475.75
333.857	511.75
334.085	534.75
334.314	530.75
334.542	570.75
334.771	613.75
334.999	547.75
335.227	515.75
335.455	474.75
335.684	484.75
335.912	478.75
336.14	471.75
336.369	469.75
336.597	481.75
336.825	479.75
337.053	463.75
337.281	458.75
337.51	454.75
337.738	478.75
337.966	478.75
338.194	486.75
338.422	471.75
338.65	473.75
338.878	445.75
339.106	444.75
339.334	461.75
339.562	438.75
339.79	431.75
340.018	440.75
340.246	468.75
340.474	463.75
340.702	452.75
340.93	426.75
341.158	430.75
341.386	456.75
341.614	460.75
341.842	446.75
342.07	460.75
342.298	434.75
342.526	441.75
342.754	412.75
342.981	432.75
343.209	421.75
343.437	427.75
343.665	442.75
343.893	434.75
344.12	461.75
344.348	451.75
344.576	455.75
344.804	459.75
345.031	487.75
345.259	483.75
345.487	487.75
345.714	445.75
345.942	458.75
346.17	454.75
346.397	437.75
346.625	438.75
346.853	432.75
347.08	448.75
347.308	441.75
347.535	476.75
347.763	478.75
347.99	455.75
348.218	467.75
348.445	479.75
348.673	458.75
348.9	436.75
349.128	452.75
349.355	430.75
349.583	434.75
349.81	421.75
350.037	431.75
350.265	431.75
350.492	435.75
350.72	413.75
350.947	450.75
351.174	454.75
351.402	484.75
351.629	456.75
351.856	431.75
352.083	466.75
352.311	479.75
352.538	465.75
352.765	499.75
352.992	450.75
353.22	477.75
353.447	458.75
353.674	451.75
353.901	426.75
354.128	430.75
354.355	417.75
354.583	428.75
354.81	410.75
355.037	394.75
355.264	403.75
355.491	425.75
355.718	397.75
355.945	400.75
356.172	407.75
356.399	426.75
356.626	402.75
356.853	404.75
357.08	413.75
357.307	406.75
357.534	389.75
357.761	398.75
357.988	415.75
358.215	416.75
358.441	434.75
358.668	416.75
358.895	409.75
359.122	422.75
359.349	419.75
359.576	480.75
359.802	482.75
360.029	538.75
360.256	535.75
360.483	526.75
360.709	474.75
360.936	459.75
361.163	474.75
361.39	471.75
361.616	448.75
361.843	449.75
362.07	458.75
362.296	446.75
362.523	454.75
362.749	456.75
362.976	462.75
363.203	455.75
363.429	427.75
363.656	446.75
363.882	436.75
364.109	422.75
364.335	440.75
364.562	456.75
364.788	438.75
365.015	427.75
365.241	414.75
365.468	450.75
365.694	427.75
365.92	444.75
366.147	439.75
366.373	439.75
366.599	414.75
366.826	431.75
367.052	424.75
367.278	401.75
367.505	415.75
367.731	450.75
367.957	429.75
368.184	437.75
368.41	436.75
368.636	441.75
368.862	437.75
369.089	411.75
369.315	421.75
369.541	434.75
369.767	416.75
369.993	432.75
370.219	424.75
370.445	414.75
370.672	396.75
370.898	430.75
371.124	402.75
371.35	427.75
371.576	410.75
371.802	432.75
372.028	445.75
372.254	412.75
372.48	423.75
372.706	415.75
372.932	426.75
373.158	427.75
373.384	434.75
373.61	418.75
373.835	417.75
374.061	414.75
374.287	419.75
374.513	432.75
374.739	420.75
374.965	423.75
375.191	445.75
375.416	421.75
375.642	427.75
375.868	427.75
376.094	419.75
376.319	413.75
376.545	408.75
376.771	418.75
376.997	423.75
377.222	421.75
377.448	424.75
377.674	406.75
377.899	416.75
378.125	393.75
378.35	421.75
378.576	418.75
378.802	398.75
379.027	408.75
379.253	430.75
379.478	399.75
379.704	408.75
379.929	432.75
380.155	424.75
380.38	411.75
380.606	429.75
380.831	419.75
381.057	436.75
381.282	435.75
381.507	416.75
381.733	415.75
381.958	419.75
382.184	430.75
382.409	441.75
382.634	411.75
382.86	435.75
383.085	454.75
383.31	436.75
383.535	447.75
383.761	445.75
383.986	442.75
384.211	426.75
384.436	438.75
384.662	430.75
384.887	437.75
385.112	427.75
385.337	454.75
385.562	451.75
385.787	446.75
386.013	456.75
386.238	464.75
386.463	467.75
386.688	467.75
386.913	466.75
387.138	462.75
387.363	463.75
387.588	449.75
387.813	458.75
388.038	439.75
388.263	433.75
388.488	469.75
388.713	459.75
388.938	465.75
389.163	466.75
389.387	460.75
389.612	443.75
389.837	448.75
390.062	460.75
390.287	448.75
390.512	446.75
390.736	459.75
390.961	438.75
391.186	463.75
391.411	477.75
391.636	461.75
391.86	455.75
392.085	445.75
392.31	464.75
392.534	468.75
392.759	467.75
392.984	469.75
393.208	473.75
393.433	474.75
393.658	472.75
393.882	471.75
394.107	447.75
394.331	463.75
394.556	455.75
394.78	485.75
395.005	454.75
395.229	463.75
395.454	471.75
395.678	464.75
395.903	469.75
396.127	519.75
396.352	504.75
396.576	484.75
396.801	480.75
397.025	469.75
397.249	487.75
397.474	483.75
397.698	488.75
397.922	501.75
398.147	528.75
398.371	522.75
398.595	525.75
398.82	528.75
399.044	518.75
399.268	491.75
399.492	562.75
399.717	585.75
399.941	609.75
400.165	624.75
400.389	638.75
400.613	580.75
400.837	554.75
401.062	546.75
401.286	526.75
401.51	516.75
401.734	537.75
401.958	517.75
402.182	536.75
402.406	536.75
402.63	548.75
402.854	547.75
403.078	549.75
403.302	534.75
403.526	560.75
403.75	534.75
403.974	550.75
404.198	524.75
404.422	574.75
404.645	579.75
404.869	574.75
405.093	592.75
405.317	645.75
405.541	687.75
405.765	639.75
405.988	585.75
406.212	605.75
406.436	637.75
406.66	638.75
406.883	614.75
407.107	640.75
407.331	676.75
407.555	739.75
407.778	732.75
408.002	654.75
408.226	612.75
408.449	610.75
408.673	605.75
408.896	648.75
409.12	674.75
409.344	656.75
409.567	587.75
409.791	568.75
410.014	545.75
410.238	528.75
410.461	528.75
410.685	575.75
410.908	575.75
411.132	639.75
411.355	668.75
411.578	661.75
411.802	586.75
412.025	584.75
412.249	589.75
412.472	610.75
412.695	634.75
412.919	608.75
413.142	593.75
413.365	559.75
413.589	522.75
413.812	546.75
414.035	548.75
414.258	519.75
414.482	537.75
414.705	534.75
414.928	503.75
415.151	540.75
415.374	548.75
415.597	512.75
415.821	518.75
416.044	542.75
416.267	521.75
416.49	549.75
416.713	534.75
416.936	532.75
417.159	540.75
417.382	526.75
417.605	525.75
417.828	576.75
418.051	562.75
418.274	564.75
418.497	543.75
418.72	526.75
418.943	506.75
419.166	551.75
419.389	590.75
419.611	567.75
419.834	578.75
420.057	571.75
420.28	566.75
420.503	574.75
420.726	585.75
420.948	613.75
421.171	641.75
421.394	639.75
421.617	596.75
421.839	581.75
422.062	568.75
422.285	596.75
422.507	678.75
422.73	744.75
422.953	709.75
423.175	620.75
423.398	606.75
423.621	596.75
423.843	638.75
424.066	636.75
424.288	613.75
424.511	629.75
424.733	711.75
424.956	790.75
425.178	762.75
425.401	786.75
425.623	791.75
425.846	661.75
426.068	617.75
426.291	600.75
426.513	647.75
426.735	655.75
426.958	705.75
427.18	806.75
427.402	947.75
427.625	1073.75
427.847	951.75
428.069	805.75
428.292	718.75
428.514	633.75
428.736	618.75
428.958	628.75
429.181	598.75
429.403	586.75
429.625	587.75
429.847	638.75
430.069	738.75
430.292	684.75
430.514	632.75
430.736	608.75
430.958	573.75
431.18	577.75
431.402	560.75
431.624	538.75
431.846	537.75
432.068	526.75
432.29	557.75
432.512	542.75
432.734	561.75
432.956	577.75
433.178	569.75
433.4	557.75
433.622	541.75
433.844	566.75
434.066	538.75
434.287	540.75
434.509	554.75
434.731	535.75
434.953	567.75
435.175	595.75
435.397	625.75
435.618	643.75
435.84	685.75
436.062	806.75
436.284	866.75
436.505	735.75
436.727	668.75
436.949	606.75
437.17	612.75
437.392	602.75
437.614	604.75
437.835	647.75
438.057	789.75
438.278	918.75
438.5	884.75
438.721	958.75
438.943	925.75
439.165	746.75
439.386	675.75
439.608	644.75
439.829	667.75
440.05	688.75
440.272	781.75
440.493	711.75
440.715	656.75
440.936	640.75
441.158	612.75
441.379	597.75
441.6	623.75
441.822	645.75
442.043	688.75
442.264	774.75
442.486	828.75
442.707	720.75
442.928	667.75
443.149	656.75
443.371	675.75
443.592	722.75
443.813	840.75
444.034	883.75
444.255	750.75
444.476	651.75
444.698	640.75
444.919	620.75
445.14	773.75
445.361	699.75
445.582	690.75
445.803	778.75
446.024	896.75
446.245	902.75
446.466	856.75
446.687	715.75
446.908	673.75
447.129	613.75
447.35	617.75
447.571	572.75
447.792	592.75
448.013	591.75
448.234	624.75
448.455	674.75
448.675	816.75
448.896	939.75
449.117	800.75
449.338	770.75
449.559	880.75
449.779	986.75
450	795.75
450.221	690.75
450.442	631.75
450.662	608.75
450.883	588.75
451.104	631.75
451.324	618.75
451.545	592.75
451.766	582.75
451.986	558.75
452.207	523.75
452.428	520.75
452.648	539.75
452.869	539.75
453.089	531.75
453.31	568.75
453.53	561.75
453.751	521.75
453.971	555.75
454.192	568.75
454.412	574.75
454.633	519.75
454.853	546.75
455.073	526.75
455.294	607.75
455.514	670.75
455.734	631.75
455.955	541.75
456.175	520.75
456.395	516.75
456.616	487.75
456.836	482.75
457.056	476.75
457.276	472.75
457.497	497.75
457.717	510.75
457.937	497.75
458.157	504.75
458.377	520.75
458.598	554.75
458.818	613.75
459.038	722.75
459.258	740.75
459.478	630.75
459.698	546.75
459.918	544.75
460.138	524.75
460.358	540.75
460.578	532.75
460.798	553.75
461.018	559.75
461.238	528.75
461.458	559.75
461.678	533.75
461.898	518.75
462.118	503.75
462.338	555.75
462.558	552.75
462.777	528.75
462.997	558.75
463.217	554.75
463.437	603.75
463.657	580.75
463.876	569.75
464.096	558.75
464.316	558.75
464.536	568.75
464.755	601.75
464.975	612.75
465.195	640.75
465.414	784.75
465.634	690.75
465.854	593.75
466.073	576.75
466.293	570.75
466.512	541.75
466.732	535.75
466.951	547.75
467.171	501.75
467.391	530.75
467.61	543.75
467.829	572.75
468.049	556.75
468.268	535.75
468.488	564.75
468.707	528.75
468.927	499.75
469.146	518.75
469.365	551.75
469.585	541.75
469.804	539.75
470.023	554.75
470.243	542.75
470.462	556.75
470.681	582.75
470.901	558.75
471.12	542.75
471.339	551.75
471.558	553.75
471.777	556.75
471.997	543.75
472.216	581.75
472.435	595.75
472.654	577.75
472.873	553.75
473.092	545.75
473.311	551.75
473.53	524.75
473.749	546.75
473.968	594.75
474.187	745.75
474.406	764.75
474.625	631.75
474.844	584.75
475.063	558.75
475.282	558.75
475.501	555.75
475.72	554.75
475.939	568.75
476.158	551.75
476.377	568.75
476.596	562.75
476.814	579.75
477.033	591.75
477.252	586.75
477.471	613.75
477.69	610.75
477.908	583.75
478.127	633.75
478.346	593.75
478.564	628.75
478.783	599.75
479.002	632.75
479.22	618.75
479.439	615.75
479.658	648.75
479.876	638.75
480.095	649.75
480.313	724.75
480.532	662.75
480.751	644.75
480.969	670.75
481.188	759.75
481.406	855.75
481.624	717.75
481.843	713.75
482.061	682.75
482.28	653.75
482.498	632.75
482.717	658.75
482.935	651.75
483.153	627.75
483.372	650.75
483.59	693.75
483.808	661.75
484.027	646.75
484.245	634.75
484.463	645.75
484.681	669.75
484.9	654.75
485.118	667.75
485.336	666.75
485.554	683.75
485.772	676.75
485.99	686.75
486.209	677.75
486.427	666.75
486.645	703.75
486.863	724.75
487.081	710.75
487.299	739.75
487.517	703.75
487.735	738.75
487.953	726.75
488.171	732.75
488.389	726.75
488.607	715.75
488.825	718.75
489.043	700.75
489.261	725.75
489.479	716.75
489.696	727.75
489.914	744.75
490.132	738.75
490.35	756.75
490.568	760.75
490.786	784.75
491.003	776.75
491.221	788.75
491.439	806.75
491.657	799.75
491.874	825.75
492.092	840.75
492.31	853.75
492.527	820.75
492.745	856.75
492.963	859.75
493.18	862.75
493.398	877.75
493.615	866.75
493.833	864.75
494.05	861.75
494.268	874.75
494.485	861.75
494.703	846.75
494.92	887.75
495.138	869.75
495.355	855.75
495.573	870.75
495.79	893.75
496.008	879.75
496.225	862.75
496.442	852.75
496.66	873.75
496.877	877.75
497.094	863.75
497.312	860.75
497.529	870.75
497.746	869.75
497.963	887.75
498.181	903.75
498.398	919.75
498.615	940.75
498.832	925.75
499.049	929.75
499.267	934.75
499.484	951.75
499.701	959.75
499.918	967.75
500.135	998.75
500.352	1053.75
500.569	1067.75
500.786	1053.75
501.003	1064.75
501.22	1045.75
501.437	1048.75
501.654	1029.75
501.871	1034.75
502.088	990.75
502.305	981.75
502.522	932.75
502.739	911.75
502.956	899.75
503.172	879.75
503.389	898.75
503.606	882.75
503.823	887.75
504.04	875.75
504.256	879.75
504.473	859.75
504.69	832.75
504.907	836.75
505.123	851.75
505.34	826.75
505.557	837.75
505.773	833.75
505.99	820.75
506.207	830.75
506.423	843.75
506.64	850.75
506.856	807.75
507.073	798.75
507.289	804.75
507.506	800.75
507.722	834.75
507.939	848.75
508.155	822.75
508.372	808.75
508.588	813.75
508.805	784.75
509.021	814.75
509.238	822.75
509.454	824.75
509.67	805.75
509.887	790.75
510.103	769.75
510.319	831.75
510.536	966.75
510.752	1640.75
510.968	1306.75
511.184	858.75
511.401	786.75
511.617	791.75
511.833	788.75
512.049	779.75
512.265	741.75
512.481	750.75
512.698	769.75
512.914	761.75
513.13	750.75
513.346	767.75
513.562	757.75
513.778	782.75
513.994	765.75
514.21	798.75
514.426	842.75
514.642	910.75
514.858	939.75
515.074	1007.75
515.29	1225.75
515.506	1822.75
515.721	1485.75
515.937	949.75
516.153	869.75
516.369	842.75
516.585	794.75
516.801	796.75
517.016	771.75
517.232	784.75
517.448	751.75
517.664	763.75
517.879	768.75
518.095	768.75
518.311	784.75
518.527	744.75
518.742	748.75
518.958	745.75
519.173	742.75
519.389	759.75
519.605	755.75
519.82	778.75
520.036	806.75
520.251	798.75
520.467	876.75
520.682	853.75
520.898	882.75
521.113	914.75
521.329	970.75
521.544	1129.75
521.76	1479.75
521.975	2462.75
522.19	2411.75
522.406	1307.75
522.621	941.75
522.836	841.75
523.052	791.75
523.267	746.75
523.482	724.75
523.698	700.75
523.913	733.75
524.128	684.75
524.343	682.75
524.559	709.75
524.774	664.75
524.989	664.75
525.204	680.75
525.419	664.75
525.634	636.75
525.849	647.75
526.064	648.75
526.28	606.75
526.495	619.75
526.71	619.75
526.925	592.75
527.14	622.75
527.355	607.75
527.57	610.75
527.785	606.75
527.999	578.75
528.214	603.75
528.429	613.75
528.644	610.75
528.859	600.75
529.074	611.75
529.289	640.75
529.503	782.75
529.718	750.75
529.933	694.75
530.148	632.75
530.363	637.75
530.577	609.75
530.792	579.75
531.007	586.75
531.221	586.75
531.436	596.75
531.651	596.75
531.865	576.75
532.08	567.75
532.295	582.75
532.509	578.75
532.724	555.75
532.938	559.75
533.153	578.75
533.367	578.75
533.582	559.75
533.796	567.75
534.011	554.75
534.225	573.75
534.44	557.75
534.654	545.75
534.868	531.75
535.083	559.75
535.297	564.75
535.511	573.75
535.726	603.75
535.94	586.75
536.154	572.75
536.369	560.75
536.583	543.75
536.797	553.75
537.011	532.75
537.225	544.75
537.44	555.75
537.654	548.75
537.868	530.75
538.082	541.75
538.296	556.75
538.51	547.75
538.724	557.75
538.938	538.75
539.153	546.75
539.367	571.75
539.581	592.75
539.795	548.75
540.009	540.75
540.222	564.75
540.436	550.75
540.65	550.75
540.864	565.75
541.078	568.75
541.292	574.75
541.506	542.75
541.72	527.75
541.934	554.75
542.147	542.75
542.361	542.75
542.575	542.75
542.789	528.75
543.002	539.75
543.216	550.75
543.43	546.75
543.644	565.75
543.857	522.75
544.071	544.75
544.285	507.75
544.498	526.75
544.712	527.75
544.925	530.75
545.139	548.75
545.352	519.75
545.566	527.75
545.779	547.75
545.993	546.75
546.206	524.75
546.42	543.75
546.633	528.75
546.847	520.75
547.06	510.75
547.274	509.75
547.487	522.75
547.7	528.75
547.914	508.75
548.127	505.75
548.34	518.75
548.554	503.75
548.767	500.75
548.98	514.75
549.193	520.75
549.407	531.75
549.62	523.75
549.833	511.75
550.046	523.75
550.259	498.75
550.473	499.75
550.686	495.75
550.899	500.75
551.112	510.75
551.325	480.75
551.538	463.75
551.751	479.75
551.964	487.75
552.177	467.75
552.39	496.75
552.603	490.75
552.816	499.75
553.029	503.75
553.242	495.75
553.455	534.75
553.667	525.75
553.88	532.75
554.093	549.75
554.306	547.75
554.519	500.75
554.732	518.75
554.944	502.75
555.157	489.75
555.37	469.75
555.583	477.75
555.795	478.75
556.008	474.75
556.221	480.75
556.433	482.75
556.646	484.75
556.859	464.75
557.071	461.75
557.284	471.75
557.496	475.75
557.709	448.75
557.921	438.75
558.134	458.75
558.346	478.75
558.559	461.75
558.771	466.75
558.984	452.75
559.196	442.75
559.409	464.75
559.621	463.75
559.833	448.75
560.046	440.75
560.258	447.75
560.47	458.75
560.683	434.75
560.895	433.75
561.107	444.75
561.32	434.75
561.532	446.75
561.744	432.75
561.956	437.75
562.168	442.75
562.381	452.75
562.593	438.75
562.805	462.75
563.017	456.75
563.229	459.75
563.441	465.75
563.653	450.75
563.865	444.75
564.077	448.75
564.289	447.75
564.501	435.75
564.713	464.75
564.925	472.75
565.137	470.75
565.349	463.75
565.561	461.75
565.773	472.75
565.985	455.75
566.197	463.75
566.408	487.75
566.62	498.75
566.832	512.75
567.044	506.75
567.255	483.75
567.467	505.75
567.679	491.75
567.891	523.75
568.102	502.75
568.314	495.75
568.526	498.75
568.737	482.75
568.949	464.75
569.161	458.75
569.372	446.75
569.584	432.75
569.795	454.75
570.007	450.75
570.218	511.75
570.43	490.75
570.641	425.75
570.853	411.75
571.064	425.75
571.276	442.75
571.487	430.75
571.698	427.75
571.91	396.75
572.121	409.75
572.333	392.75
572.544	407.75
572.755	390.75
572.966	397.75
573.178	419.75
573.389	410.75
573.6	401.75
573.811	394.75
574.023	382.75
574.234	386.75
574.445	382.75
574.656	388.75
574.867	396.75
575.078	403.75
575.289	382.75
575.501	385.75
575.712	375.75
575.923	380.75
576.134	373.75
576.345	369.75
576.556	390.75
576.767	383.75
576.978	382.75
577.188	390.75
577.399	371.75
577.61	374.75
577.821	382.75
578.032	378.75
578.243	432.75
578.454	758.75
578.665	542.75
578.875	409.75
579.086	371.75
579.297	370.75
579.508	373.75
579.718	364.75
579.929	354.75
580.14	371.75
580.35	366.75
580.561	354.75
580.772	340.75
580.982	356.75
581.193	348.75
581.403	342.75
581.614	348.75
581.825	358.75
582.035	342.75
582.246	351.75
582.456	347.75
582.667	348.75
582.877	347.75
583.087	342.75
583.298	325.75
583.508	322.75
583.719	327.75
583.929	338.75
584.139	344.75
584.35	347.75
584.56	337.75
584.77	342.75
584.981	366.75
585.191	335.75
585.401	343.75
585.611	342.75
585.821	335.75
586.032	340.75
586.242	339.75
586.452	342.75
586.662	343.75
586.872	326.75
587.082	327.75
587.292	351.75
587.502	353.75
587.713	343.75
587.923	329.75
588.133	346.75
588.343	341.75
588.553	320.75
588.762	327.75
588.972	339.75
589.182	352.75
589.392	332.75
589.602	330.75
589.812	333.75
590.022	338.75
590.232	330.75
590.441	328.75
590.651	322.75
590.861	328.75
591.071	316.75
591.281	310.75
591.49	321.75
591.7	318.75
591.91	333.75
592.119	342.75
592.329	340.75
592.539	329.75
592.748	341.75
592.958	325.75
593.167	333.75
593.377	334.75
593.587	330.75
593.796	333.75
594.006	363.75
594.215	330.75
594.424	332.75
594.634	328.75
594.843	332.75
595.053	341.75
595.262	313.75
595.472	316.75
595.681	326.75
595.89	328.75
596.1	311.75
596.309	327.75
596.518	328.75
596.727	304.75
596.937	329.75
597.146	304.75
597.355	314.75
597.564	296.75
597.774	285.75
597.983	307.75
598.192	307.75
598.401	288.75
598.61	284.75
598.819	291.75
599.028	295.75
599.237	286.75
599.446	279.75
599.655	306.75
599.864	304.75
600.073	280.75
600.282	285.75
600.491	271.75
600.7	292.75
600.909	288.75
601.118	291.75
601.327	294.75
601.536	294.75
601.745	299.75
601.953	282.75
602.162	284.75
602.371	291.75
602.58	309.75
602.789	299.75
602.997	289.75
603.206	280.75
603.415	291.75
603.623	299.75
603.832	296.75
604.041	291.75
604.249	279.75
604.458	290.75
604.666	279.75
604.875	266.75
605.084	268.75
605.292	290.75
605.501	278.75
605.709	286.75
605.918	284.75
606.126	286.75
606.334	271.75
606.543	293.75
606.751	284.75
606.96	270.75
607.168	291.75
607.376	300.75
607.585	261.75
607.793	285.75
608.001	286.75
608.21	287.75
608.418	282.75
608.626	276.75
608.834	274.75
609.043	279.75
609.251	266.75
609.459	282.75
609.667	285.75
609.875	279.75
610.083	277.75
610.291	271.75
610.499	282.75
610.707	260.75
610.916	274.75
611.124	271.75
611.332	288.75
611.54	293.75
611.748	303.75
611.955	275.75
612.163	284.75
612.371	268.75
612.579	273.75
612.787	276.75
612.995	282.75
613.203	276.75
613.411	276.75
613.618	248.75
613.826	258.75
614.034	262.75
614.242	273.75
614.449	274.75
614.657	265.75
614.865	280.75
615.072	259.75
615.28	272.75
615.488	260.75
615.695	264.75
615.903	275.75
616.111	264.75
616.318	292.75
616.526	271.75
616.733	272.75
616.941	270.75
617.148	279.75
617.356	261.75
617.563	272.75
617.771	248.75
617.978	263.75
618.185	269.75
618.393	273.75
618.6	264.75
618.807	271.75
619.015	283.75
619.222	266.75
619.429	252.75
619.637	258.75
619.844	246.75
620.051	248.75
620.258	265.75
620.466	257.75
620.673	252.75
620.88	249.75
621.087	239.75
621.294	260.75
621.501	241.75
621.708	262.75
621.915	246.75
622.122	265.75
622.329	249.75
622.536	274.75
622.743	259.75
622.95	256.75
623.157	252.75
623.364	244.75
623.571	243.75
623.778	252.75
623.985	237.75
624.192	245.75
624.399	259.75
624.606	232.75
624.812	239.75
625.019	222.75
625.226	247.75
625.433	248.75
625.639	253.75
625.846	245.75
626.053	221.75
626.259	236.75
626.466	227.75
626.673	239.75
626.879	214.75
627.086	249.75
627.293	201.75
627.499	223.75
627.706	236.75
627.912	226.75
628.119	224.75
628.325	227.75
628.532	226.75
628.738	227.75
628.945	238.75
629.151	235.75
629.357	223.75
629.564	213.75
629.77	230.75
629.976	231.75
630.183	217.75
630.389	221.75
630.595	215.75
630.802	211.75
631.008	209.75
631.214	216.75
631.42	215.75
631.627	226.75
631.833	223.75
632.039	205.75
632.245	215.75
632.451	230.75
632.657	199.75
632.863	238.75
633.069	214.75
633.275	223.75
633.481	211.75
633.688	179.75
633.893	201.75
634.099	210.75
634.305	216.75
634.511	201.75
634.717	198.75
634.923	192.75
635.129	211.75
635.335	206.75
635.541	206.75
635.747	212.75
635.952	194.75
636.158	189.75
636.364	186.75
636.57	210.75
636.775	200.75
636.981	205.75
637.187	193.75
637.392	186.75
637.598	193.75
637.804	191.75
638.009	183.75
638.215	203.75
638.421	184.75
638.626	205.75
638.832	207.75
639.037	207.75
639.243	219.75
639.448	207.75
639.654	191.75
639.859	181.75
640.065	195.75
640.27	185.75
640.475	194.75
640.681	192.75
640.886	180.75
641.091	206.75
641.297	216.75
641.502	202.75
641.707	172.75
641.913	192.75
642.118	190.75
642.323	188.75
642.528	187.75
642.733	178.75
642.939	182.75
643.144	178.75
643.349	183.75
643.554	197.75
643.759	185.75
643.964	186.75
644.169	194.75
644.374	189.75
644.579	203.75
644.784	183.75
644.989	162.75
645.194	188.75
645.399	189.75
645.604	194.75
645.809	182.75
646.014	195.75
646.219	201.75
646.423	183.75
646.628	174.75
646.833	174.75
647.038	164.75
647.243	190.75
647.447	171.75
647.652	176.75
647.857	178.75
648.062	175.75
648.266	183.75
648.471	170.75
648.676	199.75
648.88	189.75
649.085	187.75
649.289	188.75
649.494	185.75
649.698	209.75
649.903	216.75
650.107	189.75
650.312	162.75
650.516	162.75
650.721	164.75
650.925	174.75
651.13	159.75
651.334	157.75
651.539	152.75
651.743	160.75
651.947	158.75
652.152	161.75
652.356	137.75
652.56	131.75
652.764	156.75
652.969	160.75
653.173	142.75
653.377	158.75
653.581	153.75
653.785	148.75
653.99	144.75
654.194	159.75
654.398	151.75
654.602	151.75
654.806	150.75
655.01	141.75
655.214	144.75
655.418	139.75
655.622	136.75
655.826	149.75
656.03	146.75
656.234	128.75
656.438	133.75
656.642	134.75
656.846	133.75
657.049	136.75
657.253	124.75
657.457	122.75
657.661	116.75
657.865	119.75
658.068	115.75
658.272	111.75
658.476	106.75
658.68	101.75
658.883	108.75
659.087	110.75
659.291	118.75
659.494	98.75
659.698	95.75
659.901	116.75
660.105	110.75
660.309	111.75
660.512	91.75
660.716	92.75
660.919	87.75
661.123	98.75
661.326	87.75
661.53	107.75
661.733	95.75
661.936	88.75
662.14	93.75
662.343	78.75
662.546	85.75
662.75	92.75
662.953	86.75
663.156	82.75
663.36	101.75
663.563	84.75
663.766	81.75
663.969	85.75
664.173	68.75
664.376	80.75
664.579	78.75
664.782	77.75
664.985	86.75
665.188	89.75
665.391	78.75
665.594	83.75
665.797	86.75
666	85.75
666.203	76.75
666.406	77.75
666.609	71.75
666.812	91.75
667.015	83.75
667.218	91.75
667.421	86.75
667.624	95.75
667.827	85.75
668.03	88.75
668.232	77.75
668.435	80.75
668.638	81.75
668.841	90.75
669.043	80.75
669.246	86.75
669.449	83.75
669.651	95.75
669.854	88.75
670.057	78.75
670.259	76.75
670.462	87.75
670.665	86.75
670.867	86.75
671.07	87.75
671.272	82.75
671.475	94.75
671.677	78.75
671.88	70.75
672.082	90.75
672.284	82.75
672.487	77.75
672.689	74.75
672.892	90.75
