Data from 1971.PennyLincolnUp.Lamp.En5.5.200Scan.071719.P1.Scan 2. Changed Angle._HRD10591_15-24-02-842.txt Node
Date: Thu Jul 18 15:24:02 EDT 2019
User: cochatt
Spectrometer: HR+D1059
Trigger mode: 1
Integration Time (sec): 1.000000E-1
Scans to average: 1
Electric dark correction enabled: true
Nonlinearity correction enabled: false
Boxcar width: 0
XAxis mode: Wavelengths
Number of Pixels in Spectrum: 2048
>>>>>Begin Spectral Data<<<<<
223.165	-17.25
223.4	-17.25
223.635	-17.25
223.869	-5.25
224.104	-7.25
224.338	-11.25
224.573	-24.25
224.808	-13.25
225.042	-11.25
225.277	-7.25
225.511	-2.25
225.746	0.75
225.98	9.75
226.215	17.75
226.449	9.75
226.683	8.75
226.918	24.75
227.152	27.75
227.387	27.75
227.621	34.75
227.856	27.75
228.09	49.75
228.324	38.75
228.559	48.75
228.793	59.75
229.027	114.75
229.262	115.75
229.496	136.75
229.73	139.75
229.964	192.75
230.199	155.75
230.433	127.75
230.667	125.75
230.901	113.75
231.136	129.75
231.37	124.75
231.604	121.75
231.838	128.75
232.072	111.75
232.306	119.75
232.541	113.75
232.775	125.75
233.009	124.75
233.243	127.75
233.477	127.75
233.711	112.75
233.945	122.75
234.179	124.75
234.413	125.75
234.647	127.75
234.881	122.75
235.115	109.75
235.349	133.75
235.583	142.75
235.817	122.75
236.051	135.75
236.285	110.75
236.519	113.75
236.753	133.75
236.987	155.75
237.221	210.75
237.455	257.75
237.689	201.75
237.922	159.75
238.156	137.75
238.39	144.75
238.624	113.75
238.858	139.75
239.091	137.75
239.325	131.75
239.559	140.75
239.793	147.75
240.027	134.75
240.26	157.75
240.494	169.75
240.728	173.75
240.961	165.75
241.195	152.75
241.429	149.75
241.662	135.75
241.896	133.75
242.13	147.75
242.363	134.75
242.597	156.75
242.83	159.75
243.064	153.75
243.298	139.75
243.531	140.75
243.765	144.75
243.998	137.75
244.232	149.75
244.465	133.75
244.699	156.75
244.932	154.75
245.166	151.75
245.399	157.75
245.633	142.75
245.866	143.75
246.099	149.75
246.333	159.75
246.566	163.75
246.8	160.75
247.033	168.75
247.266	154.75
247.5	188.75
247.733	167.75
247.966	177.75
248.2	193.75
248.433	201.75
248.666	184.75
248.899	218.75
249.133	222.75
249.366	226.75
249.599	206.75
249.832	191.75
250.066	202.75
250.299	194.75
250.532	196.75
250.765	221.75
250.998	256.75
251.231	241.75
251.465	243.75
251.698	238.75
251.931	236.75
252.164	210.75
252.397	203.75
252.63	214.75
252.863	237.75
253.096	229.75
253.329	255.75
253.562	257.75
253.795	228.75
254.028	214.75
254.261	224.75
254.494	258.75
254.727	268.75
254.96	324.75
255.193	308.75
255.426	265.75
255.659	270.75
255.892	268.75
256.124	266.75
256.357	253.75
256.59	245.75
256.823	228.75
257.056	230.75
257.289	224.75
257.521	240.75
257.754	230.75
257.987	229.75
258.22	233.75
258.452	194.75
258.685	225.75
258.918	217.75
259.151	214.75
259.383	213.75
259.616	228.75
259.849	234.75
260.081	253.75
260.314	271.75
260.547	287.75
260.779	259.75
261.012	232.75
261.244	232.75
261.477	234.75
261.71	235.75
261.942	231.75
262.175	266.75
262.407	236.75
262.64	216.75
262.872	223.75
263.105	230.75
263.337	214.75
263.57	233.75
263.802	217.75
264.035	223.75
264.267	228.75
264.499	231.75
264.732	226.75
264.964	217.75
265.197	213.75
265.429	222.75
265.661	227.75
265.894	210.75
266.126	205.75
266.358	216.75
266.591	230.75
266.823	235.75
267.055	224.75
267.287	219.75
267.52	233.75
267.752	233.75
267.984	237.75
268.216	231.75
268.448	246.75
268.681	240.75
268.913	245.75
269.145	256.75
269.377	280.75
269.609	300.75
269.841	285.75
270.073	279.75
270.306	314.75
270.538	338.75
270.77	345.75
271.002	321.75
271.234	301.75
271.466	313.75
271.698	336.75
271.93	343.75
272.162	343.75
272.394	335.75
272.626	335.75
272.858	303.75
273.09	294.75
273.322	287.75
273.553	278.75
273.785	274.75
274.017	283.75
274.249	282.75
274.481	259.75
274.713	286.75
274.945	294.75
275.176	266.75
275.408	262.75
275.64	283.75
275.872	277.75
276.104	286.75
276.335	271.75
276.567	279.75
276.799	271.75
277.031	315.75
277.262	328.75
277.494	341.75
277.726	309.75
277.957	291.75
278.189	279.75
278.421	257.75
278.652	276.75
278.884	279.75
279.115	270.75
279.347	270.75
279.579	264.75
279.81	249.75
280.042	271.75
280.273	248.75
280.505	257.75
280.736	266.75
280.968	253.75
281.199	261.75
281.431	273.75
281.662	258.75
281.894	244.75
282.125	274.75
282.356	295.75
282.588	318.75
282.819	299.75
283.051	269.75
283.282	250.75
283.513	276.75
283.745	284.75
283.976	260.75
284.207	257.75
284.439	264.75
284.67	263.75
284.901	247.75
285.132	248.75
285.364	263.75
285.595	265.75
285.826	261.75
286.057	276.75
286.288	262.75
286.52	265.75
286.751	261.75
286.982	272.75
287.213	269.75
287.444	273.75
287.675	266.75
287.906	289.75
288.138	284.75
288.369	294.75
288.6	294.75
288.831	279.75
289.062	290.75
289.293	277.75
289.524	291.75
289.755	285.75
289.986	270.75
290.217	260.75
290.448	276.75
290.679	268.75
290.91	279.75
291.141	272.75
291.371	259.75
291.602	286.75
291.833	269.75
292.064	265.75
292.295	298.75
292.526	284.75
292.757	270.75
292.987	279.75
293.218	283.75
293.449	276.75
293.68	282.75
293.91	277.75
294.141	272.75
294.372	276.75
294.603	285.75
294.833	280.75
295.064	282.75
295.295	280.75
295.525	274.75
295.756	293.75
295.987	293.75
296.217	318.75
296.448	328.75
296.679	317.75
296.909	293.75
297.14	280.75
297.37	284.75
297.601	282.75
297.831	286.75
298.062	279.75
298.292	292.75
298.523	283.75
298.753	301.75
298.984	297.75
299.214	295.75
299.445	286.75
299.675	303.75
299.905	294.75
300.136	315.75
300.366	283.75
300.597	291.75
300.827	293.75
301.057	310.75
301.288	333.75
301.518	321.75
301.748	308.75
301.979	283.75
302.209	314.75
302.439	327.75
302.669	317.75
302.9	322.75
303.13	301.75
303.36	325.75
303.59	316.75
303.82	315.75
304.051	307.75
304.281	330.75
304.511	291.75
304.741	321.75
304.971	309.75
305.201	305.75
305.431	323.75
305.661	316.75
305.891	310.75
306.121	316.75
306.352	325.75
306.582	314.75
306.812	327.75
307.042	311.75
307.272	310.75
307.502	322.75
307.731	307.75
307.961	322.75
308.191	323.75
308.421	308.75
308.651	328.75
308.881	326.75
309.111	322.75
309.341	327.75
309.571	337.75
309.8	348.75
310.03	359.75
310.26	371.75
310.49	380.75
310.72	376.75
310.949	418.75
311.179	428.75
311.409	393.75
311.639	370.75
311.868	392.75
312.098	386.75
312.328	364.75
312.557	413.75
312.787	399.75
313.017	433.75
313.246	399.75
313.476	385.75
313.706	384.75
313.935	381.75
314.165	394.75
314.394	426.75
314.624	399.75
314.853	399.75
315.083	370.75
315.312	377.75
315.542	360.75
315.771	356.75
316.001	356.75
316.23	353.75
316.46	376.75
316.689	370.75
316.919	393.75
317.148	398.75
317.377	384.75
317.607	384.75
317.836	380.75
318.065	390.75
318.295	394.75
318.524	369.75
318.753	372.75
318.983	378.75
319.212	385.75
319.441	378.75
319.67	389.75
319.9	376.75
320.129	387.75
320.358	362.75
320.587	372.75
320.816	385.75
321.046	397.75
321.275	395.75
321.504	388.75
321.733	405.75
321.962	407.75
322.191	436.75
322.42	438.75
322.649	462.75
322.878	478.75
323.108	484.75
323.337	519.75
323.566	546.75
323.795	596.75
324.024	648.75
324.253	795.75
324.482	1198.75
324.71	1856.75
324.939	2650.75
325.168	2253.75
325.397	1195.75
325.626	771.75
325.855	627.75
326.084	567.75
326.313	546.75
326.542	557.75
326.77	627.75
326.999	715.75
327.228	1040.75
327.457	1589.75
327.686	1979.75
327.914	1332.75
328.143	827.75
328.372	715.75
328.6	700.75
328.829	643.75
329.058	646.75
329.287	654.75
329.515	611.75
329.744	565.75
329.972	561.75
330.201	573.75
330.43	647.75
330.658	669.75
330.887	694.75
331.115	667.75
331.344	570.75
331.572	519.75
331.801	536.75
332.03	526.75
332.258	485.75
332.486	466.75
332.715	434.75
332.943	457.75
333.172	452.75
333.4	450.75
333.629	460.75
333.857	478.75
334.085	484.75
334.314	513.75
334.542	541.75
334.771	562.75
334.999	523.75
335.227	483.75
335.455	459.75
335.684	435.75
335.912	415.75
336.14	435.75
336.369	434.75
336.597	440.75
336.825	459.75
337.053	420.75
337.281	426.75
337.51	421.75
337.738	425.75
337.966	426.75
338.194	416.75
338.422	446.75
338.65	412.75
338.878	434.75
339.106	415.75
339.334	397.75
339.562	424.75
339.79	427.75
340.018	418.75
340.246	455.75
340.474	434.75
340.702	429.75
340.93	427.75
341.158	414.75
341.386	417.75
341.614	428.75
341.842	425.75
342.07	428.75
342.298	421.75
342.526	415.75
342.754	407.75
342.981	412.75
343.209	419.75
343.437	386.75
343.665	422.75
343.893	407.75
344.12	447.75
344.348	420.75
344.576	428.75
344.804	437.75
345.031	451.75
345.259	467.75
345.487	463.75
345.714	438.75
345.942	423.75
346.17	447.75
346.397	428.75
346.625	435.75
346.853	424.75
347.08	439.75
347.308	427.75
347.535	432.75
347.763	439.75
347.99	430.75
348.218	419.75
348.445	424.75
348.673	427.75
348.9	424.75
349.128	425.75
349.355	412.75
349.583	413.75
349.81	396.75
350.037	417.75
350.265	426.75
350.492	401.75
350.72	410.75
350.947	405.75
351.174	423.75
351.402	451.75
351.629	451.75
351.856	442.75
352.083	458.75
352.311	446.75
352.538	479.75
352.765	461.75
352.992	440.75
353.22	437.75
353.447	416.75
353.674	419.75
353.901	404.75
354.128	399.75
354.355	382.75
354.583	382.75
354.81	385.75
355.037	396.75
355.264	399.75
355.491	369.75
355.718	371.75
355.945	378.75
356.172	386.75
356.399	380.75
356.626	396.75
356.853	379.75
357.08	373.75
357.307	379.75
357.534	377.75
357.761	378.75
357.988	402.75
358.215	381.75
358.441	383.75
358.668	390.75
358.895	403.75
359.122	410.75
359.349	406.75
359.576	437.75
359.802	462.75
360.029	505.75
360.256	533.75
360.483	493.75
360.709	443.75
360.936	446.75
361.163	425.75
361.39	422.75
361.616	437.75
361.843	426.75
362.07	421.75
362.296	430.75
362.523	421.75
362.749	462.75
362.976	433.75
363.203	413.75
363.429	407.75
363.656	412.75
363.882	399.75
364.109	388.75
364.335	413.75
364.562	401.75
364.788	391.75
365.015	413.75
365.241	409.75
365.468	432.75
365.694	411.75
365.92	430.75
366.147	407.75
366.373	404.75
366.599	399.75
366.826	396.75
367.052	395.75
367.278	421.75
367.505	389.75
367.731	391.75
367.957	412.75
368.184	413.75
368.41	415.75
368.636	452.75
368.862	459.75
369.089	420.75
369.315	404.75
369.541	393.75
369.767	400.75
369.993	404.75
370.219	389.75
370.445	396.75
370.672	407.75
370.898	382.75
371.124	398.75
371.35	404.75
371.576	395.75
371.802	397.75
372.028	391.75
372.254	395.75
372.48	405.75
372.706	389.75
372.932	392.75
373.158	402.75
373.384	389.75
373.61	390.75
373.835	397.75
374.061	396.75
374.287	417.75
374.513	399.75
374.739	404.75
374.965	402.75
375.191	392.75
375.416	409.75
375.642	403.75
375.868	397.75
376.094	418.75
376.319	407.75
376.545	387.75
376.771	408.75
376.997	397.75
377.222	404.75
377.448	378.75
377.674	391.75
377.899	383.75
378.125	393.75
378.35	400.75
378.576	395.75
378.802	391.75
379.027	408.75
379.253	405.75
379.478	388.75
379.704	408.75
379.929	394.75
380.155	395.75
380.38	396.75
380.606	395.75
380.831	392.75
381.057	389.75
381.282	385.75
381.507	413.75
381.733	408.75
381.958	412.75
382.184	408.75
382.409	402.75
382.634	410.75
382.86	395.75
383.085	405.75
383.31	422.75
383.535	416.75
383.761	417.75
383.986	393.75
384.211	408.75
384.436	426.75
384.662	420.75
384.887	429.75
385.112	433.75
385.337	433.75
385.562	435.75
385.787	437.75
386.013	443.75
386.238	457.75
386.463	438.75
386.688	432.75
386.913	424.75
387.138	420.75
387.363	417.75
387.588	412.75
387.813	412.75
388.038	423.75
388.263	427.75
388.488	439.75
388.713	438.75
388.938	422.75
389.163	425.75
389.387	437.75
389.612	435.75
389.837	442.75
390.062	427.75
390.287	421.75
390.512	425.75
390.736	416.75
390.961	425.75
391.186	410.75
391.411	431.75
391.636	449.75
391.86	428.75
392.085	429.75
392.31	435.75
392.534	452.75
392.759	425.75
392.984	443.75
393.208	433.75
393.433	441.75
393.658	460.75
393.882	437.75
394.107	425.75
394.331	428.75
394.556	437.75
394.78	422.75
395.005	446.75
395.229	430.75
395.454	436.75
395.678	427.75
395.903	474.75
396.127	481.75
396.352	483.75
396.576	453.75
396.801	444.75
397.025	460.75
397.249	445.75
397.474	463.75
397.698	482.75
397.922	494.75
398.147	497.75
398.371	458.75
398.595	483.75
398.82	460.75
399.044	464.75
399.268	487.75
399.492	510.75
399.717	501.75
399.941	556.75
400.165	601.75
400.389	606.75
400.613	563.75
400.837	531.75
401.062	499.75
401.286	517.75
401.51	498.75
401.734	506.75
401.958	509.75
402.182	476.75
402.406	502.75
402.63	521.75
402.854	504.75
403.078	501.75
403.302	519.75
403.526	518.75
403.75	536.75
403.974	519.75
404.198	484.75
404.422	523.75
404.645	536.75
404.869	532.75
405.093	557.75
405.317	625.75
405.541	609.75
405.765	585.75
405.988	593.75
406.212	565.75
406.436	600.75
406.66	604.75
406.883	580.75
407.107	586.75
407.331	636.75
407.555	715.75
407.778	685.75
408.002	622.75
408.226	597.75
408.449	568.75
408.673	564.75
408.896	588.75
409.12	645.75
409.344	625.75
409.567	567.75
409.791	537.75
410.014	542.75
410.238	526.75
410.461	521.75
410.685	508.75
410.908	549.75
411.132	585.75
411.355	617.75
411.578	583.75
411.802	543.75
412.025	530.75
412.249	541.75
412.472	576.75
412.695	603.75
412.919	598.75
413.142	551.75
413.365	523.75
413.589	510.75
413.812	493.75
414.035	507.75
414.258	511.75
414.482	493.75
414.705	484.75
414.928	497.75
415.151	493.75
415.374	505.75
415.597	476.75
415.821	483.75
416.044	492.75
416.267	497.75
416.49	485.75
416.713	499.75
416.936	505.75
417.159	494.75
417.382	519.75
417.605	525.75
417.828	523.75
418.051	537.75
418.274	506.75
418.497	499.75
418.72	501.75
418.943	498.75
419.166	548.75
419.389	545.75
419.611	535.75
419.834	539.75
420.057	521.75
420.28	526.75
420.503	559.75
420.726	534.75
420.948	566.75
421.171	617.75
421.394	622.75
421.617	551.75
421.839	537.75
422.062	545.75
422.285	543.75
422.507	616.75
422.73	697.75
422.953	681.75
423.175	592.75
423.398	557.75
423.621	565.75
423.843	582.75
424.066	586.75
424.288	586.75
424.511	600.75
424.733	673.75
424.956	758.75
425.178	733.75
425.401	737.75
425.623	767.75
425.846	643.75
426.068	593.75
426.291	573.75
426.513	580.75
426.735	625.75
426.958	636.75
427.18	741.75
427.402	892.75
427.625	995.75
427.847	891.75
428.069	809.75
428.292	669.75
428.514	618.75
428.736	590.75
428.958	561.75
429.181	547.75
429.403	549.75
429.625	564.75
429.847	591.75
430.069	695.75
430.292	676.75
430.514	577.75
430.736	587.75
430.958	546.75
431.18	519.75
431.402	532.75
431.624	527.75
431.846	515.75
432.068	520.75
432.29	507.75
432.512	504.75
432.734	521.75
432.956	505.75
433.178	526.75
433.4	531.75
433.622	518.75
433.844	537.75
434.066	509.75
434.287	503.75
434.509	506.75
434.731	530.75
434.953	535.75
435.175	533.75
435.397	588.75
435.618	618.75
435.84	674.75
436.062	773.75
436.284	828.75
436.505	711.75
436.727	629.75
436.949	567.75
437.17	579.75
437.392	564.75
437.614	573.75
437.835	651.75
438.057	764.75
438.278	851.75
438.5	823.75
438.721	918.75
438.943	880.75
439.165	715.75
439.386	643.75
439.608	637.75
439.829	617.75
440.05	661.75
440.272	721.75
440.493	663.75
440.715	611.75
440.936	588.75
441.158	590.75
441.379	549.75
441.6	574.75
441.822	589.75
442.043	673.75
442.264	742.75
442.486	802.75
442.707	681.75
442.928	621.75
443.149	627.75
443.371	647.75
443.592	688.75
443.813	776.75
444.034	831.75
444.255	719.75
444.476	630.75
444.698	619.75
444.919	586.75
445.14	682.75
445.361	681.75
445.582	673.75
445.803	725.75
446.024	817.75
446.245	860.75
446.466	759.75
446.687	654.75
446.908	595.75
447.129	573.75
447.35	577.75
447.571	578.75
447.792	574.75
448.013	571.75
448.234	594.75
448.455	661.75
448.675	771.75
448.896	869.75
449.117	783.75
449.338	732.75
449.559	848.75
449.779	922.75
450	750.75
450.221	633.75
450.442	593.75
450.662	561.75
450.883	589.75
451.104	620.75
451.324	582.75
451.545	571.75
451.766	538.75
451.986	507.75
452.207	489.75
452.428	512.75
452.648	527.75
452.869	516.75
453.089	522.75
453.31	531.75
453.53	529.75
453.751	505.75
453.971	518.75
454.192	557.75
454.412	522.75
454.633	507.75
454.853	493.75
455.073	502.75
455.294	548.75
455.514	610.75
455.734	589.75
455.955	498.75
456.175	500.75
456.395	482.75
456.616	452.75
456.836	459.75
457.056	449.75
457.276	471.75
457.497	471.75
457.717	450.75
457.937	454.75
458.157	466.75
458.377	480.75
458.598	517.75
458.818	588.75
459.038	663.75
459.258	718.75
459.478	611.75
459.698	537.75
459.918	523.75
460.138	507.75
460.358	514.75
460.578	495.75
460.798	533.75
461.018	524.75
461.238	518.75
461.458	514.75
461.678	506.75
461.898	499.75
462.118	502.75
462.338	501.75
462.558	517.75
462.777	517.75
462.997	506.75
463.217	518.75
463.437	506.75
463.657	503.75
463.876	525.75
464.096	516.75
464.316	554.75
464.536	553.75
464.755	545.75
464.975	567.75
465.195	606.75
465.414	721.75
465.634	643.75
465.854	594.75
466.073	561.75
466.293	521.75
466.512	519.75
466.732	522.75
466.951	502.75
467.171	496.75
467.391	504.75
467.61	508.75
467.829	535.75
468.049	500.75
468.268	531.75
468.488	499.75
468.707	499.75
468.927	489.75
469.146	486.75
469.365	481.75
469.585	506.75
469.804	514.75
470.023	519.75
470.243	503.75
470.462	531.75
470.681	543.75
470.901	533.75
471.12	506.75
471.339	514.75
471.558	534.75
471.777	529.75
471.997	498.75
472.216	523.75
472.435	587.75
472.654	545.75
472.873	517.75
473.092	506.75
473.311	511.75
473.53	521.75
473.749	518.75
473.968	602.75
474.187	720.75
474.406	750.75
474.625	600.75
474.844	549.75
475.063	546.75
475.282	530.75
475.501	536.75
475.72	549.75
475.939	532.75
476.158	539.75
476.377	530.75
476.596	542.75
476.814	525.75
477.033	552.75
477.252	569.75
477.471	544.75
477.69	561.75
477.908	567.75
478.127	572.75
478.346	574.75
478.564	581.75
478.783	566.75
479.002	587.75
479.22	591.75
479.439	608.75
479.658	632.75
479.876	599.75
480.095	611.75
480.313	651.75
480.532	649.75
480.751	636.75
480.969	647.75
481.188	718.75
481.406	773.75
481.624	691.75
481.843	643.75
482.061	610.75
482.28	609.75
482.498	629.75
482.717	621.75
482.935	616.75
483.153	620.75
483.372	612.75
483.59	610.75
483.808	617.75
484.027	609.75
484.245	613.75
484.463	612.75
484.681	631.75
484.9	621.75
485.118	637.75
485.336	628.75
485.554	626.75
485.772	641.75
485.99	634.75
486.209	636.75
486.427	621.75
486.645	669.75
486.863	689.75
487.081	695.75
487.299	675.75
487.517	670.75
487.735	686.75
487.953	684.75
488.171	685.75
488.389	672.75
488.607	690.75
488.825	681.75
489.043	679.75
489.261	655.75
489.479	677.75
489.696	691.75
489.914	691.75
490.132	739.75
490.35	709.75
490.568	702.75
490.786	735.75
491.003	731.75
491.221	734.75
491.439	755.75
491.657	763.75
491.874	792.75
492.092	787.75
492.31	796.75
492.527	797.75
492.745	774.75
492.963	805.75
493.18	796.75
493.398	813.75
493.615	807.75
493.833	796.75
494.05	801.75
494.268	817.75
494.485	832.75
494.703	808.75
494.92	807.75
495.138	837.75
495.355	827.75
495.573	825.75
495.79	818.75
496.008	825.75
496.225	787.75
496.442	821.75
496.66	810.75
496.877	809.75
497.094	815.75
497.312	826.75
497.529	843.75
497.746	843.75
497.963	829.75
498.181	839.75
498.398	851.75
498.615	896.75
498.832	861.75
499.049	865.75
499.267	879.75
499.484	916.75
499.701	921.75
499.918	919.75
500.135	952.75
500.352	962.75
500.569	943.75
500.786	981.75
501.003	967.75
501.22	982.75
501.437	971.75
501.654	970.75
501.871	972.75
502.088	930.75
502.305	911.75
502.522	898.75
502.739	873.75
502.956	837.75
503.172	829.75
503.389	823.75
503.606	825.75
503.823	823.75
504.04	822.75
504.256	777.75
504.473	804.75
504.69	775.75
504.907	803.75
505.123	807.75
505.34	792.75
505.557	792.75
505.773	794.75
505.99	779.75
506.207	764.75
506.423	768.75
506.64	811.75
506.856	770.75
507.073	774.75
507.289	789.75
507.506	776.75
507.722	806.75
507.939	829.75
508.155	783.75
508.372	758.75
508.588	750.75
508.805	760.75
509.021	767.75
509.238	772.75
509.454	791.75
509.67	779.75
509.887	751.75
510.103	766.75
510.319	755.75
510.536	885.75
510.752	1593.75
510.968	1259.75
511.184	791.75
511.401	750.75
511.617	749.75
511.833	731.75
512.049	706.75
512.265	737.75
512.481	714.75
512.698	716.75
512.914	717.75
513.13	723.75
513.346	734.75
513.562	709.75
513.778	727.75
513.994	746.75
514.21	745.75
514.426	757.75
514.642	861.75
514.858	912.75
515.074	941.75
515.29	1181.75
515.506	1830.75
515.721	1429.75
515.937	927.75
516.153	819.75
516.369	773.75
516.585	764.75
516.801	758.75
517.016	734.75
517.232	746.75
517.448	737.75
517.664	751.75
517.879	709.75
518.095	736.75
518.311	726.75
518.527	718.75
518.742	684.75
518.958	701.75
519.173	703.75
519.389	705.75
519.605	730.75
519.82	729.75
520.036	756.75
520.251	787.75
520.467	813.75
520.682	798.75
520.898	813.75
521.113	877.75
521.329	947.75
521.544	1084.75
521.76	1407.75
521.975	2398.75
522.19	2316.75
522.406	1209.75
522.621	873.75
522.836	810.75
523.052	733.75
523.267	695.75
523.482	661.75
523.698	661.75
523.913	675.75
524.128	684.75
524.343	663.75
524.559	643.75
524.774	641.75
524.989	635.75
525.204	642.75
525.419	635.75
525.634	629.75
525.849	603.75
526.064	590.75
526.28	611.75
526.495	601.75
526.71	591.75
526.925	575.75
527.14	574.75
527.355	573.75
527.57	567.75
527.785	570.75
527.999	570.75
528.214	555.75
528.429	580.75
528.644	586.75
528.859	581.75
529.074	581.75
529.289	615.75
529.503	733.75
529.718	718.75
529.933	655.75
530.148	598.75
530.363	597.75
530.577	553.75
530.792	571.75
531.007	582.75
531.221	583.75
531.436	543.75
531.651	536.75
531.865	561.75
532.08	539.75
532.295	568.75
532.509	554.75
532.724	534.75
532.938	538.75
533.153	533.75
533.367	534.75
533.582	541.75
533.796	518.75
534.011	526.75
534.225	516.75
534.44	534.75
534.654	522.75
534.868	529.75
535.083	528.75
535.297	553.75
535.511	518.75
535.726	549.75
535.94	536.75
536.154	552.75
536.369	545.75
536.583	516.75
536.797	529.75
537.011	509.75
537.225	515.75
537.44	507.75
537.654	504.75
537.868	510.75
538.082	525.75
538.296	524.75
538.51	532.75
538.724	520.75
538.938	513.75
539.153	520.75
539.367	530.75
539.581	555.75
539.795	507.75
540.009	513.75
540.222	534.75
540.436	505.75
540.65	516.75
540.864	538.75
541.078	550.75
541.292	541.75
541.506	522.75
541.72	527.75
541.934	526.75
542.147	522.75
542.361	513.75
542.575	494.75
542.789	518.75
543.002	514.75
543.216	510.75
543.43	519.75
543.644	523.75
543.857	503.75
544.071	514.75
544.285	513.75
544.498	523.75
544.712	525.75
544.925	507.75
545.139	517.75
545.352	499.75
545.566	520.75
545.779	499.75
545.993	493.75
546.206	500.75
546.42	486.75
546.633	501.75
546.847	505.75
547.06	494.75
547.274	471.75
547.487	503.75
547.7	479.75
547.914	478.75
548.127	485.75
548.34	499.75
548.554	501.75
548.767	476.75
548.98	479.75
549.193	481.75
549.407	470.75
549.62	499.75
549.833	481.75
550.046	469.75
550.259	486.75
550.473	479.75
550.686	489.75
550.899	481.75
551.112	476.75
551.325	452.75
551.538	454.75
551.751	442.75
551.964	471.75
552.177	460.75
552.39	453.75
552.603	482.75
552.816	490.75
553.029	481.75
553.242	470.75
553.455	481.75
553.667	474.75
553.88	500.75
554.093	490.75
554.306	486.75
554.519	500.75
554.732	486.75
554.944	467.75
555.157	456.75
555.37	468.75
555.583	455.75
555.795	464.75
556.008	459.75
556.221	466.75
556.433	423.75
556.646	429.75
556.859	440.75
557.071	455.75
557.284	446.75
557.496	450.75
557.709	441.75
557.921	439.75
558.134	451.75
558.346	441.75
558.559	436.75
558.771	440.75
558.984	406.75
559.196	441.75
559.409	436.75
559.621	433.75
559.833	417.75
560.046	427.75
560.258	415.75
560.47	419.75
560.683	431.75
560.895	433.75
561.107	428.75
561.32	407.75
561.532	445.75
561.744	407.75
561.956	439.75
562.168	424.75
562.381	410.75
562.593	407.75
562.805	428.75
563.017	430.75
563.229	441.75
563.441	438.75
563.653	445.75
563.865	419.75
564.077	436.75
564.289	442.75
564.501	415.75
564.713	443.75
564.925	428.75
565.137	467.75
565.349	465.75
565.561	454.75
565.773	434.75
565.985	460.75
566.197	446.75
566.408	468.75
566.62	461.75
566.832	473.75
567.044	457.75
567.255	474.75
567.467	501.75
567.679	509.75
567.891	490.75
568.102	490.75
568.314	468.75
568.526	461.75
568.737	456.75
568.949	446.75
569.161	426.75
569.372	417.75
569.584	411.75
569.795	421.75
570.007	422.75
570.218	488.75
570.43	475.75
570.641	417.75
570.853	424.75
571.064	393.75
571.276	399.75
571.487	401.75
571.698	386.75
571.91	382.75
572.121	382.75
572.333	377.75
572.544	400.75
572.755	369.75
572.966	387.75
573.178	374.75
573.389	373.75
573.6	367.75
573.811	373.75
574.023	369.75
574.234	371.75
574.445	383.75
574.656	377.75
574.867	364.75
575.078	349.75
575.289	364.75
575.501	364.75
575.712	353.75
575.923	347.75
576.134	353.75
576.345	361.75
576.556	355.75
576.767	374.75
576.978	361.75
577.188	364.75
577.399	370.75
577.61	364.75
577.821	345.75
578.032	385.75
578.243	411.75
578.454	738.75
578.665	527.75
578.875	370.75
579.086	363.75
579.297	344.75
579.508	322.75
579.718	340.75
579.929	343.75
580.14	317.75
580.35	341.75
580.561	334.75
580.772	341.75
580.982	337.75
581.193	329.75
581.403	327.75
581.614	319.75
581.825	325.75
582.035	324.75
582.246	321.75
582.456	318.75
582.667	329.75
582.877	321.75
583.087	324.75
583.298	329.75
583.508	315.75
583.719	338.75
583.929	322.75
584.139	310.75
584.35	324.75
584.56	324.75
584.77	326.75
584.981	328.75
585.191	324.75
585.401	338.75
585.611	321.75
585.821	332.75
586.032	355.75
586.242	325.75
586.452	322.75
586.662	302.75
586.872	315.75
587.082	332.75
587.292	313.75
587.502	313.75
587.713	318.75
587.923	313.75
588.133	321.75
588.343	308.75
588.553	320.75
588.762	303.75
588.972	307.75
589.182	302.75
589.392	298.75
589.602	309.75
589.812	303.75
590.022	293.75
590.232	301.75
590.441	306.75
590.651	305.75
590.861	333.75
591.071	301.75
591.281	315.75
591.49	329.75
591.7	312.75
591.91	331.75
592.119	313.75
592.329	323.75
592.539	319.75
592.748	314.75
592.958	313.75
593.167	316.75
593.377	322.75
593.587	345.75
593.796	345.75
594.006	338.75
594.215	331.75
594.424	316.75
594.634	315.75
594.843	322.75
595.053	300.75
595.262	317.75
595.472	305.75
595.681	289.75
595.89	316.75
596.1	289.75
596.309	299.75
596.518	309.75
596.727	305.75
596.937	314.75
597.146	310.75
597.355	279.75
597.564	271.75
597.774	287.75
597.983	294.75
598.192	278.75
598.401	309.75
598.61	277.75
598.819	267.75
599.028	291.75
599.237	275.75
599.446	275.75
599.655	278.75
599.864	271.75
600.073	265.75
600.282	284.75
600.491	272.75
600.7	267.75
600.909	298.75
601.118	256.75
601.327	289.75
601.536	287.75
601.745	275.75
601.953	262.75
602.162	266.75
602.371	289.75
602.58	277.75
602.789	299.75
602.997	270.75
603.206	279.75
603.415	277.75
603.623	291.75
603.832	263.75
604.041	254.75
604.249	265.75
604.458	269.75
604.666	275.75
604.875	269.75
605.084	260.75
605.292	256.75
605.501	263.75
605.709	267.75
605.918	255.75
606.126	283.75
606.334	250.75
606.543	265.75
606.751	287.75
606.96	269.75
607.168	277.75
607.376	269.75
607.585	268.75
607.793	269.75
608.001	272.75
608.21	275.75
608.418	272.75
608.626	273.75
608.834	280.75
609.043	275.75
609.251	278.75
609.459	271.75
609.667	267.75
609.875	254.75
610.083	269.75
610.291	275.75
610.499	247.75
610.707	269.75
610.916	255.75
611.124	281.75
611.332	274.75
611.54	277.75
611.748	280.75
611.955	268.75
612.163	275.75
612.371	244.75
612.579	273.75
612.787	261.75
612.995	267.75
613.203	274.75
613.411	251.75
613.618	260.75
613.826	264.75
614.034	263.75
614.242	246.75
614.449	269.75
614.657	271.75
614.865	248.75
615.072	265.75
615.28	259.75
615.488	267.75
615.695	258.75
615.903	265.75
616.111	245.75
616.318	269.75
616.526	253.75
616.733	265.75
616.941	246.75
617.148	243.75
617.356	269.75
617.563	251.75
617.771	259.75
617.978	248.75
618.185	241.75
618.393	258.75
618.6	243.75
618.807	266.75
619.015	270.75
619.222	243.75
619.429	227.75
619.637	264.75
619.844	249.75
620.051	254.75
620.258	241.75
620.466	243.75
620.673	227.75
620.88	225.75
621.087	236.75
621.294	254.75
621.501	245.75
621.708	239.75
621.915	250.75
622.122	249.75
622.329	244.75
622.536	236.75
622.743	259.75
622.95	236.75
623.157	245.75
623.364	241.75
623.571	247.75
623.778	256.75
623.985	226.75
624.192	238.75
624.399	252.75
624.606	229.75
624.812	233.75
625.019	226.75
625.226	243.75
625.433	232.75
625.639	222.75
625.846	235.75
626.053	222.75
626.259	226.75
626.466	229.75
626.673	208.75
626.879	229.75
627.086	228.75
627.293	208.75
627.499	226.75
627.706	221.75
627.912	210.75
628.119	222.75
628.325	209.75
628.532	211.75
628.738	206.75
628.945	217.75
629.151	212.75
629.357	218.75
629.564	227.75
629.77	234.75
629.976	207.75
630.183	229.75
630.389	211.75
630.595	216.75
630.802	213.75
631.008	215.75
631.214	221.75
631.42	230.75
631.627	212.75
631.833	198.75
632.039	203.75
632.245	215.75
632.451	217.75
632.657	213.75
632.863	224.75
633.069	212.75
633.275	188.75
633.481	211.75
633.688	216.75
633.893	204.75
634.099	204.75
634.305	218.75
634.511	195.75
634.717	190.75
634.923	198.75
635.129	205.75
635.335	201.75
635.541	184.75
635.747	200.75
635.952	195.75
636.158	200.75
636.364	185.75
636.57	175.75
636.775	199.75
636.981	206.75
637.187	204.75
637.392	196.75
637.598	192.75
637.804	186.75
638.009	177.75
638.215	201.75
638.421	181.75
638.626	179.75
638.832	184.75
639.037	184.75
639.243	182.75
639.448	192.75
639.654	197.75
639.859	190.75
640.065	179.75
640.27	197.75
640.475	183.75
640.681	167.75
640.886	184.75
641.091	186.75
641.297	203.75
641.502	188.75
641.707	184.75
641.913	186.75
642.118	185.75
642.323	160.75
642.528	180.75
642.733	172.75
642.939	183.75
643.144	185.75
643.349	193.75
643.554	185.75
643.759	171.75
643.964	177.75
644.169	167.75
644.374	152.75
644.579	189.75
644.784	191.75
644.989	179.75
645.194	186.75
645.399	177.75
645.604	171.75
645.809	155.75
646.014	177.75
646.219	171.75
646.423	173.75
646.628	167.75
646.833	173.75
647.038	186.75
647.243	177.75
647.447	183.75
647.652	169.75
647.857	174.75
648.062	168.75
648.266	187.75
648.471	163.75
648.676	187.75
648.88	163.75
649.085	167.75
649.289	180.75
649.494	189.75
649.698	182.75
649.903	196.75
650.107	192.75
650.312	172.75
650.516	170.75
650.721	172.75
650.925	159.75
651.13	157.75
651.334	164.75
651.539	165.75
651.743	154.75
651.947	148.75
652.152	149.75
652.356	156.75
652.56	153.75
652.764	140.75
652.969	165.75
653.173	158.75
653.377	148.75
653.581	143.75
653.785	145.75
653.99	143.75
654.194	147.75
654.398	130.75
654.602	145.75
654.806	136.75
655.01	164.75
655.214	148.75
655.418	141.75
655.622	139.75
655.826	145.75
656.03	138.75
656.234	133.75
656.438	133.75
656.642	141.75
656.846	117.75
657.049	124.75
657.253	114.75
657.457	119.75
657.661	125.75
657.865	114.75
658.068	124.75
658.272	121.75
658.476	122.75
658.68	104.75
658.883	107.75
659.087	108.75
659.291	114.75
659.494	106.75
659.698	93.75
659.901	115.75
660.105	92.75
660.309	102.75
660.512	97.75
660.716	98.75
660.919	107.75
661.123	101.75
661.326	85.75
661.53	103.75
661.733	96.75
661.936	78.75
662.14	81.75
662.343	88.75
662.546	98.75
662.75	89.75
662.953	85.75
663.156	85.75
663.36	78.75
663.563	75.75
663.766	78.75
663.969	87.75
664.173	86.75
664.376	99.75
664.579	88.75
664.782	94.75
664.985	75.75
665.188	75.75
665.391	78.75
665.594	70.75
665.797	90.75
666	85.75
666.203	81.75
666.406	80.75
666.609	77.75
666.812	84.75
667.015	86.75
667.218	79.75
667.421	76.75
667.624	87.75
667.827	86.75
668.03	80.75
668.232	76.75
668.435	108.75
668.638	79.75
668.841	86.75
669.043	77.75
669.246	82.75
669.449	75.75
669.651	77.75
669.854	74.75
670.057	92.75
670.259	86.75
670.462	99.75
670.665	82.75
670.867	86.75
671.07	85.75
671.272	93.75
671.475	96.75
671.677	71.75
671.88	98.75
672.082	72.75
672.284	80.75
672.487	79.75
672.689	89.75
672.892	78.75
