Data from 1971.PennyLincolnUp.Lamp.En5.5.200Scan.071719.P1._HRD10591_15-19-01-841.txt Node
Date: Thu Jul 18 15:19:01 EDT 2019
User: cochatt
Spectrometer: HR+D1059
Trigger mode: 1
Integration Time (sec): 1.000000E-1
Scans to average: 1
Electric dark correction enabled: true
Nonlinearity correction enabled: false
Boxcar width: 0
XAxis mode: Wavelengths
Number of Pixels in Spectrum: 2048
>>>>>Begin Spectral Data<<<<<
223.165	-6.62
223.4	-6.62
223.635	-6.62
223.869	-7.62
224.104	-14.62
224.338	-25.62
224.573	-12.62
224.808	-18.62
225.042	-5.62
225.277	-4.62
225.511	-4.62
225.746	3.38
225.98	-2.62
226.215	8.38
226.449	24.38
226.683	21.38
226.918	24.38
227.152	21.38
227.387	49.38
227.621	51.38
227.856	35.38
228.09	40.38
228.324	53.38
228.559	59.38
228.793	64.38
229.027	93.38
229.262	103.38
229.496	111.38
229.73	131.38
229.964	145.38
230.199	109.38
230.433	125.38
230.667	109.38
230.901	110.38
231.136	110.38
231.37	123.38
231.604	107.38
231.838	97.38
232.072	105.38
232.306	114.38
232.541	112.38
232.775	125.38
233.009	125.38
233.243	123.38
233.477	103.38
233.711	113.38
233.945	101.38
234.179	114.38
234.413	127.38
234.647	123.38
234.881	120.38
235.115	118.38
235.349	126.38
235.583	111.38
235.817	116.38
236.051	129.38
236.285	126.38
236.519	109.38
236.753	128.38
236.987	148.38
237.221	167.38
237.455	224.38
237.689	183.38
237.922	137.38
238.156	133.38
238.39	140.38
238.624	119.38
238.858	125.38
239.091	128.38
239.325	129.38
239.559	140.38
239.793	153.38
240.027	131.38
240.26	143.38
240.494	149.38
240.728	159.38
240.961	144.38
241.195	145.38
241.429	153.38
241.662	136.38
241.896	147.38
242.13	129.38
242.363	136.38
242.597	139.38
242.83	151.38
243.064	139.38
243.298	150.38
243.531	132.38
243.765	138.38
243.998	145.38
244.232	142.38
244.465	134.38
244.699	143.38
244.932	131.38
245.166	147.38
245.399	153.38
245.633	131.38
245.866	147.38
246.099	148.38
246.333	141.38
246.566	154.38
246.8	155.38
247.033	158.38
247.266	161.38
247.5	160.38
247.733	178.38
247.966	177.38
248.2	185.38
248.433	174.38
248.666	183.38
248.899	171.38
249.133	199.38
249.366	209.38
249.599	192.38
249.832	187.38
250.066	187.38
250.299	191.38
250.532	192.38
250.765	211.38
250.998	211.38
251.231	233.38
251.465	228.38
251.698	221.38
251.931	199.38
252.164	197.38
252.397	206.38
252.63	209.38
252.863	207.38
253.096	239.38
253.329	223.38
253.562	238.38
253.795	226.38
254.028	221.38
254.261	215.38
254.494	227.38
254.727	255.38
254.96	295.38
255.193	279.38
255.426	242.38
255.659	250.38
255.892	238.38
256.124	224.38
256.357	245.38
256.59	233.38
256.823	224.38
257.056	218.38
257.289	216.38
257.521	217.38
257.754	219.38
257.987	218.38
258.22	224.38
258.452	215.38
258.685	230.38
258.918	207.38
259.151	223.38
259.383	250.38
259.616	229.38
259.849	230.38
260.081	258.38
260.314	245.38
260.547	257.38
260.779	264.38
261.012	248.38
261.244	236.38
261.477	221.38
261.71	230.38
261.942	232.38
262.175	224.38
262.407	235.38
262.64	232.38
262.872	218.38
263.105	212.38
263.337	219.38
263.57	222.38
263.802	217.38
264.035	241.38
264.267	214.38
264.499	219.38
264.732	222.38
264.964	224.38
265.197	230.38
265.429	219.38
265.661	219.38
265.894	227.38
266.126	242.38
266.358	221.38
266.591	218.38
266.823	216.38
267.055	236.38
267.287	253.38
267.52	237.38
267.752	238.38
267.984	241.38
268.216	238.38
268.448	263.38
268.681	247.38
268.913	238.38
269.145	263.38
269.377	278.38
269.609	301.38
269.841	282.38
270.073	267.38
270.306	292.38
270.538	321.38
270.77	310.38
271.002	298.38
271.234	293.38
271.466	327.38
271.698	322.38
271.93	309.38
272.162	319.38
272.394	328.38
272.626	300.38
272.858	290.38
273.09	276.38
273.322	285.38
273.553	262.38
273.785	280.38
274.017	257.38
274.249	282.38
274.481	288.38
274.713	261.38
274.945	271.38
275.176	271.38
275.408	261.38
275.64	277.38
275.872	266.38
276.104	281.38
276.335	275.38
276.567	275.38
276.799	291.38
277.031	312.38
277.262	319.38
277.494	318.38
277.726	308.38
277.957	269.38
278.189	288.38
278.421	300.38
278.652	286.38
278.884	285.38
279.115	275.38
279.347	269.38
279.579	273.38
279.81	290.38
280.042	276.38
280.273	279.38
280.505	281.38
280.736	269.38
280.968	270.38
281.199	274.38
281.431	275.38
281.662	266.38
281.894	290.38
282.125	280.38
282.356	279.38
282.588	297.38
282.819	295.38
283.051	277.38
283.282	282.38
283.513	272.38
283.745	286.38
283.976	286.38
284.207	291.38
284.439	289.38
284.67	289.38
284.901	304.38
285.132	280.38
285.364	286.38
285.595	303.38
285.826	271.38
286.057	301.38
286.288	298.38
286.52	291.38
286.751	290.38
286.982	302.38
287.213	286.38
287.444	304.38
287.675	295.38
287.906	319.38
288.138	313.38
288.369	326.38
288.6	321.38
288.831	301.38
289.062	315.38
289.293	313.38
289.524	309.38
289.755	296.38
289.986	298.38
290.217	303.38
290.448	295.38
290.679	270.38
290.91	316.38
291.141	298.38
291.371	290.38
291.602	313.38
291.833	283.38
292.064	295.38
292.295	301.38
292.526	303.38
292.757	302.38
292.987	287.38
293.218	298.38
293.449	298.38
293.68	302.38
293.91	294.38
294.141	281.38
294.372	287.38
294.603	289.38
294.833	314.38
295.064	302.38
295.295	309.38
295.525	315.38
295.756	316.38
295.987	317.38
296.217	319.38
296.448	347.38
296.679	307.38
296.909	307.38
297.14	312.38
297.37	325.38
297.601	312.38
297.831	314.38
298.062	315.38
298.292	314.38
298.523	296.38
298.753	317.38
298.984	305.38
299.214	339.38
299.445	336.38
299.675	306.38
299.905	311.38
300.136	321.38
300.366	328.38
300.597	313.38
300.827	342.38
301.057	331.38
301.288	331.38
301.518	331.38
301.748	316.38
301.979	343.38
302.209	322.38
302.439	333.38
302.669	347.38
302.9	335.38
303.13	331.38
303.36	355.38
303.59	340.38
303.82	342.38
304.051	347.38
304.281	329.38
304.511	331.38
304.741	330.38
304.971	344.38
305.201	345.38
305.431	355.38
305.661	344.38
305.891	328.38
306.121	342.38
306.352	340.38
306.582	338.38
306.812	339.38
307.042	359.38
307.272	335.38
307.502	344.38
307.731	332.38
307.961	341.38
308.191	334.38
308.421	334.38
308.651	349.38
308.881	349.38
309.111	355.38
309.341	343.38
309.571	363.38
309.8	357.38
310.03	354.38
310.26	391.38
310.49	373.38
310.72	385.38
310.949	392.38
311.179	393.38
311.409	396.38
311.639	388.38
311.868	358.38
312.098	371.38
312.328	375.38
312.557	398.38
312.787	389.38
313.017	373.38
313.246	394.38
313.476	376.38
313.706	381.38
313.935	380.38
314.165	389.38
314.394	398.38
314.624	418.38
314.853	385.38
315.083	373.38
315.312	381.38
315.542	358.38
315.771	375.38
316.001	373.38
316.23	382.38
316.46	384.38
316.689	363.38
316.919	395.38
317.148	401.38
317.377	383.38
317.607	393.38
317.836	380.38
318.065	386.38
318.295	382.38
318.524	379.38
318.753	367.38
318.983	371.38
319.212	393.38
319.441	404.38
319.67	390.38
319.9	370.38
320.129	391.38
320.358	387.38
320.587	405.38
320.816	390.38
321.046	389.38
321.275	404.38
321.504	406.38
321.733	401.38
321.962	415.38
322.191	418.38
322.42	430.38
322.649	445.38
322.878	456.38
323.108	457.38
323.337	476.38
323.566	483.38
323.795	515.38
324.024	544.38
324.253	674.38
324.482	902.38
324.71	1375.38
324.939	1846.38
325.168	1562.38
325.397	836.38
325.626	595.38
325.855	540.38
326.084	488.38
326.313	487.38
326.542	504.38
326.77	539.38
326.999	614.38
327.228	866.38
327.457	1171.38
327.686	1387.38
327.914	940.38
328.143	655.38
328.372	595.38
328.6	560.38
328.829	542.38
329.058	530.38
329.287	528.38
329.515	498.38
329.744	503.38
329.972	498.38
330.201	491.38
330.43	529.38
330.658	542.38
330.887	580.38
331.115	538.38
331.344	502.38
331.572	472.38
331.801	490.38
332.03	482.38
332.258	474.38
332.486	442.38
332.715	446.38
332.943	454.38
333.172	445.38
333.4	446.38
333.629	469.38
333.857	469.38
334.085	470.38
334.314	486.38
334.542	487.38
334.771	517.38
334.999	479.38
335.227	451.38
335.455	450.38
335.684	449.38
335.912	448.38
336.14	439.38
336.369	434.38
336.597	429.38
336.825	443.38
337.053	434.38
337.281	436.38
337.51	415.38
337.738	432.38
337.966	424.38
338.194	455.38
338.422	444.38
338.65	419.38
338.878	415.38
339.106	422.38
339.334	444.38
339.562	414.38
339.79	424.38
340.018	439.38
340.246	421.38
340.474	421.38
340.702	421.38
340.93	422.38
341.158	422.38
341.386	412.38
341.614	415.38
341.842	438.38
342.07	433.38
342.298	395.38
342.526	417.38
342.754	395.38
342.981	399.38
343.209	384.38
343.437	404.38
343.665	405.38
343.893	420.38
344.12	445.38
344.348	423.38
344.576	402.38
344.804	428.38
345.031	434.38
345.259	437.38
345.487	427.38
345.714	409.38
345.942	399.38
346.17	408.38
346.397	407.38
346.625	404.38
346.853	398.38
347.08	372.38
347.308	398.38
347.535	415.38
347.763	410.38
347.99	410.38
348.218	411.38
348.445	399.38
348.673	396.38
348.9	394.38
349.128	374.38
349.355	383.38
349.583	393.38
349.81	391.38
350.037	392.38
350.265	399.38
350.492	378.38
350.72	365.38
350.947	373.38
351.174	396.38
351.402	428.38
351.629	391.38
351.856	396.38
352.083	387.38
352.311	391.38
352.538	405.38
352.765	395.38
352.992	396.38
353.22	379.38
353.447	405.38
353.674	392.38
353.901	375.38
354.128	398.38
354.355	375.38
354.583	379.38
354.81	377.38
355.037	366.38
355.264	377.38
355.491	366.38
355.718	360.38
355.945	380.38
356.172	375.38
356.399	365.38
356.626	377.38
356.853	366.38
357.08	350.38
357.307	383.38
357.534	369.38
357.761	364.38
357.988	364.38
358.215	359.38
358.441	384.38
358.668	378.38
358.895	397.38
359.122	395.38
359.349	382.38
359.576	393.38
359.802	420.38
360.029	453.38
360.256	409.38
360.483	415.38
360.709	403.38
360.936	403.38
361.163	393.38
361.39	384.38
361.616	382.38
361.843	401.38
362.07	385.38
362.296	388.38
362.523	381.38
362.749	370.38
362.976	382.38
363.203	389.38
363.429	366.38
363.656	361.38
363.882	351.38
364.109	354.38
364.335	383.38
364.562	375.38
364.788	387.38
365.015	382.38
365.241	366.38
365.468	375.38
365.694	383.38
365.92	377.38
366.147	358.38
366.373	371.38
366.599	368.38
366.826	362.38
367.052	375.38
367.278	370.38
367.505	361.38
367.731	377.38
367.957	373.38
368.184	378.38
368.41	379.38
368.636	366.38
368.862	377.38
369.089	373.38
369.315	376.38
369.541	346.38
369.767	363.38
369.993	351.38
370.219	381.38
370.445	382.38
370.672	346.38
370.898	338.38
371.124	374.38
371.35	379.38
371.576	367.38
371.802	351.38
372.028	382.38
372.254	362.38
372.48	361.38
372.706	365.38
372.932	354.38
373.158	355.38
373.384	370.38
373.61	376.38
373.835	351.38
374.061	371.38
374.287	356.38
374.513	363.38
374.739	376.38
374.965	364.38
375.191	348.38
375.416	349.38
375.642	370.38
375.868	364.38
376.094	338.38
376.319	362.38
376.545	356.38
376.771	340.38
376.997	378.38
377.222	353.38
377.448	360.38
377.674	360.38
377.899	349.38
378.125	351.38
378.35	355.38
378.576	358.38
378.802	346.38
379.027	341.38
379.253	362.38
379.478	354.38
379.704	364.38
379.929	357.38
380.155	364.38
380.38	377.38
380.606	375.38
380.831	354.38
381.057	367.38
381.282	349.38
381.507	336.38
381.733	345.38
381.958	370.38
382.184	366.38
382.409	335.38
382.634	354.38
382.86	366.38
383.085	369.38
383.31	359.38
383.535	364.38
383.761	373.38
383.986	353.38
384.211	344.38
384.436	368.38
384.662	366.38
384.887	374.38
385.112	382.38
385.337	370.38
385.562	344.38
385.787	372.38
386.013	389.38
386.238	394.38
386.463	397.38
386.688	405.38
386.913	362.38
387.138	368.38
387.363	391.38
387.588	382.38
387.813	392.38
388.038	366.38
388.263	368.38
388.488	387.38
388.713	364.38
388.938	367.38
389.163	396.38
389.387	381.38
389.612	376.38
389.837	381.38
390.062	373.38
390.287	373.38
390.512	366.38
390.736	363.38
390.961	374.38
391.186	370.38
391.411	356.38
391.636	386.38
391.86	375.38
392.085	381.38
392.31	387.38
392.534	387.38
392.759	376.38
392.984	377.38
393.208	390.38
393.433	385.38
393.658	370.38
393.882	369.38
394.107	361.38
394.331	390.38
394.556	366.38
394.78	393.38
395.005	373.38
395.229	359.38
395.454	389.38
395.678	381.38
395.903	408.38
396.127	407.38
396.352	411.38
396.576	390.38
396.801	383.38
397.025	385.38
397.249	384.38
397.474	413.38
397.698	398.38
397.922	409.38
398.147	387.38
398.371	423.38
398.595	414.38
398.82	402.38
399.044	427.38
399.268	441.38
399.492	471.38
399.717	465.38
399.941	494.38
400.165	505.38
400.389	509.38
400.613	474.38
400.837	449.38
401.062	419.38
401.286	413.38
401.51	399.38
401.734	427.38
401.958	432.38
402.182	421.38
402.406	423.38
402.63	431.38
402.854	440.38
403.078	445.38
403.302	427.38
403.526	440.38
403.75	407.38
403.974	425.38
404.198	414.38
404.422	424.38
404.645	439.38
404.869	448.38
405.093	477.38
405.317	491.38
405.541	523.38
405.765	463.38
405.988	453.38
406.212	455.38
406.436	460.38
406.66	502.38
406.883	476.38
407.107	488.38
407.331	521.38
407.555	562.38
407.778	549.38
408.002	490.38
408.226	476.38
408.449	485.38
408.673	439.38
408.896	486.38
409.12	509.38
409.344	478.38
409.567	467.38
409.791	434.38
410.014	443.38
410.238	448.38
410.461	447.38
410.685	418.38
410.908	449.38
411.132	464.38
411.355	472.38
411.578	461.38
411.802	447.38
412.025	427.38
412.249	432.38
412.472	440.38
412.695	470.38
412.919	461.38
413.142	409.38
413.365	425.38
413.589	415.38
413.812	409.38
414.035	414.38
414.258	410.38
414.482	405.38
414.705	390.38
414.928	412.38
415.151	401.38
415.374	409.38
415.597	384.38
415.821	417.38
416.044	417.38
416.267	387.38
416.49	386.38
416.713	407.38
416.936	394.38
417.159	415.38
417.382	427.38
417.605	388.38
417.828	415.38
418.051	410.38
418.274	417.38
418.497	414.38
418.72	403.38
418.943	376.38
419.166	407.38
419.389	428.38
419.611	433.38
419.834	437.38
420.057	432.38
420.28	431.38
420.503	436.38
420.726	434.38
420.948	451.38
421.171	478.38
421.394	499.38
421.617	451.38
421.839	438.38
422.062	443.38
422.285	444.38
422.507	494.38
422.73	537.38
422.953	517.38
423.175	463.38
423.398	457.38
423.621	429.38
423.843	425.38
424.066	445.38
424.288	434.38
424.511	476.38
424.733	494.38
424.956	586.38
425.178	559.38
425.401	539.38
425.623	577.38
425.846	484.38
426.068	474.38
426.291	443.38
426.513	467.38
426.735	457.38
426.958	469.38
427.18	560.38
427.402	660.38
427.625	706.38
427.847	601.38
428.069	530.38
428.292	473.38
428.514	429.38
428.736	419.38
428.958	428.38
429.181	422.38
429.403	409.38
429.625	420.38
429.847	455.38
430.069	513.38
430.292	489.38
430.514	449.38
430.736	417.38
430.958	394.38
431.18	416.38
431.402	398.38
431.624	385.38
431.846	391.38
432.068	378.38
432.29	405.38
432.512	393.38
432.734	406.38
432.956	392.38
433.178	407.38
433.4	405.38
433.622	393.38
433.844	407.38
434.066	395.38
434.287	385.38
434.509	411.38
434.731	406.38
434.953	416.38
435.175	402.38
435.397	445.38
435.618	455.38
435.84	488.38
436.062	575.38
436.284	613.38
436.505	520.38
436.727	446.38
436.949	418.38
437.17	438.38
437.392	413.38
437.614	425.38
437.835	470.38
438.057	544.38
438.278	592.38
438.5	609.38
438.721	651.38
438.943	619.38
439.165	492.38
439.386	450.38
439.608	476.38
439.829	448.38
440.05	484.38
440.272	507.38
440.493	475.38
440.715	444.38
440.936	428.38
441.158	417.38
441.379	416.38
441.6	418.38
441.822	447.38
442.043	462.38
442.264	539.38
442.486	583.38
442.707	495.38
442.928	473.38
443.149	471.38
443.371	470.38
443.592	522.38
443.813	599.38
444.034	627.38
444.255	517.38
444.476	467.38
444.698	463.38
444.919	456.38
445.14	578.38
445.361	521.38
445.582	503.38
445.803	526.38
446.024	617.38
446.245	629.38
446.466	563.38
446.687	489.38
446.908	438.38
447.129	441.38
447.35	416.38
447.571	416.38
447.792	402.38
448.013	427.38
448.234	421.38
448.455	490.38
448.675	579.38
448.896	654.38
449.117	550.38
449.338	533.38
449.559	601.38
449.779	664.38
450	541.38
450.221	440.38
450.442	421.38
450.662	409.38
450.883	421.38
451.104	407.38
451.324	398.38
451.545	406.38
451.766	397.38
451.986	360.38
452.207	366.38
452.428	376.38
452.648	385.38
452.869	383.38
453.089	371.38
453.31	380.38
453.53	370.38
453.751	365.38
453.971	367.38
454.192	380.38
454.412	379.38
454.633	373.38
454.853	367.38
455.073	361.38
455.294	397.38
455.514	439.38
455.734	416.38
455.955	362.38
456.175	350.38
456.395	338.38
456.616	343.38
456.836	353.38
457.056	360.38
457.276	351.38
457.497	344.38
457.717	352.38
457.937	341.38
458.157	334.38
458.377	369.38
458.598	373.38
458.818	415.38
459.038	474.38
459.258	490.38
459.478	418.38
459.698	398.38
459.918	376.38
460.138	389.38
460.358	408.38
460.578	394.38
460.798	389.38
461.018	395.38
461.238	420.38
461.458	383.38
461.678	373.38
461.898	387.38
462.118	394.38
462.338	402.38
462.558	407.38
462.777	393.38
462.997	421.38
463.217	427.38
463.437	418.38
463.657	407.38
463.876	410.38
464.096	415.38
464.316	393.38
464.536	418.38
464.755	405.38
464.975	417.38
465.195	457.38
465.414	483.38
465.634	447.38
465.854	402.38
466.073	378.38
466.293	386.38
466.512	370.38
466.732	373.38
466.951	373.38
467.171	367.38
467.391	367.38
467.61	380.38
467.829	383.38
468.049	374.38
468.268	370.38
468.488	385.38
468.707	373.38
468.927	380.38
469.146	377.38
469.365	359.38
469.585	379.38
469.804	373.38
470.023	395.38
470.243	395.38
470.462	387.38
470.681	399.38
470.901	385.38
471.12	393.38
471.339	395.38
471.558	397.38
471.777	382.38
471.997	372.38
472.216	377.38
472.435	413.38
472.654	412.38
472.873	382.38
473.092	385.38
473.311	360.38
473.53	373.38
473.749	400.38
473.968	441.38
474.187	511.38
474.406	522.38
474.625	432.38
474.844	375.38
475.063	410.38
475.282	379.38
475.501	377.38
475.72	398.38
475.939	377.38
476.158	381.38
476.377	389.38
476.596	386.38
476.814	387.38
477.033	394.38
477.252	432.38
477.471	411.38
477.69	401.38
477.908	425.38
478.127	429.38
478.346	428.38
478.564	445.38
478.783	415.38
479.002	415.38
479.22	425.38
479.439	448.38
479.658	447.38
479.876	447.38
480.095	463.38
480.313	478.38
480.532	466.38
480.751	471.38
480.969	437.38
481.188	494.38
481.406	517.38
481.624	475.38
481.843	448.38
482.061	435.38
482.28	438.38
482.498	449.38
482.717	441.38
482.935	428.38
483.153	442.38
483.372	421.38
483.59	466.38
483.808	441.38
484.027	440.38
484.245	429.38
484.463	449.38
484.681	462.38
484.9	437.38
485.118	469.38
485.336	453.38
485.554	451.38
485.772	453.38
485.99	457.38
486.209	465.38
486.427	456.38
486.645	471.38
486.863	471.38
487.081	471.38
487.299	460.38
487.517	478.38
487.735	476.38
487.953	468.38
488.171	459.38
488.389	471.38
488.607	466.38
488.825	493.38
489.043	466.38
489.261	477.38
489.479	476.38
489.696	494.38
489.914	504.38
490.132	473.38
490.35	480.38
490.568	512.38
490.786	501.38
491.003	519.38
491.221	529.38
491.439	541.38
491.657	541.38
491.874	551.38
492.092	556.38
492.31	556.38
492.527	562.38
492.745	537.38
492.963	559.38
493.18	569.38
493.398	575.38
493.615	573.38
493.833	571.38
494.05	568.38
494.268	559.38
494.485	556.38
494.703	574.38
494.92	561.38
495.138	570.38
495.355	567.38
495.573	580.38
495.79	579.38
496.008	545.38
496.225	582.38
496.442	555.38
496.66	562.38
496.877	537.38
497.094	568.38
497.312	587.38
497.529	555.38
497.746	568.38
497.963	582.38
498.181	611.38
498.398	610.38
498.615	596.38
498.832	632.38
499.049	631.38
499.267	642.38
499.484	639.38
499.701	666.38
499.918	681.38
500.135	713.38
500.352	738.38
500.569	726.38
500.786	745.38
501.003	727.38
501.22	723.38
501.437	690.38
501.654	676.38
501.871	694.38
502.088	663.38
502.305	618.38
502.522	608.38
502.739	609.38
502.956	594.38
503.172	585.38
503.389	577.38
503.606	565.38
503.823	564.38
504.04	569.38
504.256	580.38
504.473	570.38
504.69	560.38
504.907	569.38
505.123	558.38
505.34	547.38
505.557	530.38
505.773	525.38
505.99	525.38
506.207	520.38
506.423	554.38
506.64	530.38
506.856	529.38
507.073	514.38
507.289	514.38
507.506	519.38
507.722	526.38
507.939	515.38
508.155	523.38
508.372	489.38
508.588	512.38
508.805	489.38
509.021	521.38
509.238	509.38
509.454	516.38
509.67	512.38
509.887	510.38
510.103	505.38
510.319	523.38
510.536	570.38
510.752	856.38
510.968	702.38
511.184	515.38
511.401	477.38
511.617	491.38
511.833	476.38
512.049	482.38
512.265	486.38
512.481	483.38
512.698	475.38
512.914	461.38
513.13	483.38
513.346	477.38
513.562	489.38
513.778	486.38
513.994	493.38
514.21	508.38
514.426	495.38
514.642	514.38
514.858	543.38
515.074	571.38
515.29	685.38
515.506	913.38
515.721	755.38
515.937	569.38
516.153	507.38
516.369	527.38
516.585	504.38
516.801	450.38
517.016	497.38
517.232	481.38
517.448	482.38
517.664	479.38
517.879	479.38
518.095	473.38
518.311	476.38
518.527	455.38
518.742	479.38
518.958	487.38
519.173	469.38
519.389	463.38
519.605	478.38
519.82	465.38
520.036	491.38
520.251	491.38
520.467	518.38
520.682	500.38
520.898	522.38
521.113	523.38
521.329	541.38
521.544	622.38
521.76	761.38
521.975	1153.38
522.19	1098.38
522.406	673.38
522.621	527.38
522.836	472.38
523.052	444.38
523.267	439.38
523.482	428.38
523.698	418.38
523.913	435.38
524.128	422.38
524.343	432.38
524.559	430.38
524.774	416.38
524.989	414.38
525.204	417.38
525.419	429.38
525.634	403.38
525.849	386.38
526.064	401.38
526.28	408.38
526.495	390.38
526.71	399.38
526.925	392.38
527.14	382.38
527.355	381.38
527.57	379.38
527.785	381.38
527.999	381.38
528.214	369.38
528.429	376.38
528.644	364.38
528.859	393.38
529.074	393.38
529.289	411.38
529.503	448.38
529.718	463.38
529.933	424.38
530.148	413.38
530.363	399.38
530.577	395.38
530.792	383.38
531.007	377.38
531.221	394.38
531.436	381.38
531.651	384.38
531.865	370.38
532.08	369.38
532.295	387.38
532.509	364.38
532.724	369.38
532.938	367.38
533.153	382.38
533.367	359.38
533.582	349.38
533.796	358.38
534.011	368.38
534.225	389.38
534.44	365.38
534.654	383.38
534.868	366.38
535.083	375.38
535.297	375.38
535.511	370.38
535.726	397.38
535.94	383.38
536.154	367.38
536.369	388.38
536.583	361.38
536.797	359.38
537.011	360.38
537.225	356.38
537.44	366.38
537.654	360.38
537.868	365.38
538.082	361.38
538.296	370.38
538.51	387.38
538.724	361.38
538.938	375.38
539.153	354.38
539.367	389.38
539.581	361.38
539.795	365.38
540.009	376.38
540.222	359.38
540.436	369.38
540.65	366.38
540.864	383.38
541.078	377.38
541.292	387.38
541.506	381.38
541.72	367.38
541.934	387.38
542.147	388.38
542.361	382.38
542.575	365.38
542.789	374.38
543.002	351.38
543.216	377.38
543.43	374.38
543.644	374.38
543.857	379.38
544.071	366.38
544.285	368.38
544.498	358.38
544.712	363.38
544.925	357.38
545.139	357.38
545.352	377.38
545.566	376.38
545.779	379.38
545.993	381.38
546.206	371.38
546.42	357.38
546.633	359.38
546.847	361.38
547.06	337.38
547.274	342.38
547.487	367.38
547.7	354.38
547.914	355.38
548.127	366.38
548.34	363.38
548.554	353.38
548.767	365.38
548.98	370.38
549.193	352.38
549.407	350.38
549.62	347.38
549.833	366.38
550.046	359.38
550.259	340.38
550.473	348.38
550.686	363.38
550.899	348.38
551.112	337.38
551.325	336.38
551.538	333.38
551.751	339.38
551.964	348.38
552.177	333.38
552.39	346.38
552.603	343.38
552.816	345.38
553.029	339.38
553.242	339.38
553.455	386.38
553.667	362.38
553.88	369.38
554.093	349.38
554.306	360.38
554.519	351.38
554.732	325.38
554.944	356.38
555.157	336.38
555.37	336.38
555.583	337.38
555.795	343.38
556.008	340.38
556.221	308.38
556.433	323.38
556.646	317.38
556.859	350.38
557.071	325.38
557.284	301.38
557.496	322.38
557.709	314.38
557.921	306.38
558.134	306.38
558.346	316.38
558.559	331.38
558.771	322.38
558.984	319.38
559.196	320.38
559.409	304.38
559.621	304.38
559.833	317.38
560.046	312.38
560.258	305.38
560.47	328.38
560.683	309.38
560.895	314.38
561.107	303.38
561.32	304.38
561.532	306.38
561.744	307.38
561.956	305.38
562.168	309.38
562.381	297.38
562.593	311.38
562.805	309.38
563.017	312.38
563.229	324.38
563.441	324.38
563.653	316.38
563.865	311.38
564.077	319.38
564.289	302.38
564.501	325.38
564.713	335.38
564.925	309.38
565.137	318.38
565.349	330.38
565.561	323.38
565.773	347.38
565.985	326.38
566.197	338.38
566.408	358.38
566.62	349.38
566.832	363.38
567.044	360.38
567.255	358.38
567.467	366.38
567.679	379.38
567.891	387.38
568.102	369.38
568.314	363.38
568.526	334.38
568.737	328.38
568.949	317.38
569.161	297.38
569.372	322.38
569.584	304.38
569.795	320.38
570.007	312.38
570.218	338.38
570.43	351.38
570.641	318.38
570.853	315.38
571.064	321.38
571.276	291.38
571.487	301.38
571.698	274.38
571.91	270.38
572.121	268.38
572.333	267.38
572.544	276.38
572.755	288.38
572.966	267.38
573.178	277.38
573.389	258.38
573.6	272.38
573.811	283.38
574.023	273.38
574.234	281.38
574.445	268.38
574.656	277.38
574.867	256.38
575.078	258.38
575.289	271.38
575.501	271.38
575.712	262.38
575.923	258.38
576.134	264.38
576.345	271.38
576.556	269.38
576.767	270.38
576.978	243.38
577.188	274.38
577.399	279.38
577.61	270.38
577.821	253.38
578.032	266.38
578.243	281.38
578.454	432.38
578.665	327.38
578.875	253.38
579.086	243.38
579.297	247.38
579.508	261.38
579.718	235.38
579.929	243.38
580.14	241.38
580.35	249.38
580.561	230.38
580.772	250.38
580.982	242.38
581.193	233.38
581.403	256.38
581.614	257.38
581.825	237.38
582.035	255.38
582.246	260.38
582.456	241.38
582.667	233.38
582.877	249.38
583.087	250.38
583.298	245.38
583.508	231.38
583.719	227.38
583.929	234.38
584.139	241.38
584.35	230.38
584.56	241.38
584.77	222.38
584.981	237.38
585.191	225.38
585.401	245.38
585.611	226.38
585.821	237.38
586.032	225.38
586.242	229.38
586.452	235.38
586.662	243.38
586.872	217.38
587.082	216.38
587.292	227.38
587.502	235.38
587.713	226.38
587.923	239.38
588.133	239.38
588.343	220.38
588.553	217.38
588.762	236.38
588.972	233.38
589.182	232.38
589.392	223.38
589.602	219.38
589.812	247.38
590.022	251.38
590.232	238.38
590.441	221.38
590.651	233.38
590.861	237.38
591.071	233.38
591.281	240.38
591.49	246.38
591.7	235.38
591.91	257.38
592.119	224.38
592.329	251.38
592.539	233.38
592.748	246.38
592.958	231.38
593.167	251.38
593.377	221.38
593.587	247.38
593.796	236.38
594.006	252.38
594.215	238.38
594.424	258.38
594.634	243.38
594.843	236.38
595.053	247.38
595.262	234.38
595.472	221.38
595.681	219.38
595.89	226.38
596.1	245.38
596.309	237.38
596.518	227.38
596.727	234.38
596.937	232.38
597.146	231.38
597.355	221.38
597.564	216.38
597.774	214.38
597.983	225.38
598.192	224.38
598.401	225.38
598.61	216.38
598.819	218.38
599.028	215.38
599.237	222.38
599.446	201.38
599.655	214.38
599.864	208.38
600.073	202.38
600.282	207.38
600.491	199.38
600.7	209.38
600.909	198.38
601.118	214.38
601.327	211.38
601.536	214.38
601.745	225.38
601.953	209.38
602.162	213.38
602.371	206.38
602.58	211.38
602.789	209.38
602.997	209.38
603.206	201.38
603.415	213.38
603.623	207.38
603.832	197.38
604.041	218.38
604.249	217.38
604.458	213.38
604.666	211.38
604.875	207.38
605.084	201.38
605.292	215.38
605.501	196.38
605.709	203.38
605.918	214.38
606.126	213.38
606.334	191.38
606.543	217.38
606.751	217.38
606.96	211.38
607.168	210.38
607.376	192.38
607.585	211.38
607.793	200.38
608.001	218.38
608.21	198.38
608.418	213.38
608.626	206.38
608.834	200.38
609.043	203.38
609.251	207.38
609.459	215.38
609.667	213.38
609.875	207.38
610.083	203.38
610.291	200.38
610.499	205.38
610.707	190.38
610.916	219.38
611.124	207.38
611.332	227.38
611.54	224.38
611.748	209.38
611.955	197.38
612.163	210.38
612.371	203.38
612.579	207.38
612.787	202.38
612.995	210.38
613.203	202.38
613.411	189.38
613.618	211.38
613.826	203.38
614.034	211.38
614.242	224.38
614.449	197.38
614.657	196.38
614.865	202.38
615.072	204.38
615.28	212.38
615.488	201.38
615.695	208.38
615.903	200.38
616.111	201.38
616.318	213.38
616.526	196.38
616.733	190.38
616.941	200.38
617.148	193.38
617.356	206.38
617.563	200.38
617.771	215.38
617.978	178.38
618.185	202.38
618.393	202.38
618.6	189.38
618.807	219.38
619.015	200.38
619.222	201.38
619.429	199.38
619.637	200.38
619.844	186.38
620.051	184.38
620.258	169.38
620.466	181.38
620.673	181.38
620.88	186.38
621.087	194.38
621.294	167.38
621.501	167.38
621.708	186.38
621.915	198.38
622.122	204.38
622.329	182.38
622.536	200.38
622.743	191.38
622.95	187.38
623.157	185.38
623.364	189.38
623.571	173.38
623.778	199.38
623.985	174.38
624.192	188.38
624.399	174.38
624.606	188.38
624.812	186.38
625.019	192.38
625.226	186.38
625.433	186.38
625.639	198.38
625.846	188.38
626.053	183.38
626.259	187.38
626.466	162.38
626.673	177.38
626.879	184.38
627.086	175.38
627.293	181.38
627.499	209.38
627.706	178.38
627.912	188.38
628.119	186.38
628.325	186.38
628.532	195.38
628.738	165.38
628.945	169.38
629.151	179.38
629.357	174.38
629.564	171.38
629.77	168.38
629.976	174.38
630.183	184.38
630.389	169.38
630.595	169.38
630.802	178.38
631.008	170.38
631.214	176.38
631.42	186.38
631.627	167.38
631.833	161.38
632.039	182.38
632.245	138.38
632.451	150.38
632.657	166.38
632.863	176.38
633.069	175.38
633.275	170.38
633.481	149.38
633.688	169.38
633.893	186.38
634.099	155.38
634.305	183.38
634.511	153.38
634.717	144.38
634.923	171.38
635.129	153.38
635.335	163.38
635.541	158.38
635.747	156.38
635.952	155.38
636.158	157.38
636.364	161.38
636.57	161.38
636.775	167.38
636.981	161.38
637.187	145.38
637.392	167.38
637.598	167.38
637.804	167.38
638.009	150.38
638.215	167.38
638.421	155.38
638.626	159.38
638.832	151.38
639.037	158.38
639.243	147.38
639.448	147.38
639.654	143.38
639.859	163.38
640.065	154.38
640.27	153.38
640.475	151.38
640.681	148.38
640.886	147.38
641.091	145.38
641.297	159.38
641.502	157.38
641.707	148.38
641.913	138.38
642.118	157.38
642.323	159.38
642.528	173.38
642.733	152.38
642.939	130.38
643.144	156.38
643.349	174.38
643.554	161.38
643.759	146.38
643.964	153.38
644.169	173.38
644.374	147.38
644.579	150.38
644.784	151.38
644.989	166.38
645.194	162.38
645.399	160.38
645.604	155.38
645.809	153.38
646.014	163.38
646.219	146.38
646.423	157.38
646.628	145.38
646.833	158.38
647.038	157.38
647.243	154.38
647.447	161.38
647.652	159.38
647.857	155.38
648.062	145.38
648.266	145.38
648.471	157.38
648.676	145.38
648.88	154.38
649.085	159.38
649.289	161.38
649.494	135.38
649.698	162.38
649.903	172.38
650.107	136.38
650.312	140.38
650.516	161.38
650.721	153.38
650.925	151.38
651.13	142.38
651.334	159.38
651.539	149.38
651.743	132.38
651.947	153.38
652.152	142.38
652.356	139.38
652.56	135.38
652.764	124.38
652.969	130.38
653.173	136.38
653.377	145.38
653.581	136.38
653.785	127.38
653.99	137.38
654.194	134.38
654.398	127.38
654.602	122.38
654.806	131.38
655.01	135.38
655.214	129.38
655.418	127.38
655.622	132.38
655.826	133.38
656.03	144.38
656.234	124.38
656.438	125.38
656.642	133.38
656.846	117.38
657.049	130.38
657.253	128.38
657.457	107.38
657.661	115.38
657.865	119.38
658.068	120.38
658.272	113.38
658.476	98.38
658.68	106.38
658.883	100.38
659.087	105.38
659.291	98.38
659.494	102.38
659.698	104.38
659.901	103.38
660.105	102.38
660.309	97.38
660.512	101.38
660.716	87.38
660.919	113.38
661.123	89.38
661.326	92.38
661.53	86.38
661.733	98.38
661.936	93.38
662.14	84.38
662.343	92.38
662.546	71.38
662.75	83.38
662.953	87.38
663.156	90.38
663.36	86.38
663.563	93.38
663.766	89.38
663.969	87.38
664.173	77.38
664.376	82.38
664.579	87.38
664.782	94.38
664.985	88.38
665.188	81.38
665.391	70.38
665.594	96.38
665.797	85.38
666	94.38
666.203	88.38
666.406	82.38
666.609	86.38
666.812	75.38
667.015	99.38
667.218	81.38
667.421	91.38
667.624	75.38
667.827	82.38
668.03	75.38
668.232	97.38
668.435	87.38
668.638	83.38
668.841	84.38
669.043	89.38
669.246	96.38
669.449	87.38
669.651	94.38
669.854	82.38
670.057	87.38
670.259	94.38
670.462	93.38
670.665	93.38
670.867	92.38
671.07	78.38
671.272	97.38
671.475	82.38
671.677	81.38
671.88	88.38
672.082	77.38
672.284	74.38
672.487	87.38
672.689	79.38
672.892	93.38
