Data from 1972.PennyLincolnUp.Lamp.En5.5.200Scan.071719.P1._HRD10591_15-28-42-844.txt Node
Date: Thu Jul 18 15:28:42 EDT 2019
User: cochatt
Spectrometer: HR+D1059
Trigger mode: 1
Integration Time (sec): 1.000000E-1
Scans to average: 1
Electric dark correction enabled: true
Nonlinearity correction enabled: false
Boxcar width: 0
XAxis mode: Wavelengths
Number of Pixels in Spectrum: 2048
>>>>>Begin Spectral Data<<<<<
223.165	-16.25
223.4	-16.25
223.635	-16.25
223.869	-17.25
224.104	-14.25
224.338	-12.25
224.573	-26.25
224.808	-5.25
225.042	-15.25
225.277	1.75
225.511	0.75
225.746	-0.25
225.98	2.75
226.215	9.75
226.449	9.75
226.683	27.75
226.918	33.75
227.152	20.75
227.387	27.75
227.621	39.75
227.856	47.75
228.09	42.75
228.324	48.75
228.559	48.75
228.793	51.75
229.027	101.75
229.262	124.75
229.496	113.75
229.73	144.75
229.964	156.75
230.199	153.75
230.433	116.75
230.667	107.75
230.901	119.75
231.136	109.75
231.37	93.75
231.604	109.75
231.838	98.75
232.072	113.75
232.306	109.75
232.541	101.75
232.775	104.75
233.009	115.75
233.243	115.75
233.477	106.75
233.711	127.75
233.945	111.75
234.179	121.75
234.413	126.75
234.647	121.75
234.881	115.75
235.115	115.75
235.349	109.75
235.583	120.75
235.817	135.75
236.051	123.75
236.285	123.75
236.519	114.75
236.753	132.75
236.987	148.75
237.221	196.75
237.455	253.75
237.689	203.75
237.922	125.75
238.156	124.75
238.39	142.75
238.624	133.75
238.858	129.75
239.091	122.75
239.325	106.75
239.559	129.75
239.793	133.75
240.027	152.75
240.26	143.75
240.494	169.75
240.728	165.75
240.961	177.75
241.195	144.75
241.429	138.75
241.662	149.75
241.896	141.75
242.13	119.75
242.363	130.75
242.597	121.75
242.83	134.75
243.064	138.75
243.298	140.75
243.531	134.75
243.765	124.75
243.998	141.75
244.232	139.75
244.465	153.75
244.699	145.75
244.932	161.75
245.166	135.75
245.399	155.75
245.633	153.75
245.866	156.75
246.099	151.75
246.333	141.75
246.566	145.75
246.8	167.75
247.033	153.75
247.266	153.75
247.5	156.75
247.733	179.75
247.966	180.75
248.2	169.75
248.433	173.75
248.666	187.75
248.899	192.75
249.133	201.75
249.366	229.75
249.599	215.75
249.832	205.75
250.066	188.75
250.299	190.75
250.532	197.75
250.765	205.75
250.998	239.75
251.231	227.75
251.465	225.75
251.698	223.75
251.931	218.75
252.164	195.75
252.397	204.75
252.63	203.75
252.863	212.75
253.096	223.75
253.329	243.75
253.562	256.75
253.795	225.75
254.028	215.75
254.261	225.75
254.494	214.75
254.727	270.75
254.96	321.75
255.193	301.75
255.426	260.75
255.659	248.75
255.892	236.75
256.124	257.75
256.357	259.75
256.59	239.75
256.823	232.75
257.056	215.75
257.289	218.75
257.521	221.75
257.754	225.75
257.987	203.75
258.22	204.75
258.452	218.75
258.685	216.75
258.918	210.75
259.151	215.75
259.383	217.75
259.616	233.75
259.849	245.75
260.081	242.75
260.314	271.75
260.547	292.75
260.779	247.75
261.012	257.75
261.244	236.75
261.477	238.75
261.71	243.75
261.942	265.75
262.175	246.75
262.407	239.75
262.64	227.75
262.872	221.75
263.105	212.75
263.337	219.75
263.57	200.75
263.802	216.75
264.035	226.75
264.267	221.75
264.499	202.75
264.732	206.75
264.964	225.75
265.197	226.75
265.429	227.75
265.661	195.75
265.894	222.75
266.126	210.75
266.358	218.75
266.591	219.75
266.823	221.75
267.055	223.75
267.287	228.75
267.52	219.75
267.752	214.75
267.984	241.75
268.216	220.75
268.448	245.75
268.681	243.75
268.913	245.75
269.145	267.75
269.377	274.75
269.609	291.75
269.841	272.75
270.073	277.75
270.306	314.75
270.538	328.75
270.77	330.75
271.002	321.75
271.234	309.75
271.466	337.75
271.698	336.75
271.93	345.75
272.162	344.75
272.394	320.75
272.626	315.75
272.858	308.75
273.09	308.75
273.322	286.75
273.553	255.75
273.785	240.75
274.017	277.75
274.249	263.75
274.481	258.75
274.713	263.75
274.945	282.75
275.176	282.75
275.408	279.75
275.64	275.75
275.872	265.75
276.104	271.75
276.335	265.75
276.567	285.75
276.799	294.75
277.031	311.75
277.262	348.75
277.494	327.75
277.726	311.75
277.957	297.75
278.189	308.75
278.421	291.75
278.652	262.75
278.884	281.75
279.115	265.75
279.347	272.75
279.579	273.75
279.81	267.75
280.042	263.75
280.273	257.75
280.505	265.75
280.736	265.75
280.968	264.75
281.199	271.75
281.431	273.75
281.662	273.75
281.894	280.75
282.125	268.75
282.356	296.75
282.588	321.75
282.819	309.75
283.051	271.75
283.282	275.75
283.513	270.75
283.745	280.75
283.976	261.75
284.207	278.75
284.439	277.75
284.67	271.75
284.901	286.75
285.132	284.75
285.364	279.75
285.595	267.75
285.826	278.75
286.057	296.75
286.288	271.75
286.52	266.75
286.751	284.75
286.982	278.75
287.213	279.75
287.444	259.75
287.675	270.75
287.906	298.75
288.138	300.75
288.369	281.75
288.6	286.75
288.831	283.75
289.062	301.75
289.293	288.75
289.524	285.75
289.755	265.75
289.986	260.75
290.217	289.75
290.448	279.75
290.679	285.75
290.91	285.75
291.141	263.75
291.371	291.75
291.602	281.75
291.833	275.75
292.064	277.75
292.295	278.75
292.526	265.75
292.757	272.75
292.987	272.75
293.218	273.75
293.449	284.75
293.68	283.75
293.91	279.75
294.141	275.75
294.372	293.75
294.603	296.75
294.833	279.75
295.064	266.75
295.295	291.75
295.525	291.75
295.756	296.75
295.987	301.75
296.217	328.75
296.448	335.75
296.679	307.75
296.909	296.75
297.14	291.75
297.37	273.75
297.601	294.75
297.831	306.75
298.062	300.75
298.292	293.75
298.523	295.75
298.753	293.75
298.984	279.75
299.214	298.75
299.445	281.75
299.675	309.75
299.905	301.75
300.136	315.75
300.366	305.75
300.597	303.75
300.827	309.75
301.057	305.75
301.288	331.75
301.518	310.75
301.748	311.75
301.979	310.75
302.209	316.75
302.439	327.75
302.669	316.75
302.9	310.75
303.13	318.75
303.36	318.75
303.59	319.75
303.82	345.75
304.051	338.75
304.281	325.75
304.511	316.75
304.741	323.75
304.971	320.75
305.201	312.75
305.431	321.75
305.661	318.75
305.891	330.75
306.121	327.75
306.352	312.75
306.582	352.75
306.812	320.75
307.042	323.75
307.272	329.75
307.502	329.75
307.731	325.75
307.961	320.75
308.191	328.75
308.421	331.75
308.651	339.75
308.881	317.75
309.111	341.75
309.341	330.75
309.571	359.75
309.8	354.75
310.03	385.75
310.26	377.75
310.49	382.75
310.72	388.75
310.949	411.75
311.179	414.75
311.409	408.75
311.639	384.75
311.868	374.75
312.098	377.75
312.328	406.75
312.557	393.75
312.787	419.75
313.017	432.75
313.246	407.75
313.476	378.75
313.706	383.75
313.935	385.75
314.165	402.75
314.394	427.75
314.624	423.75
314.853	385.75
315.083	379.75
315.312	382.75
315.542	365.75
315.771	369.75
316.001	369.75
316.23	387.75
316.46	364.75
316.689	375.75
316.919	374.75
317.148	378.75
317.377	395.75
317.607	386.75
317.836	366.75
318.065	378.75
318.295	368.75
318.524	384.75
318.753	363.75
318.983	349.75
319.212	386.75
319.441	410.75
319.67	394.75
319.9	388.75
320.129	377.75
320.358	377.75
320.587	356.75
320.816	403.75
321.046	408.75
321.275	407.75
321.504	391.75
321.733	413.75
321.962	429.75
322.191	428.75
322.42	468.75
322.649	483.75
322.878	476.75
323.108	468.75
323.337	532.75
323.566	552.75
323.795	607.75
324.024	679.75
324.253	808.75
324.482	1226.75
324.71	1922.75
324.939	2851.75
325.168	2487.75
325.397	1230.75
325.626	823.75
325.855	635.75
326.084	565.75
326.313	571.75
326.542	568.75
326.77	631.75
326.999	767.75
327.228	1111.75
327.457	1675.75
327.686	2133.75
327.914	1413.75
328.143	889.75
328.372	724.75
328.6	675.75
328.829	647.75
329.058	680.75
329.287	674.75
329.515	625.75
329.744	575.75
329.972	549.75
330.201	587.75
330.43	639.75
330.658	690.75
330.887	689.75
331.115	687.75
331.344	563.75
331.572	544.75
331.801	524.75
332.03	526.75
332.258	502.75
332.486	456.75
332.715	453.75
332.943	446.75
333.172	447.75
333.4	453.75
333.629	457.75
333.857	477.75
334.085	498.75
334.314	533.75
334.542	525.75
334.771	602.75
334.999	526.75
335.227	473.75
335.455	442.75
335.684	445.75
335.912	464.75
336.14	447.75
336.369	431.75
336.597	450.75
336.825	447.75
337.053	445.75
337.281	451.75
337.51	420.75
337.738	431.75
337.966	429.75
338.194	431.75
338.422	450.75
338.65	420.75
338.878	414.75
339.106	413.75
339.334	407.75
339.562	398.75
339.79	412.75
340.018	398.75
340.246	425.75
340.474	437.75
340.702	447.75
340.93	423.75
341.158	433.75
341.386	428.75
341.614	419.75
341.842	417.75
342.07	423.75
342.298	407.75
342.526	403.75
342.754	414.75
342.981	380.75
343.209	397.75
343.437	406.75
343.665	397.75
343.893	400.75
344.12	403.75
344.348	394.75
344.576	433.75
344.804	439.75
345.031	440.75
345.259	450.75
345.487	439.75
345.714	455.75
345.942	426.75
346.17	415.75
346.397	410.75
346.625	405.75
346.853	396.75
347.08	400.75
347.308	423.75
347.535	425.75
347.763	421.75
347.99	416.75
348.218	443.75
348.445	436.75
348.673	419.75
348.9	405.75
349.128	388.75
349.355	397.75
349.583	391.75
349.81	390.75
350.037	391.75
350.265	391.75
350.492	396.75
350.72	396.75
350.947	412.75
351.174	424.75
351.402	415.75
351.629	441.75
351.856	421.75
352.083	431.75
352.311	413.75
352.538	419.75
352.765	430.75
352.992	416.75
353.22	425.75
353.447	410.75
353.674	417.75
353.901	397.75
354.128	380.75
354.355	371.75
354.583	379.75
354.81	364.75
355.037	364.75
355.264	371.75
355.491	354.75
355.718	345.75
355.945	375.75
356.172	359.75
356.399	339.75
356.626	364.75
356.853	356.75
357.08	369.75
357.307	351.75
357.534	359.75
357.761	370.75
357.988	360.75
358.215	359.75
358.441	382.75
358.668	378.75
358.895	380.75
359.122	360.75
359.349	388.75
359.576	414.75
359.802	421.75
360.029	470.75
360.256	481.75
360.483	476.75
360.709	433.75
360.936	397.75
361.163	406.75
361.39	426.75
361.616	440.75
361.843	424.75
362.07	396.75
362.296	401.75
362.523	395.75
362.749	411.75
362.976	422.75
363.203	401.75
363.429	394.75
363.656	367.75
363.882	389.75
364.109	371.75
364.335	387.75
364.562	385.75
364.788	371.75
365.015	360.75
365.241	371.75
365.468	374.75
365.694	388.75
365.92	390.75
366.147	373.75
366.373	380.75
366.599	376.75
366.826	377.75
367.052	376.75
367.278	371.75
367.505	377.75
367.731	378.75
367.957	369.75
368.184	369.75
368.41	378.75
368.636	391.75
368.862	400.75
369.089	390.75
369.315	383.75
369.541	381.75
369.767	373.75
369.993	368.75
370.219	379.75
370.445	363.75
370.672	369.75
370.898	371.75
371.124	373.75
371.35	361.75
371.576	361.75
371.802	371.75
372.028	359.75
372.254	359.75
372.48	368.75
372.706	348.75
372.932	356.75
373.158	384.75
373.384	359.75
373.61	355.75
373.835	364.75
374.061	357.75
374.287	360.75
374.513	347.75
374.739	365.75
374.965	374.75
375.191	369.75
375.416	372.75
375.642	365.75
375.868	354.75
376.094	348.75
376.319	373.75
376.545	359.75
376.771	377.75
376.997	338.75
377.222	360.75
377.448	374.75
377.674	368.75
377.899	352.75
378.125	351.75
378.35	354.75
378.576	353.75
378.802	360.75
379.027	363.75
379.253	367.75
379.478	372.75
379.704	357.75
379.929	366.75
380.155	371.75
380.38	357.75
380.606	357.75
380.831	351.75
381.057	379.75
381.282	361.75
381.507	368.75
381.733	357.75
381.958	360.75
382.184	354.75
382.409	368.75
382.634	362.75
382.86	349.75
383.085	371.75
383.31	370.75
383.535	367.75
383.761	386.75
383.986	368.75
384.211	372.75
384.436	376.75
384.662	377.75
384.887	359.75
385.112	399.75
385.337	387.75
385.562	380.75
385.787	388.75
386.013	392.75
386.238	397.75
386.463	405.75
386.688	399.75
386.913	382.75
387.138	371.75
387.363	385.75
387.588	377.75
387.813	387.75
388.038	377.75
388.263	388.75
388.488	399.75
388.713	379.75
388.938	383.75
389.163	393.75
389.387	368.75
389.612	381.75
389.837	373.75
390.062	397.75
390.287	390.75
390.512	392.75
390.736	381.75
390.961	370.75
391.186	376.75
391.411	385.75
391.636	391.75
391.86	378.75
392.085	377.75
392.31	394.75
392.534	407.75
392.759	401.75
392.984	382.75
393.208	379.75
393.433	388.75
393.658	391.75
393.882	398.75
394.107	390.75
394.331	379.75
394.556	389.75
394.78	382.75
395.005	367.75
395.229	410.75
395.454	399.75
395.678	401.75
395.903	402.75
396.127	419.75
396.352	414.75
396.576	413.75
396.801	402.75
397.025	382.75
397.249	396.75
397.474	409.75
397.698	405.75
397.922	397.75
398.147	443.75
398.371	410.75
398.595	427.75
398.82	458.75
399.044	419.75
399.268	437.75
399.492	460.75
399.717	482.75
399.941	512.75
400.165	506.75
400.389	535.75
400.613	514.75
400.837	471.75
401.062	460.75
401.286	451.75
401.51	415.75
401.734	437.75
401.958	453.75
402.182	421.75
402.406	452.75
402.63	463.75
402.854	460.75
403.078	434.75
403.302	463.75
403.526	462.75
403.75	454.75
403.974	459.75
404.198	454.75
404.422	435.75
404.645	472.75
404.869	463.75
405.093	499.75
405.317	553.75
405.541	600.75
405.765	535.75
405.988	476.75
406.212	501.75
406.436	507.75
406.66	532.75
406.883	507.75
407.107	527.75
407.331	587.75
407.555	660.75
407.778	621.75
408.002	542.75
408.226	530.75
408.449	519.75
408.673	484.75
408.896	563.75
409.12	579.75
409.344	549.75
409.567	510.75
409.791	483.75
410.014	468.75
410.238	450.75
410.461	465.75
410.685	466.75
410.908	484.75
411.132	534.75
411.355	549.75
411.578	541.75
411.802	476.75
412.025	467.75
412.249	473.75
412.472	492.75
412.695	518.75
412.919	550.75
413.142	484.75
413.365	455.75
413.589	457.75
413.812	432.75
414.035	443.75
414.258	435.75
414.482	431.75
414.705	434.75
414.928	425.75
415.151	428.75
415.374	428.75
415.597	428.75
415.821	409.75
416.044	412.75
416.267	429.75
416.49	422.75
416.713	440.75
416.936	416.75
417.159	415.75
417.382	457.75
417.605	445.75
417.828	422.75
418.051	442.75
418.274	455.75
418.497	444.75
418.72	444.75
418.943	428.75
419.166	415.75
419.389	456.75
419.611	455.75
419.834	448.75
420.057	453.75
420.28	467.75
420.503	458.75
420.726	480.75
420.948	466.75
421.171	522.75
421.394	554.75
421.617	483.75
421.839	455.75
422.062	460.75
422.285	485.75
422.507	541.75
422.73	616.75
422.953	604.75
423.175	505.75
423.398	470.75
423.621	489.75
423.843	516.75
424.066	519.75
424.288	501.75
424.511	532.75
424.733	589.75
424.956	690.75
425.178	631.75
425.401	656.75
425.623	653.75
425.846	557.75
426.068	511.75
426.291	535.75
426.513	499.75
426.735	530.75
426.958	585.75
427.18	652.75
427.402	810.75
427.625	890.75
427.847	811.75
428.069	695.75
428.292	596.75
428.514	533.75
428.736	501.75
428.958	498.75
429.181	479.75
429.403	459.75
429.625	501.75
429.847	532.75
430.069	592.75
430.292	603.75
430.514	505.75
430.736	479.75
430.958	474.75
431.18	417.75
431.402	455.75
431.624	436.75
431.846	431.75
432.068	444.75
432.29	451.75
432.512	446.75
432.734	437.75
432.956	464.75
433.178	472.75
433.4	458.75
433.622	435.75
433.844	435.75
434.066	436.75
434.287	453.75
434.509	437.75
434.731	444.75
434.953	440.75
435.175	454.75
435.397	490.75
435.618	534.75
435.84	550.75
436.062	672.75
436.284	759.75
436.505	623.75
436.727	544.75
436.949	513.75
437.17	501.75
437.392	496.75
437.614	518.75
437.835	550.75
438.057	652.75
438.278	742.75
438.5	775.75
438.721	818.75
438.943	792.75
439.165	635.75
439.386	549.75
439.608	558.75
439.829	557.75
440.05	593.75
440.272	652.75
440.493	582.75
440.715	526.75
440.936	520.75
441.158	491.75
441.379	488.75
441.6	462.75
441.822	507.75
442.043	569.75
442.264	650.75
442.486	683.75
442.707	584.75
442.928	539.75
443.149	534.75
443.371	575.75
443.592	629.75
443.813	722.75
444.034	770.75
444.255	635.75
444.476	533.75
444.698	541.75
444.919	507.75
445.14	562.75
445.361	572.75
445.582	552.75
445.803	651.75
446.024	788.75
446.245	781.75
446.466	697.75
446.687	589.75
446.908	546.75
447.129	512.75
447.35	488.75
447.571	482.75
447.792	482.75
448.013	495.75
448.234	525.75
448.455	559.75
448.675	666.75
448.896	793.75
449.117	675.75
449.338	628.75
449.559	741.75
449.779	837.75
450	694.75
450.221	559.75
450.442	521.75
450.662	498.75
450.883	516.75
451.104	531.75
451.324	495.75
451.545	468.75
451.766	465.75
451.986	440.75
452.207	427.75
452.428	423.75
452.648	437.75
452.869	428.75
453.089	421.75
453.31	445.75
453.53	443.75
453.751	429.75
453.971	447.75
454.192	475.75
454.412	453.75
454.633	455.75
454.853	436.75
455.073	443.75
455.294	457.75
455.514	548.75
455.734	554.75
455.955	417.75
456.175	395.75
456.395	407.75
456.616	391.75
456.836	413.75
457.056	391.75
457.276	393.75
457.497	400.75
457.717	396.75
457.937	421.75
458.157	404.75
458.377	411.75
458.598	432.75
458.818	548.75
459.038	619.75
459.258	623.75
459.478	531.75
459.698	465.75
459.918	455.75
460.138	427.75
460.358	435.75
460.578	438.75
460.798	436.75
461.018	437.75
461.238	425.75
461.458	476.75
461.678	417.75
461.898	451.75
462.118	449.75
462.338	432.75
462.558	440.75
462.777	442.75
462.997	439.75
463.217	424.75
463.437	450.75
463.657	467.75
463.876	446.75
464.096	464.75
464.316	438.75
464.536	465.75
464.755	450.75
464.975	469.75
465.195	552.75
465.414	659.75
465.634	575.75
465.854	489.75
466.073	452.75
466.293	464.75
466.512	439.75
466.732	419.75
466.951	436.75
467.171	417.75
467.391	434.75
467.61	463.75
467.829	444.75
468.049	462.75
468.268	449.75
468.488	431.75
468.707	419.75
468.927	414.75
469.146	412.75
469.365	417.75
469.585	415.75
469.804	409.75
470.023	443.75
470.243	441.75
470.462	432.75
470.681	463.75
470.901	475.75
471.12	441.75
471.339	426.75
471.558	439.75
471.777	428.75
471.997	415.75
472.216	475.75
472.435	505.75
472.654	479.75
472.873	432.75
473.092	438.75
473.311	442.75
473.53	435.75
473.749	429.75
473.968	511.75
474.187	610.75
474.406	652.75
474.625	500.75
474.844	461.75
475.063	452.75
475.282	460.75
475.501	457.75
475.72	449.75
475.939	440.75
476.158	449.75
476.377	461.75
476.596	482.75
476.814	451.75
477.033	455.75
477.252	440.75
477.471	465.75
477.69	475.75
477.908	452.75
478.127	459.75
478.346	469.75
478.564	489.75
478.783	475.75
479.002	484.75
479.22	478.75
479.439	496.75
479.658	525.75
479.876	526.75
480.095	531.75
480.313	560.75
480.532	520.75
480.751	523.75
480.969	574.75
481.188	654.75
481.406	711.75
481.624	599.75
481.843	540.75
482.061	540.75
482.28	518.75
482.498	505.75
482.717	508.75
482.935	527.75
483.153	509.75
483.372	506.75
483.59	490.75
483.808	490.75
484.027	520.75
484.245	509.75
484.463	497.75
484.681	531.75
484.9	524.75
485.118	531.75
485.336	515.75
485.554	533.75
485.772	521.75
485.99	522.75
486.209	511.75
486.427	536.75
486.645	551.75
486.863	586.75
487.081	587.75
487.299	548.75
487.517	555.75
487.735	538.75
487.953	538.75
488.171	557.75
488.389	575.75
488.607	545.75
488.825	539.75
489.043	549.75
489.261	574.75
489.479	565.75
489.696	560.75
489.914	557.75
490.132	582.75
490.35	578.75
490.568	615.75
490.786	583.75
491.003	599.75
491.221	618.75
491.439	624.75
491.657	607.75
491.874	629.75
492.092	653.75
492.31	639.75
492.527	642.75
492.745	651.75
492.963	636.75
493.18	652.75
493.398	647.75
493.615	653.75
493.833	660.75
494.05	657.75
494.268	652.75
494.485	636.75
494.703	651.75
494.92	678.75
495.138	678.75
495.355	663.75
495.573	660.75
495.79	680.75
496.008	673.75
496.225	661.75
496.442	646.75
496.66	693.75
496.877	643.75
497.094	661.75
497.312	661.75
497.529	656.75
497.746	691.75
497.963	685.75
498.181	717.75
498.398	689.75
498.615	710.75
498.832	729.75
499.049	708.75
499.267	731.75
499.484	739.75
499.701	748.75
499.918	746.75
500.135	800.75
500.352	807.75
500.569	805.75
500.786	804.75
501.003	801.75
501.22	799.75
501.437	810.75
501.654	803.75
501.871	802.75
502.088	765.75
502.305	741.75
502.522	715.75
502.739	735.75
502.956	695.75
503.172	701.75
503.389	682.75
503.606	692.75
503.823	693.75
504.04	676.75
504.256	669.75
504.473	658.75
504.69	653.75
504.907	639.75
505.123	651.75
505.34	645.75
505.557	635.75
505.773	648.75
505.99	631.75
506.207	615.75
506.423	647.75
506.64	644.75
506.856	625.75
507.073	628.75
507.289	609.75
507.506	653.75
507.722	668.75
507.939	660.75
508.155	645.75
508.372	626.75
508.588	608.75
508.805	609.75
509.021	626.75
509.238	625.75
509.454	637.75
509.67	619.75
509.887	632.75
510.103	636.75
510.319	656.75
510.536	787.75
510.752	1399.75
510.968	1097.75
511.184	660.75
511.401	595.75
511.617	610.75
511.833	602.75
512.049	578.75
512.265	597.75
512.481	597.75
512.698	588.75
512.914	604.75
513.13	603.75
513.346	589.75
513.562	580.75
513.778	589.75
513.994	609.75
514.21	616.75
514.426	620.75
514.642	717.75
514.858	789.75
515.074	817.75
515.29	1003.75
515.506	1580.75
515.721	1225.75
515.937	766.75
516.153	702.75
516.369	653.75
516.585	630.75
516.801	629.75
517.016	591.75
517.232	578.75
517.448	605.75
517.664	604.75
517.879	586.75
518.095	610.75
518.311	610.75
518.527	592.75
518.742	581.75
518.958	584.75
519.173	597.75
519.389	584.75
519.605	598.75
519.82	586.75
520.036	627.75
520.251	640.75
520.467	712.75
520.682	712.75
520.898	688.75
521.113	748.75
521.329	810.75
521.544	910.75
521.76	1207.75
521.975	2100.75
522.19	2039.75
522.406	1074.75
522.621	744.75
522.836	661.75
523.052	623.75
523.267	600.75
523.482	586.75
523.698	568.75
523.913	551.75
524.128	568.75
524.343	530.75
524.559	523.75
524.774	518.75
524.989	525.75
525.204	523.75
525.419	537.75
525.634	497.75
525.849	487.75
526.064	499.75
526.28	506.75
526.495	468.75
526.71	480.75
526.925	469.75
527.14	468.75
527.355	493.75
527.57	487.75
527.785	477.75
527.999	472.75
528.214	461.75
528.429	471.75
528.644	479.75
528.859	467.75
529.074	469.75
529.289	532.75
529.503	625.75
529.718	604.75
529.933	521.75
530.148	502.75
530.363	507.75
530.577	506.75
530.792	440.75
531.007	457.75
531.221	451.75
531.436	459.75
531.651	438.75
531.865	444.75
532.08	447.75
532.295	443.75
532.509	449.75
532.724	429.75
532.938	457.75
533.153	437.75
533.367	439.75
533.582	431.75
533.796	442.75
534.011	444.75
534.225	419.75
534.44	421.75
534.654	439.75
534.868	452.75
535.083	434.75
535.297	461.75
535.511	440.75
535.726	458.75
535.94	471.75
536.154	437.75
536.369	447.75
536.583	419.75
536.797	433.75
537.011	427.75
537.225	417.75
537.44	413.75
537.654	433.75
537.868	423.75
538.082	427.75
538.296	422.75
538.51	418.75
538.724	460.75
538.938	432.75
539.153	418.75
539.367	449.75
539.581	449.75
539.795	433.75
540.009	435.75
540.222	418.75
540.436	427.75
540.65	432.75
540.864	436.75
541.078	451.75
541.292	444.75
541.506	443.75
541.72	426.75
541.934	420.75
542.147	426.75
542.361	408.75
542.575	417.75
542.789	428.75
543.002	427.75
543.216	413.75
543.43	436.75
543.644	439.75
543.857	426.75
544.071	423.75
544.285	424.75
544.498	427.75
544.712	423.75
544.925	408.75
545.139	420.75
545.352	417.75
545.566	425.75
545.779	412.75
545.993	401.75
546.206	408.75
546.42	395.75
546.633	409.75
546.847	416.75
547.06	401.75
547.274	417.75
547.487	407.75
547.7	406.75
547.914	389.75
548.127	397.75
548.34	402.75
548.554	401.75
548.767	397.75
548.98	399.75
549.193	403.75
549.407	409.75
549.62	397.75
549.833	410.75
550.046	374.75
550.259	386.75
550.473	417.75
550.686	376.75
550.899	405.75
551.112	384.75
551.325	356.75
551.538	387.75
551.751	357.75
551.964	377.75
552.177	367.75
552.39	415.75
552.603	416.75
552.816	410.75
553.029	397.75
553.242	393.75
553.455	410.75
553.667	409.75
553.88	413.75
554.093	416.75
554.306	405.75
554.519	393.75
554.732	403.75
554.944	402.75
555.157	394.75
555.37	379.75
555.583	380.75
555.795	365.75
556.008	375.75
556.221	377.75
556.433	364.75
556.646	365.75
556.859	364.75
557.071	360.75
557.284	361.75
557.496	383.75
557.709	369.75
557.921	392.75
558.134	370.75
558.346	348.75
558.559	345.75
558.771	353.75
558.984	352.75
559.196	345.75
559.409	352.75
559.621	342.75
559.833	359.75
560.046	349.75
560.258	357.75
560.47	365.75
560.683	346.75
560.895	351.75
561.107	347.75
561.32	361.75
561.532	371.75
561.744	356.75
561.956	337.75
562.168	349.75
562.381	355.75
562.593	344.75
562.805	352.75
563.017	355.75
563.229	352.75
563.441	354.75
563.653	339.75
563.865	358.75
564.077	356.75
564.289	361.75
564.501	363.75
564.713	363.75
564.925	353.75
565.137	394.75
565.349	379.75
565.561	376.75
565.773	375.75
565.985	389.75
566.197	383.75
566.408	381.75
566.62	414.75
566.832	389.75
567.044	405.75
567.255	394.75
567.467	398.75
567.679	408.75
567.891	396.75
568.102	412.75
568.314	387.75
568.526	387.75
568.737	400.75
568.949	374.75
569.161	359.75
569.372	371.75
569.584	367.75
569.795	352.75
570.007	350.75
570.218	394.75
570.43	408.75
570.641	354.75
570.853	357.75
571.064	344.75
571.276	345.75
571.487	351.75
571.698	350.75
571.91	329.75
572.121	327.75
572.333	337.75
572.544	344.75
572.755	311.75
572.966	320.75
573.178	316.75
573.389	299.75
573.6	351.75
573.811	335.75
574.023	319.75
574.234	319.75
574.445	315.75
574.656	323.75
574.867	314.75
575.078	307.75
575.289	307.75
575.501	297.75
575.712	306.75
575.923	300.75
576.134	303.75
576.345	304.75
576.556	288.75
576.767	313.75
576.978	292.75
577.188	296.75
577.399	328.75
577.61	301.75
577.821	309.75
578.032	303.75
578.243	334.75
578.454	629.75
578.665	451.75
578.875	323.75
579.086	283.75
579.297	304.75
579.508	287.75
579.718	277.75
579.929	280.75
580.14	301.75
580.35	292.75
580.561	270.75
580.772	290.75
580.982	285.75
581.193	295.75
581.403	293.75
581.614	288.75
581.825	292.75
582.035	269.75
582.246	280.75
582.456	292.75
582.667	288.75
582.877	277.75
583.087	284.75
583.298	283.75
583.508	275.75
583.719	292.75
583.929	282.75
584.139	288.75
584.35	276.75
584.56	279.75
584.77	277.75
584.981	287.75
585.191	303.75
585.401	275.75
585.611	291.75
585.821	274.75
586.032	282.75
586.242	273.75
586.452	272.75
586.662	281.75
586.872	265.75
587.082	267.75
587.292	288.75
587.502	277.75
587.713	281.75
587.923	277.75
588.133	270.75
588.343	275.75
588.553	269.75
588.762	255.75
588.972	271.75
589.182	260.75
589.392	282.75
589.602	269.75
589.812	259.75
590.022	246.75
590.232	279.75
590.441	259.75
590.651	261.75
590.861	263.75
591.071	259.75
591.281	292.75
591.49	277.75
591.7	264.75
591.91	277.75
592.119	258.75
592.329	271.75
592.539	271.75
592.748	259.75
592.958	255.75
593.167	289.75
593.377	277.75
593.587	277.75
593.796	279.75
594.006	250.75
594.215	277.75
594.424	267.75
594.634	279.75
594.843	272.75
595.053	265.75
595.262	264.75
595.472	280.75
595.681	258.75
595.89	278.75
596.1	263.75
596.309	244.75
596.518	251.75
596.727	270.75
596.937	264.75
597.146	251.75
597.355	247.75
597.564	231.75
597.774	235.75
597.983	235.75
598.192	242.75
598.401	255.75
598.61	245.75
598.819	260.75
599.028	244.75
599.237	251.75
599.446	250.75
599.655	251.75
599.864	241.75
600.073	244.75
600.282	242.75
600.491	226.75
600.7	223.75
600.909	246.75
601.118	256.75
601.327	262.75
601.536	253.75
601.745	233.75
601.953	251.75
602.162	233.75
602.371	246.75
602.58	249.75
602.789	230.75
602.997	236.75
603.206	239.75
603.415	233.75
603.623	240.75
603.832	220.75
604.041	255.75
604.249	228.75
604.458	229.75
604.666	227.75
604.875	201.75
605.084	223.75
605.292	218.75
605.501	226.75
605.709	231.75
605.918	219.75
606.126	228.75
606.334	243.75
606.543	233.75
606.751	233.75
606.96	218.75
607.168	220.75
607.376	231.75
607.585	244.75
607.793	220.75
608.001	242.75
608.21	217.75
608.418	212.75
608.626	233.75
608.834	227.75
609.043	239.75
609.251	226.75
609.459	220.75
609.667	231.75
609.875	215.75
610.083	226.75
610.291	205.75
610.499	216.75
610.707	210.75
610.916	229.75
611.124	216.75
611.332	231.75
611.54	229.75
611.748	228.75
611.955	223.75
612.163	245.75
612.371	213.75
612.579	227.75
612.787	226.75
612.995	208.75
613.203	230.75
613.411	233.75
613.618	225.75
613.826	215.75
614.034	220.75
614.242	214.75
614.449	218.75
614.657	216.75
614.865	216.75
615.072	229.75
615.28	238.75
615.488	204.75
615.695	219.75
615.903	212.75
616.111	221.75
616.318	222.75
616.526	225.75
616.733	228.75
616.941	215.75
617.148	222.75
617.356	204.75
617.563	224.75
617.771	215.75
617.978	223.75
618.185	216.75
618.393	229.75
618.6	220.75
618.807	225.75
619.015	204.75
619.222	215.75
619.429	217.75
619.637	204.75
619.844	223.75
620.051	204.75
620.258	223.75
620.466	212.75
620.673	189.75
620.88	218.75
621.087	208.75
621.294	205.75
621.501	201.75
621.708	192.75
621.915	204.75
622.122	218.75
622.329	215.75
622.536	207.75
622.743	197.75
622.95	179.75
623.157	209.75
623.364	199.75
623.571	191.75
623.778	213.75
623.985	213.75
624.192	209.75
624.399	194.75
624.606	195.75
624.812	191.75
625.019	208.75
625.226	200.75
625.433	193.75
625.639	194.75
625.846	194.75
626.053	197.75
626.259	205.75
626.466	198.75
626.673	190.75
626.879	197.75
627.086	181.75
627.293	200.75
627.499	201.75
627.706	206.75
627.912	208.75
628.119	187.75
628.325	202.75
628.532	207.75
628.738	187.75
628.945	179.75
629.151	185.75
629.357	198.75
629.564	189.75
629.77	180.75
629.976	187.75
630.183	184.75
630.389	193.75
630.595	184.75
630.802	193.75
631.008	181.75
631.214	185.75
631.42	179.75
631.627	159.75
631.833	162.75
632.039	165.75
632.245	185.75
632.451	166.75
632.657	186.75
632.863	177.75
633.069	179.75
633.275	165.75
633.481	154.75
633.688	181.75
633.893	175.75
634.099	177.75
634.305	179.75
634.511	159.75
634.717	180.75
634.923	177.75
635.129	186.75
635.335	171.75
635.541	167.75
635.747	180.75
635.952	179.75
636.158	170.75
636.364	167.75
636.57	175.75
636.775	177.75
636.981	186.75
637.187	174.75
637.392	177.75
637.598	177.75
637.804	186.75
638.009	165.75
638.215	179.75
638.421	164.75
638.626	170.75
638.832	178.75
639.037	177.75
639.243	157.75
639.448	163.75
639.654	171.75
639.859	177.75
640.065	181.75
640.27	166.75
640.475	167.75
640.681	167.75
640.886	168.75
641.091	155.75
641.297	167.75
641.502	160.75
641.707	168.75
641.913	170.75
642.118	165.75
642.323	153.75
642.528	152.75
642.733	178.75
642.939	163.75
643.144	150.75
643.349	156.75
643.554	163.75
643.759	155.75
643.964	163.75
644.169	152.75
644.374	155.75
644.579	164.75
644.784	149.75
644.989	163.75
645.194	157.75
645.399	166.75
645.604	157.75
645.809	139.75
646.014	164.75
646.219	156.75
646.423	160.75
646.628	170.75
646.833	153.75
647.038	175.75
647.243	159.75
647.447	151.75
647.652	163.75
647.857	155.75
648.062	163.75
648.266	164.75
648.471	167.75
648.676	159.75
648.88	154.75
649.085	148.75
649.289	164.75
649.494	155.75
649.698	179.75
649.903	178.75
650.107	168.75
650.312	164.75
650.516	148.75
650.721	158.75
650.925	147.75
651.13	146.75
651.334	138.75
651.539	154.75
651.743	147.75
651.947	138.75
652.152	138.75
652.356	137.75
652.56	139.75
652.764	138.75
652.969	133.75
653.173	137.75
653.377	132.75
653.581	143.75
653.785	127.75
653.99	132.75
654.194	121.75
654.398	115.75
654.602	124.75
654.806	136.75
655.01	123.75
655.214	130.75
655.418	126.75
655.622	133.75
655.826	124.75
656.03	118.75
656.234	132.75
656.438	134.75
656.642	127.75
656.846	135.75
657.049	120.75
657.253	105.75
657.457	121.75
657.661	132.75
657.865	117.75
658.068	104.75
658.272	105.75
658.476	102.75
658.68	113.75
658.883	101.75
659.087	104.75
659.291	104.75
659.494	93.75
659.698	101.75
659.901	100.75
660.105	111.75
660.309	103.75
660.512	94.75
660.716	92.75
660.919	97.75
661.123	98.75
661.326	101.75
661.53	92.75
661.733	93.75
661.936	79.75
662.14	93.75
662.343	73.75
662.546	96.75
662.75	92.75
662.953	96.75
663.156	75.75
663.36	80.75
663.563	89.75
663.766	78.75
663.969	88.75
664.173	90.75
664.376	86.75
664.579	59.75
664.782	75.75
664.985	76.75
665.188	76.75
665.391	75.75
665.594	97.75
665.797	74.75
666	70.75
666.203	82.75
666.406	86.75
666.609	73.75
666.812	68.75
667.015	80.75
667.218	76.75
667.421	68.75
667.624	88.75
667.827	71.75
668.03	86.75
668.232	84.75
668.435	76.75
668.638	83.75
668.841	83.75
669.043	92.75
669.246	76.75
669.449	88.75
669.651	80.75
669.854	68.75
670.057	96.75
670.259	91.75
670.462	77.75
670.665	97.75
670.867	80.75
671.07	83.75
671.272	90.75
671.475	78.75
671.677	76.75
671.88	88.75
672.082	90.75
672.284	90.75
672.487	87.75
672.689	95.75
672.892	75.75
