Data from 1972.PennyLincolnUp.Lamp.En5.5.200Scan.071719.P1._HRD10591_15-29-08-844.txt Node
Date: Thu Jul 18 15:29:08 EDT 2019
User: cochatt
Spectrometer: HR+D1059
Trigger mode: 1
Integration Time (sec): 1.000000E-1
Scans to average: 1
Electric dark correction enabled: true
Nonlinearity correction enabled: false
Boxcar width: 0
XAxis mode: Wavelengths
Number of Pixels in Spectrum: 2048
>>>>>Begin Spectral Data<<<<<
223.165	-21.94
223.4	-21.94
223.635	-21.94
223.869	-40.94
224.104	-20.94
224.338	-12.94
224.573	-19.94
224.808	-11.94
225.042	-4.94
225.277	-0.94
225.511	5.06
225.746	-6.94
225.98	15.06
226.215	18.06
226.449	9.06
226.683	33.06
226.918	28.06
227.152	33.06
227.387	38.06
227.621	30.06
227.856	37.06
228.09	39.06
228.324	52.06
228.559	61.06
228.793	63.06
229.027	95.06
229.262	95.06
229.496	138.06
229.73	140.06
229.964	143.06
230.199	142.06
230.433	130.06
230.667	117.06
230.901	124.06
231.136	115.06
231.37	108.06
231.604	113.06
231.838	109.06
232.072	115.06
232.306	119.06
232.541	100.06
232.775	123.06
233.009	123.06
233.243	117.06
233.477	106.06
233.711	107.06
233.945	106.06
234.179	116.06
234.413	108.06
234.647	118.06
234.881	119.06
235.115	119.06
235.349	115.06
235.583	122.06
235.817	131.06
236.051	141.06
236.285	141.06
236.519	113.06
236.753	133.06
236.987	155.06
237.221	201.06
237.455	263.06
237.689	196.06
237.922	147.06
238.156	131.06
238.39	147.06
238.624	118.06
238.858	119.06
239.091	123.06
239.325	119.06
239.559	135.06
239.793	129.06
240.027	144.06
240.26	155.06
240.494	177.06
240.728	158.06
240.961	154.06
241.195	153.06
241.429	147.06
241.662	147.06
241.896	129.06
242.13	148.06
242.363	122.06
242.597	131.06
242.83	122.06
243.064	140.06
243.298	139.06
243.531	147.06
243.765	125.06
243.998	149.06
244.232	152.06
244.465	152.06
244.699	160.06
244.932	143.06
245.166	139.06
245.399	142.06
245.633	140.06
245.866	153.06
246.099	161.06
246.333	158.06
246.566	140.06
246.8	141.06
247.033	144.06
247.266	153.06
247.5	158.06
247.733	164.06
247.966	173.06
248.2	191.06
248.433	155.06
248.666	174.06
248.899	190.06
249.133	195.06
249.366	214.06
249.599	197.06
249.832	192.06
250.066	177.06
250.299	189.06
250.532	205.06
250.765	209.06
250.998	230.06
251.231	224.06
251.465	215.06
251.698	219.06
251.931	200.06
252.164	214.06
252.397	203.06
252.63	207.06
252.863	213.06
253.096	229.06
253.329	228.06
253.562	230.06
253.795	226.06
254.028	226.06
254.261	233.06
254.494	242.06
254.727	264.06
254.96	292.06
255.193	282.06
255.426	255.06
255.659	257.06
255.892	254.06
256.124	243.06
256.357	253.06
256.59	241.06
256.823	230.06
257.056	208.06
257.289	237.06
257.521	218.06
257.754	226.06
257.987	222.06
258.22	206.06
258.452	212.06
258.685	218.06
258.918	215.06
259.151	213.06
259.383	223.06
259.616	247.06
259.849	248.06
260.081	255.06
260.314	275.06
260.547	270.06
260.779	262.06
261.012	226.06
261.244	232.06
261.477	233.06
261.71	230.06
261.942	238.06
262.175	258.06
262.407	251.06
262.64	240.06
262.872	208.06
263.105	230.06
263.337	229.06
263.57	227.06
263.802	220.06
264.035	220.06
264.267	231.06
264.499	211.06
264.732	213.06
264.964	213.06
265.197	219.06
265.429	217.06
265.661	222.06
265.894	198.06
266.126	211.06
266.358	218.06
266.591	214.06
266.823	222.06
267.055	241.06
267.287	231.06
267.52	222.06
267.752	238.06
267.984	227.06
268.216	232.06
268.448	233.06
268.681	236.06
268.913	252.06
269.145	277.06
269.377	291.06
269.609	286.06
269.841	290.06
270.073	279.06
270.306	310.06
270.538	332.06
270.77	308.06
271.002	319.06
271.234	312.06
271.466	315.06
271.698	317.06
271.93	340.06
272.162	342.06
272.394	354.06
272.626	329.06
272.858	282.06
273.09	297.06
273.322	272.06
273.553	280.06
273.785	284.06
274.017	270.06
274.249	279.06
274.481	271.06
274.713	277.06
274.945	271.06
275.176	277.06
275.408	291.06
275.64	261.06
275.872	273.06
276.104	267.06
276.335	287.06
276.567	294.06
276.799	300.06
277.031	326.06
277.262	335.06
277.494	345.06
277.726	318.06
277.957	300.06
278.189	294.06
278.421	282.06
278.652	271.06
278.884	289.06
279.115	277.06
279.347	270.06
279.579	284.06
279.81	271.06
280.042	255.06
280.273	265.06
280.505	270.06
280.736	260.06
280.968	269.06
281.199	258.06
281.431	246.06
281.662	262.06
281.894	267.06
282.125	261.06
282.356	308.06
282.588	346.06
282.819	337.06
283.051	264.06
283.282	270.06
283.513	267.06
283.745	275.06
283.976	277.06
284.207	268.06
284.439	279.06
284.67	283.06
284.901	289.06
285.132	269.06
285.364	246.06
285.595	286.06
285.826	271.06
286.057	267.06
286.288	282.06
286.52	274.06
286.751	278.06
286.982	290.06
287.213	268.06
287.444	275.06
287.675	283.06
287.906	289.06
288.138	310.06
288.369	299.06
288.6	308.06
288.831	287.06
289.062	291.06
289.293	275.06
289.524	303.06
289.755	293.06
289.986	294.06
290.217	286.06
290.448	275.06
290.679	281.06
290.91	285.06
291.141	264.06
291.371	272.06
291.602	292.06
291.833	277.06
292.064	257.06
292.295	283.06
292.526	257.06
292.757	289.06
292.987	300.06
293.218	283.06
293.449	273.06
293.68	279.06
293.91	286.06
294.141	275.06
294.372	285.06
294.603	297.06
294.833	286.06
295.064	282.06
295.295	288.06
295.525	287.06
295.756	309.06
295.987	295.06
296.217	342.06
296.448	318.06
296.679	303.06
296.909	283.06
297.14	287.06
297.37	306.06
297.601	291.06
297.831	280.06
298.062	301.06
298.292	306.06
298.523	284.06
298.753	298.06
298.984	281.06
299.214	305.06
299.445	299.06
299.675	307.06
299.905	311.06
300.136	294.06
300.366	287.06
300.597	298.06
300.827	305.06
301.057	325.06
301.288	317.06
301.518	311.06
301.748	309.06
301.979	292.06
302.209	316.06
302.439	319.06
302.669	319.06
302.9	300.06
303.13	304.06
303.36	323.06
303.59	311.06
303.82	339.06
304.051	340.06
304.281	324.06
304.511	308.06
304.741	317.06
304.971	314.06
305.201	309.06
305.431	316.06
305.661	316.06
305.891	298.06
306.121	319.06
306.352	318.06
306.582	346.06
306.812	322.06
307.042	343.06
307.272	335.06
307.502	339.06
307.731	316.06
307.961	327.06
308.191	333.06
308.421	311.06
308.651	336.06
308.881	328.06
309.111	350.06
309.341	339.06
309.571	366.06
309.8	356.06
310.03	381.06
310.26	372.06
310.49	397.06
310.72	388.06
310.949	435.06
311.179	435.06
311.409	386.06
311.639	378.06
311.868	391.06
312.098	405.06
312.328	394.06
312.557	416.06
312.787	437.06
313.017	411.06
313.246	393.06
313.476	389.06
313.706	372.06
313.935	394.06
314.165	403.06
314.394	424.06
314.624	395.06
314.853	393.06
315.083	382.06
315.312	379.06
315.542	379.06
315.771	355.06
316.001	370.06
316.23	355.06
316.46	380.06
316.689	369.06
316.919	382.06
317.148	380.06
317.377	394.06
317.607	414.06
317.836	385.06
318.065	384.06
318.295	364.06
318.524	374.06
318.753	355.06
318.983	360.06
319.212	362.06
319.441	380.06
319.67	391.06
319.9	391.06
320.129	389.06
320.358	383.06
320.587	377.06
320.816	408.06
321.046	417.06
321.275	414.06
321.504	413.06
321.733	385.06
321.962	426.06
322.191	438.06
322.42	438.06
322.649	479.06
322.878	487.06
323.108	499.06
323.337	539.06
323.566	542.06
323.795	631.06
324.024	668.06
324.253	834.06
324.482	1247.06
324.71	1929.06
324.939	2831.06
325.168	2493.06
325.397	1254.06
325.626	811.06
325.855	661.06
326.084	607.06
326.313	575.06
326.542	573.06
326.77	618.06
326.999	761.06
327.228	1105.06
327.457	1729.06
327.686	2145.06
327.914	1410.06
328.143	851.06
328.372	773.06
328.6	701.06
328.829	657.06
329.058	669.06
329.287	666.06
329.515	620.06
329.744	573.06
329.972	591.06
330.201	578.06
330.43	674.06
330.658	693.06
330.887	723.06
331.115	663.06
331.344	575.06
331.572	538.06
331.801	564.06
332.03	535.06
332.258	489.06
332.486	460.06
332.715	470.06
332.943	479.06
333.172	466.06
333.4	469.06
333.629	477.06
333.857	497.06
334.085	499.06
334.314	518.06
334.542	575.06
334.771	605.06
334.999	524.06
335.227	499.06
335.455	460.06
335.684	463.06
335.912	436.06
336.14	431.06
336.369	425.06
336.597	445.06
336.825	474.06
337.053	445.06
337.281	426.06
337.51	429.06
337.738	428.06
337.966	431.06
338.194	437.06
338.422	437.06
338.65	421.06
338.878	409.06
339.106	414.06
339.334	421.06
339.562	420.06
339.79	407.06
340.018	410.06
340.246	424.06
340.474	443.06
340.702	430.06
340.93	426.06
341.158	415.06
341.386	413.06
341.614	433.06
341.842	436.06
342.07	416.06
342.298	418.06
342.526	394.06
342.754	410.06
342.981	407.06
343.209	381.06
343.437	396.06
343.665	405.06
343.893	403.06
344.12	399.06
344.348	410.06
344.576	417.06
344.804	421.06
345.031	425.06
345.259	443.06
345.487	449.06
345.714	433.06
345.942	430.06
346.17	403.06
346.397	409.06
346.625	404.06
346.853	415.06
347.08	397.06
347.308	421.06
347.535	415.06
347.763	435.06
347.99	418.06
348.218	436.06
348.445	435.06
348.673	437.06
348.9	410.06
349.128	393.06
349.355	397.06
349.583	395.06
349.81	407.06
350.037	399.06
350.265	390.06
350.492	372.06
350.72	397.06
350.947	406.06
351.174	411.06
351.402	422.06
351.629	407.06
351.856	445.06
352.083	430.06
352.311	430.06
352.538	452.06
352.765	459.06
352.992	427.06
353.22	433.06
353.447	394.06
353.674	405.06
353.901	377.06
354.128	372.06
354.355	388.06
354.583	377.06
354.81	365.06
355.037	378.06
355.264	361.06
355.491	366.06
355.718	357.06
355.945	363.06
356.172	386.06
356.399	367.06
356.626	364.06
356.853	358.06
357.08	356.06
357.307	363.06
357.534	357.06
357.761	358.06
357.988	365.06
358.215	377.06
358.441	373.06
358.668	368.06
358.895	376.06
359.122	367.06
359.349	389.06
359.576	387.06
359.802	436.06
360.029	469.06
360.256	476.06
360.483	453.06
360.709	427.06
360.936	437.06
361.163	417.06
361.39	417.06
361.616	418.06
361.843	391.06
362.07	405.06
362.296	407.06
362.523	413.06
362.749	400.06
362.976	400.06
363.203	403.06
363.429	386.06
363.656	396.06
363.882	382.06
364.109	395.06
364.335	388.06
364.562	390.06
364.788	383.06
365.015	371.06
365.241	386.06
365.468	379.06
365.694	382.06
365.92	384.06
366.147	375.06
366.373	379.06
366.599	381.06
366.826	396.06
367.052	379.06
367.278	387.06
367.505	391.06
367.731	365.06
367.957	362.06
368.184	391.06
368.41	379.06
368.636	395.06
368.862	402.06
369.089	397.06
369.315	355.06
369.541	366.06
369.767	368.06
369.993	383.06
370.219	375.06
370.445	370.06
370.672	358.06
370.898	366.06
371.124	365.06
371.35	361.06
371.576	361.06
371.802	361.06
372.028	357.06
372.254	369.06
372.48	346.06
372.706	363.06
372.932	376.06
373.158	365.06
373.384	366.06
373.61	385.06
373.835	359.06
374.061	374.06
374.287	375.06
374.513	362.06
374.739	350.06
374.965	359.06
375.191	358.06
375.416	370.06
375.642	360.06
375.868	357.06
376.094	356.06
376.319	378.06
376.545	353.06
376.771	362.06
376.997	362.06
377.222	375.06
377.448	362.06
377.674	331.06
377.899	360.06
378.125	347.06
378.35	367.06
378.576	355.06
378.802	360.06
379.027	371.06
379.253	358.06
379.478	355.06
379.704	364.06
379.929	354.06
380.155	356.06
380.38	376.06
380.606	350.06
380.831	376.06
381.057	367.06
381.282	369.06
381.507	357.06
381.733	356.06
381.958	351.06
382.184	381.06
382.409	376.06
382.634	375.06
382.86	353.06
383.085	362.06
383.31	354.06
383.535	369.06
383.761	381.06
383.986	372.06
384.211	362.06
384.436	372.06
384.662	368.06
384.887	365.06
385.112	364.06
385.337	371.06
385.562	375.06
385.787	394.06
386.013	387.06
386.238	405.06
386.463	411.06
386.688	392.06
386.913	389.06
387.138	374.06
387.363	370.06
387.588	390.06
387.813	375.06
388.038	371.06
388.263	373.06
388.488	383.06
388.713	381.06
388.938	396.06
389.163	358.06
389.387	379.06
389.612	391.06
389.837	381.06
390.062	371.06
390.287	387.06
390.512	373.06
390.736	375.06
390.961	387.06
391.186	377.06
391.411	382.06
391.636	396.06
391.86	389.06
392.085	377.06
392.31	398.06
392.534	366.06
392.759	383.06
392.984	393.06
393.208	401.06
393.433	393.06
393.658	379.06
393.882	383.06
394.107	373.06
394.331	390.06
394.556	398.06
394.78	364.06
395.005	405.06
395.229	383.06
395.454	382.06
395.678	385.06
395.903	401.06
396.127	439.06
396.352	410.06
396.576	411.06
396.801	415.06
397.025	400.06
397.249	396.06
397.474	381.06
397.698	426.06
397.922	423.06
398.147	423.06
398.371	448.06
398.595	429.06
398.82	420.06
399.044	438.06
399.268	438.06
399.492	446.06
399.717	449.06
399.941	498.06
400.165	541.06
400.389	535.06
400.613	476.06
400.837	442.06
401.062	439.06
401.286	427.06
401.51	437.06
401.734	459.06
401.958	441.06
402.182	449.06
402.406	459.06
402.63	467.06
402.854	434.06
403.078	433.06
403.302	456.06
403.526	470.06
403.75	462.06
403.974	446.06
404.198	450.06
404.422	471.06
404.645	454.06
404.869	472.06
405.093	496.06
405.317	563.06
405.541	574.06
405.765	539.06
405.988	503.06
406.212	495.06
406.436	490.06
406.66	547.06
406.883	506.06
407.107	541.06
407.331	552.06
407.555	626.06
407.778	614.06
408.002	589.06
408.226	521.06
408.449	484.06
408.673	516.06
408.896	546.06
409.12	575.06
409.344	556.06
409.567	472.06
409.791	446.06
410.014	461.06
410.238	439.06
410.461	450.06
410.685	478.06
410.908	475.06
411.132	515.06
411.355	569.06
411.578	543.06
411.802	479.06
412.025	476.06
412.249	477.06
412.472	497.06
412.695	534.06
412.919	554.06
413.142	482.06
413.365	473.06
413.589	456.06
413.812	443.06
414.035	433.06
414.258	430.06
414.482	407.06
414.705	417.06
414.928	427.06
415.151	416.06
415.374	423.06
415.597	427.06
415.821	422.06
416.044	429.06
416.267	411.06
416.49	422.06
416.713	416.06
416.936	420.06
417.159	429.06
417.382	458.06
417.605	446.06
417.828	455.06
418.051	455.06
418.274	433.06
418.497	459.06
418.72	432.06
418.943	423.06
419.166	429.06
419.389	430.06
419.611	449.06
419.834	471.06
420.057	459.06
420.28	465.06
420.503	462.06
420.726	471.06
420.948	485.06
421.171	519.06
421.394	545.06
421.617	499.06
421.839	469.06
422.062	460.06
422.285	483.06
422.507	537.06
422.73	629.06
422.953	596.06
423.175	517.06
423.398	475.06
423.621	485.06
423.843	509.06
424.066	510.06
424.288	494.06
424.511	514.06
424.733	604.06
424.956	682.06
425.178	637.06
425.401	611.06
425.623	688.06
425.846	543.06
426.068	513.06
426.291	499.06
426.513	531.06
426.735	524.06
426.958	567.06
427.18	651.06
427.402	783.06
427.625	893.06
427.847	779.06
428.069	685.06
428.292	595.06
428.514	541.06
428.736	493.06
428.958	485.06
429.181	445.06
429.403	455.06
429.625	490.06
429.847	537.06
430.069	607.06
430.292	581.06
430.514	505.06
430.736	488.06
430.958	491.06
431.18	438.06
431.402	458.06
431.624	444.06
431.846	435.06
432.068	417.06
432.29	438.06
432.512	433.06
432.734	439.06
432.956	443.06
433.178	457.06
433.4	459.06
433.622	451.06
433.844	440.06
434.066	446.06
434.287	443.06
434.509	445.06
434.731	448.06
434.953	439.06
435.175	472.06
435.397	484.06
435.618	522.06
435.84	545.06
436.062	665.06
436.284	743.06
436.505	606.06
436.727	529.06
436.949	511.06
437.17	469.06
437.392	480.06
437.614	475.06
437.835	535.06
438.057	641.06
438.278	773.06
438.5	787.06
438.721	812.06
438.943	787.06
439.165	629.06
439.386	568.06
439.608	541.06
439.829	555.06
440.05	595.06
440.272	654.06
440.493	604.06
440.715	551.06
440.936	494.06
441.158	493.06
441.379	468.06
441.6	507.06
441.822	539.06
442.043	555.06
442.264	634.06
442.486	717.06
442.707	568.06
442.928	532.06
443.149	559.06
443.371	568.06
443.592	618.06
443.813	731.06
444.034	748.06
444.255	622.06
444.476	538.06
444.698	509.06
444.919	505.06
445.14	596.06
445.361	573.06
445.582	580.06
445.803	665.06
446.024	789.06
446.245	777.06
446.466	713.06
446.687	581.06
446.908	549.06
447.129	517.06
447.35	463.06
447.571	488.06
447.792	482.06
448.013	501.06
448.234	489.06
448.455	569.06
448.675	701.06
448.896	806.06
449.117	681.06
449.338	632.06
449.559	731.06
449.779	831.06
450	665.06
450.221	553.06
450.442	508.06
450.662	479.06
450.883	479.06
451.104	517.06
451.324	509.06
451.545	474.06
451.766	450.06
451.986	439.06
452.207	425.06
452.428	414.06
452.648	430.06
452.869	439.06
453.089	438.06
453.31	457.06
453.53	441.06
453.751	450.06
453.971	425.06
454.192	469.06
454.412	436.06
454.633	429.06
454.853	423.06
455.073	443.06
455.294	453.06
455.514	521.06
455.734	503.06
455.955	443.06
456.175	408.06
456.395	389.06
456.616	407.06
456.836	415.06
457.056	398.06
457.276	398.06
457.497	408.06
457.717	422.06
457.937	397.06
458.157	397.06
458.377	409.06
458.598	449.06
458.818	530.06
459.038	620.06
459.258	618.06
459.478	491.06
459.698	452.06
459.918	454.06
460.138	437.06
460.358	420.06
460.578	427.06
460.798	428.06
461.018	447.06
461.238	435.06
461.458	440.06
461.678	399.06
461.898	428.06
462.118	431.06
462.338	441.06
462.558	428.06
462.777	443.06
462.997	446.06
463.217	446.06
463.437	460.06
463.657	444.06
463.876	436.06
464.096	439.06
464.316	443.06
464.536	450.06
464.755	453.06
464.975	476.06
465.195	548.06
465.414	634.06
465.634	553.06
465.854	489.06
466.073	482.06
466.293	449.06
466.512	427.06
466.732	442.06
466.951	435.06
467.171	412.06
467.391	429.06
467.61	452.06
467.829	457.06
468.049	463.06
468.268	452.06
468.488	446.06
468.707	422.06
468.927	399.06
469.146	399.06
469.365	417.06
469.585	415.06
469.804	413.06
470.023	432.06
470.243	429.06
470.462	450.06
470.681	445.06
470.901	449.06
471.12	452.06
471.339	431.06
471.558	450.06
471.777	451.06
471.997	424.06
472.216	447.06
472.435	516.06
472.654	480.06
472.873	459.06
473.092	435.06
473.311	430.06
473.53	421.06
473.749	462.06
473.968	507.06
474.187	612.06
474.406	625.06
474.625	532.06
474.844	455.06
475.063	455.06
475.282	449.06
475.501	457.06
475.72	423.06
475.939	434.06
476.158	448.06
476.377	463.06
476.596	469.06
476.814	460.06
477.033	471.06
477.252	483.06
477.471	475.06
477.69	474.06
477.908	472.06
478.127	478.06
478.346	459.06
478.564	474.06
478.783	473.06
479.002	513.06
479.22	488.06
479.439	524.06
479.658	521.06
479.876	534.06
480.095	529.06
480.313	567.06
480.532	547.06
480.751	533.06
480.969	569.06
481.188	655.06
481.406	721.06
481.624	619.06
481.843	552.06
482.061	513.06
482.28	535.06
482.498	513.06
482.717	520.06
482.935	534.06
483.153	515.06
483.372	522.06
483.59	509.06
483.808	491.06
484.027	523.06
484.245	529.06
484.463	494.06
484.681	515.06
484.9	524.06
485.118	527.06
485.336	532.06
485.554	536.06
485.772	519.06
485.99	529.06
486.209	551.06
486.427	549.06
486.645	566.06
486.863	565.06
487.081	571.06
487.299	558.06
487.517	541.06
487.735	545.06
487.953	563.06
488.171	541.06
488.389	566.06
488.607	574.06
488.825	558.06
489.043	561.06
489.261	551.06
489.479	548.06
489.696	555.06
489.914	557.06
490.132	563.06
490.35	554.06
490.568	579.06
490.786	575.06
491.003	617.06
491.221	622.06
491.439	598.06
491.657	620.06
491.874	641.06
492.092	618.06
492.31	668.06
492.527	623.06
492.745	645.06
492.963	635.06
493.18	641.06
493.398	665.06
493.615	637.06
493.833	668.06
494.05	675.06
494.268	656.06
494.485	641.06
494.703	639.06
494.92	659.06
495.138	640.06
495.355	668.06
495.573	667.06
495.79	634.06
496.008	669.06
496.225	676.06
496.442	648.06
496.66	649.06
496.877	669.06
497.094	661.06
497.312	693.06
497.529	638.06
497.746	673.06
497.963	675.06
498.181	721.06
498.398	706.06
498.615	718.06
498.832	729.06
499.049	705.06
499.267	700.06
499.484	723.06
499.701	746.06
499.918	771.06
500.135	798.06
500.352	805.06
500.569	807.06
500.786	796.06
501.003	797.06
501.22	803.06
501.437	792.06
501.654	795.06
501.871	789.06
502.088	767.06
502.305	758.06
502.522	731.06
502.739	723.06
502.956	709.06
503.172	697.06
503.389	673.06
503.606	663.06
503.823	682.06
504.04	682.06
504.256	669.06
504.473	649.06
504.69	645.06
504.907	647.06
505.123	637.06
505.34	646.06
505.557	631.06
505.773	627.06
505.99	634.06
506.207	629.06
506.423	642.06
506.64	633.06
506.856	612.06
507.073	645.06
507.289	627.06
507.506	647.06
507.722	642.06
507.939	658.06
508.155	665.06
508.372	609.06
508.588	606.06
508.805	626.06
509.021	609.06
509.238	633.06
509.454	683.06
509.67	627.06
509.887	610.06
510.103	611.06
510.319	636.06
510.536	757.06
510.752	1369.06
510.968	1081.06
511.184	649.06
511.401	618.06
511.617	633.06
511.833	604.06
512.049	611.06
512.265	615.06
512.481	586.06
512.698	598.06
512.914	595.06
513.13	602.06
513.346	594.06
513.562	579.06
513.778	598.06
513.994	621.06
514.21	609.06
514.426	639.06
514.642	708.06
514.858	753.06
515.074	819.06
515.29	1011.06
515.506	1542.06
515.721	1224.06
515.937	811.06
516.153	699.06
516.369	655.06
516.585	650.06
516.801	635.06
517.016	592.06
517.232	589.06
517.448	595.06
517.664	598.06
517.879	607.06
518.095	605.06
518.311	595.06
518.527	578.06
518.742	612.06
518.958	580.06
519.173	597.06
519.389	584.06
519.605	567.06
519.82	618.06
520.036	610.06
520.251	636.06
520.467	686.06
520.682	671.06
520.898	692.06
521.113	740.06
521.329	812.06
521.544	934.06
521.76	1261.06
521.975	2121.06
522.19	1999.06
522.406	1044.06
522.621	750.06
522.836	657.06
523.052	642.06
523.267	605.06
523.482	575.06
523.698	568.06
523.913	573.06
524.128	566.06
524.343	542.06
524.559	546.06
524.774	529.06
524.989	521.06
525.204	538.06
525.419	524.06
525.634	521.06
525.849	494.06
526.064	481.06
526.28	481.06
526.495	489.06
526.71	498.06
526.925	478.06
527.14	469.06
527.355	483.06
527.57	474.06
527.785	472.06
527.999	482.06
528.214	481.06
528.429	458.06
528.644	479.06
528.859	475.06
529.074	468.06
529.289	504.06
529.503	615.06
529.718	603.06
529.933	514.06
530.148	503.06
530.363	489.06
530.577	473.06
530.792	449.06
531.007	453.06
531.221	451.06
531.436	466.06
531.651	457.06
531.865	428.06
532.08	455.06
532.295	453.06
532.509	439.06
532.724	433.06
532.938	444.06
533.153	428.06
533.367	447.06
533.582	433.06
533.796	437.06
534.011	439.06
534.225	451.06
534.44	447.06
534.654	421.06
534.868	433.06
535.083	437.06
535.297	458.06
535.511	435.06
535.726	461.06
535.94	466.06
536.154	464.06
536.369	441.06
536.583	439.06
536.797	428.06
537.011	415.06
537.225	421.06
537.44	415.06
537.654	440.06
537.868	413.06
538.082	429.06
538.296	437.06
538.51	426.06
538.724	431.06
538.938	439.06
539.153	414.06
539.367	462.06
539.581	445.06
539.795	446.06
540.009	440.06
540.222	438.06
540.436	423.06
540.65	438.06
540.864	449.06
541.078	455.06
541.292	443.06
541.506	437.06
541.72	440.06
541.934	431.06
542.147	433.06
542.361	439.06
542.575	442.06
542.789	417.06
543.002	418.06
543.216	422.06
543.43	415.06
543.644	446.06
543.857	427.06
544.071	398.06
544.285	405.06
544.498	414.06
544.712	449.06
544.925	416.06
545.139	404.06
545.352	390.06
545.566	425.06
545.779	423.06
545.993	420.06
546.206	392.06
546.42	407.06
546.633	407.06
546.847	390.06
547.06	399.06
547.274	405.06
547.487	407.06
547.7	396.06
547.914	410.06
548.127	389.06
548.34	405.06
548.554	384.06
548.767	420.06
548.98	399.06
549.193	397.06
549.407	375.06
549.62	388.06
549.833	405.06
550.046	374.06
550.259	398.06
550.473	407.06
550.686	410.06
550.899	384.06
551.112	383.06
551.325	380.06
551.538	382.06
551.751	388.06
551.964	376.06
552.177	377.06
552.39	373.06
552.603	386.06
552.816	391.06
553.029	403.06
553.242	371.06
553.455	417.06
553.667	419.06
553.88	421.06
554.093	427.06
554.306	417.06
554.519	398.06
554.732	408.06
554.944	382.06
555.157	378.06
555.37	397.06
555.583	401.06
555.795	378.06
556.008	394.06
556.221	364.06
556.433	363.06
556.646	365.06
556.859	370.06
557.071	365.06
557.284	367.06
557.496	372.06
557.709	341.06
557.921	359.06
558.134	359.06
558.346	372.06
558.559	357.06
558.771	348.06
558.984	333.06
559.196	345.06
559.409	358.06
559.621	365.06
559.833	360.06
560.046	354.06
560.258	358.06
560.47	346.06
560.683	353.06
560.895	364.06
561.107	340.06
561.32	347.06
561.532	357.06
561.744	348.06
561.956	350.06
562.168	353.06
562.381	361.06
562.593	356.06
562.805	350.06
563.017	353.06
563.229	348.06
563.441	354.06
563.653	369.06
563.865	389.06
564.077	361.06
564.289	356.06
564.501	380.06
564.713	359.06
564.925	377.06
565.137	389.06
565.349	373.06
565.561	365.06
565.773	364.06
565.985	374.06
566.197	376.06
566.408	389.06
566.62	375.06
566.832	400.06
567.044	408.06
567.255	398.06
567.467	403.06
567.679	385.06
567.891	424.06
568.102	394.06
568.314	383.06
568.526	381.06
568.737	392.06
568.949	355.06
569.161	355.06
569.372	360.06
569.584	350.06
569.795	369.06
570.007	358.06
570.218	409.06
570.43	403.06
570.641	350.06
570.853	339.06
571.064	330.06
571.276	351.06
571.487	338.06
571.698	347.06
571.91	322.06
572.121	314.06
572.333	335.06
572.544	330.06
572.755	323.06
572.966	328.06
573.178	315.06
573.389	323.06
573.6	327.06
573.811	321.06
574.023	306.06
574.234	298.06
574.445	309.06
574.656	323.06
574.867	298.06
575.078	301.06
575.289	314.06
575.501	297.06
575.712	310.06
575.923	313.06
576.134	311.06
576.345	319.06
576.556	301.06
576.767	297.06
576.978	309.06
577.188	305.06
577.399	301.06
577.61	289.06
577.821	316.06
578.032	305.06
578.243	363.06
578.454	624.06
578.665	459.06
578.875	313.06
579.086	301.06
579.297	298.06
579.508	291.06
579.718	294.06
579.929	293.06
580.14	297.06
580.35	290.06
580.561	278.06
580.772	276.06
580.982	306.06
581.193	283.06
581.403	284.06
581.614	290.06
581.825	266.06
582.035	292.06
582.246	281.06
582.456	265.06
582.667	282.06
582.877	268.06
583.087	282.06
583.298	297.06
583.508	293.06
583.719	291.06
583.929	266.06
584.139	275.06
584.35	285.06
584.56	275.06
584.77	290.06
584.981	287.06
585.191	272.06
585.401	271.06
585.611	267.06
585.821	276.06
586.032	263.06
586.242	274.06
586.452	268.06
586.662	270.06
586.872	282.06
587.082	289.06
587.292	271.06
587.502	259.06
587.713	275.06
587.923	258.06
588.133	266.06
588.343	279.06
588.553	267.06
588.762	267.06
588.972	264.06
589.182	279.06
589.392	283.06
589.602	293.06
589.812	259.06
590.022	260.06
590.232	271.06
590.441	265.06
590.651	259.06
590.861	270.06
591.071	266.06
591.281	268.06
591.49	287.06
591.7	267.06
591.91	267.06
592.119	256.06
592.329	265.06
592.539	276.06
592.748	275.06
592.958	283.06
593.167	289.06
593.377	267.06
593.587	267.06
593.796	255.06
594.006	271.06
594.215	276.06
594.424	265.06
594.634	267.06
594.843	260.06
595.053	284.06
595.262	258.06
595.472	274.06
595.681	264.06
595.89	259.06
596.1	262.06
596.309	244.06
596.518	258.06
596.727	258.06
596.937	234.06
597.146	254.06
597.355	247.06
597.564	262.06
597.774	265.06
597.983	230.06
598.192	229.06
598.401	241.06
598.61	237.06
598.819	244.06
599.028	237.06
599.237	238.06
599.446	233.06
599.655	244.06
599.864	242.06
600.073	241.06
600.282	247.06
600.491	243.06
600.7	264.06
600.909	251.06
601.118	234.06
601.327	241.06
601.536	224.06
601.745	241.06
601.953	226.06
602.162	231.06
602.371	236.06
602.58	234.06
602.789	230.06
602.997	236.06
603.206	241.06
603.415	229.06
603.623	235.06
603.832	246.06
604.041	229.06
604.249	232.06
604.458	222.06
604.666	219.06
604.875	231.06
605.084	234.06
605.292	244.06
605.501	233.06
605.709	228.06
605.918	228.06
606.126	212.06
606.334	228.06
606.543	221.06
606.751	222.06
606.96	228.06
607.168	258.06
607.376	221.06
607.585	225.06
607.793	236.06
608.001	229.06
608.21	211.06
608.418	234.06
608.626	219.06
608.834	226.06
609.043	216.06
609.251	237.06
609.459	236.06
609.667	234.06
609.875	245.06
610.083	222.06
610.291	224.06
610.499	210.06
610.707	212.06
610.916	226.06
611.124	214.06
611.332	197.06
611.54	221.06
611.748	227.06
611.955	211.06
612.163	218.06
612.371	199.06
612.579	208.06
612.787	222.06
612.995	218.06
613.203	236.06
613.411	227.06
613.618	213.06
613.826	222.06
614.034	196.06
614.242	221.06
614.449	217.06
614.657	222.06
614.865	230.06
615.072	225.06
615.28	219.06
615.488	210.06
615.695	219.06
615.903	211.06
616.111	216.06
616.318	218.06
616.526	202.06
616.733	214.06
616.941	209.06
617.148	221.06
617.356	206.06
617.563	202.06
617.771	204.06
617.978	206.06
618.185	225.06
618.393	202.06
618.6	220.06
618.807	206.06
619.015	211.06
619.222	211.06
619.429	205.06
619.637	211.06
619.844	215.06
620.051	217.06
620.258	211.06
620.466	211.06
620.673	201.06
620.88	202.06
621.087	212.06
621.294	213.06
621.501	210.06
621.708	202.06
621.915	199.06
622.122	213.06
622.329	193.06
622.536	213.06
622.743	190.06
622.95	207.06
623.157	200.06
623.364	203.06
623.571	217.06
623.778	222.06
623.985	215.06
624.192	200.06
624.399	189.06
624.606	211.06
624.812	181.06
625.019	193.06
625.226	194.06
625.433	188.06
625.639	200.06
625.846	184.06
626.053	204.06
626.259	199.06
626.466	188.06
626.673	188.06
626.879	205.06
627.086	179.06
627.293	190.06
627.499	205.06
627.706	184.06
627.912	189.06
628.119	195.06
628.325	188.06
628.532	187.06
628.738	191.06
628.945	177.06
629.151	174.06
629.357	175.06
629.564	174.06
629.77	185.06
629.976	171.06
630.183	194.06
630.389	186.06
630.595	175.06
630.802	177.06
631.008	175.06
631.214	170.06
631.42	181.06
631.627	191.06
631.833	179.06
632.039	180.06
632.245	179.06
632.451	181.06
632.657	185.06
632.863	168.06
633.069	162.06
633.275	180.06
633.481	165.06
633.688	187.06
633.893	191.06
634.099	174.06
634.305	160.06
634.511	162.06
634.717	166.06
634.923	181.06
635.129	179.06
635.335	191.06
635.541	175.06
635.747	173.06
635.952	168.06
636.158	173.06
636.364	162.06
636.57	175.06
636.775	188.06
636.981	179.06
637.187	188.06
637.392	170.06
637.598	185.06
637.804	164.06
638.009	182.06
638.215	173.06
638.421	170.06
638.626	167.06
638.832	156.06
639.037	169.06
639.243	173.06
639.448	168.06
639.654	150.06
639.859	173.06
640.065	168.06
640.27	168.06
640.475	158.06
640.681	169.06
640.886	158.06
641.091	163.06
641.297	167.06
641.502	157.06
641.707	157.06
641.913	170.06
642.118	160.06
642.323	158.06
642.528	158.06
642.733	157.06
642.939	162.06
643.144	153.06
643.349	159.06
643.554	152.06
643.759	154.06
643.964	161.06
644.169	149.06
644.374	156.06
644.579	161.06
644.784	157.06
644.989	155.06
645.194	153.06
645.399	133.06
645.604	141.06
645.809	149.06
646.014	149.06
646.219	154.06
646.423	167.06
646.628	164.06
646.833	155.06
647.038	167.06
647.243	170.06
647.447	152.06
647.652	152.06
647.857	157.06
648.062	169.06
648.266	163.06
648.471	154.06
648.676	162.06
648.88	159.06
649.085	144.06
649.289	156.06
649.494	171.06
649.698	177.06
649.903	191.06
650.107	175.06
650.312	156.06
650.516	147.06
650.721	160.06
650.925	147.06
651.13	139.06
651.334	159.06
651.539	151.06
651.743	152.06
651.947	136.06
652.152	140.06
652.356	159.06
652.56	131.06
652.764	140.06
652.969	147.06
653.173	143.06
653.377	133.06
653.581	121.06
653.785	120.06
653.99	126.06
654.194	126.06
654.398	140.06
654.602	142.06
654.806	129.06
655.01	140.06
655.214	132.06
655.418	131.06
655.622	138.06
655.826	133.06
656.03	115.06
656.234	132.06
656.438	133.06
656.642	119.06
656.846	131.06
657.049	110.06
657.253	121.06
657.457	106.06
657.661	114.06
657.865	95.06
658.068	110.06
658.272	104.06
658.476	100.06
658.68	102.06
658.883	107.06
659.087	90.06
659.291	105.06
659.494	106.06
659.698	101.06
659.901	94.06
660.105	101.06
660.309	104.06
660.512	86.06
660.716	98.06
660.919	91.06
661.123	94.06
661.326	95.06
661.53	79.06
661.733	76.06
661.936	96.06
662.14	77.06
662.343	77.06
662.546	82.06
662.75	73.06
662.953	99.06
663.156	85.06
663.36	83.06
663.563	82.06
663.766	90.06
663.969	77.06
664.173	84.06
664.376	79.06
664.579	67.06
664.782	84.06
664.985	97.06
665.188	98.06
665.391	90.06
665.594	77.06
665.797	89.06
666	79.06
666.203	65.06
666.406	79.06
666.609	75.06
666.812	81.06
667.015	78.06
667.218	77.06
667.421	83.06
667.624	88.06
667.827	72.06
668.03	70.06
668.232	79.06
668.435	66.06
668.638	95.06
668.841	83.06
669.043	85.06
669.246	89.06
669.449	83.06
669.651	74.06
669.854	69.06
670.057	90.06
670.259	81.06
670.462	90.06
670.665	82.06
670.867	83.06
671.07	78.06
671.272	86.06
671.475	82.06
671.677	80.06
671.88	65.06
672.082	74.06
672.284	75.06
672.487	75.06
672.689	79.06
672.892	84.06
