Data from 1972.PennyLincolnUp.Lamp.En5.5.200Scan.071719.P1._HRD10591_15-26-54-843.txt Node
Date: Thu Jul 18 15:26:54 EDT 2019
User: cochatt
Spectrometer: HR+D1059
Trigger mode: 1
Integration Time (sec): 1.000000E-1
Scans to average: 1
Electric dark correction enabled: true
Nonlinearity correction enabled: false
Boxcar width: 0
XAxis mode: Wavelengths
Number of Pixels in Spectrum: 2048
>>>>>Begin Spectral Data<<<<<
223.165	-17.12
223.4	-17.12
223.635	-17.12
223.869	-20.12
224.104	-21.12
224.338	-12.12
224.573	-5.12
224.808	-18.12
225.042	-2.12
225.277	1.88
225.511	4.88
225.746	-8.12
225.98	6.88
226.215	-1.12
226.449	21.88
226.683	22.88
226.918	19.88
227.152	26.88
227.387	39.88
227.621	51.88
227.856	58.88
228.09	40.88
228.324	39.88
228.559	60.88
228.793	58.88
229.027	77.88
229.262	91.88
229.496	99.88
229.73	108.88
229.964	132.88
230.199	122.88
230.433	106.88
230.667	100.88
230.901	112.88
231.136	89.88
231.37	106.88
231.604	93.88
231.838	105.88
232.072	95.88
232.306	108.88
232.541	105.88
232.775	115.88
233.009	118.88
233.243	104.88
233.477	108.88
233.711	104.88
233.945	109.88
234.179	101.88
234.413	107.88
234.647	109.88
234.881	103.88
235.115	112.88
235.349	117.88
235.583	105.88
235.817	125.88
236.051	97.88
236.285	112.88
236.519	114.88
236.753	126.88
236.987	143.88
237.221	167.88
237.455	194.88
237.689	142.88
237.922	118.88
238.156	108.88
238.39	101.88
238.624	110.88
238.858	103.88
239.091	102.88
239.325	114.88
239.559	114.88
239.793	116.88
240.027	114.88
240.26	126.88
240.494	124.88
240.728	128.88
240.961	135.88
241.195	128.88
241.429	107.88
241.662	130.88
241.896	130.88
242.13	124.88
242.363	119.88
242.597	120.88
242.83	124.88
243.064	121.88
243.298	111.88
243.531	122.88
243.765	116.88
243.998	132.88
244.232	124.88
244.465	129.88
244.699	141.88
244.932	133.88
245.166	142.88
245.399	139.88
245.633	150.88
245.866	150.88
246.099	137.88
246.333	149.88
246.566	129.88
246.8	136.88
247.033	137.88
247.266	140.88
247.5	143.88
247.733	150.88
247.966	132.88
248.2	135.88
248.433	142.88
248.666	159.88
248.899	161.88
249.133	167.88
249.366	161.88
249.599	159.88
249.832	167.88
250.066	144.88
250.299	155.88
250.532	173.88
250.765	178.88
250.998	173.88
251.231	184.88
251.465	189.88
251.698	170.88
251.931	175.88
252.164	173.88
252.397	184.88
252.63	167.88
252.863	182.88
253.096	183.88
253.329	192.88
253.562	196.88
253.795	168.88
254.028	191.88
254.261	191.88
254.494	184.88
254.727	223.88
254.96	211.88
255.193	213.88
255.426	214.88
255.659	210.88
255.892	211.88
256.124	199.88
256.357	184.88
256.59	193.88
256.823	178.88
257.056	197.88
257.289	177.88
257.521	195.88
257.754	204.88
257.987	179.88
258.22	180.88
258.452	189.88
258.685	182.88
258.918	184.88
259.151	198.88
259.383	182.88
259.616	180.88
259.849	186.88
260.081	203.88
260.314	199.88
260.547	201.88
260.779	192.88
261.012	183.88
261.244	184.88
261.477	179.88
261.71	194.88
261.942	190.88
262.175	203.88
262.407	200.88
262.64	191.88
262.872	192.88
263.105	194.88
263.337	174.88
263.57	178.88
263.802	184.88
264.035	180.88
264.267	180.88
264.499	187.88
264.732	188.88
264.964	169.88
265.197	180.88
265.429	183.88
265.661	170.88
265.894	157.88
266.126	180.88
266.358	166.88
266.591	206.88
266.823	190.88
267.055	183.88
267.287	207.88
267.52	189.88
267.752	179.88
267.984	184.88
268.216	203.88
268.448	191.88
268.681	189.88
268.913	195.88
269.145	216.88
269.377	229.88
269.609	235.88
269.841	207.88
270.073	223.88
270.306	226.88
270.538	252.88
270.77	252.88
271.002	249.88
271.234	243.88
271.466	233.88
271.698	226.88
271.93	256.88
272.162	254.88
272.394	268.88
272.626	240.88
272.858	237.88
273.09	244.88
273.322	224.88
273.553	226.88
273.785	228.88
274.017	211.88
274.249	208.88
274.481	221.88
274.713	226.88
274.945	229.88
275.176	216.88
275.408	204.88
275.64	214.88
275.872	198.88
276.104	231.88
276.335	223.88
276.567	219.88
276.799	236.88
277.031	238.88
277.262	243.88
277.494	256.88
277.726	235.88
277.957	248.88
278.189	228.88
278.421	222.88
278.652	219.88
278.884	244.88
279.115	218.88
279.347	232.88
279.579	214.88
279.81	228.88
280.042	225.88
280.273	231.88
280.505	233.88
280.736	212.88
280.968	204.88
281.199	210.88
281.431	221.88
281.662	198.88
281.894	224.88
282.125	237.88
282.356	232.88
282.588	230.88
282.819	244.88
283.051	217.88
283.282	219.88
283.513	230.88
283.745	218.88
283.976	228.88
284.207	220.88
284.439	226.88
284.67	208.88
284.901	231.88
285.132	232.88
285.364	227.88
285.595	209.88
285.826	222.88
286.057	230.88
286.288	243.88
286.52	243.88
286.751	231.88
286.982	228.88
287.213	235.88
287.444	231.88
287.675	233.88
287.906	231.88
288.138	246.88
288.369	257.88
288.6	244.88
288.831	228.88
289.062	248.88
289.293	239.88
289.524	247.88
289.755	239.88
289.986	236.88
290.217	216.88
290.448	231.88
290.679	234.88
290.91	213.88
291.141	228.88
291.371	228.88
291.602	237.88
291.833	246.88
292.064	240.88
292.295	240.88
292.526	233.88
292.757	245.88
292.987	218.88
293.218	227.88
293.449	248.88
293.68	234.88
293.91	236.88
294.141	244.88
294.372	236.88
294.603	231.88
294.833	222.88
295.064	226.88
295.295	237.88
295.525	238.88
295.756	243.88
295.987	251.88
296.217	240.88
296.448	258.88
296.679	229.88
296.909	253.88
297.14	241.88
297.37	234.88
297.601	232.88
297.831	230.88
298.062	226.88
298.292	242.88
298.523	252.88
298.753	254.88
298.984	249.88
299.214	265.88
299.445	253.88
299.675	248.88
299.905	238.88
300.136	247.88
300.366	258.88
300.597	250.88
300.827	247.88
301.057	246.88
301.288	269.88
301.518	269.88
301.748	265.88
301.979	264.88
302.209	259.88
302.439	250.88
302.669	257.88
302.9	255.88
303.13	266.88
303.36	265.88
303.59	260.88
303.82	270.88
304.051	270.88
304.281	261.88
304.511	246.88
304.741	262.88
304.971	261.88
305.201	254.88
305.431	268.88
305.661	259.88
305.891	247.88
306.121	256.88
306.352	277.88
306.582	251.88
306.812	264.88
307.042	270.88
307.272	266.88
307.502	249.88
307.731	272.88
307.961	278.88
308.191	255.88
308.421	262.88
308.651	266.88
308.881	256.88
309.111	269.88
309.341	278.88
309.571	277.88
309.8	282.88
310.03	288.88
310.26	301.88
310.49	290.88
310.72	297.88
310.949	315.88
311.179	320.88
311.409	298.88
311.639	288.88
311.868	273.88
312.098	303.88
312.328	300.88
312.557	315.88
312.787	327.88
313.017	312.88
313.246	304.88
313.476	291.88
313.706	269.88
313.935	302.88
314.165	302.88
314.394	307.88
314.624	296.88
314.853	283.88
315.083	323.88
315.312	290.88
315.542	288.88
315.771	295.88
316.001	277.88
316.23	299.88
316.46	285.88
316.689	293.88
316.919	298.88
317.148	324.88
317.377	300.88
317.607	311.88
317.836	297.88
318.065	302.88
318.295	295.88
318.524	288.88
318.753	303.88
318.983	301.88
319.212	302.88
319.441	282.88
319.67	320.88
319.9	292.88
320.129	306.88
320.358	300.88
320.587	285.88
320.816	301.88
321.046	311.88
321.275	313.88
321.504	315.88
321.733	307.88
321.962	315.88
322.191	324.88
322.42	331.88
322.649	343.88
322.878	335.88
323.108	357.88
323.337	366.88
323.566	397.88
323.795	388.88
324.024	412.88
324.253	504.88
324.482	696.88
324.71	1088.88
324.939	1606.88
325.168	1406.88
325.397	709.88
325.626	483.88
325.855	407.88
326.084	394.88
326.313	379.88
326.542	384.88
326.77	411.88
326.999	485.88
327.228	636.88
327.457	964.88
327.686	1216.88
327.914	796.88
328.143	546.88
328.372	478.88
328.6	449.88
328.829	418.88
329.058	414.88
329.287	422.88
329.515	406.88
329.744	381.88
329.972	383.88
330.201	396.88
330.43	405.88
330.658	454.88
330.887	467.88
331.115	437.88
331.344	383.88
331.572	361.88
331.801	361.88
332.03	358.88
332.258	347.88
332.486	328.88
332.715	358.88
332.943	330.88
333.172	344.88
333.4	340.88
333.629	338.88
333.857	360.88
334.085	374.88
334.314	361.88
334.542	382.88
334.771	412.88
334.999	371.88
335.227	350.88
335.455	340.88
335.684	328.88
335.912	354.88
336.14	333.88
336.369	343.88
336.597	358.88
336.825	349.88
337.053	347.88
337.281	344.88
337.51	347.88
337.738	329.88
337.966	341.88
338.194	322.88
338.422	345.88
338.65	322.88
338.878	337.88
339.106	342.88
339.334	323.88
339.562	327.88
339.79	313.88
340.018	320.88
340.246	339.88
340.474	340.88
340.702	335.88
340.93	340.88
341.158	319.88
341.386	326.88
341.614	336.88
341.842	321.88
342.07	327.88
342.298	320.88
342.526	335.88
342.754	301.88
342.981	311.88
343.209	340.88
343.437	319.88
343.665	328.88
343.893	333.88
344.12	327.88
344.348	337.88
344.576	325.88
344.804	335.88
345.031	357.88
345.259	324.88
345.487	332.88
345.714	349.88
345.942	332.88
346.17	319.88
346.397	328.88
346.625	324.88
346.853	329.88
347.08	317.88
347.308	303.88
347.535	321.88
347.763	330.88
347.99	330.88
348.218	327.88
348.445	335.88
348.673	328.88
348.9	326.88
349.128	302.88
349.355	324.88
349.583	323.88
349.81	326.88
350.037	309.88
350.265	317.88
350.492	327.88
350.72	312.88
350.947	328.88
351.174	303.88
351.402	333.88
351.629	316.88
351.856	322.88
352.083	340.88
352.311	350.88
352.538	325.88
352.765	340.88
352.992	334.88
353.22	356.88
353.447	336.88
353.674	331.88
353.901	306.88
354.128	312.88
354.355	306.88
354.583	306.88
354.81	300.88
355.037	310.88
355.264	311.88
355.491	309.88
355.718	314.88
355.945	310.88
356.172	300.88
356.399	289.88
356.626	297.88
356.853	313.88
357.08	287.88
357.307	322.88
357.534	296.88
357.761	297.88
357.988	297.88
358.215	283.88
358.441	308.88
358.668	297.88
358.895	306.88
359.122	303.88
359.349	316.88
359.576	316.88
359.802	324.88
360.029	344.88
360.256	361.88
360.483	346.88
360.709	324.88
360.936	307.88
361.163	311.88
361.39	325.88
361.616	320.88
361.843	324.88
362.07	324.88
362.296	312.88
362.523	319.88
362.749	317.88
362.976	301.88
363.203	314.88
363.429	313.88
363.656	310.88
363.882	309.88
364.109	303.88
364.335	311.88
364.562	301.88
364.788	298.88
365.015	324.88
365.241	318.88
365.468	326.88
365.694	327.88
365.92	327.88
366.147	328.88
366.373	328.88
366.599	309.88
366.826	295.88
367.052	309.88
367.278	310.88
367.505	323.88
367.731	325.88
367.957	283.88
368.184	308.88
368.41	301.88
368.636	322.88
368.862	331.88
369.089	306.88
369.315	310.88
369.541	308.88
369.767	305.88
369.993	303.88
370.219	312.88
370.445	308.88
370.672	323.88
370.898	314.88
371.124	299.88
371.35	296.88
371.576	286.88
371.802	321.88
372.028	306.88
372.254	311.88
372.48	314.88
372.706	302.88
372.932	325.88
373.158	331.88
373.384	308.88
373.61	299.88
373.835	319.88
374.061	308.88
374.287	319.88
374.513	329.88
374.739	312.88
374.965	306.88
375.191	296.88
375.416	299.88
375.642	318.88
375.868	329.88
376.094	302.88
376.319	306.88
376.545	314.88
376.771	314.88
376.997	320.88
377.222	303.88
377.448	321.88
377.674	307.88
377.899	303.88
378.125	291.88
378.35	294.88
378.576	295.88
378.802	292.88
379.027	288.88
379.253	316.88
379.478	310.88
379.704	318.88
379.929	321.88
380.155	315.88
380.38	301.88
380.606	307.88
380.831	295.88
381.057	315.88
381.282	310.88
381.507	317.88
381.733	299.88
381.958	298.88
382.184	319.88
382.409	318.88
382.634	322.88
382.86	306.88
383.085	321.88
383.31	308.88
383.535	329.88
383.761	328.88
383.986	341.88
384.211	309.88
384.436	315.88
384.662	347.88
384.887	331.88
385.112	310.88
385.337	328.88
385.562	321.88
385.787	318.88
386.013	350.88
386.238	341.88
386.463	357.88
386.688	336.88
386.913	334.88
387.138	348.88
387.363	347.88
387.588	335.88
387.813	346.88
388.038	311.88
388.263	326.88
388.488	336.88
388.713	340.88
388.938	342.88
389.163	335.88
389.387	343.88
389.612	333.88
389.837	336.88
390.062	346.88
390.287	336.88
390.512	335.88
390.736	341.88
390.961	328.88
391.186	339.88
391.411	320.88
391.636	340.88
391.86	324.88
392.085	351.88
392.31	351.88
392.534	335.88
392.759	350.88
392.984	359.88
393.208	344.88
393.433	387.88
393.658	371.88
393.882	323.88
394.107	337.88
394.331	343.88
394.556	340.88
394.78	335.88
395.005	329.88
395.229	339.88
395.454	338.88
395.678	348.88
395.903	358.88
396.127	354.88
396.352	360.88
396.576	365.88
396.801	348.88
397.025	374.88
397.249	362.88
397.474	363.88
397.698	342.88
397.922	351.88
398.147	358.88
398.371	386.88
398.595	376.88
398.82	362.88
399.044	370.88
399.268	389.88
399.492	391.88
399.717	431.88
399.941	435.88
400.165	454.88
400.389	478.88
400.613	407.88
400.837	386.88
401.062	383.88
401.286	360.88
401.51	382.88
401.734	386.88
401.958	391.88
402.182	367.88
402.406	363.88
402.63	374.88
402.854	378.88
403.078	387.88
403.302	363.88
403.526	384.88
403.75	382.88
403.974	393.88
404.198	388.88
404.422	390.88
404.645	378.88
404.869	381.88
405.093	415.88
405.317	448.88
405.541	465.88
405.765	414.88
405.988	406.88
406.212	404.88
406.436	415.88
406.66	417.88
406.883	406.88
407.107	423.88
407.331	458.88
407.555	510.88
407.778	506.88
408.002	456.88
408.226	441.88
408.449	441.88
408.673	428.88
408.896	463.88
409.12	466.88
409.344	469.88
409.567	429.88
409.791	399.88
410.014	399.88
410.238	392.88
410.461	367.88
410.685	380.88
410.908	402.88
411.132	428.88
411.355	455.88
411.578	426.88
411.802	398.88
412.025	371.88
412.249	394.88
412.472	411.88
412.695	438.88
412.919	432.88
413.142	410.88
413.365	392.88
413.589	376.88
413.812	376.88
414.035	376.88
414.258	357.88
414.482	359.88
414.705	368.88
414.928	376.88
415.151	378.88
415.374	366.88
415.597	373.88
415.821	358.88
416.044	372.88
416.267	370.88
416.49	373.88
416.713	349.88
416.936	363.88
417.159	357.88
417.382	378.88
417.605	370.88
417.828	376.88
418.051	381.88
418.274	386.88
418.497	364.88
418.72	360.88
418.943	377.88
419.166	386.88
419.389	399.88
419.611	378.88
419.834	376.88
420.057	396.88
420.28	407.88
420.503	369.88
420.726	362.88
420.948	398.88
421.171	406.88
421.394	450.88
421.617	388.88
421.839	395.88
422.062	391.88
422.285	390.88
422.507	408.88
422.73	491.88
422.953	510.88
423.175	409.88
423.398	399.88
423.621	403.88
423.843	408.88
424.066	415.88
424.288	413.88
424.511	430.88
424.733	469.88
424.956	534.88
425.178	508.88
425.401	491.88
425.623	516.88
425.846	462.88
426.068	406.88
426.291	411.88
426.513	411.88
426.735	428.88
426.958	445.88
427.18	515.88
427.402	642.88
427.625	682.88
427.847	593.88
428.069	508.88
428.292	456.88
428.514	444.88
428.736	440.88
428.958	398.88
429.181	407.88
429.403	382.88
429.625	403.88
429.847	410.88
430.069	454.88
430.292	463.88
430.514	413.88
430.736	389.88
430.958	366.88
431.18	382.88
431.402	362.88
431.624	360.88
431.846	361.88
432.068	370.88
432.29	370.88
432.512	362.88
432.734	348.88
432.956	374.88
433.178	359.88
433.4	388.88
433.622	370.88
433.844	354.88
434.066	349.88
434.287	372.88
434.509	374.88
434.731	375.88
434.953	379.88
435.175	400.88
435.397	397.88
435.618	419.88
435.84	454.88
436.062	502.88
436.284	569.88
436.505	480.88
436.727	429.88
436.949	389.88
437.17	393.88
437.392	392.88
437.614	388.88
437.835	404.88
438.057	511.88
438.278	587.88
438.5	581.88
438.721	648.88
438.943	629.88
439.165	473.88
439.386	434.88
439.608	424.88
439.829	441.88
440.05	443.88
440.272	488.88
440.493	463.88
440.715	403.88
440.936	393.88
441.158	384.88
441.379	394.88
441.6	403.88
441.822	409.88
442.043	429.88
442.264	508.88
442.486	570.88
442.707	452.88
442.928	404.88
443.149	438.88
443.371	451.88
443.592	515.88
443.813	563.88
444.034	602.88
444.255	526.88
444.476	446.88
444.698	406.88
444.919	407.88
445.14	523.88
445.361	442.88
445.582	451.88
445.803	510.88
446.024	577.88
446.245	590.88
446.466	543.88
446.687	450.88
446.908	450.88
447.129	406.88
447.35	405.88
447.571	384.88
447.792	401.88
448.013	386.88
448.234	423.88
448.455	445.88
448.675	536.88
448.896	648.88
449.117	532.88
449.338	503.88
449.559	595.88
449.779	635.88
450	512.88
450.221	446.88
450.442	420.88
450.662	379.88
450.883	366.88
451.104	394.88
451.324	377.88
451.545	387.88
451.766	359.88
451.986	346.88
452.207	338.88
452.428	342.88
452.648	332.88
452.869	351.88
453.089	351.88
453.31	365.88
453.53	359.88
453.751	349.88
453.971	351.88
454.192	345.88
454.412	336.88
454.633	328.88
454.853	357.88
455.073	340.88
455.294	343.88
455.514	420.88
455.734	420.88
455.955	368.88
456.175	356.88
456.395	329.88
456.616	344.88
456.836	329.88
457.056	316.88
457.276	312.88
457.497	333.88
457.717	328.88
457.937	340.88
458.157	328.88
458.377	346.88
458.598	345.88
458.818	396.88
459.038	456.88
459.258	453.88
459.478	411.88
459.698	388.88
459.918	377.88
460.138	357.88
460.358	362.88
460.578	352.88
460.798	371.88
461.018	370.88
461.238	387.88
461.458	363.88
461.678	371.88
461.898	386.88
462.118	363.88
462.338	374.88
462.558	363.88
462.777	386.88
462.997	388.88
463.217	395.88
463.437	381.88
463.657	395.88
463.876	393.88
464.096	402.88
464.316	376.88
464.536	390.88
464.755	387.88
464.975	386.88
465.195	433.88
465.414	461.88
465.634	419.88
465.854	378.88
466.073	383.88
466.293	351.88
466.512	376.88
466.732	362.88
466.951	357.88
467.171	350.88
467.391	353.88
467.61	352.88
467.829	367.88
468.049	350.88
468.268	355.88
468.488	348.88
468.707	364.88
468.927	358.88
469.146	352.88
469.365	344.88
469.585	359.88
469.804	371.88
470.023	372.88
470.243	375.88
470.462	376.88
470.681	368.88
470.901	372.88
471.12	376.88
471.339	336.88
471.558	382.88
471.777	376.88
471.997	361.88
472.216	360.88
472.435	409.88
472.654	397.88
472.873	373.88
473.092	370.88
473.311	362.88
473.53	357.88
473.749	369.88
473.968	408.88
474.187	492.88
474.406	493.88
474.625	418.88
474.844	379.88
475.063	358.88
475.282	379.88
475.501	376.88
475.72	376.88
475.939	372.88
476.158	375.88
476.377	376.88
476.596	380.88
476.814	393.88
477.033	384.88
477.252	398.88
477.471	391.88
477.69	379.88
477.908	387.88
478.127	415.88
478.346	414.88
478.564	417.88
478.783	412.88
479.002	398.88
479.22	404.88
479.439	408.88
479.658	421.88
479.876	426.88
480.095	432.88
480.313	452.88
480.532	442.88
480.751	428.88
480.969	446.88
481.188	473.88
481.406	488.88
481.624	443.88
481.843	428.88
482.061	427.88
482.28	435.88
482.498	433.88
482.717	406.88
482.935	430.88
483.153	428.88
483.372	436.88
483.59	423.88
483.808	414.88
484.027	407.88
484.245	418.88
484.463	422.88
484.681	435.88
484.9	462.88
485.118	455.88
485.336	438.88
485.554	438.88
485.772	440.88
485.99	419.88
486.209	450.88
486.427	447.88
486.645	446.88
486.863	451.88
487.081	462.88
487.299	457.88
487.517	462.88
487.735	447.88
487.953	448.88
488.171	455.88
488.389	442.88
488.607	448.88
488.825	447.88
489.043	465.88
489.261	471.88
489.479	464.88
489.696	456.88
489.914	462.88
490.132	492.88
490.35	473.88
490.568	461.88
490.786	479.88
491.003	479.88
491.221	492.88
491.439	495.88
491.657	503.88
491.874	515.88
492.092	517.88
492.31	513.88
492.527	503.88
492.745	513.88
492.963	508.88
493.18	518.88
493.398	518.88
493.615	501.88
493.833	531.88
494.05	526.88
494.268	520.88
494.485	529.88
494.703	536.88
494.92	521.88
495.138	540.88
495.355	534.88
495.573	527.88
495.79	533.88
496.008	529.88
496.225	538.88
496.442	538.88
496.66	538.88
496.877	534.88
497.094	541.88
497.312	580.88
497.529	565.88
497.746	551.88
497.963	571.88
498.181	564.88
498.398	563.88
498.615	607.88
498.832	607.88
499.049	595.88
499.267	638.88
499.484	617.88
499.701	666.88
499.918	658.88
500.135	699.88
500.352	687.88
500.569	710.88
500.786	707.88
501.003	693.88
501.22	694.88
501.437	662.88
501.654	663.88
501.871	647.88
502.088	645.88
502.305	618.88
502.522	608.88
502.739	601.88
502.956	589.88
503.172	602.88
503.389	541.88
503.606	580.88
503.823	567.88
504.04	566.88
504.256	551.88
504.473	542.88
504.69	542.88
504.907	536.88
505.123	522.88
505.34	526.88
505.557	515.88
505.773	524.88
505.99	528.88
506.207	521.88
506.423	535.88
506.64	507.88
506.856	525.88
507.073	511.88
507.289	512.88
507.506	481.88
507.722	516.88
507.939	532.88
508.155	521.88
508.372	520.88
508.588	477.88
508.805	487.88
509.021	468.88
509.238	504.88
509.454	484.88
509.67	500.88
509.887	511.88
510.103	476.88
510.319	493.88
510.536	558.88
510.752	854.88
510.968	720.88
511.184	508.88
511.401	462.88
511.617	471.88
511.833	450.88
512.049	469.88
512.265	446.88
512.481	451.88
512.698	480.88
512.914	455.88
513.13	472.88
513.346	470.88
513.562	469.88
513.778	475.88
513.994	490.88
514.21	459.88
514.426	502.88
514.642	481.88
514.858	532.88
515.074	545.88
515.29	650.88
515.506	876.88
515.721	757.88
515.937	553.88
516.153	502.88
516.369	484.88
516.585	470.88
516.801	465.88
517.016	456.88
517.232	480.88
517.448	466.88
517.664	460.88
517.879	479.88
518.095	462.88
518.311	474.88
518.527	494.88
518.742	463.88
518.958	476.88
519.173	461.88
519.389	442.88
519.605	467.88
519.82	466.88
520.036	482.88
520.251	468.88
520.467	504.88
520.682	481.88
520.898	486.88
521.113	510.88
521.329	518.88
521.544	579.88
521.76	715.88
521.975	1110.88
522.19	1120.88
522.406	633.88
522.621	524.88
522.836	481.88
523.052	458.88
523.267	454.88
523.482	451.88
523.698	436.88
523.913	430.88
524.128	430.88
524.343	419.88
524.559	444.88
524.774	400.88
524.989	420.88
525.204	414.88
525.419	409.88
525.634	418.88
525.849	400.88
526.064	396.88
526.28	405.88
526.495	394.88
526.71	413.88
526.925	396.88
527.14	376.88
527.355	404.88
527.57	409.88
527.785	392.88
527.999	400.88
528.214	404.88
528.429	407.88
528.644	398.88
528.859	406.88
529.074	387.88
529.289	395.88
529.503	438.88
529.718	428.88
529.933	419.88
530.148	406.88
530.363	399.88
530.577	384.88
530.792	379.88
531.007	378.88
531.221	372.88
531.436	383.88
531.651	383.88
531.865	374.88
532.08	389.88
532.295	388.88
532.509	372.88
532.724	361.88
532.938	365.88
533.153	348.88
533.367	366.88
533.582	371.88
533.796	376.88
534.011	385.88
534.225	388.88
534.44	367.88
534.654	376.88
534.868	364.88
535.083	356.88
535.297	368.88
535.511	373.88
535.726	399.88
535.94	383.88
536.154	380.88
536.369	363.88
536.583	372.88
536.797	375.88
537.011	360.88
537.225	368.88
537.44	367.88
537.654	362.88
537.868	346.88
538.082	378.88
538.296	369.88
538.51	360.88
538.724	376.88
538.938	360.88
539.153	363.88
539.367	381.88
539.581	366.88
539.795	364.88
540.009	366.88
540.222	347.88
540.436	363.88
540.65	360.88
540.864	358.88
541.078	374.88
541.292	363.88
541.506	349.88
541.72	336.88
541.934	346.88
542.147	358.88
542.361	356.88
542.575	360.88
542.789	386.88
543.002	352.88
543.216	366.88
543.43	363.88
543.644	340.88
543.857	362.88
544.071	355.88
544.285	363.88
544.498	362.88
544.712	366.88
544.925	365.88
545.139	331.88
545.352	349.88
545.566	347.88
545.779	362.88
545.993	334.88
546.206	344.88
546.42	338.88
546.633	362.88
546.847	346.88
547.06	337.88
547.274	337.88
547.487	342.88
547.7	351.88
547.914	350.88
548.127	348.88
548.34	338.88
548.554	347.88
548.767	364.88
548.98	372.88
549.193	352.88
549.407	346.88
549.62	334.88
549.833	342.88
550.046	336.88
550.259	342.88
550.473	336.88
550.686	358.88
550.899	340.88
551.112	325.88
551.325	333.88
551.538	333.88
551.751	342.88
551.964	341.88
552.177	341.88
552.39	338.88
552.603	327.88
552.816	349.88
553.029	330.88
553.242	356.88
553.455	343.88
553.667	344.88
553.88	350.88
554.093	332.88
554.306	345.88
554.519	344.88
554.732	345.88
554.944	332.88
555.157	343.88
555.37	324.88
555.583	325.88
555.795	339.88
556.008	336.88
556.221	326.88
556.433	325.88
556.646	320.88
556.859	315.88
557.071	325.88
557.284	322.88
557.496	318.88
557.709	315.88
557.921	315.88
558.134	320.88
558.346	309.88
558.559	314.88
558.771	316.88
558.984	309.88
559.196	308.88
559.409	326.88
559.621	314.88
559.833	321.88
560.046	307.88
560.258	317.88
560.47	332.88
560.683	311.88
560.895	322.88
561.107	300.88
561.32	314.88
561.532	308.88
561.744	318.88
561.956	296.88
562.168	334.88
562.381	314.88
562.593	312.88
562.805	327.88
563.017	309.88
563.229	305.88
563.441	318.88
563.653	324.88
563.865	300.88
564.077	318.88
564.289	336.88
564.501	322.88
564.713	327.88
564.925	339.88
565.137	326.88
565.349	347.88
565.561	322.88
565.773	342.88
565.985	342.88
566.197	350.88
566.408	358.88
566.62	349.88
566.832	348.88
567.044	355.88
567.255	358.88
567.467	383.88
567.679	368.88
567.891	372.88
568.102	354.88
568.314	359.88
568.526	362.88
568.737	359.88
568.949	343.88
569.161	347.88
569.372	310.88
569.584	312.88
569.795	328.88
570.007	329.88
570.218	342.88
570.43	333.88
570.641	297.88
570.853	320.88
571.064	314.88
571.276	309.88
571.487	292.88
571.698	299.88
571.91	314.88
572.121	306.88
572.333	290.88
572.544	297.88
572.755	299.88
572.966	285.88
573.178	298.88
573.389	295.88
573.6	276.88
573.811	276.88
574.023	275.88
574.234	269.88
574.445	280.88
574.656	267.88
574.867	297.88
575.078	272.88
575.289	281.88
575.501	271.88
575.712	292.88
575.923	265.88
576.134	270.88
576.345	254.88
576.556	279.88
576.767	268.88
576.978	253.88
577.188	276.88
577.399	265.88
577.61	254.88
577.821	278.88
578.032	272.88
578.243	294.88
578.454	422.88
578.665	338.88
578.875	272.88
579.086	256.88
579.297	249.88
579.508	248.88
579.718	274.88
579.929	268.88
580.14	257.88
580.35	254.88
580.561	259.88
580.772	253.88
580.982	253.88
581.193	247.88
581.403	248.88
581.614	266.88
581.825	260.88
582.035	254.88
582.246	255.88
582.456	265.88
582.667	262.88
582.877	253.88
583.087	242.88
583.298	251.88
583.508	243.88
583.719	254.88
583.929	249.88
584.139	226.88
584.35	223.88
584.56	243.88
584.77	267.88
584.981	244.88
585.191	249.88
585.401	245.88
585.611	248.88
585.821	245.88
586.032	260.88
586.242	252.88
586.452	245.88
586.662	280.88
586.872	226.88
587.082	237.88
587.292	230.88
587.502	254.88
587.713	249.88
587.923	247.88
588.133	233.88
588.343	246.88
588.553	262.88
588.762	257.88
588.972	239.88
589.182	258.88
589.392	242.88
589.602	236.88
589.812	258.88
590.022	267.88
590.232	239.88
590.441	252.88
590.651	245.88
590.861	235.88
591.071	234.88
591.281	242.88
591.49	246.88
591.7	246.88
591.91	243.88
592.119	238.88
592.329	236.88
592.539	255.88
592.748	235.88
592.958	256.88
593.167	252.88
593.377	256.88
593.587	260.88
593.796	236.88
594.006	240.88
594.215	259.88
594.424	255.88
594.634	244.88
594.843	256.88
595.053	240.88
595.262	258.88
595.472	245.88
595.681	229.88
595.89	230.88
596.1	227.88
596.309	227.88
596.518	229.88
596.727	242.88
596.937	225.88
597.146	226.88
597.355	219.88
597.564	225.88
597.774	215.88
597.983	229.88
598.192	219.88
598.401	232.88
598.61	215.88
598.819	244.88
599.028	242.88
599.237	207.88
599.446	224.88
599.655	219.88
599.864	218.88
600.073	224.88
600.282	218.88
600.491	219.88
600.7	220.88
600.909	207.88
601.118	218.88
601.327	222.88
601.536	215.88
601.745	221.88
601.953	205.88
602.162	228.88
602.371	218.88
602.58	210.88
602.789	205.88
602.997	201.88
603.206	211.88
603.415	209.88
603.623	216.88
603.832	206.88
604.041	216.88
604.249	215.88
604.458	201.88
604.666	205.88
604.875	203.88
605.084	216.88
605.292	213.88
605.501	209.88
605.709	208.88
605.918	198.88
606.126	192.88
606.334	222.88
606.543	206.88
606.751	204.88
606.96	205.88
607.168	205.88
607.376	208.88
607.585	216.88
607.793	220.88
608.001	199.88
608.21	200.88
608.418	210.88
608.626	210.88
608.834	206.88
609.043	195.88
609.251	205.88
609.459	210.88
609.667	215.88
609.875	213.88
610.083	204.88
610.291	203.88
610.499	214.88
610.707	208.88
610.916	224.88
611.124	206.88
611.332	217.88
611.54	223.88
611.748	218.88
611.955	188.88
612.163	225.88
612.371	211.88
612.579	215.88
612.787	193.88
612.995	201.88
613.203	202.88
613.411	198.88
613.618	181.88
613.826	216.88
614.034	203.88
614.242	198.88
614.449	206.88
614.657	195.88
614.865	176.88
615.072	210.88
615.28	209.88
615.488	196.88
615.695	202.88
615.903	187.88
616.111	202.88
616.318	193.88
616.526	215.88
616.733	200.88
616.941	193.88
617.148	208.88
617.356	201.88
617.563	200.88
617.771	187.88
617.978	203.88
618.185	198.88
618.393	195.88
618.6	207.88
618.807	204.88
619.015	200.88
619.222	191.88
619.429	178.88
619.637	190.88
619.844	194.88
620.051	186.88
620.258	188.88
620.466	178.88
620.673	189.88
620.88	196.88
621.087	177.88
621.294	194.88
621.501	199.88
621.708	193.88
621.915	173.88
622.122	185.88
622.329	168.88
622.536	172.88
622.743	176.88
622.95	202.88
623.157	184.88
623.364	200.88
623.571	201.88
623.778	196.88
623.985	190.88
624.192	180.88
624.399	190.88
624.606	196.88
624.812	182.88
625.019	174.88
625.226	171.88
625.433	184.88
625.639	182.88
625.846	172.88
626.053	179.88
626.259	178.88
626.466	173.88
626.673	167.88
626.879	167.88
627.086	187.88
627.293	194.88
627.499	174.88
627.706	179.88
627.912	177.88
628.119	196.88
628.325	183.88
628.532	166.88
628.738	172.88
628.945	186.88
629.151	160.88
629.357	166.88
629.564	162.88
629.77	176.88
629.976	186.88
630.183	171.88
630.389	180.88
630.595	189.88
630.802	166.88
631.008	167.88
631.214	163.88
631.42	183.88
631.627	170.88
631.833	162.88
632.039	164.88
632.245	154.88
632.451	179.88
632.657	154.88
632.863	162.88
633.069	151.88
633.275	158.88
633.481	159.88
633.688	170.88
633.893	161.88
634.099	170.88
634.305	170.88
634.511	167.88
634.717	179.88
634.923	168.88
635.129	175.88
635.335	162.88
635.541	155.88
635.747	163.88
635.952	151.88
636.158	159.88
636.364	168.88
636.57	166.88
636.775	149.88
636.981	169.88
637.187	167.88
637.392	176.88
637.598	145.88
637.804	164.88
638.009	164.88
638.215	163.88
638.421	150.88
638.626	165.88
638.832	154.88
639.037	165.88
639.243	154.88
639.448	154.88
639.654	151.88
639.859	173.88
640.065	146.88
640.27	150.88
640.475	171.88
640.681	148.88
640.886	159.88
641.091	162.88
641.297	160.88
641.502	151.88
641.707	138.88
641.913	172.88
642.118	152.88
642.323	142.88
642.528	162.88
642.733	168.88
642.939	162.88
643.144	158.88
643.349	138.88
643.554	141.88
643.759	141.88
643.964	144.88
644.169	139.88
644.374	163.88
644.579	164.88
644.784	149.88
644.989	143.88
645.194	132.88
645.399	151.88
645.604	160.88
645.809	159.88
646.014	153.88
646.219	148.88
646.423	139.88
646.628	150.88
646.833	148.88
647.038	139.88
647.243	146.88
647.447	146.88
647.652	152.88
647.857	144.88
648.062	165.88
648.266	159.88
648.471	128.88
648.676	150.88
648.88	156.88
649.085	147.88
649.289	160.88
649.494	162.88
649.698	163.88
649.903	180.88
650.107	150.88
650.312	154.88
650.516	151.88
650.721	140.88
650.925	136.88
651.13	135.88
651.334	133.88
651.539	149.88
651.743	158.88
651.947	136.88
652.152	146.88
652.356	126.88
652.56	129.88
652.764	115.88
652.969	129.88
653.173	124.88
653.377	143.88
653.581	125.88
653.785	120.88
653.99	119.88
654.194	143.88
654.398	122.88
654.602	132.88
654.806	119.88
655.01	140.88
655.214	128.88
655.418	134.88
655.622	135.88
655.826	123.88
656.03	123.88
656.234	128.88
656.438	144.88
656.642	129.88
656.846	125.88
657.049	130.88
657.253	124.88
657.457	132.88
657.661	112.88
657.865	108.88
658.068	105.88
658.272	104.88
658.476	110.88
658.68	93.88
658.883	91.88
659.087	90.88
659.291	90.88
659.494	99.88
659.698	95.88
659.901	102.88
660.105	95.88
660.309	89.88
660.512	77.88
660.716	93.88
660.919	87.88
661.123	87.88
661.326	80.88
661.53	102.88
661.733	86.88
661.936	77.88
662.14	94.88
662.343	95.88
662.546	87.88
662.75	96.88
662.953	84.88
663.156	80.88
663.36	83.88
663.563	89.88
663.766	98.88
663.969	74.88
664.173	86.88
664.376	87.88
664.579	77.88
664.782	75.88
664.985	90.88
665.188	98.88
665.391	93.88
665.594	84.88
665.797	90.88
666	85.88
666.203	88.88
666.406	77.88
666.609	74.88
666.812	85.88
667.015	80.88
667.218	74.88
667.421	76.88
667.624	84.88
667.827	77.88
668.03	93.88
668.232	77.88
668.435	89.88
668.638	67.88
668.841	74.88
669.043	70.88
669.246	84.88
669.449	77.88
669.651	74.88
669.854	88.88
670.057	77.88
670.259	91.88
670.462	80.88
670.665	74.88
670.867	82.88
671.07	78.88
671.272	91.88
671.475	99.88
671.677	88.88
671.88	85.88
672.082	92.88
672.284	93.88
672.487	98.88
672.689	88.88
672.892	87.88
