Data from 1972.PennyLincolnUp.Lamp.En5.5.200Scan.071719.P1._HRD10591_15-29-55-845.txt Node
Date: Thu Jul 18 15:29:55 EDT 2019
User: cochatt
Spectrometer: HR+D1059
Trigger mode: 1
Integration Time (sec): 1.000000E-1
Scans to average: 1
Electric dark correction enabled: true
Nonlinearity correction enabled: false
Boxcar width: 0
XAxis mode: Wavelengths
Number of Pixels in Spectrum: 2048
>>>>>Begin Spectral Data<<<<<
223.165	-13.31
223.4	-13.31
223.635	-13.31
223.869	-25.31
224.104	-33.31
224.338	-5.31
224.573	-13.31
224.808	-4.31
225.042	-14.31
225.277	-3.31
225.511	-8.31
225.746	6.69
225.98	10.69
226.215	12.69
226.449	25.69
226.683	14.69
226.918	10.69
227.152	39.69
227.387	43.69
227.621	54.69
227.856	43.69
228.09	31.69
228.324	42.69
228.559	46.69
228.793	65.69
229.027	94.69
229.262	117.69
229.496	116.69
229.73	166.69
229.964	182.69
230.199	130.69
230.433	118.69
230.667	123.69
230.901	117.69
231.136	110.69
231.37	114.69
231.604	120.69
231.838	111.69
232.072	116.69
232.306	126.69
232.541	115.69
232.775	122.69
233.009	112.69
233.243	118.69
233.477	112.69
233.711	118.69
233.945	116.69
234.179	122.69
234.413	127.69
234.647	125.69
234.881	123.69
235.115	140.69
235.349	130.69
235.583	126.69
235.817	122.69
236.051	128.69
236.285	143.69
236.519	119.69
236.753	122.69
236.987	151.69
237.221	212.69
237.455	260.69
237.689	219.69
237.922	144.69
238.156	157.69
238.39	162.69
238.624	138.69
238.858	134.69
239.091	123.69
239.325	130.69
239.559	132.69
239.793	127.69
240.027	120.69
240.26	150.69
240.494	174.69
240.728	162.69
240.961	154.69
241.195	148.69
241.429	141.69
241.662	148.69
241.896	152.69
242.13	129.69
242.363	138.69
242.597	145.69
242.83	129.69
243.064	136.69
243.298	132.69
243.531	165.69
243.765	137.69
243.998	161.69
244.232	159.69
244.465	150.69
244.699	171.69
244.932	145.69
245.166	133.69
245.399	145.69
245.633	152.69
245.866	160.69
246.099	149.69
246.333	156.69
246.566	169.69
246.8	162.69
247.033	148.69
247.266	167.69
247.5	167.69
247.733	175.69
247.966	180.69
248.2	194.69
248.433	178.69
248.666	184.69
248.899	207.69
249.133	211.69
249.366	228.69
249.599	210.69
249.832	205.69
250.066	200.69
250.299	187.69
250.532	213.69
250.765	201.69
250.998	236.69
251.231	241.69
251.465	232.69
251.698	220.69
251.931	228.69
252.164	214.69
252.397	196.69
252.63	227.69
252.863	226.69
253.096	232.69
253.329	260.69
253.562	250.69
253.795	249.69
254.028	243.69
254.261	242.69
254.494	254.69
254.727	263.69
254.96	327.69
255.193	306.69
255.426	270.69
255.659	260.69
255.892	254.69
256.124	254.69
256.357	263.69
256.59	261.69
256.823	220.69
257.056	227.69
257.289	235.69
257.521	250.69
257.754	221.69
257.987	209.69
258.22	238.69
258.452	217.69
258.685	216.69
258.918	221.69
259.151	231.69
259.383	232.69
259.616	242.69
259.849	235.69
260.081	245.69
260.314	280.69
260.547	286.69
260.779	258.69
261.012	258.69
261.244	243.69
261.477	251.69
261.71	253.69
261.942	243.69
262.175	268.69
262.407	267.69
262.64	220.69
262.872	237.69
263.105	237.69
263.337	229.69
263.57	225.69
263.802	223.69
264.035	222.69
264.267	219.69
264.499	205.69
264.732	226.69
264.964	224.69
265.197	232.69
265.429	200.69
265.661	215.69
265.894	213.69
266.126	221.69
266.358	228.69
266.591	236.69
266.823	227.69
267.055	220.69
267.287	245.69
267.52	232.69
267.752	242.69
267.984	260.69
268.216	242.69
268.448	233.69
268.681	249.69
268.913	264.69
269.145	298.69
269.377	304.69
269.609	286.69
269.841	298.69
270.073	299.69
270.306	299.69
270.538	355.69
270.77	356.69
271.002	339.69
271.234	335.69
271.466	320.69
271.698	335.69
271.93	356.69
272.162	356.69
272.394	343.69
272.626	325.69
272.858	309.69
273.09	303.69
273.322	307.69
273.553	289.69
273.785	302.69
274.017	281.69
274.249	297.69
274.481	278.69
274.713	282.69
274.945	278.69
275.176	273.69
275.408	286.69
275.64	298.69
275.872	261.69
276.104	280.69
276.335	290.69
276.567	308.69
276.799	296.69
277.031	337.69
277.262	354.69
277.494	354.69
277.726	349.69
277.957	310.69
278.189	317.69
278.421	298.69
278.652	271.69
278.884	284.69
279.115	282.69
279.347	291.69
279.579	280.69
279.81	291.69
280.042	265.69
280.273	280.69
280.505	285.69
280.736	286.69
280.968	280.69
281.199	284.69
281.431	283.69
281.662	262.69
281.894	285.69
282.125	296.69
282.356	312.69
282.588	335.69
282.819	335.69
283.051	299.69
283.282	283.69
283.513	288.69
283.745	288.69
283.976	286.69
284.207	277.69
284.439	274.69
284.67	296.69
284.901	281.69
285.132	285.69
285.364	273.69
285.595	287.69
285.826	274.69
286.057	304.69
286.288	285.69
286.52	285.69
286.751	297.69
286.982	284.69
287.213	288.69
287.444	291.69
287.675	292.69
287.906	300.69
288.138	317.69
288.369	307.69
288.6	324.69
288.831	288.69
289.062	323.69
289.293	296.69
289.524	292.69
289.755	292.69
289.986	287.69
290.217	286.69
290.448	298.69
290.679	303.69
290.91	298.69
291.141	292.69
291.371	293.69
291.602	265.69
291.833	278.69
292.064	287.69
292.295	288.69
292.526	297.69
292.757	295.69
292.987	291.69
293.218	279.69
293.449	295.69
293.68	306.69
293.91	283.69
294.141	296.69
294.372	283.69
294.603	278.69
294.833	296.69
295.064	266.69
295.295	295.69
295.525	299.69
295.756	298.69
295.987	323.69
296.217	334.69
296.448	375.69
296.679	321.69
296.909	308.69
297.14	291.69
297.37	308.69
297.601	298.69
297.831	309.69
298.062	304.69
298.292	300.69
298.523	313.69
298.753	308.69
298.984	308.69
299.214	299.69
299.445	327.69
299.675	292.69
299.905	314.69
300.136	308.69
300.366	318.69
300.597	310.69
300.827	315.69
301.057	316.69
301.288	338.69
301.518	341.69
301.748	331.69
301.979	332.69
302.209	330.69
302.439	316.69
302.669	327.69
302.9	322.69
303.13	332.69
303.36	337.69
303.59	339.69
303.82	349.69
304.051	351.69
304.281	339.69
304.511	308.69
304.741	311.69
304.971	334.69
305.201	331.69
305.431	308.69
305.661	318.69
305.891	331.69
306.121	319.69
306.352	329.69
306.582	339.69
306.812	333.69
307.042	315.69
307.272	344.69
307.502	339.69
307.731	342.69
307.961	342.69
308.191	340.69
308.421	311.69
308.651	322.69
308.881	341.69
309.111	354.69
309.341	362.69
309.571	356.69
309.8	371.69
310.03	373.69
310.26	408.69
310.49	410.69
310.72	410.69
310.949	414.69
311.179	421.69
311.409	404.69
311.639	402.69
311.868	382.69
312.098	394.69
312.328	386.69
312.557	420.69
312.787	442.69
313.017	443.69
313.246	394.69
313.476	397.69
313.706	386.69
313.935	403.69
314.165	422.69
314.394	412.69
314.624	404.69
314.853	398.69
315.083	388.69
315.312	389.69
315.542	386.69
315.771	375.69
316.001	362.69
316.23	392.69
316.46	380.69
316.689	394.69
316.919	421.69
317.148	407.69
317.377	402.69
317.607	414.69
317.836	392.69
318.065	395.69
318.295	374.69
318.524	374.69
318.753	368.69
318.983	378.69
319.212	380.69
319.441	397.69
319.67	397.69
319.9	403.69
320.129	390.69
320.358	384.69
320.587	390.69
320.816	396.69
321.046	423.69
321.275	421.69
321.504	422.69
321.733	427.69
321.962	425.69
322.191	458.69
322.42	478.69
322.649	468.69
322.878	504.69
323.108	510.69
323.337	529.69
323.566	568.69
323.795	642.69
324.024	696.69
324.253	862.69
324.482	1280.69
324.71	2011.69
324.939	2982.69
325.168	2590.69
325.397	1295.69
325.626	814.69
325.855	664.69
326.084	586.69
326.313	570.69
326.542	585.69
326.77	636.69
326.999	772.69
327.228	1117.69
327.457	1722.69
327.686	2202.69
327.914	1448.69
328.143	928.69
328.372	762.69
328.6	706.69
328.829	670.69
329.058	678.69
329.287	706.69
329.515	643.69
329.744	573.69
329.972	575.69
330.201	617.69
330.43	656.69
330.658	701.69
330.887	721.69
331.115	705.69
331.344	602.69
331.572	547.69
331.801	532.69
332.03	546.69
332.258	522.69
332.486	479.69
332.715	483.69
332.943	463.69
333.172	475.69
333.4	473.69
333.629	480.69
333.857	499.69
334.085	521.69
334.314	527.69
334.542	581.69
334.771	635.69
334.999	555.69
335.227	510.69
335.455	472.69
335.684	467.69
335.912	449.69
336.14	428.69
336.369	450.69
336.597	460.69
336.825	459.69
337.053	440.69
337.281	438.69
337.51	443.69
337.738	449.69
337.966	434.69
338.194	446.69
338.422	439.69
338.65	420.69
338.878	423.69
339.106	444.69
339.334	434.69
339.562	446.69
339.79	419.69
340.018	443.69
340.246	417.69
340.474	454.69
340.702	446.69
340.93	424.69
341.158	407.69
341.386	428.69
341.614	438.69
341.842	440.69
342.07	409.69
342.298	423.69
342.526	424.69
342.754	399.69
342.981	387.69
343.209	415.69
343.437	417.69
343.665	408.69
343.893	423.69
344.12	429.69
344.348	434.69
344.576	422.69
344.804	434.69
345.031	451.69
345.259	463.69
345.487	435.69
345.714	424.69
345.942	429.69
346.17	420.69
346.397	430.69
346.625	397.69
346.853	423.69
347.08	397.69
347.308	419.69
347.535	442.69
347.763	459.69
347.99	449.69
348.218	446.69
348.445	445.69
348.673	407.69
348.9	412.69
349.128	389.69
349.355	404.69
349.583	406.69
349.81	396.69
350.037	384.69
350.265	404.69
350.492	397.69
350.72	401.69
350.947	398.69
351.174	430.69
351.402	436.69
351.629	448.69
351.856	418.69
352.083	454.69
352.311	454.69
352.538	456.69
352.765	447.69
352.992	436.69
353.22	431.69
353.447	412.69
353.674	414.69
353.901	405.69
354.128	384.69
354.355	383.69
354.583	386.69
354.81	396.69
355.037	373.69
355.264	375.69
355.491	375.69
355.718	374.69
355.945	366.69
356.172	371.69
356.399	370.69
356.626	363.69
356.853	372.69
357.08	372.69
357.307	378.69
357.534	387.69
357.761	386.69
357.988	372.69
358.215	372.69
358.441	386.69
358.668	370.69
358.895	396.69
359.122	384.69
359.349	387.69
359.576	418.69
359.802	442.69
360.029	483.69
360.256	508.69
360.483	483.69
360.709	439.69
360.936	406.69
361.163	394.69
361.39	418.69
361.616	438.69
361.843	409.69
362.07	410.69
362.296	420.69
362.523	426.69
362.749	397.69
362.976	406.69
363.203	388.69
363.429	391.69
363.656	396.69
363.882	388.69
364.109	387.69
364.335	390.69
364.562	394.69
364.788	363.69
365.015	380.69
365.241	386.69
365.468	386.69
365.694	396.69
365.92	378.69
366.147	382.69
366.373	368.69
366.599	375.69
366.826	361.69
367.052	376.69
367.278	371.69
367.505	379.69
367.731	381.69
367.957	382.69
368.184	387.69
368.41	389.69
368.636	387.69
368.862	400.69
369.089	387.69
369.315	393.69
369.541	386.69
369.767	362.69
369.993	351.69
370.219	383.69
370.445	374.69
370.672	376.69
370.898	383.69
371.124	370.69
371.35	368.69
371.576	374.69
371.802	390.69
372.028	366.69
372.254	368.69
372.48	358.69
372.706	361.69
372.932	356.69
373.158	384.69
373.384	381.69
373.61	381.69
373.835	372.69
374.061	368.69
374.287	394.69
374.513	374.69
374.739	387.69
374.965	378.69
375.191	376.69
375.416	381.69
375.642	381.69
375.868	383.69
376.094	386.69
376.319	355.69
376.545	376.69
376.771	380.69
376.997	349.69
377.222	394.69
377.448	364.69
377.674	364.69
377.899	353.69
378.125	367.69
378.35	340.69
378.576	351.69
378.802	360.69
379.027	361.69
379.253	370.69
379.478	351.69
379.704	354.69
379.929	353.69
380.155	355.69
380.38	394.69
380.606	352.69
380.831	378.69
381.057	375.69
381.282	355.69
381.507	360.69
381.733	375.69
381.958	348.69
382.184	351.69
382.409	373.69
382.634	368.69
382.86	363.69
383.085	396.69
383.31	392.69
383.535	354.69
383.761	354.69
383.986	362.69
384.211	367.69
384.436	376.69
384.662	343.69
384.887	382.69
385.112	376.69
385.337	383.69
385.562	383.69
385.787	393.69
386.013	408.69
386.238	406.69
386.463	393.69
386.688	414.69
386.913	385.69
387.138	406.69
387.363	402.69
387.588	378.69
387.813	378.69
388.038	378.69
388.263	390.69
388.488	393.69
388.713	365.69
388.938	380.69
389.163	383.69
389.387	424.69
389.612	393.69
389.837	377.69
390.062	374.69
390.287	391.69
390.512	397.69
390.736	393.69
390.961	381.69
391.186	393.69
391.411	405.69
391.636	401.69
391.86	395.69
392.085	399.69
392.31	391.69
392.534	400.69
392.759	397.69
392.984	389.69
393.208	410.69
393.433	400.69
393.658	384.69
393.882	376.69
394.107	378.69
394.331	392.69
394.556	385.69
394.78	372.69
395.005	380.69
395.229	383.69
395.454	407.69
395.678	382.69
395.903	395.69
396.127	436.69
396.352	447.69
396.576	421.69
396.801	408.69
397.025	408.69
397.249	401.69
397.474	378.69
397.698	401.69
397.922	420.69
398.147	452.69
398.371	435.69
398.595	427.69
398.82	423.69
399.044	416.69
399.268	453.69
399.492	463.69
399.717	478.69
399.941	514.69
400.165	520.69
400.389	571.69
400.613	521.69
400.837	486.69
401.062	450.69
401.286	451.69
401.51	443.69
401.734	436.69
401.958	449.69
402.182	444.69
402.406	461.69
402.63	465.69
402.854	467.69
403.078	439.69
403.302	461.69
403.526	480.69
403.75	473.69
403.974	457.69
404.198	445.69
404.422	468.69
404.645	475.69
404.869	471.69
405.093	496.69
405.317	561.69
405.541	614.69
405.765	535.69
405.988	507.69
406.212	506.69
406.436	528.69
406.66	560.69
406.883	515.69
407.107	546.69
407.331	564.69
407.555	651.69
407.778	632.69
408.002	573.69
408.226	532.69
408.449	517.69
408.673	548.69
408.896	530.69
409.12	581.69
409.344	568.69
409.567	505.69
409.791	502.69
410.014	468.69
410.238	451.69
410.461	448.69
410.685	462.69
410.908	484.69
411.132	548.69
411.355	564.69
411.578	540.69
411.802	500.69
412.025	478.69
412.249	483.69
412.472	500.69
412.695	566.69
412.919	527.69
413.142	507.69
413.365	462.69
413.589	450.69
413.812	447.69
414.035	444.69
414.258	426.69
414.482	438.69
414.705	430.69
414.928	422.69
415.151	434.69
415.374	420.69
415.597	419.69
415.821	439.69
416.044	435.69
416.267	468.69
416.49	466.69
416.713	422.69
416.936	454.69
417.159	426.69
417.382	428.69
417.605	450.69
417.828	466.69
418.051	471.69
418.274	495.69
418.497	462.69
418.72	436.69
418.943	436.69
419.166	457.69
419.389	486.69
419.611	469.69
419.834	466.69
420.057	472.69
420.28	479.69
420.503	469.69
420.726	463.69
420.948	482.69
421.171	544.69
421.394	565.69
421.617	484.69
421.839	467.69
422.062	470.69
422.285	486.69
422.507	552.69
422.73	623.69
422.953	594.69
423.175	532.69
423.398	491.69
423.621	500.69
423.843	518.69
424.066	524.69
424.288	516.69
424.511	537.69
424.733	585.69
424.956	697.69
425.178	698.69
425.401	643.69
425.623	651.69
425.846	582.69
426.068	541.69
426.291	500.69
426.513	523.69
426.735	539.69
426.958	588.69
427.18	672.69
427.402	806.69
427.625	934.69
427.847	827.69
428.069	705.69
428.292	608.69
428.514	542.69
428.736	524.69
428.958	480.69
429.181	477.69
429.403	504.69
429.625	506.69
429.847	540.69
430.069	606.69
430.292	589.69
430.514	528.69
430.736	514.69
430.958	469.69
431.18	451.69
431.402	444.69
431.624	438.69
431.846	435.69
432.068	460.69
432.29	438.69
432.512	456.69
432.734	468.69
432.956	463.69
433.178	467.69
433.4	476.69
433.622	460.69
433.844	457.69
434.066	454.69
434.287	435.69
434.509	451.69
434.731	469.69
434.953	456.69
435.175	474.69
435.397	494.69
435.618	548.69
435.84	568.69
436.062	663.69
436.284	773.69
436.505	628.69
436.727	551.69
436.949	509.69
437.17	486.69
437.392	495.69
437.614	511.69
437.835	547.69
438.057	683.69
438.278	793.69
438.5	761.69
438.721	824.69
438.943	764.69
439.165	610.69
439.386	571.69
439.608	559.69
439.829	563.69
440.05	586.69
440.272	662.69
440.493	616.69
440.715	547.69
440.936	504.69
441.158	515.69
441.379	498.69
441.6	509.69
441.822	528.69
442.043	564.69
442.264	650.69
442.486	712.69
442.707	618.69
442.928	546.69
443.149	556.69
443.371	584.69
443.592	633.69
443.813	746.69
444.034	799.69
444.255	654.69
444.476	551.69
444.698	554.69
444.919	529.69
445.14	609.69
445.361	588.69
445.582	596.69
445.803	666.69
446.024	772.69
446.245	820.69
446.466	722.69
446.687	608.69
446.908	550.69
447.129	487.69
447.35	491.69
447.571	508.69
447.792	502.69
448.013	517.69
448.234	535.69
448.455	580.69
448.675	723.69
448.896	814.69
449.117	662.69
449.338	668.69
449.559	762.69
449.779	852.69
450	709.69
450.221	556.69
450.442	522.69
450.662	503.69
450.883	519.69
451.104	519.69
451.324	502.69
451.545	486.69
451.766	464.69
451.986	428.69
452.207	445.69
452.428	430.69
452.648	443.69
452.869	457.69
453.089	459.69
453.31	453.69
453.53	460.69
453.751	438.69
453.971	464.69
454.192	471.69
454.412	459.69
454.633	450.69
454.853	431.69
455.073	438.69
455.294	473.69
455.514	564.69
455.734	547.69
455.955	451.69
456.175	421.69
456.395	419.69
456.616	400.69
456.836	395.69
457.056	403.69
457.276	386.69
457.497	395.69
457.717	404.69
457.937	411.69
458.157	422.69
458.377	415.69
458.598	463.69
458.818	535.69
459.038	638.69
459.258	674.69
459.478	544.69
459.698	482.69
459.918	463.69
460.138	451.69
460.358	455.69
460.578	428.69
460.798	434.69
461.018	462.69
461.238	431.69
461.458	420.69
461.678	430.69
461.898	462.69
462.118	444.69
462.338	430.69
462.558	428.69
462.777	468.69
462.997	427.69
463.217	446.69
463.437	438.69
463.657	438.69
463.876	457.69
464.096	437.69
464.316	443.69
464.536	460.69
464.755	476.69
464.975	470.69
465.195	548.69
465.414	638.69
465.634	553.69
465.854	517.69
466.073	481.69
466.293	453.69
466.512	425.69
466.732	446.69
466.951	438.69
467.171	429.69
467.391	416.69
467.61	438.69
467.829	468.69
468.049	460.69
468.268	469.69
468.488	444.69
468.707	430.69
468.927	432.69
469.146	415.69
469.365	431.69
469.585	405.69
469.804	429.69
470.023	439.69
470.243	461.69
470.462	456.69
470.681	450.69
470.901	472.69
471.12	439.69
471.339	449.69
471.558	451.69
471.777	455.69
471.997	460.69
472.216	464.69
472.435	512.69
472.654	478.69
472.873	463.69
473.092	455.69
473.311	453.69
473.53	424.69
473.749	432.69
473.968	523.69
474.187	619.69
474.406	676.69
474.625	543.69
474.844	463.69
475.063	464.69
475.282	450.69
475.501	455.69
475.72	455.69
475.939	473.69
476.158	446.69
476.377	444.69
476.596	442.69
476.814	470.69
477.033	469.69
477.252	479.69
477.471	470.69
477.69	479.69
477.908	482.69
478.127	491.69
478.346	475.69
478.564	483.69
478.783	477.69
479.002	485.69
479.22	482.69
479.439	500.69
479.658	531.69
479.876	540.69
480.095	562.69
480.313	553.69
480.532	543.69
480.751	539.69
480.969	569.69
481.188	688.69
481.406	715.69
481.624	633.69
481.843	584.69
482.061	550.69
482.28	523.69
482.498	539.69
482.717	519.69
482.935	532.69
483.153	546.69
483.372	502.69
483.59	521.69
483.808	533.69
484.027	520.69
484.245	529.69
484.463	546.69
484.681	508.69
484.9	525.69
485.118	529.69
485.336	545.69
485.554	538.69
485.772	543.69
485.99	533.69
486.209	559.69
486.427	553.69
486.645	575.69
486.863	586.69
487.081	576.69
487.299	589.69
487.517	555.69
487.735	539.69
487.953	564.69
488.171	569.69
488.389	572.69
488.607	577.69
488.825	564.69
489.043	561.69
489.261	585.69
489.479	559.69
489.696	541.69
489.914	557.69
490.132	591.69
490.35	589.69
490.568	599.69
490.786	611.69
491.003	612.69
491.221	638.69
491.439	643.69
491.657	630.69
491.874	656.69
492.092	643.69
492.31	662.69
492.527	653.69
492.745	676.69
492.963	653.69
493.18	650.69
493.398	680.69
493.615	674.69
493.833	669.69
494.05	685.69
494.268	686.69
494.485	663.69
494.703	680.69
494.92	683.69
495.138	688.69
495.355	674.69
495.573	675.69
495.79	647.69
496.008	696.69
496.225	656.69
496.442	674.69
496.66	684.69
496.877	672.69
497.094	661.69
497.312	655.69
497.529	676.69
497.746	692.69
497.963	712.69
498.181	706.69
498.398	738.69
498.615	719.69
498.832	726.69
499.049	742.69
499.267	757.69
499.484	756.69
499.701	755.69
499.918	781.69
500.135	794.69
500.352	818.69
500.569	812.69
500.786	844.69
501.003	834.69
501.22	851.69
501.437	815.69
501.654	788.69
501.871	810.69
502.088	805.69
502.305	779.69
502.522	745.69
502.739	714.69
502.956	698.69
503.172	740.69
503.389	706.69
503.606	677.69
503.823	702.69
504.04	701.69
504.256	662.69
504.473	670.69
504.69	669.69
504.907	646.69
505.123	663.69
505.34	641.69
505.557	677.69
505.773	659.69
505.99	662.69
506.207	645.69
506.423	646.69
506.64	648.69
506.856	643.69
507.073	632.69
507.289	672.69
507.506	637.69
507.722	662.69
507.939	686.69
508.155	670.69
508.372	648.69
508.588	634.69
508.805	623.69
509.021	648.69
509.238	638.69
509.454	670.69
509.67	651.69
509.887	633.69
510.103	647.69
510.319	617.69
510.536	762.69
510.752	1380.69
510.968	1101.69
511.184	704.69
511.401	642.69
511.617	617.69
511.833	597.69
512.049	618.69
512.265	607.69
512.481	612.69
512.698	594.69
512.914	602.69
513.13	614.69
513.346	598.69
513.562	626.69
513.778	612.69
513.994	606.69
514.21	654.69
514.426	654.69
514.642	734.69
514.858	772.69
515.074	798.69
515.29	1028.69
515.506	1565.69
515.721	1244.69
515.937	807.69
516.153	717.69
516.369	673.69
516.585	637.69
516.801	611.69
517.016	618.69
517.232	612.69
517.448	621.69
517.664	626.69
517.879	598.69
518.095	602.69
518.311	605.69
518.527	590.69
518.742	590.69
518.958	581.69
519.173	575.69
519.389	590.69
519.605	600.69
519.82	630.69
520.036	632.69
520.251	650.69
520.467	730.69
520.682	701.69
520.898	695.69
521.113	728.69
521.329	808.69
521.544	914.69
521.76	1270.69
521.975	2096.69
522.19	2062.69
522.406	1107.69
522.621	759.69
522.836	664.69
523.052	642.69
523.267	606.69
523.482	578.69
523.698	568.69
523.913	594.69
524.128	564.69
524.343	558.69
524.559	540.69
524.774	544.69
524.989	533.69
525.204	544.69
525.419	531.69
525.634	521.69
525.849	512.69
526.064	508.69
526.28	522.69
526.495	487.69
526.71	494.69
526.925	482.69
527.14	479.69
527.355	468.69
527.57	470.69
527.785	487.69
527.999	471.69
528.214	495.69
528.429	486.69
528.644	477.69
528.859	500.69
529.074	494.69
529.289	483.69
529.503	616.69
529.718	609.69
529.933	556.69
530.148	498.69
530.363	520.69
530.577	490.69
530.792	465.69
531.007	488.69
531.221	484.69
531.436	474.69
531.651	485.69
531.865	466.69
532.08	465.69
532.295	454.69
532.509	438.69
532.724	453.69
532.938	465.69
533.153	471.69
533.367	444.69
533.582	459.69
533.796	456.69
534.011	449.69
534.225	443.69
534.44	446.69
534.654	458.69
534.868	433.69
535.083	462.69
535.297	453.69
535.511	462.69
535.726	463.69
535.94	467.69
536.154	436.69
536.369	463.69
536.583	440.69
536.797	445.69
537.011	433.69
537.225	413.69
537.44	450.69
537.654	437.69
537.868	419.69
538.082	432.69
538.296	457.69
538.51	453.69
538.724	446.69
538.938	447.69
539.153	447.69
539.367	462.69
539.581	455.69
539.795	456.69
540.009	437.69
540.222	438.69
540.436	434.69
540.65	435.69
540.864	436.69
541.078	462.69
541.292	444.69
541.506	437.69
541.72	440.69
541.934	427.69
542.147	434.69
542.361	420.69
542.575	434.69
542.789	427.69
543.002	442.69
543.216	438.69
543.43	451.69
543.644	451.69
543.857	429.69
544.071	440.69
544.285	420.69
544.498	428.69
544.712	444.69
544.925	404.69
545.139	442.69
545.352	431.69
545.566	426.69
545.779	394.69
545.993	418.69
546.206	412.69
546.42	408.69
546.633	414.69
546.847	412.69
547.06	416.69
547.274	394.69
547.487	410.69
547.7	421.69
547.914	399.69
548.127	392.69
548.34	365.69
548.554	390.69
548.767	391.69
548.98	416.69
549.193	408.69
549.407	398.69
549.62	385.69
549.833	411.69
550.046	395.69
550.259	387.69
550.473	379.69
550.686	401.69
550.899	398.69
551.112	399.69
551.325	403.69
551.538	398.69
551.751	390.69
551.964	391.69
552.177	426.69
552.39	399.69
552.603	426.69
552.816	404.69
553.029	409.69
553.242	393.69
553.455	395.69
553.667	428.69
553.88	440.69
554.093	417.69
554.306	418.69
554.519	407.69
554.732	384.69
554.944	387.69
555.157	374.69
555.37	390.69
555.583	372.69
555.795	397.69
556.008	399.69
556.221	374.69
556.433	382.69
556.646	377.69
556.859	366.69
557.071	375.69
557.284	379.69
557.496	376.69
557.709	382.69
557.921	377.69
558.134	373.69
558.346	375.69
558.559	360.69
558.771	362.69
558.984	345.69
559.196	367.69
559.409	354.69
559.621	368.69
559.833	372.69
560.046	342.69
560.258	352.69
560.47	360.69
560.683	372.69
560.895	360.69
561.107	353.69
561.32	355.69
561.532	359.69
561.744	354.69
561.956	352.69
562.168	333.69
562.381	365.69
562.593	364.69
562.805	364.69
563.017	361.69
563.229	354.69
563.441	365.69
563.653	370.69
563.865	351.69
564.077	342.69
564.289	353.69
564.501	353.69
564.713	355.69
564.925	373.69
565.137	370.69
565.349	376.69
565.561	360.69
565.773	377.69
565.985	382.69
566.197	392.69
566.408	411.69
566.62	395.69
566.832	405.69
567.044	406.69
567.255	396.69
567.467	425.69
567.679	407.69
567.891	413.69
568.102	398.69
568.314	392.69
568.526	400.69
568.737	376.69
568.949	365.69
569.161	365.69
569.372	359.69
569.584	357.69
569.795	367.69
570.007	378.69
570.218	406.69
570.43	394.69
570.641	340.69
570.853	362.69
571.064	334.69
571.276	349.69
571.487	333.69
571.698	328.69
571.91	333.69
572.121	330.69
572.333	313.69
572.544	319.69
572.755	326.69
572.966	329.69
573.178	339.69
573.389	320.69
573.6	316.69
573.811	338.69
574.023	311.69
574.234	310.69
574.445	318.69
574.656	307.69
574.867	305.69
575.078	299.69
575.289	308.69
575.501	321.69
575.712	324.69
575.923	311.69
576.134	312.69
576.345	316.69
576.556	322.69
576.767	294.69
576.978	308.69
577.188	299.69
577.399	309.69
577.61	316.69
577.821	322.69
578.032	313.69
578.243	345.69
578.454	641.69
578.665	462.69
578.875	320.69
579.086	298.69
579.297	288.69
579.508	287.69
579.718	296.69
579.929	282.69
580.14	274.69
580.35	291.69
580.561	306.69
580.772	311.69
580.982	295.69
581.193	291.69
581.403	284.69
581.614	282.69
581.825	287.69
582.035	284.69
582.246	294.69
582.456	287.69
582.667	291.69
582.877	284.69
583.087	287.69
583.298	282.69
583.508	275.69
583.719	287.69
583.929	272.69
584.139	296.69
584.35	271.69
584.56	288.69
584.77	287.69
584.981	265.69
585.191	274.69
585.401	266.69
585.611	271.69
585.821	283.69
586.032	304.69
586.242	275.69
586.452	290.69
586.662	272.69
586.872	266.69
587.082	266.69
587.292	279.69
587.502	287.69
587.713	291.69
587.923	278.69
588.133	256.69
588.343	282.69
588.553	270.69
588.762	275.69
588.972	272.69
589.182	285.69
589.392	290.69
589.602	291.69
589.812	281.69
590.022	282.69
590.232	274.69
590.441	276.69
590.651	265.69
590.861	252.69
591.071	270.69
591.281	283.69
591.49	270.69
591.7	273.69
591.91	269.69
592.119	267.69
592.329	245.69
592.539	278.69
592.748	270.69
592.958	294.69
593.167	271.69
593.377	262.69
593.587	292.69
593.796	306.69
594.006	279.69
594.215	277.69
594.424	277.69
594.634	276.69
594.843	292.69
595.053	280.69
595.262	262.69
595.472	288.69
595.681	276.69
595.89	261.69
596.1	260.69
596.309	262.69
596.518	262.69
596.727	259.69
596.937	247.69
597.146	250.69
597.355	251.69
597.564	246.69
597.774	256.69
597.983	243.69
598.192	256.69
598.401	257.69
598.61	253.69
598.819	254.69
599.028	240.69
599.237	245.69
599.446	247.69
599.655	263.69
599.864	258.69
600.073	257.69
600.282	238.69
600.491	245.69
600.7	235.69
600.909	237.69
601.118	234.69
601.327	259.69
601.536	228.69
601.745	260.69
601.953	237.69
602.162	233.69
602.371	247.69
602.58	246.69
602.789	251.69
602.997	234.69
603.206	226.69
603.415	245.69
603.623	250.69
603.832	260.69
604.041	244.69
604.249	231.69
604.458	235.69
604.666	233.69
604.875	238.69
605.084	238.69
605.292	231.69
605.501	222.69
605.709	257.69
605.918	235.69
606.126	233.69
606.334	242.69
606.543	238.69
606.751	239.69
606.96	234.69
607.168	239.69
607.376	245.69
607.585	229.69
607.793	228.69
608.001	234.69
608.21	223.69
608.418	236.69
608.626	231.69
608.834	230.69
609.043	211.69
609.251	205.69
609.459	215.69
609.667	233.69
609.875	233.69
610.083	235.69
610.291	227.69
610.499	228.69
610.707	229.69
610.916	227.69
611.124	232.69
611.332	220.69
611.54	223.69
611.748	237.69
611.955	234.69
612.163	226.69
612.371	236.69
612.579	234.69
612.787	221.69
612.995	226.69
613.203	225.69
613.411	227.69
613.618	234.69
613.826	218.69
614.034	231.69
614.242	225.69
614.449	232.69
614.657	244.69
614.865	232.69
615.072	236.69
615.28	215.69
615.488	213.69
615.695	222.69
615.903	222.69
616.111	216.69
616.318	215.69
616.526	218.69
616.733	218.69
616.941	228.69
617.148	232.69
617.356	208.69
617.563	219.69
617.771	217.69
617.978	211.69
618.185	221.69
618.393	232.69
618.6	227.69
618.807	213.69
619.015	205.69
619.222	211.69
619.429	214.69
619.637	217.69
619.844	224.69
620.051	216.69
620.258	214.69
620.466	217.69
620.673	213.69
620.88	202.69
621.087	204.69
621.294	211.69
621.501	199.69
621.708	228.69
621.915	210.69
622.122	216.69
622.329	203.69
622.536	221.69
622.743	214.69
622.95	212.69
623.157	193.69
623.364	205.69
623.571	223.69
623.778	199.69
623.985	207.69
624.192	198.69
624.399	214.69
624.606	207.69
624.812	215.69
625.019	219.69
625.226	201.69
625.433	197.69
625.639	203.69
625.846	203.69
626.053	215.69
626.259	200.69
626.466	204.69
626.673	181.69
626.879	222.69
627.086	200.69
627.293	202.69
627.499	193.69
627.706	192.69
627.912	204.69
628.119	196.69
628.325	184.69
628.532	213.69
628.738	205.69
628.945	203.69
629.151	192.69
629.357	202.69
629.564	197.69
629.77	186.69
629.976	198.69
630.183	188.69
630.389	188.69
630.595	204.69
630.802	193.69
631.008	178.69
631.214	198.69
631.42	189.69
631.627	176.69
631.833	187.69
632.039	175.69
632.245	189.69
632.451	194.69
632.657	171.69
632.863	182.69
633.069	171.69
633.275	176.69
633.481	181.69
633.688	172.69
633.893	188.69
634.099	158.69
634.305	179.69
634.511	165.69
634.717	167.69
634.923	172.69
635.129	156.69
635.335	169.69
635.541	187.69
635.747	192.69
635.952	190.69
636.158	185.69
636.364	198.69
636.57	190.69
636.775	179.69
636.981	180.69
637.187	187.69
637.392	168.69
637.598	152.69
637.804	179.69
638.009	179.69
638.215	168.69
638.421	181.69
638.626	170.69
638.832	160.69
639.037	170.69
639.243	172.69
639.448	163.69
639.654	175.69
639.859	150.69
640.065	164.69
640.27	176.69
640.475	168.69
640.681	169.69
640.886	171.69
641.091	159.69
641.297	164.69
641.502	180.69
641.707	164.69
641.913	174.69
642.118	160.69
642.323	141.69
642.528	174.69
642.733	161.69
642.939	154.69
643.144	183.69
643.349	162.69
643.554	186.69
643.759	158.69
643.964	154.69
644.169	174.69
644.374	154.69
644.579	159.69
644.784	163.69
644.989	164.69
645.194	167.69
645.399	165.69
645.604	155.69
645.809	163.69
646.014	159.69
646.219	150.69
646.423	140.69
646.628	157.69
646.833	158.69
647.038	156.69
647.243	159.69
647.447	163.69
647.652	157.69
647.857	176.69
648.062	166.69
648.266	146.69
648.471	155.69
648.676	154.69
648.88	166.69
649.085	162.69
649.289	157.69
649.494	164.69
649.698	202.69
649.903	185.69
650.107	185.69
650.312	160.69
650.516	152.69
650.721	150.69
650.925	154.69
651.13	164.69
651.334	154.69
651.539	160.69
651.743	155.69
651.947	147.69
652.152	145.69
652.356	139.69
652.56	143.69
652.764	135.69
652.969	131.69
653.173	136.69
653.377	149.69
653.581	122.69
653.785	138.69
653.99	130.69
654.194	147.69
654.398	138.69
654.602	136.69
654.806	163.69
655.01	143.69
655.214	130.69
655.418	122.69
655.622	134.69
655.826	128.69
656.03	136.69
656.234	118.69
656.438	110.69
656.642	122.69
656.846	110.69
657.049	124.69
657.253	131.69
657.457	112.69
657.661	115.69
657.865	114.69
658.068	105.69
658.272	108.69
658.476	106.69
658.68	109.69
658.883	115.69
659.087	106.69
659.291	102.69
659.494	103.69
659.698	91.69
659.901	87.69
660.105	96.69
660.309	100.69
660.512	106.69
660.716	91.69
660.919	101.69
661.123	93.69
661.326	91.69
661.53	91.69
661.733	111.69
661.936	92.69
662.14	73.69
662.343	77.69
662.546	86.69
662.75	90.69
662.953	84.69
663.156	84.69
663.36	83.69
663.563	80.69
663.766	85.69
663.969	93.69
664.173	92.69
664.376	85.69
664.579	69.69
664.782	106.69
664.985	87.69
665.188	91.69
665.391	92.69
665.594	79.69
665.797	85.69
666	93.69
666.203	89.69
666.406	73.69
666.609	72.69
666.812	83.69
667.015	81.69
667.218	89.69
667.421	78.69
667.624	89.69
667.827	94.69
668.03	91.69
668.232	79.69
668.435	79.69
668.638	85.69
668.841	100.69
669.043	84.69
669.246	77.69
669.449	81.69
669.651	96.69
669.854	84.69
670.057	96.69
670.259	86.69
670.462	70.69
670.665	98.69
670.867	90.69
671.07	89.69
671.272	79.69
671.475	87.69
671.677	87.69
671.88	100.69
672.082	87.69
672.284	78.69
672.487	78.69
672.689	77.69
672.892	89.69
