Data from 1972.PennyLincolnUp.Lamp.En5.5.200Scan.071719.P1._HRD10591_15-28-27-844.txt Node
Date: Thu Jul 18 15:28:27 EDT 2019
User: cochatt
Spectrometer: HR+D1059
Trigger mode: 1
Integration Time (sec): 1.000000E-1
Scans to average: 1
Electric dark correction enabled: true
Nonlinearity correction enabled: false
Boxcar width: 0
XAxis mode: Wavelengths
Number of Pixels in Spectrum: 2048
>>>>>Begin Spectral Data<<<<<
223.165	-3.31
223.4	-3.31
223.635	-3.31
223.869	-21.31
224.104	-7.31
224.338	-19.31
224.573	-6.31
224.808	-16.31
225.042	-16.31
225.277	-12.31
225.511	5.69
225.746	2.69
225.98	-12.31
226.215	11.69
226.449	8.69
226.683	10.69
226.918	48.69
227.152	26.69
227.387	26.69
227.621	56.69
227.856	33.69
228.09	47.69
228.324	44.69
228.559	54.69
228.793	57.69
229.027	100.69
229.262	124.69
229.496	116.69
229.73	149.69
229.964	168.69
230.199	131.69
230.433	121.69
230.667	113.69
230.901	102.69
231.136	118.69
231.37	121.69
231.604	129.69
231.838	121.69
232.072	115.69
232.306	123.69
232.541	120.69
232.775	131.69
233.009	125.69
233.243	117.69
233.477	125.69
233.711	106.69
233.945	130.69
234.179	120.69
234.413	110.69
234.647	117.69
234.881	123.69
235.115	129.69
235.349	113.69
235.583	117.69
235.817	122.69
236.051	133.69
236.285	151.69
236.519	125.69
236.753	143.69
236.987	154.69
237.221	191.69
237.455	261.69
237.689	193.69
237.922	140.69
238.156	145.69
238.39	139.69
238.624	128.69
238.858	130.69
239.091	129.69
239.325	128.69
239.559	125.69
239.793	135.69
240.027	116.69
240.26	150.69
240.494	175.69
240.728	154.69
240.961	151.69
241.195	143.69
241.429	143.69
241.662	153.69
241.896	127.69
242.13	124.69
242.363	140.69
242.597	132.69
242.83	133.69
243.064	137.69
243.298	134.69
243.531	142.69
243.765	141.69
243.998	141.69
244.232	147.69
244.465	147.69
244.699	149.69
244.932	135.69
245.166	133.69
245.399	152.69
245.633	156.69
245.866	138.69
246.099	142.69
246.333	140.69
246.566	147.69
246.8	166.69
247.033	170.69
247.266	170.69
247.5	155.69
247.733	178.69
247.966	178.69
248.2	185.69
248.433	169.69
248.666	181.69
248.899	198.69
249.133	218.69
249.366	234.69
249.599	227.69
249.832	189.69
250.066	181.69
250.299	182.69
250.532	212.69
250.765	217.69
250.998	225.69
251.231	256.69
251.465	239.69
251.698	217.69
251.931	214.69
252.164	211.69
252.397	215.69
252.63	204.69
252.863	217.69
253.096	221.69
253.329	236.69
253.562	236.69
253.795	242.69
254.028	217.69
254.261	234.69
254.494	239.69
254.727	284.69
254.96	314.69
255.193	322.69
255.426	273.69
255.659	249.69
255.892	245.69
256.124	267.69
256.357	253.69
256.59	252.69
256.823	241.69
257.056	229.69
257.289	209.69
257.521	230.69
257.754	218.69
257.987	228.69
258.22	213.69
258.452	213.69
258.685	221.69
258.918	215.69
259.151	199.69
259.383	231.69
259.616	215.69
259.849	234.69
260.081	262.69
260.314	269.69
260.547	290.69
260.779	274.69
261.012	242.69
261.244	225.69
261.477	234.69
261.71	235.69
261.942	253.69
262.175	236.69
262.407	239.69
262.64	236.69
262.872	222.69
263.105	231.69
263.337	233.69
263.57	217.69
263.802	215.69
264.035	238.69
264.267	227.69
264.499	215.69
264.732	205.69
264.964	221.69
265.197	199.69
265.429	219.69
265.661	205.69
265.894	215.69
266.126	215.69
266.358	210.69
266.591	225.69
266.823	227.69
267.055	228.69
267.287	233.69
267.52	227.69
267.752	228.69
267.984	226.69
268.216	243.69
268.448	243.69
268.681	232.69
268.913	249.69
269.145	283.69
269.377	291.69
269.609	287.69
269.841	270.69
270.073	306.69
270.306	302.69
270.538	319.69
270.77	333.69
271.002	328.69
271.234	312.69
271.466	311.69
271.698	316.69
271.93	348.69
272.162	318.69
272.394	339.69
272.626	325.69
272.858	311.69
273.09	315.69
273.322	293.69
273.553	292.69
273.785	283.69
274.017	284.69
274.249	299.69
274.481	282.69
274.713	266.69
274.945	279.69
275.176	277.69
275.408	275.69
275.64	291.69
275.872	285.69
276.104	275.69
276.335	265.69
276.567	286.69
276.799	293.69
277.031	321.69
277.262	325.69
277.494	366.69
277.726	306.69
277.957	286.69
278.189	285.69
278.421	286.69
278.652	261.69
278.884	291.69
279.115	269.69
279.347	263.69
279.579	268.69
279.81	275.69
280.042	259.69
280.273	274.69
280.505	284.69
280.736	260.69
280.968	266.69
281.199	281.69
281.431	247.69
281.662	266.69
281.894	279.69
282.125	284.69
282.356	316.69
282.588	333.69
282.819	311.69
283.051	283.69
283.282	265.69
283.513	275.69
283.745	292.69
283.976	276.69
284.207	293.69
284.439	257.69
284.67	292.69
284.901	302.69
285.132	274.69
285.364	265.69
285.595	257.69
285.826	292.69
286.057	281.69
286.288	286.69
286.52	284.69
286.751	294.69
286.982	294.69
287.213	279.69
287.444	285.69
287.675	273.69
287.906	295.69
288.138	306.69
288.369	309.69
288.6	309.69
288.831	301.69
289.062	295.69
289.293	291.69
289.524	297.69
289.755	286.69
289.986	279.69
290.217	291.69
290.448	270.69
290.679	283.69
290.91	295.69
291.141	297.69
291.371	287.69
291.602	259.69
291.833	285.69
292.064	298.69
292.295	292.69
292.526	281.69
292.757	275.69
292.987	286.69
293.218	284.69
293.449	301.69
293.68	284.69
293.91	285.69
294.141	296.69
294.372	262.69
294.603	276.69
294.833	289.69
295.064	296.69
295.295	299.69
295.525	285.69
295.756	297.69
295.987	311.69
296.217	340.69
296.448	330.69
296.679	323.69
296.909	282.69
297.14	291.69
297.37	286.69
297.601	307.69
297.831	312.69
298.062	295.69
298.292	293.69
298.523	310.69
298.753	311.69
298.984	310.69
299.214	297.69
299.445	305.69
299.675	299.69
299.905	315.69
300.136	307.69
300.366	298.69
300.597	321.69
300.827	308.69
301.057	318.69
301.288	331.69
301.518	301.69
301.748	338.69
301.979	311.69
302.209	319.69
302.439	338.69
302.669	322.69
302.9	313.69
303.13	343.69
303.36	327.69
303.59	319.69
303.82	334.69
304.051	324.69
304.281	336.69
304.511	326.69
304.741	326.69
304.971	318.69
305.201	318.69
305.431	327.69
305.661	330.69
305.891	326.69
306.121	331.69
306.352	334.69
306.582	324.69
306.812	341.69
307.042	343.69
307.272	356.69
307.502	319.69
307.731	316.69
307.961	340.69
308.191	331.69
308.421	341.69
308.651	348.69
308.881	353.69
309.111	358.69
309.341	348.69
309.571	370.69
309.8	366.69
310.03	371.69
310.26	389.69
310.49	392.69
310.72	405.69
310.949	421.69
311.179	429.69
311.409	396.69
311.639	356.69
311.868	393.69
312.098	375.69
312.328	401.69
312.557	418.69
312.787	430.69
313.017	421.69
313.246	398.69
313.476	394.69
313.706	396.69
313.935	397.69
314.165	412.69
314.394	425.69
314.624	422.69
314.853	397.69
315.083	386.69
315.312	382.69
315.542	395.69
315.771	371.69
316.001	380.69
316.23	371.69
316.46	370.69
316.689	385.69
316.919	387.69
317.148	395.69
317.377	410.69
317.607	390.69
317.836	382.69
318.065	373.69
318.295	383.69
318.524	374.69
318.753	384.69
318.983	366.69
319.212	398.69
319.441	407.69
319.67	415.69
319.9	407.69
320.129	383.69
320.358	395.69
320.587	426.69
320.816	409.69
321.046	424.69
321.275	406.69
321.504	409.69
321.733	418.69
321.962	411.69
322.191	442.69
322.42	454.69
322.649	463.69
322.878	486.69
323.108	491.69
323.337	521.69
323.566	545.69
323.795	582.69
324.024	670.69
324.253	843.69
324.482	1183.69
324.71	1912.69
324.939	2802.69
325.168	2431.69
325.397	1217.69
325.626	827.69
325.855	637.69
326.084	577.69
326.313	577.69
326.542	557.69
326.77	632.69
326.999	758.69
327.228	1073.69
327.457	1680.69
327.686	2103.69
327.914	1407.69
328.143	845.69
328.372	727.69
328.6	690.69
328.829	645.69
329.058	660.69
329.287	692.69
329.515	609.69
329.744	597.69
329.972	552.69
330.201	616.69
330.43	679.69
330.658	678.69
330.887	723.69
331.115	683.69
331.344	592.69
331.572	543.69
331.801	540.69
332.03	534.69
332.258	489.69
332.486	472.69
332.715	469.69
332.943	477.69
333.172	490.69
333.4	469.69
333.629	476.69
333.857	497.69
334.085	513.69
334.314	535.69
334.542	579.69
334.771	596.69
334.999	538.69
335.227	494.69
335.455	477.69
335.684	460.69
335.912	447.69
336.14	446.69
336.369	467.69
336.597	454.69
336.825	455.69
337.053	435.69
337.281	436.69
337.51	443.69
337.738	430.69
337.966	431.69
338.194	446.69
338.422	444.69
338.65	448.69
338.878	426.69
339.106	431.69
339.334	436.69
339.562	421.69
339.79	421.69
340.018	413.69
340.246	443.69
340.474	438.69
340.702	444.69
340.93	417.69
341.158	412.69
341.386	435.69
341.614	425.69
341.842	443.69
342.07	424.69
342.298	415.69
342.526	407.69
342.754	413.69
342.981	404.69
343.209	409.69
343.437	400.69
343.665	409.69
343.893	424.69
344.12	412.69
344.348	429.69
344.576	436.69
344.804	443.69
345.031	462.69
345.259	469.69
345.487	453.69
345.714	423.69
345.942	441.69
346.17	409.69
346.397	405.69
346.625	421.69
346.853	405.69
347.08	404.69
347.308	418.69
347.535	434.69
347.763	449.69
347.99	423.69
348.218	437.69
348.445	442.69
348.673	446.69
348.9	414.69
349.128	407.69
349.355	386.69
349.583	381.69
349.81	403.69
350.037	413.69
350.265	380.69
350.492	397.69
350.72	420.69
350.947	391.69
351.174	416.69
351.402	442.69
351.629	437.69
351.856	426.69
352.083	440.69
352.311	441.69
352.538	467.69
352.765	433.69
352.992	433.69
353.22	435.69
353.447	418.69
353.674	423.69
353.901	406.69
354.128	407.69
354.355	383.69
354.583	374.69
354.81	396.69
355.037	381.69
355.264	384.69
355.491	378.69
355.718	373.69
355.945	353.69
356.172	376.69
356.399	369.69
356.626	376.69
356.853	382.69
357.08	371.69
357.307	388.69
357.534	364.69
357.761	380.69
357.988	356.69
358.215	377.69
358.441	366.69
358.668	372.69
358.895	385.69
359.122	385.69
359.349	395.69
359.576	401.69
359.802	438.69
360.029	486.69
360.256	508.69
360.483	462.69
360.709	425.69
360.936	433.69
361.163	418.69
361.39	422.69
361.616	409.69
361.843	398.69
362.07	412.69
362.296	420.69
362.523	391.69
362.749	391.69
362.976	396.69
363.203	390.69
363.429	399.69
363.656	397.69
363.882	397.69
364.109	380.69
364.335	391.69
364.562	399.69
364.788	410.69
365.015	375.69
365.241	385.69
365.468	387.69
365.694	386.69
365.92	381.69
366.147	391.69
366.373	381.69
366.599	391.69
366.826	379.69
367.052	389.69
367.278	374.69
367.505	380.69
367.731	380.69
367.957	372.69
368.184	387.69
368.41	407.69
368.636	410.69
368.862	383.69
369.089	394.69
369.315	380.69
369.541	384.69
369.767	392.69
369.993	381.69
370.219	379.69
370.445	387.69
370.672	374.69
370.898	371.69
371.124	380.69
371.35	375.69
371.576	357.69
371.802	358.69
372.028	373.69
372.254	363.69
372.48	373.69
372.706	389.69
372.932	365.69
373.158	363.69
373.384	367.69
373.61	380.69
373.835	393.69
374.061	343.69
374.287	386.69
374.513	371.69
374.739	378.69
374.965	374.69
375.191	381.69
375.416	390.69
375.642	361.69
375.868	367.69
376.094	381.69
376.319	351.69
376.545	370.69
376.771	355.69
376.997	367.69
377.222	361.69
377.448	364.69
377.674	361.69
377.899	377.69
378.125	346.69
378.35	359.69
378.576	357.69
378.802	347.69
379.027	374.69
379.253	355.69
379.478	369.69
379.704	381.69
379.929	364.69
380.155	381.69
380.38	373.69
380.606	355.69
380.831	358.69
381.057	367.69
381.282	379.69
381.507	368.69
381.733	364.69
381.958	359.69
382.184	387.69
382.409	374.69
382.634	361.69
382.86	369.69
383.085	367.69
383.31	385.69
383.535	385.69
383.761	403.69
383.986	389.69
384.211	365.69
384.436	376.69
384.662	375.69
384.887	372.69
385.112	391.69
385.337	387.69
385.562	387.69
385.787	392.69
386.013	407.69
386.238	391.69
386.463	397.69
386.688	404.69
386.913	407.69
387.138	408.69
387.363	391.69
387.588	387.69
387.813	403.69
388.038	374.69
388.263	375.69
388.488	371.69
388.713	399.69
388.938	387.69
389.163	405.69
389.387	407.69
389.612	393.69
389.837	371.69
390.062	399.69
390.287	407.69
390.512	381.69
390.736	389.69
390.961	407.69
391.186	402.69
391.411	390.69
391.636	385.69
391.86	380.69
392.085	419.69
392.31	414.69
392.534	405.69
392.759	413.69
392.984	380.69
393.208	399.69
393.433	398.69
393.658	397.69
393.882	391.69
394.107	381.69
394.331	394.69
394.556	378.69
394.78	380.69
395.005	409.69
395.229	395.69
395.454	411.69
395.678	407.69
395.903	400.69
396.127	461.69
396.352	423.69
396.576	405.69
396.801	440.69
397.025	406.69
397.249	407.69
397.474	418.69
397.698	432.69
397.922	441.69
398.147	448.69
398.371	456.69
398.595	426.69
398.82	451.69
399.044	414.69
399.268	457.69
399.492	486.69
399.717	477.69
399.941	499.69
400.165	546.69
400.389	556.69
400.613	497.69
400.837	463.69
401.062	459.69
401.286	446.69
401.51	456.69
401.734	459.69
401.958	438.69
402.182	453.69
402.406	470.69
402.63	464.69
402.854	457.69
403.078	437.69
403.302	476.69
403.526	474.69
403.75	469.69
403.974	468.69
404.198	454.69
404.422	454.69
404.645	489.69
404.869	455.69
405.093	531.69
405.317	557.69
405.541	609.69
405.765	538.69
405.988	511.69
406.212	508.69
406.436	548.69
406.66	561.69
406.883	551.69
407.107	552.69
407.331	577.69
407.555	631.69
407.778	650.69
408.002	585.69
408.226	521.69
408.449	521.69
408.673	512.69
408.896	552.69
409.12	606.69
409.344	588.69
409.567	511.69
409.791	494.69
410.014	469.69
410.238	483.69
410.461	476.69
410.685	485.69
410.908	489.69
411.132	525.69
411.355	578.69
411.578	543.69
411.802	506.69
412.025	474.69
412.249	472.69
412.472	512.69
412.695	558.69
412.919	539.69
413.142	495.69
413.365	469.69
413.589	452.69
413.812	461.69
414.035	445.69
414.258	438.69
414.482	430.69
414.705	422.69
414.928	464.69
415.151	461.69
415.374	427.69
415.597	423.69
415.821	424.69
416.044	453.69
416.267	438.69
416.49	430.69
416.713	431.69
416.936	429.69
417.159	438.69
417.382	448.69
417.605	474.69
417.828	465.69
418.051	471.69
418.274	456.69
418.497	435.69
418.72	456.69
418.943	439.69
419.166	453.69
419.389	465.69
419.611	470.69
419.834	472.69
420.057	468.69
420.28	462.69
420.503	459.69
420.726	458.69
420.948	489.69
421.171	538.69
421.394	560.69
421.617	495.69
421.839	465.69
422.062	494.69
422.285	503.69
422.507	567.69
422.73	617.69
422.953	585.69
423.175	508.69
423.398	512.69
423.621	514.69
423.843	525.69
424.066	492.69
424.288	516.69
424.511	536.69
424.733	591.69
424.956	689.69
425.178	685.69
425.401	659.69
425.623	677.69
425.846	582.69
426.068	536.69
426.291	532.69
426.513	503.69
426.735	526.69
426.958	571.69
427.18	678.69
427.402	807.69
427.625	896.69
427.847	811.69
428.069	709.69
428.292	586.69
428.514	547.69
428.736	511.69
428.958	502.69
429.181	487.69
429.403	467.69
429.625	493.69
429.847	510.69
430.069	595.69
430.292	598.69
430.514	524.69
430.736	467.69
430.958	483.69
431.18	442.69
431.402	437.69
431.624	442.69
431.846	425.69
432.068	447.69
432.29	450.69
432.512	429.69
432.734	446.69
432.956	447.69
433.178	463.69
433.4	471.69
433.622	451.69
433.844	458.69
434.066	434.69
434.287	429.69
434.509	451.69
434.731	443.69
434.953	462.69
435.175	479.69
435.397	521.69
435.618	517.69
435.84	567.69
436.062	678.69
436.284	753.69
436.505	629.69
436.727	564.69
436.949	503.69
437.17	493.69
437.392	516.69
437.614	526.69
437.835	563.69
438.057	648.69
438.278	779.69
438.5	756.69
438.721	829.69
438.943	787.69
439.165	636.69
439.386	578.69
439.608	553.69
439.829	548.69
440.05	583.69
440.272	645.69
440.493	602.69
440.715	563.69
440.936	489.69
441.158	491.69
441.379	490.69
441.6	528.69
441.822	510.69
442.043	596.69
442.264	683.69
442.486	717.69
442.707	600.69
442.928	561.69
443.149	550.69
443.371	593.69
443.592	633.69
443.813	709.69
444.034	755.69
444.255	626.69
444.476	571.69
444.698	526.69
444.919	519.69
445.14	616.69
445.361	582.69
445.582	569.69
445.803	659.69
446.024	793.69
446.245	792.69
446.466	716.69
446.687	609.69
446.908	539.69
447.129	513.69
447.35	481.69
447.571	502.69
447.792	463.69
448.013	499.69
448.234	526.69
448.455	567.69
448.675	693.69
448.896	807.69
449.117	709.69
449.338	642.69
449.559	743.69
449.779	870.69
450	690.69
450.221	590.69
450.442	542.69
450.662	507.69
450.883	502.69
451.104	520.69
451.324	497.69
451.545	479.69
451.766	469.69
451.986	436.69
452.207	437.69
452.428	431.69
452.648	450.69
452.869	443.69
453.089	461.69
453.31	450.69
453.53	453.69
453.751	422.69
453.971	436.69
454.192	477.69
454.412	476.69
454.633	437.69
454.853	431.69
455.073	426.69
455.294	458.69
455.514	548.69
455.734	550.69
455.955	443.69
456.175	402.69
456.395	414.69
456.616	378.69
456.836	413.69
457.056	414.69
457.276	395.69
457.497	398.69
457.717	407.69
457.937	416.69
458.157	437.69
458.377	423.69
458.598	445.69
458.818	522.69
459.038	613.69
459.258	644.69
459.478	529.69
459.698	455.69
459.918	441.69
460.138	441.69
460.358	451.69
460.578	418.69
460.798	443.69
461.018	438.69
461.238	430.69
461.458	443.69
461.678	445.69
461.898	429.69
462.118	428.69
462.338	458.69
462.558	439.69
462.777	445.69
462.997	456.69
463.217	442.69
463.437	472.69
463.657	458.69
463.876	459.69
464.096	468.69
464.316	469.69
464.536	479.69
464.755	478.69
464.975	479.69
465.195	541.69
465.414	651.69
465.634	562.69
465.854	509.69
466.073	478.69
466.293	464.69
466.512	462.69
466.732	421.69
466.951	441.69
467.171	454.69
467.391	437.69
467.61	437.69
467.829	454.69
468.049	474.69
468.268	476.69
468.488	431.69
468.707	426.69
468.927	420.69
469.146	420.69
469.365	430.69
469.585	427.69
469.804	428.69
470.023	432.69
470.243	438.69
470.462	462.69
470.681	460.69
470.901	461.69
471.12	432.69
471.339	457.69
471.558	462.69
471.777	468.69
471.997	460.69
472.216	459.69
472.435	510.69
472.654	507.69
472.873	450.69
473.092	429.69
473.311	457.69
473.53	459.69
473.749	459.69
473.968	493.69
474.187	631.69
474.406	678.69
474.625	548.69
474.844	472.69
475.063	460.69
475.282	462.69
475.501	454.69
475.72	454.69
475.939	432.69
476.158	442.69
476.377	453.69
476.596	460.69
476.814	456.69
477.033	477.69
477.252	481.69
477.471	466.69
477.69	482.69
477.908	501.69
478.127	484.69
478.346	479.69
478.564	488.69
478.783	494.69
479.002	518.69
479.22	483.69
479.439	521.69
479.658	548.69
479.876	528.69
480.095	541.69
480.313	567.69
480.532	557.69
480.751	557.69
480.969	546.69
481.188	654.69
481.406	683.69
481.624	605.69
481.843	559.69
482.061	549.69
482.28	536.69
482.498	524.69
482.717	515.69
482.935	513.69
483.153	521.69
483.372	519.69
483.59	511.69
483.808	524.69
484.027	531.69
484.245	509.69
484.463	535.69
484.681	523.69
484.9	509.69
485.118	522.69
485.336	542.69
485.554	535.69
485.772	545.69
485.99	554.69
486.209	547.69
486.427	546.69
486.645	562.69
486.863	584.69
487.081	598.69
487.299	571.69
487.517	569.69
487.735	554.69
487.953	554.69
488.171	567.69
488.389	546.69
488.607	547.69
488.825	569.69
489.043	567.69
489.261	566.69
489.479	571.69
489.696	549.69
489.914	553.69
490.132	577.69
490.35	586.69
490.568	585.69
490.786	618.69
491.003	616.69
491.221	637.69
491.439	659.69
491.657	643.69
491.874	661.69
492.092	656.69
492.31	663.69
492.527	625.69
492.745	668.69
492.963	665.69
493.18	667.69
493.398	669.69
493.615	687.69
493.833	680.69
494.05	672.69
494.268	675.69
494.485	680.69
494.703	660.69
494.92	692.69
495.138	669.69
495.355	661.69
495.573	669.69
495.79	673.69
496.008	703.69
496.225	638.69
496.442	665.69
496.66	681.69
496.877	677.69
497.094	676.69
497.312	680.69
497.529	694.69
497.746	689.69
497.963	667.69
498.181	723.69
498.398	709.69
498.615	721.69
498.832	727.69
499.049	734.69
499.267	730.69
499.484	749.69
499.701	742.69
499.918	780.69
500.135	789.69
500.352	814.69
500.569	809.69
500.786	835.69
501.003	840.69
501.22	825.69
501.437	797.69
501.654	813.69
501.871	813.69
502.088	749.69
502.305	747.69
502.522	741.69
502.739	715.69
502.956	702.69
503.172	690.69
503.389	730.69
503.606	691.69
503.823	705.69
504.04	701.69
504.256	673.69
504.473	665.69
504.69	670.69
504.907	682.69
505.123	647.69
505.34	655.69
505.557	656.69
505.773	673.69
505.99	671.69
506.207	649.69
506.423	661.69
506.64	657.69
506.856	647.69
507.073	640.69
507.289	622.69
507.506	653.69
507.722	635.69
507.939	682.69
508.155	678.69
508.372	631.69
508.588	612.69
508.805	632.69
509.021	609.69
509.238	627.69
509.454	643.69
509.67	673.69
509.887	606.69
510.103	614.69
510.319	653.69
510.536	742.69
510.752	1362.69
510.968	1107.69
511.184	656.69
511.401	659.69
511.617	622.69
511.833	608.69
512.049	622.69
512.265	600.69
512.481	617.69
512.698	596.69
512.914	601.69
513.13	601.69
513.346	602.69
513.562	582.69
513.778	622.69
513.994	615.69
514.21	605.69
514.426	657.69
514.642	723.69
514.858	774.69
515.074	817.69
515.29	980.69
515.506	1525.69
515.721	1240.69
515.937	806.69
516.153	709.69
516.369	659.69
516.585	627.69
516.801	638.69
517.016	585.69
517.232	628.69
517.448	621.69
517.664	619.69
517.879	619.69
518.095	614.69
518.311	604.69
518.527	590.69
518.742	594.69
518.958	589.69
519.173	618.69
519.389	589.69
519.605	603.69
519.82	606.69
520.036	610.69
520.251	643.69
520.467	703.69
520.682	701.69
520.898	722.69
521.113	737.69
521.329	778.69
521.544	945.69
521.76	1215.69
521.975	2105.69
522.19	1967.69
522.406	1045.69
522.621	756.69
522.836	657.69
523.052	655.69
523.267	607.69
523.482	565.69
523.698	575.69
523.913	572.69
524.128	558.69
524.343	546.69
524.559	531.69
524.774	511.69
524.989	524.69
525.204	541.69
525.419	541.69
525.634	530.69
525.849	522.69
526.064	501.69
526.28	491.69
526.495	500.69
526.71	504.69
526.925	486.69
527.14	483.69
527.355	470.69
527.57	478.69
527.785	462.69
527.999	466.69
528.214	479.69
528.429	486.69
528.644	478.69
528.859	484.69
529.074	492.69
529.289	506.69
529.503	593.69
529.718	603.69
529.933	546.69
530.148	498.69
530.363	519.69
530.577	497.69
530.792	473.69
531.007	476.69
531.221	462.69
531.436	482.69
531.651	479.69
531.865	438.69
532.08	449.69
532.295	463.69
532.509	451.69
532.724	449.69
532.938	457.69
533.153	455.69
533.367	444.69
533.582	451.69
533.796	445.69
534.011	449.69
534.225	457.69
534.44	435.69
534.654	451.69
534.868	455.69
535.083	422.69
535.297	455.69
535.511	458.69
535.726	462.69
535.94	453.69
536.154	453.69
536.369	443.69
536.583	443.69
536.797	440.69
537.011	434.69
537.225	456.69
537.44	427.69
537.654	456.69
537.868	422.69
538.082	445.69
538.296	445.69
538.51	449.69
538.724	431.69
538.938	433.69
539.153	459.69
539.367	438.69
539.581	434.69
539.795	449.69
540.009	441.69
540.222	421.69
540.436	429.69
540.65	438.69
540.864	443.69
541.078	450.69
541.292	461.69
541.506	448.69
541.72	426.69
541.934	430.69
542.147	428.69
542.361	443.69
542.575	440.69
542.789	425.69
543.002	420.69
543.216	441.69
543.43	443.69
543.644	446.69
543.857	446.69
544.071	439.69
544.285	451.69
544.498	429.69
544.712	419.69
544.925	404.69
545.139	417.69
545.352	422.69
545.566	431.69
545.779	413.69
545.993	421.69
546.206	422.69
546.42	433.69
546.633	397.69
546.847	415.69
547.06	423.69
547.274	409.69
547.487	412.69
547.7	392.69
547.914	415.69
548.127	391.69
548.34	395.69
548.554	418.69
548.767	404.69
548.98	390.69
549.193	408.69
549.407	393.69
549.62	400.69
549.833	402.69
550.046	415.69
550.259	402.69
550.473	390.69
550.686	415.69
550.899	398.69
551.112	374.69
551.325	379.69
551.538	398.69
551.751	395.69
551.964	378.69
552.177	399.69
552.39	418.69
552.603	409.69
552.816	402.69
553.029	387.69
553.242	418.69
553.455	405.69
553.667	426.69
553.88	428.69
554.093	414.69
554.306	426.69
554.519	424.69
554.732	402.69
554.944	402.69
555.157	397.69
555.37	371.69
555.583	400.69
555.795	377.69
556.008	372.69
556.221	358.69
556.433	370.69
556.646	376.69
556.859	353.69
557.071	362.69
557.284	375.69
557.496	385.69
557.709	361.69
557.921	364.69
558.134	344.69
558.346	351.69
558.559	361.69
558.771	385.69
558.984	350.69
559.196	354.69
559.409	380.69
559.621	354.69
559.833	378.69
560.046	378.69
560.258	342.69
560.47	360.69
560.683	365.69
560.895	385.69
561.107	355.69
561.32	358.69
561.532	352.69
561.744	372.69
561.956	369.69
562.168	364.69
562.381	390.69
562.593	366.69
562.805	360.69
563.017	334.69
563.229	364.69
563.441	360.69
563.653	353.69
563.865	356.69
564.077	369.69
564.289	362.69
564.501	385.69
564.713	375.69
564.925	385.69
565.137	398.69
565.349	357.69
565.561	381.69
565.773	384.69
565.985	401.69
566.197	385.69
566.408	406.69
566.62	394.69
566.832	405.69
567.044	422.69
567.255	397.69
567.467	425.69
567.679	423.69
567.891	427.69
568.102	412.69
568.314	417.69
568.526	407.69
568.737	383.69
568.949	396.69
569.161	373.69
569.372	378.69
569.584	360.69
569.795	381.69
570.007	371.69
570.218	441.69
570.43	410.69
570.641	363.69
570.853	371.69
571.064	355.69
571.276	349.69
571.487	341.69
571.698	350.69
571.91	342.69
572.121	333.69
572.333	325.69
572.544	332.69
572.755	331.69
572.966	334.69
573.178	332.69
573.389	334.69
573.6	316.69
573.811	309.69
574.023	321.69
574.234	323.69
574.445	332.69
574.656	323.69
574.867	316.69
575.078	311.69
575.289	303.69
575.501	308.69
575.712	321.69
575.923	303.69
576.134	306.69
576.345	294.69
576.556	325.69
576.767	319.69
576.978	324.69
577.188	311.69
577.399	307.69
577.61	318.69
577.821	321.69
578.032	313.69
578.243	367.69
578.454	639.69
578.665	461.69
578.875	327.69
579.086	290.69
579.297	298.69
579.508	296.69
579.718	287.69
579.929	285.69
580.14	297.69
580.35	309.69
580.561	306.69
580.772	297.69
580.982	279.69
581.193	298.69
581.403	308.69
581.614	300.69
581.825	278.69
582.035	268.69
582.246	278.69
582.456	276.69
582.667	282.69
582.877	291.69
583.087	280.69
583.298	277.69
583.508	294.69
583.719	292.69
583.929	286.69
584.139	282.69
584.35	287.69
584.56	281.69
584.77	281.69
584.981	277.69
585.191	275.69
585.401	265.69
585.611	261.69
585.821	277.69
586.032	269.69
586.242	263.69
586.452	286.69
586.662	267.69
586.872	274.69
587.082	290.69
587.292	277.69
587.502	293.69
587.713	254.69
587.923	286.69
588.133	264.69
588.343	271.69
588.553	280.69
588.762	294.69
588.972	267.69
589.182	279.69
589.392	283.69
589.602	267.69
589.812	280.69
590.022	281.69
590.232	286.69
590.441	262.69
590.651	266.69
590.861	289.69
591.071	277.69
591.281	265.69
591.49	270.69
591.7	276.69
591.91	289.69
592.119	267.69
592.329	268.69
592.539	300.69
592.748	281.69
592.958	269.69
593.167	277.69
593.377	277.69
593.587	294.69
593.796	277.69
594.006	277.69
594.215	264.69
594.424	287.69
594.634	272.69
594.843	279.69
595.053	280.69
595.262	282.69
595.472	258.69
595.681	263.69
595.89	285.69
596.1	261.69
596.309	266.69
596.518	268.69
596.727	252.69
596.937	259.69
597.146	257.69
597.355	270.69
597.564	268.69
597.774	273.69
597.983	249.69
598.192	229.69
598.401	249.69
598.61	260.69
598.819	249.69
599.028	254.69
599.237	249.69
599.446	249.69
599.655	253.69
599.864	263.69
600.073	249.69
600.282	249.69
600.491	246.69
600.7	247.69
600.909	249.69
601.118	234.69
601.327	223.69
601.536	233.69
601.745	254.69
601.953	249.69
602.162	247.69
602.371	245.69
602.58	225.69
602.789	247.69
602.997	225.69
603.206	232.69
603.415	225.69
603.623	238.69
603.832	236.69
604.041	237.69
604.249	239.69
604.458	233.69
604.666	230.69
604.875	231.69
605.084	214.69
605.292	227.69
605.501	234.69
605.709	221.69
605.918	243.69
606.126	247.69
606.334	230.69
606.543	222.69
606.751	225.69
606.96	233.69
607.168	230.69
607.376	226.69
607.585	229.69
607.793	232.69
608.001	222.69
608.21	234.69
608.418	220.69
608.626	231.69
608.834	217.69
609.043	231.69
609.251	224.69
609.459	214.69
609.667	217.69
609.875	229.69
610.083	224.69
610.291	211.69
610.499	218.69
610.707	222.69
610.916	199.69
611.124	233.69
611.332	234.69
611.54	226.69
611.748	234.69
611.955	224.69
612.163	212.69
612.371	217.69
612.579	232.69
612.787	226.69
612.995	239.69
613.203	231.69
613.411	208.69
613.618	229.69
613.826	233.69
614.034	232.69
614.242	243.69
614.449	235.69
614.657	227.69
614.865	220.69
615.072	217.69
615.28	226.69
615.488	231.69
615.695	221.69
615.903	224.69
616.111	219.69
616.318	242.69
616.526	227.69
616.733	231.69
616.941	203.69
617.148	221.69
617.356	219.69
617.563	225.69
617.771	213.69
617.978	215.69
618.185	229.69
618.393	206.69
618.6	224.69
618.807	222.69
619.015	236.69
619.222	218.69
619.429	213.69
619.637	219.69
619.844	214.69
620.051	219.69
620.258	205.69
620.466	208.69
620.673	203.69
620.88	202.69
621.087	200.69
621.294	220.69
621.501	215.69
621.708	207.69
621.915	219.69
622.122	214.69
622.329	217.69
622.536	205.69
622.743	206.69
622.95	211.69
623.157	203.69
623.364	199.69
623.571	207.69
623.778	208.69
623.985	192.69
624.192	200.69
624.399	215.69
624.606	214.69
624.812	191.69
625.019	190.69
625.226	181.69
625.433	193.69
625.639	215.69
625.846	195.69
626.053	201.69
626.259	191.69
626.466	194.69
626.673	206.69
626.879	212.69
627.086	207.69
627.293	178.69
627.499	198.69
627.706	209.69
627.912	188.69
628.119	189.69
628.325	196.69
628.532	191.69
628.738	190.69
628.945	186.69
629.151	189.69
629.357	188.69
629.564	194.69
629.77	201.69
629.976	197.69
630.183	195.69
630.389	187.69
630.595	206.69
630.802	183.69
631.008	177.69
631.214	199.69
631.42	214.69
631.627	193.69
631.833	195.69
632.039	173.69
632.245	180.69
632.451	186.69
632.657	194.69
632.863	191.69
633.069	175.69
633.275	174.69
633.481	178.69
633.688	189.69
633.893	181.69
634.099	189.69
634.305	190.69
634.511	170.69
634.717	166.69
634.923	181.69
635.129	189.69
635.335	179.69
635.541	189.69
635.747	192.69
635.952	182.69
636.158	163.69
636.364	178.69
636.57	194.69
636.775	179.69
636.981	174.69
637.187	168.69
637.392	181.69
637.598	165.69
637.804	169.69
638.009	183.69
638.215	168.69
638.421	164.69
638.626	180.69
638.832	146.69
639.037	161.69
639.243	175.69
639.448	181.69
639.654	167.69
639.859	158.69
640.065	153.69
640.27	170.69
640.475	170.69
640.681	161.69
640.886	166.69
641.091	166.69
641.297	181.69
641.502	164.69
641.707	166.69
641.913	168.69
642.118	158.69
642.323	166.69
642.528	158.69
642.733	166.69
642.939	168.69
643.144	161.69
643.349	155.69
643.554	182.69
643.759	151.69
643.964	160.69
644.169	142.69
644.374	151.69
644.579	159.69
644.784	178.69
644.989	162.69
645.194	163.69
645.399	168.69
645.604	154.69
645.809	151.69
646.014	165.69
646.219	163.69
646.423	153.69
646.628	166.69
646.833	158.69
647.038	173.69
647.243	161.69
647.447	150.69
647.652	158.69
647.857	154.69
648.062	174.69
648.266	153.69
648.471	153.69
648.676	163.69
648.88	159.69
649.085	170.69
649.289	169.69
649.494	155.69
649.698	179.69
649.903	173.69
650.107	164.69
650.312	164.69
650.516	155.69
650.721	149.69
650.925	153.69
651.13	156.69
651.334	139.69
651.539	143.69
651.743	142.69
651.947	149.69
652.152	147.69
652.356	149.69
652.56	151.69
652.764	133.69
652.969	121.69
653.173	133.69
653.377	127.69
653.581	126.69
653.785	134.69
653.99	141.69
654.194	143.69
654.398	134.69
654.602	129.69
654.806	138.69
655.01	134.69
655.214	146.69
655.418	130.69
655.622	127.69
655.826	119.69
656.03	136.69
656.234	129.69
656.438	135.69
656.642	130.69
656.846	128.69
657.049	119.69
657.253	113.69
657.457	120.69
657.661	112.69
657.865	109.69
658.068	108.69
658.272	105.69
658.476	110.69
658.68	100.69
658.883	99.69
659.087	114.69
659.291	99.69
659.494	92.69
659.698	109.69
659.901	101.69
660.105	103.69
660.309	104.69
660.512	94.69
660.716	85.69
660.919	95.69
661.123	92.69
661.326	87.69
661.53	84.69
661.733	95.69
661.936	92.69
662.14	72.69
662.343	94.69
662.546	82.69
662.75	80.69
662.953	102.69
663.156	89.69
663.36	78.69
663.563	73.69
663.766	94.69
663.969	84.69
664.173	78.69
664.376	83.69
664.579	73.69
664.782	84.69
664.985	89.69
665.188	66.69
665.391	85.69
665.594	85.69
665.797	66.69
666	84.69
666.203	78.69
666.406	85.69
666.609	89.69
666.812	83.69
667.015	86.69
667.218	79.69
667.421	90.69
667.624	69.69
667.827	85.69
668.03	99.69
668.232	75.69
668.435	75.69
668.638	82.69
668.841	86.69
669.043	81.69
669.246	74.69
669.449	72.69
669.651	87.69
669.854	79.69
670.057	82.69
670.259	100.69
670.462	83.69
670.665	84.69
670.867	78.69
671.07	74.69
671.272	76.69
671.475	93.69
671.677	85.69
671.88	78.69
672.082	87.69
672.284	80.69
672.487	69.69
672.689	66.69
672.892	86.69
