Data from 1972.PennyLincolnUp.Lamp.En5.5.200Scan.071719.P1._HRD10591_15-29-49-845.txt Node
Date: Thu Jul 18 15:29:49 EDT 2019
User: cochatt
Spectrometer: HR+D1059
Trigger mode: 1
Integration Time (sec): 1.000000E-1
Scans to average: 1
Electric dark correction enabled: true
Nonlinearity correction enabled: false
Boxcar width: 0
XAxis mode: Wavelengths
Number of Pixels in Spectrum: 2048
>>>>>Begin Spectral Data<<<<<
223.165	-16.19
223.4	-16.19
223.635	-16.19
223.869	-22.19
224.104	-14.19
224.338	-9.19
224.573	-8.19
224.808	-26.19
225.042	-2.19
225.277	-3.19
225.511	-16.19
225.746	9.81
225.98	10.81
226.215	14.81
226.449	16.81
226.683	12.81
226.918	27.81
227.152	24.81
227.387	32.81
227.621	37.81
227.856	35.81
228.09	33.81
228.324	42.81
228.559	53.81
228.793	74.81
229.027	112.81
229.262	102.81
229.496	120.81
229.73	138.81
229.964	177.81
230.199	159.81
230.433	126.81
230.667	116.81
230.901	124.81
231.136	115.81
231.37	123.81
231.604	136.81
231.838	114.81
232.072	111.81
232.306	103.81
232.541	120.81
232.775	112.81
233.009	128.81
233.243	122.81
233.477	111.81
233.711	110.81
233.945	129.81
234.179	128.81
234.413	123.81
234.647	119.81
234.881	114.81
235.115	117.81
235.349	120.81
235.583	117.81
235.817	125.81
236.051	142.81
236.285	136.81
236.519	115.81
236.753	139.81
236.987	147.81
237.221	189.81
237.455	259.81
237.689	213.81
237.922	156.81
238.156	140.81
238.39	136.81
238.624	123.81
238.858	127.81
239.091	127.81
239.325	126.81
239.559	131.81
239.793	121.81
240.027	121.81
240.26	144.81
240.494	163.81
240.728	165.81
240.961	149.81
241.195	143.81
241.429	138.81
241.662	139.81
241.896	138.81
242.13	139.81
242.363	130.81
242.597	152.81
242.83	143.81
243.064	124.81
243.298	143.81
243.531	155.81
243.765	151.81
243.998	131.81
244.232	131.81
244.465	142.81
244.699	154.81
244.932	152.81
245.166	153.81
245.399	156.81
245.633	140.81
245.866	137.81
246.099	143.81
246.333	141.81
246.566	138.81
246.8	154.81
247.033	156.81
247.266	152.81
247.5	172.81
247.733	175.81
247.966	178.81
248.2	185.81
248.433	177.81
248.666	185.81
248.899	200.81
249.133	218.81
249.366	215.81
249.599	204.81
249.832	200.81
250.066	169.81
250.299	190.81
250.532	204.81
250.765	216.81
250.998	234.81
251.231	239.81
251.465	234.81
251.698	213.81
251.931	208.81
252.164	213.81
252.397	196.81
252.63	208.81
252.863	218.81
253.096	223.81
253.329	249.81
253.562	256.81
253.795	230.81
254.028	246.81
254.261	243.81
254.494	239.81
254.727	273.81
254.96	335.81
255.193	320.81
255.426	281.81
255.659	239.81
255.892	259.81
256.124	254.81
256.357	261.81
256.59	245.81
256.823	235.81
257.056	224.81
257.289	242.81
257.521	236.81
257.754	223.81
257.987	219.81
258.22	219.81
258.452	206.81
258.685	212.81
258.918	228.81
259.151	226.81
259.383	246.81
259.616	228.81
259.849	239.81
260.081	251.81
260.314	253.81
260.547	281.81
260.779	263.81
261.012	247.81
261.244	244.81
261.477	246.81
261.71	247.81
261.942	239.81
262.175	237.81
262.407	247.81
262.64	220.81
262.872	217.81
263.105	216.81
263.337	208.81
263.57	226.81
263.802	206.81
264.035	219.81
264.267	213.81
264.499	203.81
264.732	219.81
264.964	233.81
265.197	222.81
265.429	211.81
265.661	225.81
265.894	239.81
266.126	240.81
266.358	229.81
266.591	221.81
266.823	219.81
267.055	240.81
267.287	255.81
267.52	230.81
267.752	247.81
267.984	249.81
268.216	234.81
268.448	242.81
268.681	247.81
268.913	270.81
269.145	282.81
269.377	292.81
269.609	278.81
269.841	285.81
270.073	300.81
270.306	315.81
270.538	337.81
270.77	345.81
271.002	330.81
271.234	319.81
271.466	330.81
271.698	348.81
271.93	340.81
272.162	340.81
272.394	353.81
272.626	340.81
272.858	323.81
273.09	316.81
273.322	298.81
273.553	279.81
273.785	291.81
274.017	294.81
274.249	265.81
274.481	267.81
274.713	293.81
274.945	288.81
275.176	267.81
275.408	278.81
275.64	274.81
275.872	298.81
276.104	283.81
276.335	290.81
276.567	292.81
276.799	292.81
277.031	331.81
277.262	347.81
277.494	359.81
277.726	315.81
277.957	314.81
278.189	290.81
278.421	285.81
278.652	274.81
278.884	268.81
279.115	265.81
279.347	275.81
279.579	265.81
279.81	298.81
280.042	287.81
280.273	281.81
280.505	280.81
280.736	272.81
280.968	263.81
281.199	275.81
281.431	267.81
281.662	268.81
281.894	269.81
282.125	296.81
282.356	303.81
282.588	335.81
282.819	333.81
283.051	305.81
283.282	287.81
283.513	284.81
283.745	297.81
283.976	291.81
284.207	299.81
284.439	277.81
284.67	281.81
284.901	284.81
285.132	285.81
285.364	295.81
285.595	279.81
285.826	278.81
286.057	281.81
286.288	291.81
286.52	282.81
286.751	275.81
286.982	304.81
287.213	287.81
287.444	287.81
287.675	290.81
287.906	305.81
288.138	313.81
288.369	304.81
288.6	308.81
288.831	300.81
289.062	305.81
289.293	301.81
289.524	305.81
289.755	303.81
289.986	301.81
290.217	305.81
290.448	283.81
290.679	281.81
290.91	304.81
291.141	285.81
291.371	291.81
291.602	285.81
291.833	292.81
292.064	299.81
292.295	296.81
292.526	294.81
292.757	291.81
292.987	294.81
293.218	280.81
293.449	301.81
293.68	282.81
293.91	284.81
294.141	293.81
294.372	278.81
294.603	285.81
294.833	297.81
295.064	297.81
295.295	296.81
295.525	306.81
295.756	303.81
295.987	305.81
296.217	326.81
296.448	341.81
296.679	328.81
296.909	289.81
297.14	299.81
297.37	276.81
297.601	281.81
297.831	265.81
298.062	304.81
298.292	313.81
298.523	318.81
298.753	304.81
298.984	309.81
299.214	306.81
299.445	304.81
299.675	305.81
299.905	317.81
300.136	306.81
300.366	298.81
300.597	331.81
300.827	310.81
301.057	330.81
301.288	299.81
301.518	336.81
301.748	338.81
301.979	337.81
302.209	317.81
302.439	338.81
302.669	323.81
302.9	337.81
303.13	344.81
303.36	327.81
303.59	352.81
303.82	346.81
304.051	348.81
304.281	338.81
304.511	334.81
304.741	320.81
304.971	324.81
305.201	305.81
305.431	315.81
305.661	315.81
305.891	311.81
306.121	315.81
306.352	332.81
306.582	346.81
306.812	333.81
307.042	327.81
307.272	341.81
307.502	353.81
307.731	322.81
307.961	337.81
308.191	341.81
308.421	349.81
308.651	348.81
308.881	339.81
309.111	361.81
309.341	352.81
309.571	348.81
309.8	372.81
310.03	377.81
310.26	390.81
310.49	393.81
310.72	401.81
310.949	417.81
311.179	424.81
311.409	412.81
311.639	376.81
311.868	395.81
312.098	411.81
312.328	412.81
312.557	416.81
312.787	447.81
313.017	434.81
313.246	414.81
313.476	387.81
313.706	388.81
313.935	431.81
314.165	421.81
314.394	428.81
314.624	417.81
314.853	390.81
315.083	392.81
315.312	389.81
315.542	401.81
315.771	379.81
316.001	385.81
316.23	376.81
316.46	378.81
316.689	378.81
316.919	404.81
317.148	429.81
317.377	414.81
317.607	398.81
317.836	399.81
318.065	384.81
318.295	381.81
318.524	361.81
318.753	374.81
318.983	377.81
319.212	393.81
319.441	395.81
319.67	409.81
319.9	410.81
320.129	387.81
320.358	403.81
320.587	404.81
320.816	413.81
321.046	416.81
321.275	437.81
321.504	428.81
321.733	411.81
321.962	426.81
322.191	445.81
322.42	466.81
322.649	474.81
322.878	477.81
323.108	533.81
323.337	551.81
323.566	593.81
323.795	629.81
324.024	692.81
324.253	871.81
324.482	1289.81
324.71	2039.81
324.939	2976.81
325.168	2563.81
325.397	1280.81
325.626	820.81
325.855	648.81
326.084	591.81
326.313	559.81
326.542	599.81
326.77	654.81
326.999	807.81
327.228	1125.81
327.457	1780.81
327.686	2205.81
327.914	1430.81
328.143	936.81
328.372	767.81
328.6	724.81
328.829	655.81
329.058	691.81
329.287	716.81
329.515	643.81
329.744	595.81
329.972	581.81
330.201	632.81
330.43	683.81
330.658	734.81
330.887	733.81
331.115	733.81
331.344	592.81
331.572	541.81
331.801	552.81
332.03	561.81
332.258	512.81
332.486	488.81
332.715	481.81
332.943	464.81
333.172	468.81
333.4	493.81
333.629	468.81
333.857	498.81
334.085	541.81
334.314	535.81
334.542	614.81
334.771	633.81
334.999	544.81
335.227	486.81
335.455	480.81
335.684	462.81
335.912	475.81
336.14	435.81
336.369	443.81
336.597	470.81
336.825	476.81
337.053	449.81
337.281	459.81
337.51	443.81
337.738	434.81
337.966	445.81
338.194	460.81
338.422	451.81
338.65	448.81
338.878	425.81
339.106	434.81
339.334	428.81
339.562	426.81
339.79	410.81
340.018	420.81
340.246	458.81
340.474	449.81
340.702	447.81
340.93	447.81
341.158	451.81
341.386	452.81
341.614	444.81
341.842	436.81
342.07	426.81
342.298	438.81
342.526	414.81
342.754	425.81
342.981	383.81
343.209	409.81
343.437	401.81
343.665	417.81
343.893	435.81
344.12	428.81
344.348	431.81
344.576	440.81
344.804	445.81
345.031	438.81
345.259	459.81
345.487	463.81
345.714	442.81
345.942	451.81
346.17	417.81
346.397	403.81
346.625	424.81
346.853	432.81
347.08	441.81
347.308	449.81
347.535	453.81
347.763	437.81
347.99	422.81
348.218	446.81
348.445	452.81
348.673	432.81
348.9	430.81
349.128	415.81
349.355	408.81
349.583	391.81
349.81	389.81
350.037	417.81
350.265	400.81
350.492	413.81
350.72	404.81
350.947	414.81
351.174	422.81
351.402	446.81
351.629	419.81
351.856	435.81
352.083	446.81
352.311	454.81
352.538	452.81
352.765	459.81
352.992	419.81
353.22	439.81
353.447	435.81
353.674	429.81
353.901	411.81
354.128	397.81
354.355	398.81
354.583	400.81
354.81	380.81
355.037	385.81
355.264	394.81
355.491	371.81
355.718	392.81
355.945	385.81
356.172	378.81
356.399	373.81
356.626	367.81
356.853	378.81
357.08	363.81
357.307	358.81
357.534	355.81
357.761	380.81
357.988	381.81
358.215	386.81
358.441	397.81
358.668	383.81
358.895	390.81
359.122	391.81
359.349	404.81
359.576	413.81
359.802	445.81
360.029	499.81
360.256	515.81
360.483	500.81
360.709	461.81
360.936	420.81
361.163	406.81
361.39	404.81
361.616	440.81
361.843	404.81
362.07	415.81
362.296	440.81
362.523	414.81
362.749	423.81
362.976	440.81
363.203	395.81
363.429	393.81
363.656	384.81
363.882	396.81
364.109	385.81
364.335	400.81
364.562	378.81
364.788	367.81
365.015	380.81
365.241	397.81
365.468	409.81
365.694	403.81
365.92	397.81
366.147	409.81
366.373	384.81
366.599	383.81
366.826	400.81
367.052	379.81
367.278	376.81
367.505	381.81
367.731	405.81
367.957	387.81
368.184	385.81
368.41	406.81
368.636	403.81
368.862	408.81
369.089	396.81
369.315	394.81
369.541	374.81
369.767	394.81
369.993	384.81
370.219	393.81
370.445	378.81
370.672	367.81
370.898	373.81
371.124	371.81
371.35	377.81
371.576	359.81
371.802	372.81
372.028	371.81
372.254	371.81
372.48	374.81
372.706	361.81
372.932	356.81
373.158	361.81
373.384	384.81
373.61	370.81
373.835	383.81
374.061	405.81
374.287	384.81
374.513	361.81
374.739	381.81
374.965	371.81
375.191	386.81
375.416	374.81
375.642	376.81
375.868	381.81
376.094	377.81
376.319	370.81
376.545	377.81
376.771	360.81
376.997	361.81
377.222	375.81
377.448	381.81
377.674	376.81
377.899	371.81
378.125	363.81
378.35	372.81
378.576	376.81
378.802	371.81
379.027	356.81
379.253	373.81
379.478	367.81
379.704	359.81
379.929	371.81
380.155	376.81
380.38	394.81
380.606	390.81
380.831	362.81
381.057	381.81
381.282	373.81
381.507	387.81
381.733	380.81
381.958	372.81
382.184	396.81
382.409	374.81
382.634	382.81
382.86	392.81
383.085	385.81
383.31	416.81
383.535	376.81
383.761	368.81
383.986	383.81
384.211	389.81
384.436	389.81
384.662	378.81
384.887	381.81
385.112	369.81
385.337	382.81
385.562	388.81
385.787	388.81
386.013	424.81
386.238	412.81
386.463	412.81
386.688	408.81
386.913	403.81
387.138	391.81
387.363	402.81
387.588	397.81
387.813	390.81
388.038	387.81
388.263	377.81
388.488	404.81
388.713	393.81
388.938	400.81
389.163	392.81
389.387	409.81
389.612	385.81
389.837	393.81
390.062	368.81
390.287	376.81
390.512	379.81
390.736	403.81
390.961	398.81
391.186	394.81
391.411	391.81
391.636	401.81
391.86	412.81
392.085	385.81
392.31	412.81
392.534	377.81
392.759	392.81
392.984	395.81
393.208	404.81
393.433	403.81
393.658	383.81
393.882	415.81
394.107	394.81
394.331	407.81
394.556	407.81
394.78	379.81
395.005	397.81
395.229	401.81
395.454	402.81
395.678	406.81
395.903	429.81
396.127	429.81
396.352	454.81
396.576	414.81
396.801	419.81
397.025	404.81
397.249	418.81
397.474	411.81
397.698	420.81
397.922	427.81
398.147	452.81
398.371	435.81
398.595	445.81
398.82	415.81
399.044	440.81
399.268	465.81
399.492	468.81
399.717	477.81
399.941	504.81
400.165	541.81
400.389	560.81
400.613	523.81
400.837	488.81
401.062	460.81
401.286	451.81
401.51	459.81
401.734	435.81
401.958	441.81
402.182	431.81
402.406	475.81
402.63	473.81
402.854	478.81
403.078	465.81
403.302	450.81
403.526	459.81
403.75	482.81
403.974	478.81
404.198	480.81
404.422	481.81
404.645	480.81
404.869	485.81
405.093	527.81
405.317	585.81
405.541	603.81
405.765	536.81
405.988	512.81
406.212	518.81
406.436	547.81
406.66	559.81
406.883	545.81
407.107	545.81
407.331	589.81
407.555	646.81
407.778	649.81
408.002	582.81
408.226	527.81
408.449	496.81
408.673	528.81
408.896	556.81
409.12	625.81
409.344	579.81
409.567	509.81
409.791	484.81
410.014	461.81
410.238	455.81
410.461	474.81
410.685	473.81
410.908	529.81
411.132	535.81
411.355	569.81
411.578	527.81
411.802	507.81
412.025	477.81
412.249	488.81
412.472	520.81
412.695	586.81
412.919	560.81
413.142	516.81
413.365	474.81
413.589	471.81
413.812	436.81
414.035	453.81
414.258	435.81
414.482	458.81
414.705	444.81
414.928	442.81
415.151	437.81
415.374	419.81
415.597	437.81
415.821	438.81
416.044	434.81
416.267	459.81
416.49	457.81
416.713	457.81
416.936	462.81
417.159	443.81
417.382	466.81
417.605	463.81
417.828	453.81
418.051	471.81
418.274	489.81
418.497	451.81
418.72	438.81
418.943	442.81
419.166	475.81
419.389	495.81
419.611	460.81
419.834	466.81
420.057	471.81
420.28	485.81
420.503	472.81
420.726	473.81
420.948	521.81
421.171	536.81
421.394	568.81
421.617	510.81
421.839	491.81
422.062	483.81
422.285	495.81
422.507	561.81
422.73	654.81
422.953	619.81
423.175	531.81
423.398	500.81
423.621	496.81
423.843	531.81
424.066	530.81
424.288	520.81
424.511	537.81
424.733	618.81
424.956	705.81
425.178	673.81
425.401	668.81
425.623	678.81
425.846	575.81
426.068	544.81
426.291	530.81
426.513	516.81
426.735	529.81
426.958	586.81
427.18	684.81
427.402	829.81
427.625	919.81
427.847	813.81
428.069	724.81
428.292	610.81
428.514	545.81
428.736	515.81
428.958	514.81
429.181	528.81
429.403	483.81
429.625	500.81
429.847	520.81
430.069	611.81
430.292	626.81
430.514	514.81
430.736	495.81
430.958	487.81
431.18	469.81
431.402	469.81
431.624	450.81
431.846	440.81
432.068	441.81
432.29	456.81
432.512	451.81
432.734	464.81
432.956	462.81
433.178	476.81
433.4	482.81
433.622	472.81
433.844	451.81
434.066	440.81
434.287	441.81
434.509	427.81
434.731	460.81
434.953	464.81
435.175	488.81
435.397	517.81
435.618	545.81
435.84	580.81
436.062	699.81
436.284	768.81
436.505	632.81
436.727	562.81
436.949	515.81
437.17	491.81
437.392	503.81
437.614	507.81
437.835	535.81
438.057	691.81
438.278	795.81
438.5	791.81
438.721	861.81
438.943	819.81
439.165	625.81
439.386	594.81
439.608	561.81
439.829	551.81
440.05	589.81
440.272	647.81
440.493	613.81
440.715	550.81
440.936	532.81
441.158	496.81
441.379	484.81
441.6	525.81
441.822	539.81
442.043	577.81
442.264	687.81
442.486	751.81
442.707	631.81
442.928	573.81
443.149	565.81
443.371	598.81
443.592	637.81
443.813	775.81
444.034	796.81
444.255	619.81
444.476	566.81
444.698	512.81
444.919	532.81
445.14	626.81
445.361	586.81
445.582	597.81
445.803	657.81
446.024	805.81
446.245	835.81
446.466	728.81
446.687	620.81
446.908	569.81
447.129	545.81
447.35	509.81
447.571	521.81
447.792	489.81
448.013	499.81
448.234	541.81
448.455	603.81
448.675	715.81
448.896	854.81
449.117	716.81
449.338	671.81
449.559	795.81
449.779	877.81
450	755.81
450.221	581.81
450.442	536.81
450.662	504.81
450.883	507.81
451.104	545.81
451.324	506.81
451.545	499.81
451.766	483.81
451.986	448.81
452.207	449.81
452.428	456.81
452.648	447.81
452.869	435.81
453.089	473.81
453.31	459.81
453.53	448.81
453.751	448.81
453.971	412.81
454.192	482.81
454.412	474.81
454.633	443.81
454.853	440.81
455.073	453.81
455.294	493.81
455.514	539.81
455.734	549.81
455.955	460.81
456.175	426.81
456.395	422.81
456.616	409.81
456.836	420.81
457.056	389.81
457.276	417.81
457.497	398.81
457.717	417.81
457.937	409.81
458.157	435.81
458.377	407.81
458.598	448.81
458.818	509.81
459.038	634.81
459.258	653.81
459.478	520.81
459.698	471.81
459.918	460.81
460.138	454.81
460.358	427.81
460.578	427.81
460.798	454.81
461.018	451.81
461.238	422.81
461.458	444.81
461.678	437.81
461.898	431.81
462.118	441.81
462.338	419.81
462.558	445.81
462.777	449.81
462.997	461.81
463.217	467.81
463.437	464.81
463.657	439.81
463.876	459.81
464.096	452.81
464.316	485.81
464.536	492.81
464.755	492.81
464.975	492.81
465.195	566.81
465.414	663.81
465.634	573.81
465.854	509.81
466.073	476.81
466.293	471.81
466.512	428.81
466.732	426.81
466.951	460.81
467.171	435.81
467.391	439.81
467.61	459.81
467.829	469.81
468.049	479.81
468.268	477.81
468.488	453.81
468.707	431.81
468.927	439.81
469.146	437.81
469.365	427.81
469.585	450.81
469.804	439.81
470.023	450.81
470.243	453.81
470.462	450.81
470.681	476.81
470.901	492.81
471.12	468.81
471.339	446.81
471.558	471.81
471.777	469.81
471.997	432.81
472.216	481.81
472.435	528.81
472.654	496.81
472.873	486.81
473.092	440.81
473.311	461.81
473.53	472.81
473.749	451.81
473.968	506.81
474.187	654.81
474.406	683.81
474.625	515.81
474.844	471.81
475.063	443.81
475.282	460.81
475.501	459.81
475.72	464.81
475.939	461.81
476.158	454.81
476.377	470.81
476.596	465.81
476.814	453.81
477.033	484.81
477.252	481.81
477.471	488.81
477.69	480.81
477.908	465.81
478.127	482.81
478.346	479.81
478.564	501.81
478.783	505.81
479.002	508.81
479.22	507.81
479.439	535.81
479.658	540.81
479.876	547.81
480.095	560.81
480.313	577.81
480.532	564.81
480.751	563.81
480.969	582.81
481.188	668.81
481.406	739.81
481.624	588.81
481.843	575.81
482.061	537.81
482.28	525.81
482.498	560.81
482.717	529.81
482.935	529.81
483.153	534.81
483.372	536.81
483.59	545.81
483.808	525.81
484.027	532.81
484.245	546.81
484.463	538.81
484.681	548.81
484.9	529.81
485.118	496.81
485.336	545.81
485.554	532.81
485.772	540.81
485.99	519.81
486.209	577.81
486.427	555.81
486.645	555.81
486.863	583.81
487.081	586.81
487.299	588.81
487.517	571.81
487.735	582.81
487.953	555.81
488.171	563.81
488.389	592.81
488.607	576.81
488.825	590.81
489.043	568.81
489.261	570.81
489.479	584.81
489.696	578.81
489.914	605.81
490.132	605.81
490.35	601.81
490.568	601.81
490.786	598.81
491.003	636.81
491.221	635.81
491.439	637.81
491.657	648.81
491.874	661.81
492.092	644.81
492.31	679.81
492.527	677.81
492.745	680.81
492.963	668.81
493.18	675.81
493.398	659.81
493.615	674.81
493.833	690.81
494.05	682.81
494.268	668.81
494.485	669.81
494.703	690.81
494.92	675.81
495.138	675.81
495.355	680.81
495.573	687.81
495.79	692.81
496.008	697.81
496.225	673.81
496.442	664.81
496.66	673.81
496.877	673.81
497.094	685.81
497.312	693.81
497.529	706.81
497.746	706.81
497.963	718.81
498.181	745.81
498.398	736.81
498.615	726.81
498.832	743.81
499.049	748.81
499.267	753.81
499.484	755.81
499.701	779.81
499.918	776.81
500.135	823.81
500.352	827.81
500.569	859.81
500.786	870.81
501.003	830.81
501.22	824.81
501.437	827.81
501.654	802.81
501.871	830.81
502.088	817.81
502.305	763.81
502.522	769.81
502.739	738.81
502.956	698.81
503.172	701.81
503.389	714.81
503.606	727.81
503.823	713.81
504.04	693.81
504.256	685.81
504.473	677.81
504.69	698.81
504.907	657.81
505.123	662.81
505.34	677.81
505.557	641.81
505.773	672.81
505.99	654.81
506.207	653.81
506.423	666.81
506.64	665.81
506.856	663.81
507.073	652.81
507.289	659.81
507.506	637.81
507.722	683.81
507.939	710.81
508.155	681.81
508.372	643.81
508.588	635.81
508.805	639.81
509.021	653.81
509.238	679.81
509.454	660.81
509.67	663.81
509.887	669.81
510.103	639.81
510.319	667.81
510.536	809.81
510.752	1438.81
510.968	1121.81
511.184	681.81
511.401	647.81
511.617	650.81
511.833	638.81
512.049	615.81
512.265	609.81
512.481	611.81
512.698	594.81
512.914	589.81
513.13	587.81
513.346	593.81
513.562	601.81
513.778	611.81
513.994	614.81
514.21	679.81
514.426	695.81
514.642	751.81
514.858	768.81
515.074	855.81
515.29	1000.81
515.506	1577.81
515.721	1262.81
515.937	825.81
516.153	708.81
516.369	677.81
516.585	661.81
516.801	638.81
517.016	637.81
517.232	626.81
517.448	612.81
517.664	607.81
517.879	625.81
518.095	621.81
518.311	607.81
518.527	625.81
518.742	627.81
518.958	625.81
519.173	601.81
519.389	595.81
519.605	618.81
519.82	611.81
520.036	656.81
520.251	666.81
520.467	731.81
520.682	718.81
520.898	718.81
521.113	755.81
521.329	816.81
521.544	969.81
521.76	1279.81
521.975	2189.81
522.19	2077.81
522.406	1078.81
522.621	782.81
522.836	707.81
523.052	656.81
523.267	610.81
523.482	596.81
523.698	558.81
523.913	581.81
524.128	575.81
524.343	578.81
524.559	535.81
524.774	545.81
524.989	536.81
525.204	553.81
525.419	559.81
525.634	536.81
525.849	525.81
526.064	516.81
526.28	492.81
526.495	503.81
526.71	476.81
526.925	467.81
527.14	487.81
527.355	496.81
527.57	503.81
527.785	507.81
527.999	499.81
528.214	488.81
528.429	483.81
528.644	476.81
528.859	490.81
529.074	488.81
529.289	515.81
529.503	641.81
529.718	619.81
529.933	529.81
530.148	532.81
530.363	530.81
530.577	504.81
530.792	495.81
531.007	482.81
531.221	471.81
531.436	469.81
531.651	470.81
531.865	460.81
532.08	477.81
532.295	483.81
532.509	449.81
532.724	441.81
532.938	449.81
533.153	481.81
533.367	460.81
533.582	448.81
533.796	461.81
534.011	465.81
534.225	461.81
534.44	457.81
534.654	451.81
534.868	453.81
535.083	441.81
535.297	453.81
535.511	454.81
535.726	477.81
535.94	471.81
536.154	476.81
536.369	468.81
536.583	439.81
536.797	453.81
537.011	427.81
537.225	441.81
537.44	410.81
537.654	440.81
537.868	447.81
538.082	429.81
538.296	452.81
538.51	435.81
538.724	451.81
538.938	425.81
539.153	445.81
539.367	465.81
539.581	462.81
539.795	435.81
540.009	439.81
540.222	439.81
540.436	450.81
540.65	445.81
540.864	460.81
541.078	457.81
541.292	457.81
541.506	457.81
541.72	431.81
541.934	440.81
542.147	427.81
542.361	426.81
542.575	421.81
542.789	436.81
543.002	437.81
543.216	431.81
543.43	436.81
543.644	450.81
543.857	445.81
544.071	431.81
544.285	427.81
544.498	436.81
544.712	434.81
544.925	424.81
545.139	428.81
545.352	417.81
545.566	427.81
545.779	439.81
545.993	421.81
546.206	427.81
546.42	419.81
546.633	419.81
546.847	419.81
547.06	416.81
547.274	428.81
547.487	408.81
547.7	417.81
547.914	423.81
548.127	419.81
548.34	402.81
548.554	403.81
548.767	392.81
548.98	408.81
549.193	402.81
549.407	391.81
549.62	394.81
549.833	393.81
550.046	411.81
550.259	404.81
550.473	407.81
550.686	391.81
550.899	379.81
551.112	406.81
551.325	404.81
551.538	401.81
551.751	388.81
551.964	385.81
552.177	403.81
552.39	394.81
552.603	386.81
552.816	406.81
553.029	419.81
553.242	387.81
553.455	405.81
553.667	424.81
553.88	425.81
554.093	390.81
554.306	398.81
554.519	412.81
554.732	408.81
554.944	408.81
555.157	403.81
555.37	405.81
555.583	404.81
555.795	403.81
556.008	382.81
556.221	367.81
556.433	368.81
556.646	376.81
556.859	364.81
557.071	356.81
557.284	368.81
557.496	387.81
557.709	387.81
557.921	373.81
558.134	363.81
558.346	369.81
558.559	379.81
558.771	370.81
558.984	374.81
559.196	379.81
559.409	373.81
559.621	361.81
559.833	375.81
560.046	371.81
560.258	365.81
560.47	346.81
560.683	346.81
560.895	351.81
561.107	354.81
561.32	361.81
561.532	347.81
561.744	363.81
561.956	371.81
562.168	346.81
562.381	364.81
562.593	380.81
562.805	346.81
563.017	357.81
563.229	359.81
563.441	356.81
563.653	373.81
563.865	365.81
564.077	375.81
564.289	370.81
564.501	375.81
564.713	363.81
564.925	395.81
565.137	399.81
565.349	383.81
565.561	378.81
565.773	380.81
565.985	383.81
566.197	395.81
566.408	408.81
566.62	403.81
566.832	410.81
567.044	403.81
567.255	425.81
567.467	399.81
567.679	402.81
567.891	414.81
568.102	422.81
568.314	427.81
568.526	417.81
568.737	402.81
568.949	393.81
569.161	370.81
569.372	394.81
569.584	371.81
569.795	357.81
570.007	369.81
570.218	421.81
570.43	432.81
570.641	368.81
570.853	354.81
571.064	364.81
571.276	349.81
571.487	349.81
571.698	354.81
571.91	348.81
572.121	332.81
572.333	337.81
572.544	330.81
572.755	311.81
572.966	330.81
573.178	322.81
573.389	309.81
573.6	335.81
573.811	328.81
574.023	323.81
574.234	323.81
574.445	331.81
574.656	318.81
574.867	311.81
575.078	330.81
575.289	331.81
575.501	330.81
575.712	315.81
575.923	303.81
576.134	318.81
576.345	317.81
576.556	319.81
576.767	306.81
576.978	318.81
577.188	325.81
577.399	313.81
577.61	273.81
577.821	310.81
578.032	323.81
578.243	355.81
578.454	654.81
578.665	460.81
578.875	313.81
579.086	301.81
579.297	313.81
579.508	307.81
579.718	293.81
579.929	309.81
580.14	316.81
580.35	276.81
580.561	289.81
580.772	304.81
580.982	291.81
581.193	289.81
581.403	291.81
581.614	293.81
581.825	276.81
582.035	292.81
582.246	275.81
582.456	282.81
582.667	291.81
582.877	273.81
583.087	299.81
583.298	277.81
583.508	265.81
583.719	277.81
583.929	268.81
584.139	288.81
584.35	300.81
584.56	276.81
584.77	288.81
584.981	298.81
585.191	285.81
585.401	276.81
585.611	256.81
585.821	275.81
586.032	267.81
586.242	276.81
586.452	269.81
586.662	273.81
586.872	263.81
587.082	260.81
587.292	275.81
587.502	283.81
587.713	265.81
587.923	288.81
588.133	271.81
588.343	265.81
588.553	268.81
588.762	284.81
588.972	285.81
589.182	272.81
589.392	292.81
589.602	276.81
589.812	263.81
590.022	260.81
590.232	283.81
590.441	254.81
590.651	272.81
590.861	269.81
591.071	279.81
591.281	289.81
591.49	273.81
591.7	266.81
591.91	270.81
592.119	276.81
592.329	278.81
592.539	286.81
592.748	289.81
592.958	296.81
593.167	269.81
593.377	272.81
593.587	288.81
593.796	276.81
594.006	273.81
594.215	277.81
594.424	285.81
594.634	289.81
594.843	291.81
595.053	282.81
595.262	273.81
595.472	293.81
595.681	260.81
595.89	273.81
596.1	270.81
596.309	272.81
596.518	261.81
596.727	263.81
596.937	261.81
597.146	251.81
597.355	271.81
597.564	272.81
597.774	244.81
597.983	259.81
598.192	244.81
598.401	251.81
598.61	267.81
598.819	267.81
599.028	227.81
599.237	249.81
599.446	250.81
599.655	250.81
599.864	261.81
600.073	259.81
600.282	251.81
600.491	257.81
600.7	239.81
600.909	239.81
601.118	224.81
601.327	240.81
601.536	231.81
601.745	239.81
601.953	248.81
602.162	230.81
602.371	231.81
602.58	236.81
602.789	241.81
602.997	239.81
603.206	225.81
603.415	232.81
603.623	246.81
603.832	244.81
604.041	247.81
604.249	246.81
604.458	246.81
604.666	241.81
604.875	236.81
605.084	239.81
605.292	236.81
605.501	237.81
605.709	230.81
605.918	232.81
606.126	227.81
606.334	212.81
606.543	230.81
606.751	236.81
606.96	246.81
607.168	233.81
607.376	222.81
607.585	227.81
607.793	219.81
608.001	232.81
608.21	221.81
608.418	224.81
608.626	227.81
608.834	219.81
609.043	226.81
609.251	230.81
609.459	214.81
609.667	242.81
609.875	219.81
610.083	234.81
610.291	214.81
610.499	214.81
610.707	230.81
610.916	225.81
611.124	218.81
611.332	225.81
611.54	249.81
611.748	229.81
611.955	236.81
612.163	217.81
612.371	219.81
612.579	205.81
612.787	215.81
612.995	220.81
613.203	246.81
613.411	241.81
613.618	231.81
613.826	221.81
614.034	253.81
614.242	225.81
614.449	217.81
614.657	224.81
614.865	234.81
615.072	224.81
615.28	207.81
615.488	231.81
615.695	225.81
615.903	226.81
616.111	229.81
616.318	218.81
616.526	223.81
616.733	234.81
616.941	212.81
617.148	235.81
617.356	229.81
617.563	215.81
617.771	223.81
617.978	221.81
618.185	206.81
618.393	231.81
618.6	217.81
618.807	219.81
619.015	217.81
619.222	221.81
619.429	217.81
619.637	211.81
619.844	201.81
620.051	200.81
620.258	211.81
620.466	209.81
620.673	216.81
620.88	210.81
621.087	211.81
621.294	208.81
621.501	218.81
621.708	207.81
621.915	212.81
622.122	214.81
622.329	209.81
622.536	211.81
622.743	217.81
622.95	208.81
623.157	195.81
623.364	212.81
623.571	195.81
623.778	209.81
623.985	205.81
624.192	204.81
624.399	198.81
624.606	202.81
624.812	210.81
625.019	187.81
625.226	184.81
625.433	217.81
625.639	193.81
625.846	209.81
626.053	201.81
626.259	213.81
626.466	204.81
626.673	187.81
626.879	199.81
627.086	196.81
627.293	205.81
627.499	215.81
627.706	191.81
627.912	202.81
628.119	177.81
628.325	202.81
628.532	209.81
628.738	173.81
628.945	188.81
629.151	200.81
629.357	199.81
629.564	190.81
629.77	188.81
629.976	180.81
630.183	183.81
630.389	188.81
630.595	181.81
630.802	174.81
631.008	171.81
631.214	182.81
631.42	193.81
631.627	180.81
631.833	204.81
632.039	197.81
632.245	185.81
632.451	195.81
632.657	180.81
632.863	177.81
633.069	188.81
633.275	186.81
633.481	182.81
633.688	179.81
633.893	173.81
634.099	168.81
634.305	182.81
634.511	170.81
634.717	159.81
634.923	176.81
635.129	166.81
635.335	186.81
635.541	184.81
635.747	180.81
635.952	176.81
636.158	185.81
636.364	177.81
636.57	187.81
636.775	193.81
636.981	175.81
637.187	162.81
637.392	181.81
637.598	179.81
637.804	170.81
638.009	189.81
638.215	175.81
638.421	175.81
638.626	179.81
638.832	170.81
639.037	175.81
639.243	156.81
639.448	179.81
639.654	168.81
639.859	168.81
640.065	167.81
640.27	172.81
640.475	155.81
640.681	162.81
640.886	165.81
641.091	169.81
641.297	162.81
641.502	150.81
641.707	163.81
641.913	176.81
642.118	159.81
642.323	151.81
642.528	169.81
642.733	165.81
642.939	159.81
643.144	149.81
643.349	162.81
643.554	161.81
643.759	159.81
643.964	161.81
644.169	155.81
644.374	136.81
644.579	156.81
644.784	166.81
644.989	161.81
645.194	155.81
645.399	155.81
645.604	160.81
645.809	168.81
646.014	148.81
646.219	172.81
646.423	165.81
646.628	165.81
646.833	149.81
647.038	171.81
647.243	165.81
647.447	175.81
647.652	163.81
647.857	142.81
648.062	165.81
648.266	162.81
648.471	164.81
648.676	163.81
648.88	169.81
649.085	165.81
649.289	171.81
649.494	170.81
649.698	175.81
649.903	183.81
650.107	179.81
650.312	164.81
650.516	160.81
650.721	152.81
650.925	154.81
651.13	143.81
651.334	145.81
651.539	147.81
651.743	135.81
651.947	141.81
652.152	144.81
652.356	138.81
652.56	139.81
652.764	129.81
652.969	129.81
653.173	129.81
653.377	146.81
653.581	125.81
653.785	129.81
653.99	140.81
654.194	137.81
654.398	138.81
654.602	131.81
654.806	147.81
655.01	131.81
655.214	150.81
655.418	139.81
655.622	133.81
655.826	126.81
656.03	133.81
656.234	130.81
656.438	121.81
656.642	127.81
656.846	144.81
657.049	126.81
657.253	112.81
657.457	117.81
657.661	105.81
657.865	106.81
658.068	119.81
658.272	113.81
658.476	103.81
658.68	110.81
658.883	94.81
659.087	113.81
659.291	92.81
659.494	103.81
659.698	92.81
659.901	94.81
660.105	93.81
660.309	99.81
660.512	88.81
660.716	89.81
660.919	97.81
661.123	92.81
661.326	81.81
661.53	90.81
661.733	77.81
661.936	78.81
662.14	80.81
662.343	90.81
662.546	84.81
662.75	100.81
662.953	78.81
663.156	84.81
663.36	98.81
663.563	88.81
663.766	75.81
663.969	86.81
664.173	79.81
664.376	77.81
664.579	80.81
664.782	85.81
664.985	81.81
665.188	72.81
665.391	91.81
665.594	94.81
665.797	75.81
666	89.81
666.203	72.81
666.406	84.81
666.609	80.81
666.812	81.81
667.015	77.81
667.218	82.81
667.421	73.81
667.624	64.81
667.827	82.81
668.03	76.81
668.232	85.81
668.435	77.81
668.638	85.81
668.841	83.81
669.043	87.81
669.246	79.81
669.449	81.81
669.651	88.81
669.854	91.81
670.057	76.81
670.259	99.81
670.462	78.81
670.665	86.81
670.867	74.81
671.07	86.81
671.272	83.81
671.475	90.81
671.677	76.81
671.88	80.81
672.082	83.81
672.284	101.81
672.487	74.81
672.689	91.81
672.892	73.81
