Data from 1972.PennyLincolnUp.Lamp.En5.5.200Scan.071719.P1._HRD10591_15-29-54-844.txt Node
Date: Thu Jul 18 15:29:54 EDT 2019
User: cochatt
Spectrometer: HR+D1059
Trigger mode: 1
Integration Time (sec): 1.000000E-1
Scans to average: 1
Electric dark correction enabled: true
Nonlinearity correction enabled: false
Boxcar width: 0
XAxis mode: Wavelengths
Number of Pixels in Spectrum: 2048
>>>>>Begin Spectral Data<<<<<
223.165	-18.12
223.4	-18.12
223.635	-18.12
223.869	-16.12
224.104	-18.12
224.338	-19.12
224.573	-14.12
224.808	-11.12
225.042	-12.12
225.277	-4.12
225.511	-1.12
225.746	4.88
225.98	8.88
226.215	8.88
226.449	20.88
226.683	21.88
226.918	19.88
227.152	28.88
227.387	33.88
227.621	41.88
227.856	38.88
228.09	48.88
228.324	56.88
228.559	48.88
228.793	61.88
229.027	108.88
229.262	121.88
229.496	119.88
229.73	130.88
229.964	181.88
230.199	151.88
230.433	126.88
230.667	123.88
230.901	108.88
231.136	117.88
231.37	117.88
231.604	118.88
231.838	118.88
232.072	110.88
232.306	98.88
232.541	122.88
232.775	115.88
233.009	99.88
233.243	125.88
233.477	123.88
233.711	101.88
233.945	105.88
234.179	114.88
234.413	110.88
234.647	113.88
234.881	123.88
235.115	116.88
235.349	115.88
235.583	129.88
235.817	112.88
236.051	122.88
236.285	111.88
236.519	121.88
236.753	140.88
236.987	162.88
237.221	196.88
237.455	279.88
237.689	214.88
237.922	159.88
238.156	146.88
238.39	139.88
238.624	126.88
238.858	133.88
239.091	129.88
239.325	124.88
239.559	120.88
239.793	144.88
240.027	139.88
240.26	135.88
240.494	158.88
240.728	169.88
240.961	162.88
241.195	143.88
241.429	146.88
241.662	137.88
241.896	131.88
242.13	142.88
242.363	124.88
242.597	124.88
242.83	126.88
243.064	133.88
243.298	124.88
243.531	149.88
243.765	143.88
243.998	133.88
244.232	141.88
244.465	144.88
244.699	150.88
244.932	138.88
245.166	143.88
245.399	143.88
245.633	148.88
245.866	135.88
246.099	157.88
246.333	154.88
246.566	150.88
246.8	154.88
247.033	155.88
247.266	152.88
247.5	158.88
247.733	163.88
247.966	170.88
248.2	165.88
248.433	162.88
248.666	180.88
248.899	181.88
249.133	204.88
249.366	224.88
249.599	210.88
249.832	175.88
250.066	181.88
250.299	193.88
250.532	204.88
250.765	219.88
250.998	221.88
251.231	251.88
251.465	214.88
251.698	226.88
251.931	210.88
252.164	220.88
252.397	201.88
252.63	223.88
252.863	199.88
253.096	236.88
253.329	239.88
253.562	262.88
253.795	216.88
254.028	245.88
254.261	229.88
254.494	239.88
254.727	266.88
254.96	310.88
255.193	295.88
255.426	270.88
255.659	234.88
255.892	256.88
256.124	266.88
256.357	255.88
256.59	235.88
256.823	232.88
257.056	211.88
257.289	239.88
257.521	229.88
257.754	222.88
257.987	223.88
258.22	232.88
258.452	211.88
258.685	204.88
258.918	200.88
259.151	225.88
259.383	235.88
259.616	228.88
259.849	226.88
260.081	250.88
260.314	262.88
260.547	289.88
260.779	269.88
261.012	271.88
261.244	231.88
261.477	243.88
261.71	230.88
261.942	257.88
262.175	245.88
262.407	266.88
262.64	217.88
262.872	226.88
263.105	232.88
263.337	221.88
263.57	221.88
263.802	228.88
264.035	222.88
264.267	203.88
264.499	217.88
264.732	216.88
264.964	222.88
265.197	220.88
265.429	213.88
265.661	219.88
265.894	219.88
266.126	214.88
266.358	225.88
266.591	215.88
266.823	223.88
267.055	227.88
267.287	215.88
267.52	225.88
267.752	214.88
267.984	233.88
268.216	215.88
268.448	235.88
268.681	259.88
268.913	256.88
269.145	272.88
269.377	295.88
269.609	305.88
269.841	303.88
270.073	289.88
270.306	300.88
270.538	341.88
270.77	344.88
271.002	315.88
271.234	292.88
271.466	321.88
271.698	338.88
271.93	346.88
272.162	343.88
272.394	331.88
272.626	318.88
272.858	293.88
273.09	299.88
273.322	285.88
273.553	305.88
273.785	299.88
274.017	286.88
274.249	290.88
274.481	267.88
274.713	274.88
274.945	280.88
275.176	255.88
275.408	270.88
275.64	257.88
275.872	244.88
276.104	273.88
276.335	276.88
276.567	284.88
276.799	310.88
277.031	331.88
277.262	342.88
277.494	329.88
277.726	317.88
277.957	314.88
278.189	303.88
278.421	283.88
278.652	286.88
278.884	285.88
279.115	280.88
279.347	283.88
279.579	266.88
279.81	273.88
280.042	287.88
280.273	270.88
280.505	291.88
280.736	273.88
280.968	261.88
281.199	263.88
281.431	271.88
281.662	249.88
281.894	262.88
282.125	295.88
282.356	282.88
282.588	308.88
282.819	338.88
283.051	277.88
283.282	273.88
283.513	281.88
283.745	288.88
283.976	286.88
284.207	288.88
284.439	269.88
284.67	293.88
284.901	276.88
285.132	287.88
285.364	272.88
285.595	278.88
285.826	280.88
286.057	292.88
286.288	272.88
286.52	287.88
286.751	261.88
286.982	267.88
287.213	288.88
287.444	293.88
287.675	280.88
287.906	301.88
288.138	300.88
288.369	318.88
288.6	293.88
288.831	299.88
289.062	295.88
289.293	291.88
289.524	283.88
289.755	314.88
289.986	277.88
290.217	293.88
290.448	294.88
290.679	278.88
290.91	277.88
291.141	285.88
291.371	285.88
291.602	286.88
291.833	280.88
292.064	296.88
292.295	286.88
292.526	266.88
292.757	311.88
292.987	292.88
293.218	265.88
293.449	297.88
293.68	262.88
293.91	293.88
294.141	297.88
294.372	295.88
294.603	306.88
294.833	290.88
295.064	289.88
295.295	294.88
295.525	297.88
295.756	296.88
295.987	293.88
296.217	312.88
296.448	336.88
296.679	305.88
296.909	295.88
297.14	288.88
297.37	284.88
297.601	299.88
297.831	301.88
298.062	286.88
298.292	285.88
298.523	284.88
298.753	298.88
298.984	297.88
299.214	292.88
299.445	300.88
299.675	296.88
299.905	298.88
300.136	291.88
300.366	293.88
300.597	336.88
300.827	301.88
301.057	305.88
301.288	316.88
301.518	331.88
301.748	313.88
301.979	323.88
302.209	328.88
302.439	318.88
302.669	325.88
302.9	317.88
303.13	322.88
303.36	324.88
303.59	341.88
303.82	347.88
304.051	342.88
304.281	318.88
304.511	323.88
304.741	330.88
304.971	316.88
305.201	313.88
305.431	309.88
305.661	308.88
305.891	297.88
306.121	322.88
306.352	331.88
306.582	331.88
306.812	334.88
307.042	300.88
307.272	333.88
307.502	314.88
307.731	347.88
307.961	345.88
308.191	318.88
308.421	335.88
308.651	315.88
308.881	330.88
309.111	347.88
309.341	348.88
309.571	352.88
309.8	364.88
310.03	379.88
310.26	376.88
310.49	393.88
310.72	391.88
310.949	407.88
311.179	433.88
311.409	399.88
311.639	387.88
311.868	389.88
312.098	386.88
312.328	396.88
312.557	418.88
312.787	420.88
313.017	410.88
313.246	403.88
313.476	403.88
313.706	399.88
313.935	390.88
314.165	408.88
314.394	417.88
314.624	414.88
314.853	378.88
315.083	388.88
315.312	376.88
315.542	379.88
315.771	382.88
316.001	351.88
316.23	371.88
316.46	373.88
316.689	381.88
316.919	381.88
317.148	392.88
317.377	402.88
317.607	402.88
317.836	399.88
318.065	385.88
318.295	376.88
318.524	378.88
318.753	382.88
318.983	388.88
319.212	360.88
319.441	412.88
319.67	381.88
319.9	384.88
320.129	388.88
320.358	389.88
320.587	392.88
320.816	392.88
321.046	406.88
321.275	400.88
321.504	417.88
321.733	414.88
321.962	414.88
322.191	430.88
322.42	452.88
322.649	474.88
322.878	493.88
323.108	503.88
323.337	520.88
323.566	563.88
323.795	606.88
324.024	681.88
324.253	839.88
324.482	1247.88
324.71	1923.88
324.939	2889.88
325.168	2457.88
325.397	1213.88
325.626	795.88
325.855	636.88
326.084	591.88
326.313	562.88
326.542	571.88
326.77	641.88
326.999	735.88
327.228	1088.88
327.457	1671.88
327.686	2111.88
327.914	1404.88
328.143	877.88
328.372	753.88
328.6	711.88
328.829	667.88
329.058	651.88
329.287	678.88
329.515	642.88
329.744	567.88
329.972	597.88
330.201	607.88
330.43	642.88
330.658	679.88
330.887	693.88
331.115	669.88
331.344	571.88
331.572	544.88
331.801	530.88
332.03	515.88
332.258	494.88
332.486	467.88
332.715	453.88
332.943	445.88
333.172	459.88
333.4	462.88
333.629	480.88
333.857	481.88
334.085	511.88
334.314	531.88
334.542	588.88
334.771	580.88
334.999	521.88
335.227	495.88
335.455	461.88
335.684	445.88
335.912	451.88
336.14	437.88
336.369	442.88
336.597	443.88
336.825	473.88
337.053	446.88
337.281	457.88
337.51	443.88
337.738	433.88
337.966	429.88
338.194	441.88
338.422	439.88
338.65	410.88
338.878	431.88
339.106	418.88
339.334	422.88
339.562	417.88
339.79	428.88
340.018	434.88
340.246	430.88
340.474	414.88
340.702	418.88
340.93	408.88
341.158	422.88
341.386	425.88
341.614	409.88
341.842	435.88
342.07	400.88
342.298	429.88
342.526	387.88
342.754	422.88
342.981	389.88
343.209	366.88
343.437	413.88
343.665	395.88
343.893	413.88
344.12	413.88
344.348	435.88
344.576	414.88
344.804	435.88
345.031	419.88
345.259	439.88
345.487	450.88
345.714	420.88
345.942	411.88
346.17	424.88
346.397	399.88
346.625	423.88
346.853	414.88
347.08	434.88
347.308	413.88
347.535	417.88
347.763	429.88
347.99	442.88
348.218	446.88
348.445	434.88
348.673	449.88
348.9	418.88
349.128	404.88
349.355	409.88
349.583	398.88
349.81	390.88
350.037	391.88
350.265	393.88
350.492	391.88
350.72	397.88
350.947	413.88
351.174	431.88
351.402	427.88
351.629	429.88
351.856	396.88
352.083	428.88
352.311	410.88
352.538	410.88
352.765	414.88
352.992	421.88
353.22	413.88
353.447	398.88
353.674	389.88
353.901	406.88
354.128	377.88
354.355	361.88
354.583	368.88
354.81	376.88
355.037	384.88
355.264	352.88
355.491	377.88
355.718	371.88
355.945	386.88
356.172	362.88
356.399	362.88
356.626	355.88
356.853	367.88
357.08	356.88
357.307	373.88
357.534	359.88
357.761	365.88
357.988	376.88
358.215	362.88
358.441	366.88
358.668	375.88
358.895	380.88
359.122	397.88
359.349	405.88
359.576	408.88
359.802	438.88
360.029	481.88
360.256	471.88
360.483	450.88
360.709	398.88
360.936	422.88
361.163	416.88
361.39	425.88
361.616	435.88
361.843	389.88
362.07	415.88
362.296	421.88
362.523	412.88
362.749	420.88
362.976	386.88
363.203	398.88
363.429	370.88
363.656	386.88
363.882	367.88
364.109	391.88
364.335	386.88
364.562	390.88
364.788	380.88
365.015	377.88
365.241	379.88
365.468	383.88
365.694	400.88
365.92	383.88
366.147	406.88
366.373	383.88
366.599	382.88
366.826	373.88
367.052	373.88
367.278	370.88
367.505	369.88
367.731	396.88
367.957	367.88
368.184	370.88
368.41	387.88
368.636	400.88
368.862	409.88
369.089	369.88
369.315	378.88
369.541	370.88
369.767	385.88
369.993	362.88
370.219	386.88
370.445	375.88
370.672	386.88
370.898	366.88
371.124	385.88
371.35	348.88
371.576	368.88
371.802	361.88
372.028	373.88
372.254	371.88
372.48	357.88
372.706	367.88
372.932	375.88
373.158	369.88
373.384	377.88
373.61	375.88
373.835	351.88
374.061	360.88
374.287	366.88
374.513	356.88
374.739	365.88
374.965	386.88
375.191	357.88
375.416	362.88
375.642	370.88
375.868	380.88
376.094	393.88
376.319	349.88
376.545	365.88
376.771	368.88
376.997	371.88
377.222	364.88
377.448	363.88
377.674	369.88
377.899	355.88
378.125	368.88
378.35	359.88
378.576	345.88
378.802	357.88
379.027	357.88
379.253	378.88
379.478	357.88
379.704	376.88
379.929	366.88
380.155	364.88
380.38	367.88
380.606	353.88
380.831	359.88
381.057	369.88
381.282	360.88
381.507	379.88
381.733	373.88
381.958	362.88
382.184	369.88
382.409	369.88
382.634	371.88
382.86	382.88
383.085	359.88
383.31	374.88
383.535	355.88
383.761	367.88
383.986	379.88
384.211	379.88
384.436	363.88
384.662	364.88
384.887	396.88
385.112	387.88
385.337	381.88
385.562	356.88
385.787	385.88
386.013	403.88
386.238	397.88
386.463	389.88
386.688	392.88
386.913	385.88
387.138	392.88
387.363	398.88
387.588	372.88
387.813	363.88
388.038	375.88
388.263	392.88
388.488	403.88
388.713	393.88
388.938	379.88
389.163	389.88
389.387	405.88
389.612	387.88
389.837	371.88
390.062	375.88
390.287	366.88
390.512	381.88
390.736	383.88
390.961	379.88
391.186	382.88
391.411	378.88
391.636	396.88
391.86	381.88
392.085	401.88
392.31	385.88
392.534	405.88
392.759	404.88
392.984	394.88
393.208	382.88
393.433	404.88
393.658	383.88
393.882	387.88
394.107	396.88
394.331	405.88
394.556	400.88
394.78	391.88
395.005	388.88
395.229	378.88
395.454	397.88
395.678	404.88
395.903	420.88
396.127	446.88
396.352	433.88
396.576	405.88
396.801	394.88
397.025	392.88
397.249	418.88
397.474	399.88
397.698	404.88
397.922	425.88
398.147	421.88
398.371	453.88
398.595	436.88
398.82	433.88
399.044	451.88
399.268	457.88
399.492	460.88
399.717	478.88
399.941	482.88
400.165	523.88
400.389	558.88
400.613	502.88
400.837	460.88
401.062	445.88
401.286	441.88
401.51	445.88
401.734	453.88
401.958	454.88
402.182	454.88
402.406	475.88
402.63	464.88
402.854	463.88
403.078	458.88
403.302	436.88
403.526	466.88
403.75	469.88
403.974	436.88
404.198	467.88
404.422	464.88
404.645	450.88
404.869	459.88
405.093	518.88
405.317	556.88
405.541	595.88
405.765	543.88
405.988	485.88
406.212	498.88
406.436	525.88
406.66	535.88
406.883	517.88
407.107	516.88
407.331	552.88
407.555	651.88
407.778	634.88
408.002	562.88
408.226	534.88
408.449	513.88
408.673	516.88
408.896	526.88
409.12	632.88
409.344	577.88
409.567	498.88
409.791	466.88
410.014	444.88
410.238	452.88
410.461	465.88
410.685	477.88
410.908	481.88
411.132	520.88
411.355	555.88
411.578	543.88
411.802	478.88
412.025	459.88
412.249	475.88
412.472	511.88
412.695	542.88
412.919	531.88
413.142	483.88
413.365	471.88
413.589	441.88
413.812	428.88
414.035	431.88
414.258	447.88
414.482	436.88
414.705	427.88
414.928	414.88
415.151	429.88
415.374	425.88
415.597	408.88
415.821	423.88
416.044	409.88
416.267	426.88
416.49	419.88
416.713	439.88
416.936	454.88
417.159	439.88
417.382	440.88
417.605	451.88
417.828	455.88
418.051	456.88
418.274	459.88
418.497	422.88
418.72	432.88
418.943	431.88
419.166	441.88
419.389	468.88
419.611	462.88
419.834	454.88
420.057	461.88
420.28	471.88
420.503	465.88
420.726	453.88
420.948	480.88
421.171	528.88
421.394	561.88
421.617	510.88
421.839	455.88
422.062	474.88
422.285	479.88
422.507	519.88
422.73	645.88
422.953	606.88
423.175	528.88
423.398	497.88
423.621	503.88
423.843	521.88
424.066	503.88
424.288	495.88
424.511	540.88
424.733	573.88
424.956	679.88
425.178	660.88
425.401	643.88
425.623	683.88
425.846	579.88
426.068	548.88
426.291	508.88
426.513	499.88
426.735	547.88
426.958	579.88
427.18	683.88
427.402	779.88
427.625	873.88
427.847	796.88
428.069	695.88
428.292	591.88
428.514	533.88
428.736	515.88
428.958	499.88
429.181	488.88
429.403	475.88
429.625	487.88
429.847	509.88
430.069	603.88
430.292	592.88
430.514	515.88
430.736	476.88
430.958	473.88
431.18	445.88
431.402	454.88
431.624	445.88
431.846	453.88
432.068	441.88
432.29	455.88
432.512	432.88
432.734	446.88
432.956	450.88
433.178	448.88
433.4	467.88
433.622	463.88
433.844	442.88
434.066	447.88
434.287	436.88
434.509	453.88
434.731	463.88
434.953	449.88
435.175	470.88
435.397	511.88
435.618	528.88
435.84	570.88
436.062	683.88
436.284	743.88
436.505	613.88
436.727	562.88
436.949	506.88
437.17	483.88
437.392	470.88
437.614	486.88
437.835	529.88
438.057	668.88
438.278	773.88
438.5	764.88
438.721	829.88
438.943	774.88
439.165	635.88
439.386	585.88
439.608	547.88
439.829	553.88
440.05	600.88
440.272	639.88
440.493	607.88
440.715	545.88
440.936	522.88
441.158	481.88
441.379	488.88
441.6	511.88
441.822	520.88
442.043	554.88
442.264	641.88
442.486	708.88
442.707	608.88
442.928	537.88
443.149	532.88
443.371	563.88
443.592	593.88
443.813	723.88
444.034	783.88
444.255	625.88
444.476	533.88
444.698	515.88
444.919	493.88
445.14	617.88
445.361	590.88
445.582	569.88
445.803	660.88
446.024	763.88
446.245	793.88
446.466	732.88
446.687	593.88
446.908	538.88
447.129	498.88
447.35	466.88
447.571	476.88
447.792	494.88
448.013	474.88
448.234	497.88
448.455	577.88
448.675	696.88
448.896	794.88
449.117	687.88
449.338	633.88
449.559	729.88
449.779	856.88
450	697.88
450.221	543.88
450.442	504.88
450.662	501.88
450.883	515.88
451.104	516.88
451.324	498.88
451.545	471.88
451.766	440.88
451.986	426.88
452.207	431.88
452.428	437.88
452.648	436.88
452.869	438.88
453.089	458.88
453.31	445.88
453.53	466.88
453.751	430.88
453.971	432.88
454.192	491.88
454.412	445.88
454.633	457.88
454.853	432.88
455.073	428.88
455.294	476.88
455.514	538.88
455.734	537.88
455.955	432.88
456.175	398.88
456.395	415.88
456.616	397.88
456.836	391.88
457.056	400.88
457.276	375.88
457.497	383.88
457.717	384.88
457.937	422.88
458.157	407.88
458.377	422.88
458.598	428.88
458.818	521.88
459.038	619.88
459.258	637.88
459.478	499.88
459.698	460.88
459.918	433.88
460.138	439.88
460.358	423.88
460.578	445.88
460.798	438.88
461.018	455.88
461.238	426.88
461.458	454.88
461.678	430.88
461.898	431.88
462.118	440.88
462.338	429.88
462.558	432.88
462.777	441.88
462.997	463.88
463.217	428.88
463.437	451.88
463.657	471.88
463.876	456.88
464.096	452.88
464.316	457.88
464.536	462.88
464.755	453.88
464.975	487.88
465.195	534.88
465.414	647.88
465.634	551.88
465.854	514.88
466.073	492.88
466.293	465.88
466.512	457.88
466.732	446.88
466.951	437.88
467.171	436.88
467.391	434.88
467.61	443.88
467.829	470.88
468.049	455.88
468.268	434.88
468.488	452.88
468.707	400.88
468.927	422.88
469.146	436.88
469.365	430.88
469.585	393.88
469.804	423.88
470.023	474.88
470.243	449.88
470.462	452.88
470.681	475.88
470.901	452.88
471.12	443.88
471.339	435.88
471.558	445.88
471.777	450.88
471.997	444.88
472.216	438.88
472.435	500.88
472.654	463.88
472.873	451.88
473.092	449.88
473.311	442.88
473.53	454.88
473.749	449.88
473.968	502.88
474.187	628.88
474.406	651.88
474.625	535.88
474.844	476.88
475.063	431.88
475.282	454.88
475.501	469.88
475.72	451.88
475.939	469.88
476.158	446.88
476.377	462.88
476.596	452.88
476.814	463.88
477.033	455.88
477.252	456.88
477.471	460.88
477.69	467.88
477.908	452.88
478.127	454.88
478.346	461.88
478.564	470.88
478.783	469.88
479.002	482.88
479.22	481.88
479.439	521.88
479.658	524.88
479.876	539.88
480.095	539.88
480.313	577.88
480.532	557.88
480.751	515.88
480.969	557.88
481.188	645.88
481.406	743.88
481.624	599.88
481.843	555.88
482.061	541.88
482.28	525.88
482.498	518.88
482.717	510.88
482.935	524.88
483.153	542.88
483.372	517.88
483.59	513.88
483.808	506.88
484.027	517.88
484.245	523.88
484.463	507.88
484.681	514.88
484.9	554.88
485.118	539.88
485.336	509.88
485.554	525.88
485.772	529.88
485.99	527.88
486.209	532.88
486.427	547.88
486.645	561.88
486.863	589.88
487.081	581.88
487.299	584.88
487.517	550.88
487.735	573.88
487.953	578.88
488.171	569.88
488.389	541.88
488.607	567.88
488.825	569.88
489.043	553.88
489.261	589.88
489.479	571.88
489.696	551.88
489.914	582.88
490.132	572.88
490.35	598.88
490.568	585.88
490.786	589.88
491.003	636.88
491.221	627.88
491.439	626.88
491.657	637.88
491.874	653.88
492.092	665.88
492.31	623.88
492.527	651.88
492.745	647.88
492.963	672.88
493.18	649.88
493.398	658.88
493.615	669.88
493.833	657.88
494.05	652.88
494.268	657.88
494.485	660.88
494.703	652.88
494.92	677.88
495.138	662.88
495.355	683.88
495.573	675.88
495.79	685.88
496.008	659.88
496.225	681.88
496.442	676.88
496.66	673.88
496.877	658.88
497.094	643.88
497.312	697.88
497.529	690.88
497.746	691.88
497.963	678.88
498.181	718.88
498.398	697.88
498.615	688.88
498.832	715.88
499.049	728.88
499.267	706.88
499.484	761.88
499.701	743.88
499.918	769.88
500.135	806.88
500.352	805.88
500.569	819.88
500.786	805.88
501.003	814.88
501.22	801.88
501.437	807.88
501.654	796.88
501.871	838.88
502.088	795.88
502.305	749.88
502.522	734.88
502.739	719.88
502.956	718.88
503.172	693.88
503.389	696.88
503.606	698.88
503.823	710.88
504.04	698.88
504.256	658.88
504.473	679.88
504.69	665.88
504.907	669.88
505.123	640.88
505.34	626.88
505.557	661.88
505.773	654.88
505.99	643.88
506.207	631.88
506.423	655.88
506.64	644.88
506.856	651.88
507.073	643.88
507.289	645.88
507.506	650.88
507.722	675.88
507.939	675.88
508.155	643.88
508.372	637.88
508.588	604.88
508.805	622.88
509.021	643.88
509.238	655.88
509.454	646.88
509.67	649.88
509.887	629.88
510.103	645.88
510.319	649.88
510.536	770.88
510.752	1351.88
510.968	1065.88
511.184	669.88
511.401	622.88
511.617	621.88
511.833	611.88
512.049	601.88
512.265	607.88
512.481	599.88
512.698	601.88
512.914	598.88
513.13	578.88
513.346	607.88
513.562	595.88
513.778	595.88
513.994	606.88
514.21	626.88
514.426	636.88
514.642	711.88
514.858	755.88
515.074	787.88
515.29	974.88
515.506	1494.88
515.721	1167.88
515.937	769.88
516.153	697.88
516.369	663.88
516.585	634.88
516.801	611.88
517.016	601.88
517.232	595.88
517.448	610.88
517.664	623.88
517.879	607.88
518.095	594.88
518.311	594.88
518.527	585.88
518.742	605.88
518.958	594.88
519.173	569.88
519.389	599.88
519.605	587.88
519.82	621.88
520.036	638.88
520.251	648.88
520.467	659.88
520.682	669.88
520.898	697.88
521.113	726.88
521.329	763.88
521.544	887.88
521.76	1194.88
521.975	2073.88
522.19	1966.88
522.406	1051.88
522.621	742.88
522.836	657.88
523.052	618.88
523.267	582.88
523.482	577.88
523.698	555.88
523.913	561.88
524.128	564.88
524.343	539.88
524.559	533.88
524.774	534.88
524.989	504.88
525.204	509.88
525.419	538.88
525.634	539.88
525.849	497.88
526.064	490.88
526.28	502.88
526.495	473.88
526.71	474.88
526.925	467.88
527.14	468.88
527.355	476.88
527.57	477.88
527.785	480.88
527.999	465.88
528.214	466.88
528.429	470.88
528.644	485.88
528.859	478.88
529.074	486.88
529.289	500.88
529.503	619.88
529.718	585.88
529.933	517.88
530.148	501.88
530.363	513.88
530.577	477.88
530.792	459.88
531.007	479.88
531.221	456.88
531.436	459.88
531.651	457.88
531.865	460.88
532.08	442.88
532.295	453.88
532.509	437.88
532.724	428.88
532.938	437.88
533.153	444.88
533.367	444.88
533.582	457.88
533.796	437.88
534.011	443.88
534.225	445.88
534.44	442.88
534.654	442.88
534.868	439.88
535.083	443.88
535.297	426.88
535.511	452.88
535.726	460.88
535.94	458.88
536.154	457.88
536.369	451.88
536.583	450.88
536.797	431.88
537.011	439.88
537.225	427.88
537.44	447.88
537.654	452.88
537.868	412.88
538.082	427.88
538.296	437.88
538.51	415.88
538.724	425.88
538.938	430.88
539.153	438.88
539.367	462.88
539.581	468.88
539.795	443.88
540.009	434.88
540.222	412.88
540.436	418.88
540.65	441.88
540.864	426.88
541.078	444.88
541.292	432.88
541.506	425.88
541.72	435.88
541.934	429.88
542.147	420.88
542.361	445.88
542.575	430.88
542.789	405.88
543.002	427.88
543.216	430.88
543.43	435.88
543.644	454.88
543.857	416.88
544.071	445.88
544.285	429.88
544.498	409.88
544.712	407.88
544.925	423.88
545.139	435.88
545.352	390.88
545.566	418.88
545.779	406.88
545.993	412.88
546.206	429.88
546.42	404.88
546.633	427.88
546.847	421.88
547.06	399.88
547.274	413.88
547.487	418.88
547.7	399.88
547.914	399.88
548.127	421.88
548.34	402.88
548.554	405.88
548.767	409.88
548.98	398.88
549.193	401.88
549.407	381.88
549.62	390.88
549.833	386.88
550.046	407.88
550.259	409.88
550.473	379.88
550.686	377.88
550.899	397.88
551.112	380.88
551.325	409.88
551.538	391.88
551.751	389.88
551.964	383.88
552.177	405.88
552.39	392.88
552.603	395.88
552.816	382.88
553.029	379.88
553.242	397.88
553.455	387.88
553.667	419.88
553.88	436.88
554.093	411.88
554.306	397.88
554.519	392.88
554.732	394.88
554.944	392.88
555.157	382.88
555.37	386.88
555.583	414.88
555.795	374.88
556.008	391.88
556.221	365.88
556.433	376.88
556.646	392.88
556.859	355.88
557.071	356.88
557.284	372.88
557.496	360.88
557.709	363.88
557.921	369.88
558.134	362.88
558.346	366.88
558.559	374.88
558.771	369.88
558.984	344.88
559.196	356.88
559.409	339.88
559.621	349.88
559.833	355.88
560.046	377.88
560.258	354.88
560.47	348.88
560.683	360.88
560.895	347.88
561.107	357.88
561.32	361.88
561.532	341.88
561.744	359.88
561.956	350.88
562.168	361.88
562.381	356.88
562.593	337.88
562.805	355.88
563.017	358.88
563.229	368.88
563.441	362.88
563.653	358.88
563.865	348.88
564.077	356.88
564.289	346.88
564.501	366.88
564.713	366.88
564.925	365.88
565.137	394.88
565.349	373.88
565.561	362.88
565.773	379.88
565.985	388.88
566.197	398.88
566.408	373.88
566.62	398.88
566.832	408.88
567.044	417.88
567.255	401.88
567.467	406.88
567.679	402.88
567.891	406.88
568.102	411.88
568.314	410.88
568.526	393.88
568.737	393.88
568.949	374.88
569.161	364.88
569.372	358.88
569.584	357.88
569.795	351.88
570.007	367.88
570.218	413.88
570.43	405.88
570.641	358.88
570.853	354.88
571.064	342.88
571.276	335.88
571.487	329.88
571.698	340.88
571.91	340.88
572.121	323.88
572.333	317.88
572.544	330.88
572.755	330.88
572.966	323.88
573.178	326.88
573.389	329.88
573.6	318.88
573.811	294.88
574.023	314.88
574.234	309.88
574.445	312.88
574.656	291.88
574.867	309.88
575.078	300.88
575.289	297.88
575.501	326.88
575.712	303.88
575.923	320.88
576.134	308.88
576.345	293.88
576.556	332.88
576.767	328.88
576.978	309.88
577.188	289.88
577.399	294.88
577.61	320.88
577.821	306.88
578.032	315.88
578.243	354.88
578.454	618.88
578.665	450.88
578.875	303.88
579.086	295.88
579.297	307.88
579.508	285.88
579.718	289.88
579.929	297.88
580.14	281.88
580.35	283.88
580.561	301.88
580.772	295.88
580.982	277.88
581.193	286.88
581.403	293.88
581.614	274.88
581.825	293.88
582.035	283.88
582.246	279.88
582.456	283.88
582.667	286.88
582.877	285.88
583.087	284.88
583.298	276.88
583.508	287.88
583.719	296.88
583.929	289.88
584.139	267.88
584.35	274.88
584.56	266.88
584.77	287.88
584.981	285.88
585.191	270.88
585.401	271.88
585.611	260.88
585.821	274.88
586.032	290.88
586.242	289.88
586.452	277.88
586.662	273.88
586.872	271.88
587.082	277.88
587.292	267.88
587.502	270.88
587.713	280.88
587.923	293.88
588.133	269.88
588.343	263.88
588.553	257.88
588.762	264.88
588.972	274.88
589.182	269.88
589.392	271.88
589.602	259.88
589.812	255.88
590.022	276.88
590.232	251.88
590.441	263.88
590.651	273.88
590.861	275.88
591.071	279.88
591.281	286.88
591.49	284.88
591.7	263.88
591.91	284.88
592.119	283.88
592.329	251.88
592.539	286.88
592.748	263.88
592.958	290.88
593.167	292.88
593.377	285.88
593.587	301.88
593.796	273.88
594.006	280.88
594.215	259.88
594.424	277.88
594.634	261.88
594.843	280.88
595.053	277.88
595.262	264.88
595.472	277.88
595.681	277.88
595.89	261.88
596.1	272.88
596.309	260.88
596.518	252.88
596.727	264.88
596.937	268.88
597.146	259.88
597.355	237.88
597.564	249.88
597.774	248.88
597.983	255.88
598.192	253.88
598.401	253.88
598.61	261.88
598.819	263.88
599.028	249.88
599.237	259.88
599.446	244.88
599.655	241.88
599.864	243.88
600.073	260.88
600.282	245.88
600.491	230.88
600.7	247.88
600.909	233.88
601.118	232.88
601.327	250.88
601.536	241.88
601.745	227.88
601.953	228.88
602.162	246.88
602.371	251.88
602.58	245.88
602.789	241.88
602.997	230.88
603.206	248.88
603.415	227.88
603.623	221.88
603.832	230.88
604.041	231.88
604.249	244.88
604.458	236.88
604.666	246.88
604.875	234.88
605.084	234.88
605.292	240.88
605.501	218.88
605.709	233.88
605.918	216.88
606.126	230.88
606.334	219.88
606.543	239.88
606.751	245.88
606.96	232.88
607.168	221.88
607.376	227.88
607.585	240.88
607.793	221.88
608.001	226.88
608.21	230.88
608.418	230.88
608.626	239.88
608.834	229.88
609.043	216.88
609.251	217.88
609.459	224.88
609.667	226.88
609.875	222.88
610.083	208.88
610.291	229.88
610.499	232.88
610.707	221.88
610.916	223.88
611.124	245.88
611.332	224.88
611.54	231.88
611.748	226.88
611.955	221.88
612.163	236.88
612.371	243.88
612.579	226.88
612.787	207.88
612.995	239.88
613.203	230.88
613.411	224.88
613.618	222.88
613.826	219.88
614.034	223.88
614.242	218.88
614.449	218.88
614.657	218.88
614.865	205.88
615.072	227.88
615.28	217.88
615.488	213.88
615.695	218.88
615.903	219.88
616.111	218.88
616.318	244.88
616.526	223.88
616.733	220.88
616.941	198.88
617.148	218.88
617.356	220.88
617.563	203.88
617.771	206.88
617.978	208.88
618.185	209.88
618.393	209.88
618.6	215.88
618.807	212.88
619.015	218.88
619.222	211.88
619.429	217.88
619.637	220.88
619.844	227.88
620.051	215.88
620.258	207.88
620.466	197.88
620.673	194.88
620.88	221.88
621.087	204.88
621.294	224.88
621.501	220.88
621.708	194.88
621.915	195.88
622.122	188.88
622.329	230.88
622.536	209.88
622.743	196.88
622.95	191.88
623.157	198.88
623.364	217.88
623.571	209.88
623.778	194.88
623.985	202.88
624.192	197.88
624.399	193.88
624.606	214.88
624.812	189.88
625.019	199.88
625.226	214.88
625.433	191.88
625.639	186.88
625.846	197.88
626.053	202.88
626.259	187.88
626.466	194.88
626.673	185.88
626.879	203.88
627.086	204.88
627.293	190.88
627.499	185.88
627.706	196.88
627.912	191.88
628.119	191.88
628.325	203.88
628.532	204.88
628.738	177.88
628.945	170.88
629.151	192.88
629.357	178.88
629.564	183.88
629.77	193.88
629.976	182.88
630.183	185.88
630.389	177.88
630.595	186.88
630.802	184.88
631.008	179.88
631.214	159.88
631.42	174.88
631.627	173.88
631.833	186.88
632.039	171.88
632.245	170.88
632.451	167.88
632.657	185.88
632.863	193.88
633.069	179.88
633.275	171.88
633.481	171.88
633.688	166.88
633.893	172.88
634.099	184.88
634.305	150.88
634.511	169.88
634.717	171.88
634.923	179.88
635.129	182.88
635.335	174.88
635.541	183.88
635.747	166.88
635.952	172.88
636.158	166.88
636.364	177.88
636.57	186.88
636.775	187.88
636.981	166.88
637.187	182.88
637.392	168.88
637.598	169.88
637.804	174.88
638.009	178.88
638.215	189.88
638.421	168.88
638.626	169.88
638.832	173.88
639.037	160.88
639.243	159.88
639.448	161.88
639.654	166.88
639.859	160.88
640.065	158.88
640.27	174.88
640.475	166.88
640.681	181.88
640.886	163.88
641.091	174.88
641.297	174.88
641.502	152.88
641.707	170.88
641.913	162.88
642.118	166.88
642.323	163.88
642.528	166.88
642.733	164.88
642.939	171.88
643.144	166.88
643.349	171.88
643.554	164.88
643.759	161.88
643.964	149.88
644.169	163.88
644.374	171.88
644.579	163.88
644.784	170.88
644.989	166.88
645.194	156.88
645.399	166.88
645.604	153.88
645.809	162.88
646.014	166.88
646.219	138.88
646.423	156.88
646.628	153.88
646.833	161.88
647.038	157.88
647.243	164.88
647.447	169.88
647.652	158.88
647.857	157.88
648.062	164.88
648.266	164.88
648.471	151.88
648.676	164.88
648.88	149.88
649.085	168.88
649.289	169.88
649.494	177.88
649.698	183.88
649.903	191.88
650.107	183.88
650.312	148.88
650.516	151.88
650.721	157.88
650.925	147.88
651.13	160.88
651.334	136.88
651.539	158.88
651.743	149.88
651.947	137.88
652.152	139.88
652.356	151.88
652.56	157.88
652.764	126.88
652.969	147.88
653.173	145.88
653.377	137.88
653.581	139.88
653.785	135.88
653.99	132.88
654.194	130.88
654.398	122.88
654.602	129.88
654.806	131.88
655.01	137.88
655.214	137.88
655.418	132.88
655.622	133.88
655.826	129.88
656.03	128.88
656.234	133.88
656.438	122.88
656.642	121.88
656.846	117.88
657.049	130.88
657.253	113.88
657.457	129.88
657.661	114.88
657.865	119.88
658.068	99.88
658.272	125.88
658.476	110.88
658.68	120.88
658.883	107.88
659.087	94.88
659.291	107.88
659.494	107.88
659.698	115.88
659.901	97.88
660.105	85.88
660.309	98.88
660.512	101.88
660.716	91.88
660.919	96.88
661.123	94.88
661.326	92.88
661.53	91.88
661.733	86.88
661.936	90.88
662.14	81.88
662.343	84.88
662.546	92.88
662.75	83.88
662.953	68.88
663.156	82.88
663.36	83.88
663.563	87.88
663.766	90.88
663.969	105.88
664.173	95.88
664.376	98.88
664.579	79.88
664.782	86.88
664.985	79.88
665.188	79.88
665.391	74.88
665.594	85.88
665.797	82.88
666	95.88
666.203	71.88
666.406	85.88
666.609	70.88
666.812	79.88
667.015	78.88
667.218	78.88
667.421	78.88
667.624	86.88
667.827	82.88
668.03	75.88
668.232	74.88
668.435	75.88
668.638	71.88
668.841	78.88
669.043	85.88
669.246	75.88
669.449	82.88
669.651	83.88
669.854	77.88
670.057	81.88
670.259	81.88
670.462	82.88
670.665	77.88
670.867	92.88
671.07	81.88
671.272	85.88
671.475	76.88
671.677	86.88
671.88	77.88
672.082	74.88
672.284	98.88
672.487	86.88
672.689	80.88
672.892	76.88
