Data from 1972.PennyLincolnUp.Lamp.En5.5.200Scan.071719.P1._HRD10591_15-27-24-844.txt Node
Date: Thu Jul 18 15:27:24 EDT 2019
User: cochatt
Spectrometer: HR+D1059
Trigger mode: 1
Integration Time (sec): 1.000000E-1
Scans to average: 1
Electric dark correction enabled: true
Nonlinearity correction enabled: false
Boxcar width: 0
XAxis mode: Wavelengths
Number of Pixels in Spectrum: 2048
>>>>>Begin Spectral Data<<<<<
223.165	-13.94
223.4	-13.94
223.635	-13.94
223.869	-25.94
224.104	-18.94
224.338	-8.94
224.573	-27.94
224.808	-19.94
225.042	4.06
225.277	-9.94
225.511	0.06
225.746	6.06
225.98	11.06
226.215	19.06
226.449	10.06
226.683	15.06
226.918	31.06
227.152	29.06
227.387	24.06
227.621	29.06
227.856	39.06
228.09	46.06
228.324	58.06
228.559	63.06
228.793	71.06
229.027	101.06
229.262	93.06
229.496	105.06
229.73	128.06
229.964	155.06
230.199	133.06
230.433	97.06
230.667	115.06
230.901	102.06
231.136	103.06
231.37	105.06
231.604	107.06
231.838	108.06
232.072	100.06
232.306	105.06
232.541	121.06
232.775	110.06
233.009	106.06
233.243	105.06
233.477	113.06
233.711	114.06
233.945	115.06
234.179	99.06
234.413	121.06
234.647	108.06
234.881	101.06
235.115	116.06
235.349	108.06
235.583	114.06
235.817	116.06
236.051	97.06
236.285	124.06
236.519	118.06
236.753	99.06
236.987	146.06
237.221	180.06
237.455	227.06
237.689	194.06
237.922	142.06
238.156	129.06
238.39	130.06
238.624	115.06
238.858	130.06
239.091	124.06
239.325	121.06
239.559	124.06
239.793	136.06
240.027	126.06
240.26	127.06
240.494	136.06
240.728	153.06
240.961	143.06
241.195	141.06
241.429	123.06
241.662	130.06
241.896	118.06
242.13	125.06
242.363	133.06
242.597	128.06
242.83	128.06
243.064	153.06
243.298	139.06
243.531	110.06
243.765	128.06
243.998	128.06
244.232	132.06
244.465	136.06
244.699	137.06
244.932	142.06
245.166	146.06
245.399	124.06
245.633	129.06
245.866	146.06
246.099	133.06
246.333	154.06
246.566	142.06
246.8	141.06
247.033	137.06
247.266	140.06
247.5	147.06
247.733	156.06
247.966	165.06
248.2	151.06
248.433	162.06
248.666	164.06
248.899	167.06
249.133	192.06
249.366	194.06
249.599	182.06
249.832	169.06
250.066	163.06
250.299	170.06
250.532	191.06
250.765	199.06
250.998	202.06
251.231	224.06
251.465	207.06
251.698	191.06
251.931	205.06
252.164	197.06
252.397	184.06
252.63	176.06
252.863	200.06
253.096	212.06
253.329	209.06
253.562	198.06
253.795	227.06
254.028	205.06
254.261	196.06
254.494	225.06
254.727	228.06
254.96	274.06
255.193	253.06
255.426	246.06
255.659	219.06
255.892	256.06
256.124	227.06
256.357	228.06
256.59	214.06
256.823	206.06
257.056	225.06
257.289	199.06
257.521	188.06
257.754	198.06
257.987	212.06
258.22	203.06
258.452	201.06
258.685	203.06
258.918	200.06
259.151	202.06
259.383	206.06
259.616	216.06
259.849	216.06
260.081	227.06
260.314	245.06
260.547	246.06
260.779	235.06
261.012	228.06
261.244	224.06
261.477	219.06
261.71	227.06
261.942	221.06
262.175	210.06
262.407	233.06
262.64	209.06
262.872	212.06
263.105	204.06
263.337	205.06
263.57	207.06
263.802	203.06
264.035	206.06
264.267	211.06
264.499	191.06
264.732	219.06
264.964	207.06
265.197	203.06
265.429	211.06
265.661	206.06
265.894	226.06
266.126	203.06
266.358	203.06
266.591	196.06
266.823	195.06
267.055	215.06
267.287	224.06
267.52	213.06
267.752	218.06
267.984	201.06
268.216	224.06
268.448	210.06
268.681	239.06
268.913	214.06
269.145	255.06
269.377	268.06
269.609	252.06
269.841	263.06
270.073	268.06
270.306	277.06
270.538	312.06
270.77	289.06
271.002	277.06
271.234	262.06
271.466	275.06
271.698	302.06
271.93	289.06
272.162	293.06
272.394	304.06
272.626	276.06
272.858	265.06
273.09	279.06
273.322	245.06
273.553	241.06
273.785	248.06
274.017	253.06
274.249	242.06
274.481	245.06
274.713	238.06
274.945	259.06
275.176	257.06
275.408	264.06
275.64	243.06
275.872	260.06
276.104	243.06
276.335	249.06
276.567	262.06
276.799	270.06
277.031	266.06
277.262	315.06
277.494	285.06
277.726	290.06
277.957	262.06
278.189	268.06
278.421	248.06
278.652	262.06
278.884	252.06
279.115	256.06
279.347	244.06
279.579	246.06
279.81	228.06
280.042	255.06
280.273	242.06
280.505	267.06
280.736	234.06
280.968	238.06
281.199	234.06
281.431	229.06
281.662	235.06
281.894	239.06
282.125	252.06
282.356	273.06
282.588	290.06
282.819	273.06
283.051	264.06
283.282	253.06
283.513	240.06
283.745	256.06
283.976	265.06
284.207	259.06
284.439	266.06
284.67	265.06
284.901	256.06
285.132	252.06
285.364	248.06
285.595	256.06
285.826	249.06
286.057	253.06
286.288	261.06
286.52	240.06
286.751	248.06
286.982	249.06
287.213	258.06
287.444	260.06
287.675	259.06
287.906	276.06
288.138	285.06
288.369	274.06
288.6	283.06
288.831	256.06
289.062	268.06
289.293	265.06
289.524	264.06
289.755	282.06
289.986	262.06
290.217	266.06
290.448	269.06
290.679	251.06
290.91	281.06
291.141	256.06
291.371	254.06
291.602	259.06
291.833	277.06
292.064	242.06
292.295	256.06
292.526	277.06
292.757	269.06
292.987	262.06
293.218	264.06
293.449	253.06
293.68	262.06
293.91	271.06
294.141	244.06
294.372	266.06
294.603	259.06
294.833	272.06
295.064	256.06
295.295	275.06
295.525	282.06
295.756	278.06
295.987	287.06
296.217	310.06
296.448	323.06
296.679	290.06
296.909	274.06
297.14	281.06
297.37	266.06
297.601	265.06
297.831	279.06
298.062	274.06
298.292	279.06
298.523	277.06
298.753	265.06
298.984	271.06
299.214	271.06
299.445	273.06
299.675	283.06
299.905	276.06
300.136	279.06
300.366	277.06
300.597	285.06
300.827	296.06
301.057	297.06
301.288	300.06
301.518	290.06
301.748	291.06
301.979	285.06
302.209	304.06
302.439	296.06
302.669	309.06
302.9	294.06
303.13	274.06
303.36	288.06
303.59	294.06
303.82	287.06
304.051	304.06
304.281	287.06
304.511	305.06
304.741	289.06
304.971	292.06
305.201	282.06
305.431	281.06
305.661	284.06
305.891	286.06
306.121	301.06
306.352	300.06
306.582	298.06
306.812	294.06
307.042	305.06
307.272	300.06
307.502	313.06
307.731	298.06
307.961	299.06
308.191	316.06
308.421	299.06
308.651	317.06
308.881	305.06
309.111	318.06
309.341	318.06
309.571	339.06
309.8	321.06
310.03	329.06
310.26	330.06
310.49	329.06
310.72	342.06
310.949	366.06
311.179	367.06
311.409	362.06
311.639	350.06
311.868	345.06
312.098	344.06
312.328	343.06
312.557	365.06
312.787	388.06
313.017	402.06
313.246	375.06
313.476	344.06
313.706	346.06
313.935	361.06
314.165	370.06
314.394	390.06
314.624	365.06
314.853	338.06
315.083	363.06
315.312	327.06
315.542	355.06
315.771	345.06
316.001	343.06
316.23	324.06
316.46	335.06
316.689	338.06
316.919	369.06
317.148	346.06
317.377	350.06
317.607	344.06
317.836	348.06
318.065	357.06
318.295	346.06
318.524	320.06
318.753	352.06
318.983	331.06
319.212	329.06
319.441	350.06
319.67	354.06
319.9	349.06
320.129	351.06
320.358	355.06
320.587	348.06
320.816	371.06
321.046	370.06
321.275	374.06
321.504	365.06
321.733	352.06
321.962	391.06
322.191	410.06
322.42	401.06
322.649	419.06
322.878	437.06
323.108	434.06
323.337	458.06
323.566	480.06
323.795	517.06
324.024	566.06
324.253	706.06
324.482	979.06
324.71	1526.06
324.939	2228.06
325.168	1980.06
325.397	997.06
325.626	646.06
325.855	558.06
326.084	497.06
326.313	475.06
326.542	475.06
326.77	534.06
326.999	616.06
327.228	860.06
327.457	1353.06
327.686	1694.06
327.914	1125.06
328.143	740.06
328.372	632.06
328.6	578.06
328.829	549.06
329.058	558.06
329.287	568.06
329.515	546.06
329.744	494.06
329.972	485.06
330.201	506.06
330.43	540.06
330.658	574.06
330.887	611.06
331.115	590.06
331.344	505.06
331.572	449.06
331.801	466.06
332.03	438.06
332.258	445.06
332.486	434.06
332.715	407.06
332.943	402.06
333.172	395.06
333.4	419.06
333.629	439.06
333.857	445.06
334.085	445.06
334.314	441.06
334.542	483.06
334.771	510.06
334.999	445.06
335.227	425.06
335.455	390.06
335.684	396.06
335.912	406.06
336.14	389.06
336.369	410.06
336.597	398.06
336.825	398.06
337.053	407.06
337.281	392.06
337.51	386.06
337.738	406.06
337.966	397.06
338.194	380.06
338.422	396.06
338.65	392.06
338.878	388.06
339.106	381.06
339.334	387.06
339.562	386.06
339.79	381.06
340.018	370.06
340.246	381.06
340.474	403.06
340.702	381.06
340.93	374.06
341.158	397.06
341.386	378.06
341.614	384.06
341.842	388.06
342.07	376.06
342.298	374.06
342.526	381.06
342.754	371.06
342.981	373.06
343.209	359.06
343.437	366.06
343.665	370.06
343.893	374.06
344.12	377.06
344.348	391.06
344.576	397.06
344.804	389.06
345.031	391.06
345.259	393.06
345.487	410.06
345.714	387.06
345.942	377.06
346.17	377.06
346.397	382.06
346.625	370.06
346.853	362.06
347.08	386.06
347.308	370.06
347.535	383.06
347.763	395.06
347.99	375.06
348.218	396.06
348.445	402.06
348.673	378.06
348.9	398.06
349.128	384.06
349.355	350.06
349.583	348.06
349.81	369.06
350.037	360.06
350.265	358.06
350.492	349.06
350.72	364.06
350.947	377.06
351.174	378.06
351.402	393.06
351.629	399.06
351.856	368.06
352.083	372.06
352.311	408.06
352.538	398.06
352.765	387.06
352.992	394.06
353.22	400.06
353.447	387.06
353.674	361.06
353.901	362.06
354.128	359.06
354.355	352.06
354.583	352.06
354.81	354.06
355.037	345.06
355.264	332.06
355.491	363.06
355.718	339.06
355.945	349.06
356.172	340.06
356.399	340.06
356.626	343.06
356.853	355.06
357.08	329.06
357.307	328.06
357.534	351.06
357.761	324.06
357.988	324.06
358.215	355.06
358.441	339.06
358.668	341.06
358.895	334.06
359.122	354.06
359.349	366.06
359.576	369.06
359.802	389.06
360.029	436.06
360.256	439.06
360.483	399.06
360.709	391.06
360.936	377.06
361.163	376.06
361.39	372.06
361.616	379.06
361.843	386.06
362.07	366.06
362.296	378.06
362.523	380.06
362.749	366.06
362.976	347.06
363.203	358.06
363.429	361.06
363.656	352.06
363.882	362.06
364.109	346.06
364.335	359.06
364.562	360.06
364.788	351.06
365.015	354.06
365.241	348.06
365.468	376.06
365.694	374.06
365.92	358.06
366.147	348.06
366.373	342.06
366.599	372.06
366.826	354.06
367.052	338.06
367.278	355.06
367.505	344.06
367.731	360.06
367.957	356.06
368.184	356.06
368.41	350.06
368.636	350.06
368.862	374.06
369.089	350.06
369.315	348.06
369.541	354.06
369.767	361.06
369.993	361.06
370.219	347.06
370.445	333.06
370.672	348.06
370.898	353.06
371.124	346.06
371.35	348.06
371.576	353.06
371.802	348.06
372.028	319.06
372.254	334.06
372.48	355.06
372.706	347.06
372.932	355.06
373.158	330.06
373.384	335.06
373.61	329.06
373.835	359.06
374.061	349.06
374.287	356.06
374.513	340.06
374.739	330.06
374.965	353.06
375.191	337.06
375.416	347.06
375.642	362.06
375.868	360.06
376.094	356.06
376.319	332.06
376.545	349.06
376.771	352.06
376.997	338.06
377.222	330.06
377.448	341.06
377.674	330.06
377.899	347.06
378.125	337.06
378.35	364.06
378.576	339.06
378.802	338.06
379.027	327.06
379.253	332.06
379.478	342.06
379.704	337.06
379.929	350.06
380.155	328.06
380.38	332.06
380.606	340.06
380.831	351.06
381.057	353.06
381.282	334.06
381.507	353.06
381.733	361.06
381.958	337.06
382.184	349.06
382.409	340.06
382.634	345.06
382.86	352.06
383.085	346.06
383.31	349.06
383.535	344.06
383.761	342.06
383.986	363.06
384.211	355.06
384.436	360.06
384.662	362.06
384.887	362.06
385.112	348.06
385.337	359.06
385.562	371.06
385.787	365.06
386.013	378.06
386.238	370.06
386.463	350.06
386.688	374.06
386.913	359.06
387.138	354.06
387.363	371.06
387.588	350.06
387.813	360.06
388.038	352.06
388.263	354.06
388.488	354.06
388.713	373.06
388.938	368.06
389.163	374.06
389.387	355.06
389.612	360.06
389.837	370.06
390.062	359.06
390.287	360.06
390.512	362.06
390.736	387.06
390.961	378.06
391.186	382.06
391.411	370.06
391.636	355.06
391.86	365.06
392.085	371.06
392.31	377.06
392.534	370.06
392.759	383.06
392.984	355.06
393.208	375.06
393.433	398.06
393.658	387.06
393.882	381.06
394.107	356.06
394.331	364.06
394.556	361.06
394.78	381.06
395.005	376.06
395.229	360.06
395.454	384.06
395.678	365.06
395.903	410.06
396.127	389.06
396.352	410.06
396.576	399.06
396.801	376.06
397.025	392.06
397.249	382.06
397.474	382.06
397.698	387.06
397.922	390.06
398.147	417.06
398.371	406.06
398.595	403.06
398.82	402.06
399.044	399.06
399.268	397.06
399.492	420.06
399.717	436.06
399.941	476.06
400.165	498.06
400.389	535.06
400.613	490.06
400.837	430.06
401.062	436.06
401.286	405.06
401.51	412.06
401.734	408.06
401.958	403.06
402.182	435.06
402.406	427.06
402.63	448.06
402.854	434.06
403.078	412.06
403.302	441.06
403.526	449.06
403.75	438.06
403.974	433.06
404.198	430.06
404.422	431.06
404.645	426.06
404.869	432.06
405.093	470.06
405.317	498.06
405.541	551.06
405.765	503.06
405.988	452.06
406.212	464.06
406.436	480.06
406.66	485.06
406.883	471.06
407.107	491.06
407.331	531.06
407.555	588.06
407.778	598.06
408.002	548.06
408.226	482.06
408.449	476.06
408.673	478.06
408.896	517.06
409.12	531.06
409.344	514.06
409.567	456.06
409.791	471.06
410.014	427.06
410.238	440.06
410.461	425.06
410.685	449.06
410.908	443.06
411.132	486.06
411.355	537.06
411.578	476.06
411.802	472.06
412.025	441.06
412.249	427.06
412.472	458.06
412.695	509.06
412.919	493.06
413.142	468.06
413.365	424.06
413.589	415.06
413.812	426.06
414.035	406.06
414.258	407.06
414.482	396.06
414.705	401.06
414.928	391.06
415.151	393.06
415.374	390.06
415.597	398.06
415.821	404.06
416.044	421.06
416.267	408.06
416.49	410.06
416.713	400.06
416.936	405.06
417.159	397.06
417.382	420.06
417.605	404.06
417.828	424.06
418.051	447.06
418.274	415.06
418.497	422.06
418.72	412.06
418.943	395.06
419.166	397.06
419.389	459.06
419.611	429.06
419.834	443.06
420.057	452.06
420.28	434.06
420.503	433.06
420.726	420.06
420.948	449.06
421.171	483.06
421.394	522.06
421.617	458.06
421.839	437.06
422.062	441.06
422.285	430.06
422.507	495.06
422.73	579.06
422.953	563.06
423.175	504.06
423.398	470.06
423.621	447.06
423.843	460.06
424.066	468.06
424.288	454.06
424.511	483.06
424.733	544.06
424.956	601.06
425.178	588.06
425.401	590.06
425.623	609.06
425.846	520.06
426.068	454.06
426.291	452.06
426.513	475.06
426.735	482.06
426.958	544.06
427.18	606.06
427.402	714.06
427.625	812.06
427.847	724.06
428.069	631.06
428.292	527.06
428.514	455.06
428.736	450.06
428.958	458.06
429.181	430.06
429.403	436.06
429.625	449.06
429.847	470.06
430.069	560.06
430.292	557.06
430.514	464.06
430.736	446.06
430.958	434.06
431.18	422.06
431.402	414.06
431.624	403.06
431.846	398.06
432.068	403.06
432.29	419.06
432.512	406.06
432.734	407.06
432.956	409.06
433.178	431.06
433.4	444.06
433.622	400.06
433.844	405.06
434.066	414.06
434.287	408.06
434.509	412.06
434.731	407.06
434.953	418.06
435.175	425.06
435.397	458.06
435.618	471.06
435.84	524.06
436.062	606.06
436.284	676.06
436.505	565.06
436.727	498.06
436.949	458.06
437.17	452.06
437.392	427.06
437.614	452.06
437.835	488.06
438.057	582.06
438.278	691.06
438.5	678.06
438.721	719.06
438.943	713.06
439.165	591.06
439.386	516.06
439.608	493.06
439.829	488.06
440.05	535.06
440.272	573.06
440.493	532.06
440.715	502.06
440.936	461.06
441.158	448.06
441.379	452.06
441.6	461.06
441.822	484.06
442.043	503.06
442.264	601.06
442.486	632.06
442.707	541.06
442.928	494.06
443.149	515.06
443.371	517.06
443.592	552.06
443.813	621.06
444.034	685.06
444.255	590.06
444.476	509.06
444.698	489.06
444.919	470.06
445.14	552.06
445.361	541.06
445.582	509.06
445.803	608.06
446.024	705.06
446.245	736.06
446.466	645.06
446.687	548.06
446.908	471.06
447.129	461.06
447.35	444.06
447.571	474.06
447.792	421.06
448.013	433.06
448.234	476.06
448.455	500.06
448.675	658.06
448.896	726.06
449.117	621.06
449.338	591.06
449.559	702.06
449.779	760.06
450	639.06
450.221	510.06
450.442	471.06
450.662	459.06
450.883	446.06
451.104	476.06
451.324	435.06
451.545	419.06
451.766	434.06
451.986	410.06
452.207	390.06
452.428	407.06
452.648	398.06
452.869	382.06
453.089	395.06
453.31	427.06
453.53	406.06
453.751	412.06
453.971	411.06
454.192	435.06
454.412	424.06
454.633	392.06
454.853	396.06
455.073	408.06
455.294	442.06
455.514	504.06
455.734	497.06
455.955	402.06
456.175	389.06
456.395	363.06
456.616	351.06
456.836	370.06
457.056	383.06
457.276	364.06
457.497	378.06
457.717	362.06
457.937	369.06
458.157	380.06
458.377	388.06
458.598	390.06
458.818	458.06
459.038	550.06
459.258	556.06
459.478	466.06
459.698	416.06
459.918	404.06
460.138	411.06
460.358	404.06
460.578	412.06
460.798	416.06
461.018	433.06
461.238	414.06
461.458	422.06
461.678	397.06
461.898	413.06
462.118	398.06
462.338	397.06
462.558	414.06
462.777	430.06
462.997	421.06
463.217	445.06
463.437	450.06
463.657	414.06
463.876	441.06
464.096	443.06
464.316	440.06
464.536	428.06
464.755	453.06
464.975	448.06
465.195	496.06
465.414	568.06
465.634	520.06
465.854	439.06
466.073	409.06
466.293	412.06
466.512	400.06
466.732	385.06
466.951	410.06
467.171	416.06
467.391	405.06
467.61	415.06
467.829	428.06
468.049	422.06
468.268	414.06
468.488	408.06
468.707	396.06
468.927	403.06
469.146	389.06
469.365	401.06
469.585	384.06
469.804	408.06
470.023	399.06
470.243	402.06
470.462	413.06
470.681	423.06
470.901	433.06
471.12	430.06
471.339	416.06
471.558	399.06
471.777	409.06
471.997	398.06
472.216	412.06
472.435	448.06
472.654	437.06
472.873	419.06
473.092	420.06
473.311	409.06
473.53	422.06
473.749	430.06
473.968	467.06
474.187	544.06
474.406	589.06
474.625	470.06
474.844	439.06
475.063	414.06
475.282	441.06
475.501	425.06
475.72	419.06
475.939	429.06
476.158	431.06
476.377	426.06
476.596	417.06
476.814	434.06
477.033	439.06
477.252	446.06
477.471	421.06
477.69	410.06
477.908	425.06
478.127	438.06
478.346	463.06
478.564	460.06
478.783	448.06
479.002	454.06
479.22	482.06
479.439	478.06
479.658	516.06
479.876	488.06
480.095	501.06
480.313	508.06
480.532	480.06
480.751	501.06
480.969	499.06
481.188	557.06
481.406	630.06
481.624	539.06
481.843	478.06
482.061	474.06
482.28	474.06
482.498	488.06
482.717	481.06
482.935	477.06
483.153	482.06
483.372	478.06
483.59	482.06
483.808	475.06
484.027	476.06
484.245	480.06
484.463	474.06
484.681	494.06
484.9	518.06
485.118	488.06
485.336	501.06
485.554	507.06
485.772	499.06
485.99	494.06
486.209	512.06
486.427	474.06
486.645	520.06
486.863	522.06
487.081	554.06
487.299	513.06
487.517	516.06
487.735	522.06
487.953	519.06
488.171	523.06
488.389	492.06
488.607	512.06
488.825	504.06
489.043	538.06
489.261	513.06
489.479	526.06
489.696	536.06
489.914	520.06
490.132	539.06
490.35	550.06
490.568	533.06
490.786	564.06
491.003	563.06
491.221	551.06
491.439	570.06
491.657	553.06
491.874	588.06
492.092	595.06
492.31	590.06
492.527	588.06
492.745	600.06
492.963	604.06
493.18	594.06
493.398	606.06
493.615	633.06
493.833	600.06
494.05	625.06
494.268	607.06
494.485	591.06
494.703	615.06
494.92	611.06
495.138	591.06
495.355	610.06
495.573	625.06
495.79	608.06
496.008	626.06
496.225	609.06
496.442	610.06
496.66	615.06
496.877	617.06
497.094	600.06
497.312	620.06
497.529	609.06
497.746	636.06
497.963	628.06
498.181	650.06
498.398	631.06
498.615	653.06
498.832	676.06
499.049	647.06
499.267	688.06
499.484	708.06
499.701	724.06
499.918	729.06
500.135	749.06
500.352	758.06
500.569	767.06
500.786	777.06
501.003	755.06
501.22	762.06
501.437	749.06
501.654	757.06
501.871	758.06
502.088	748.06
502.305	709.06
502.522	686.06
502.739	668.06
502.956	649.06
503.172	649.06
503.389	657.06
503.606	659.06
503.823	636.06
504.04	633.06
504.256	616.06
504.473	621.06
504.69	621.06
504.907	602.06
505.123	613.06
505.34	601.06
505.557	600.06
505.773	605.06
505.99	583.06
506.207	584.06
506.423	599.06
506.64	612.06
506.856	585.06
507.073	578.06
507.289	576.06
507.506	582.06
507.722	621.06
507.939	617.06
508.155	579.06
508.372	566.06
508.588	570.06
508.805	578.06
509.021	548.06
509.238	555.06
509.454	572.06
509.67	597.06
509.887	556.06
510.103	562.06
510.319	582.06
510.536	674.06
510.752	1165.06
510.968	948.06
511.184	610.06
511.401	562.06
511.617	548.06
511.833	547.06
512.049	536.06
512.265	560.06
512.481	515.06
512.698	543.06
512.914	518.06
513.13	547.06
513.346	536.06
513.562	538.06
513.778	546.06
513.994	555.06
514.21	550.06
514.426	596.06
514.642	645.06
514.858	683.06
515.074	713.06
515.29	875.06
515.506	1300.06
515.721	1026.06
515.937	666.06
516.153	631.06
516.369	585.06
516.585	581.06
516.801	563.06
517.016	569.06
517.232	548.06
517.448	558.06
517.664	519.06
517.879	548.06
518.095	555.06
518.311	542.06
518.527	564.06
518.742	548.06
518.958	522.06
519.173	525.06
519.389	549.06
519.605	550.06
519.82	544.06
520.036	560.06
520.251	585.06
520.467	638.06
520.682	601.06
520.898	605.06
521.113	632.06
521.329	708.06
521.544	801.06
521.76	976.06
521.975	1682.06
522.19	1684.06
522.406	906.06
522.621	674.06
522.836	577.06
523.052	560.06
523.267	527.06
523.482	546.06
523.698	526.06
523.913	522.06
524.128	519.06
524.343	511.06
524.559	468.06
524.774	486.06
524.989	465.06
525.204	499.06
525.419	481.06
525.634	486.06
525.849	458.06
526.064	470.06
526.28	440.06
526.495	449.06
526.71	453.06
526.925	444.06
527.14	421.06
527.355	453.06
527.57	438.06
527.785	458.06
527.999	451.06
528.214	448.06
528.429	432.06
528.644	462.06
528.859	456.06
529.074	466.06
529.289	470.06
529.503	539.06
529.718	529.06
529.933	497.06
530.148	475.06
530.363	438.06
530.577	435.06
530.792	436.06
531.007	451.06
531.221	453.06
531.436	437.06
531.651	448.06
531.865	424.06
532.08	430.06
532.295	408.06
532.509	412.06
532.724	423.06
532.938	431.06
533.153	397.06
533.367	432.06
533.582	421.06
533.796	441.06
534.011	395.06
534.225	406.06
534.44	392.06
534.654	426.06
534.868	425.06
535.083	425.06
535.297	416.06
535.511	426.06
535.726	445.06
535.94	434.06
536.154	422.06
536.369	424.06
536.583	408.06
536.797	404.06
537.011	405.06
537.225	414.06
537.44	398.06
537.654	401.06
537.868	403.06
538.082	405.06
538.296	405.06
538.51	410.06
538.724	406.06
538.938	403.06
539.153	389.06
539.367	411.06
539.581	430.06
539.795	408.06
540.009	422.06
540.222	385.06
540.436	398.06
540.65	402.06
540.864	392.06
541.078	407.06
541.292	396.06
541.506	391.06
541.72	402.06
541.934	377.06
542.147	410.06
542.361	394.06
542.575	391.06
542.789	389.06
543.002	391.06
543.216	394.06
543.43	430.06
543.644	402.06
543.857	407.06
544.071	404.06
544.285	385.06
544.498	399.06
544.712	365.06
544.925	388.06
545.139	394.06
545.352	389.06
545.566	397.06
545.779	377.06
545.993	391.06
546.206	406.06
546.42	398.06
546.633	380.06
546.847	396.06
547.06	381.06
547.274	373.06
547.487	374.06
547.7	365.06
547.914	365.06
548.127	381.06
548.34	374.06
548.554	380.06
548.767	399.06
548.98	394.06
549.193	379.06
549.407	367.06
549.62	365.06
549.833	375.06
550.046	384.06
550.259	362.06
550.473	376.06
550.686	360.06
550.899	363.06
551.112	370.06
551.325	380.06
551.538	358.06
551.751	367.06
551.964	370.06
552.177	363.06
552.39	358.06
552.603	391.06
552.816	386.06
553.029	364.06
553.242	365.06
553.455	380.06
553.667	378.06
553.88	360.06
554.093	386.06
554.306	380.06
554.519	400.06
554.732	381.06
554.944	360.06
555.157	349.06
555.37	363.06
555.583	362.06
555.795	373.06
556.008	362.06
556.221	364.06
556.433	349.06
556.646	354.06
556.859	356.06
557.071	368.06
557.284	352.06
557.496	357.06
557.709	344.06
557.921	332.06
558.134	331.06
558.346	345.06
558.559	340.06
558.771	354.06
558.984	347.06
559.196	340.06
559.409	345.06
559.621	345.06
559.833	338.06
560.046	349.06
560.258	330.06
560.47	328.06
560.683	333.06
560.895	342.06
561.107	341.06
561.32	336.06
561.532	336.06
561.744	339.06
561.956	337.06
562.168	322.06
562.381	333.06
562.593	326.06
562.805	336.06
563.017	326.06
563.229	341.06
563.441	354.06
563.653	335.06
563.865	328.06
564.077	319.06
564.289	354.06
564.501	346.06
564.713	357.06
564.925	351.06
565.137	355.06
565.349	361.06
565.561	376.06
565.773	355.06
565.985	362.06
566.197	375.06
566.408	378.06
566.62	390.06
566.832	407.06
567.044	382.06
567.255	390.06
567.467	379.06
567.679	390.06
567.891	390.06
568.102	385.06
568.314	367.06
568.526	378.06
568.737	354.06
568.949	376.06
569.161	357.06
569.372	352.06
569.584	333.06
569.795	342.06
570.007	362.06
570.218	382.06
570.43	383.06
570.641	338.06
570.853	334.06
571.064	331.06
571.276	326.06
571.487	326.06
571.698	317.06
571.91	308.06
572.121	320.06
572.333	318.06
572.544	322.06
572.755	328.06
572.966	293.06
573.178	321.06
573.389	322.06
573.6	312.06
573.811	313.06
574.023	312.06
574.234	294.06
574.445	309.06
574.656	294.06
574.867	295.06
575.078	307.06
575.289	305.06
575.501	300.06
575.712	291.06
575.923	285.06
576.134	286.06
576.345	282.06
576.556	286.06
576.767	299.06
576.978	289.06
577.188	300.06
577.399	297.06
577.61	283.06
577.821	282.06
578.032	292.06
578.243	310.06
578.454	558.06
578.665	414.06
578.875	305.06
579.086	286.06
579.297	277.06
579.508	265.06
579.718	275.06
579.929	281.06
580.14	280.06
580.35	287.06
580.561	273.06
580.772	289.06
580.982	268.06
581.193	258.06
581.403	291.06
581.614	270.06
581.825	272.06
582.035	265.06
582.246	292.06
582.456	281.06
582.667	252.06
582.877	272.06
583.087	271.06
583.298	270.06
583.508	275.06
583.719	281.06
583.929	283.06
584.139	281.06
584.35	293.06
584.56	259.06
584.77	262.06
584.981	265.06
585.191	267.06
585.401	280.06
585.611	280.06
585.821	284.06
586.032	268.06
586.242	255.06
586.452	260.06
586.662	282.06
586.872	266.06
587.082	261.06
587.292	258.06
587.502	264.06
587.713	261.06
587.923	255.06
588.133	251.06
588.343	243.06
588.553	245.06
588.762	270.06
588.972	276.06
589.182	278.06
589.392	258.06
589.602	240.06
589.812	255.06
590.022	261.06
590.232	257.06
590.441	267.06
590.651	278.06
590.861	241.06
591.071	278.06
591.281	263.06
591.49	266.06
591.7	270.06
591.91	277.06
592.119	258.06
592.329	259.06
592.539	258.06
592.748	278.06
592.958	246.06
593.167	273.06
593.377	272.06
593.587	263.06
593.796	258.06
594.006	248.06
594.215	258.06
594.424	268.06
594.634	264.06
594.843	256.06
595.053	256.06
595.262	264.06
595.472	248.06
595.681	231.06
595.89	258.06
596.1	259.06
596.309	247.06
596.518	256.06
596.727	250.06
596.937	237.06
597.146	246.06
597.355	264.06
597.564	253.06
597.774	260.06
597.983	237.06
598.192	231.06
598.401	242.06
598.61	237.06
598.819	242.06
599.028	226.06
599.237	235.06
599.446	254.06
599.655	238.06
599.864	232.06
600.073	229.06
600.282	250.06
600.491	242.06
600.7	236.06
600.909	228.06
601.118	235.06
601.327	208.06
601.536	228.06
601.745	233.06
601.953	222.06
602.162	227.06
602.371	236.06
602.58	230.06
602.789	228.06
602.997	226.06
603.206	231.06
603.415	232.06
603.623	230.06
603.832	213.06
604.041	229.06
604.249	233.06
604.458	226.06
604.666	223.06
604.875	221.06
605.084	223.06
605.292	216.06
605.501	220.06
605.709	227.06
605.918	225.06
606.126	229.06
606.334	232.06
606.543	240.06
606.751	226.06
606.96	232.06
607.168	224.06
607.376	245.06
607.585	215.06
607.793	218.06
608.001	223.06
608.21	207.06
608.418	228.06
608.626	221.06
608.834	214.06
609.043	216.06
609.251	210.06
609.459	229.06
609.667	232.06
609.875	220.06
610.083	206.06
610.291	202.06
610.499	201.06
610.707	221.06
610.916	205.06
611.124	205.06
611.332	227.06
611.54	220.06
611.748	220.06
611.955	220.06
612.163	226.06
612.371	196.06
612.579	210.06
612.787	199.06
612.995	200.06
613.203	204.06
613.411	226.06
613.618	217.06
613.826	205.06
614.034	214.06
614.242	207.06
614.449	221.06
614.657	217.06
614.865	218.06
615.072	211.06
615.28	216.06
615.488	203.06
615.695	225.06
615.903	211.06
616.111	224.06
616.318	199.06
616.526	220.06
616.733	216.06
616.941	202.06
617.148	201.06
617.356	214.06
617.563	204.06
617.771	211.06
617.978	203.06
618.185	199.06
618.393	211.06
618.6	208.06
618.807	203.06
619.015	213.06
619.222	207.06
619.429	197.06
619.637	205.06
619.844	206.06
620.051	202.06
620.258	205.06
620.466	188.06
620.673	193.06
620.88	200.06
621.087	200.06
621.294	203.06
621.501	194.06
621.708	196.06
621.915	203.06
622.122	198.06
622.329	197.06
622.536	203.06
622.743	200.06
622.95	197.06
623.157	201.06
623.364	196.06
623.571	203.06
623.778	204.06
623.985	208.06
624.192	186.06
624.399	190.06
624.606	192.06
624.812	183.06
625.019	193.06
625.226	196.06
625.433	213.06
625.639	183.06
625.846	182.06
626.053	184.06
626.259	187.06
626.466	197.06
626.673	189.06
626.879	195.06
627.086	191.06
627.293	177.06
627.499	192.06
627.706	192.06
627.912	194.06
628.119	180.06
628.325	184.06
628.532	185.06
628.738	201.06
628.945	192.06
629.151	181.06
629.357	193.06
629.564	189.06
629.77	179.06
629.976	167.06
630.183	178.06
630.389	178.06
630.595	187.06
630.802	185.06
631.008	170.06
631.214	164.06
631.42	193.06
631.627	189.06
631.833	187.06
632.039	173.06
632.245	179.06
632.451	178.06
632.657	160.06
632.863	173.06
633.069	174.06
633.275	175.06
633.481	148.06
633.688	178.06
633.893	183.06
634.099	179.06
634.305	171.06
634.511	166.06
634.717	165.06
634.923	170.06
635.129	184.06
635.335	165.06
635.541	164.06
635.747	161.06
635.952	168.06
636.158	166.06
636.364	170.06
636.57	162.06
636.775	165.06
636.981	171.06
637.187	176.06
637.392	163.06
637.598	174.06
637.804	160.06
638.009	150.06
638.215	176.06
638.421	174.06
638.626	168.06
638.832	178.06
639.037	169.06
639.243	176.06
639.448	141.06
639.654	155.06
639.859	146.06
640.065	157.06
640.27	151.06
640.475	162.06
640.681	171.06
640.886	153.06
641.091	162.06
641.297	162.06
641.502	140.06
641.707	166.06
641.913	183.06
642.118	158.06
642.323	155.06
642.528	171.06
642.733	162.06
642.939	155.06
643.144	166.06
643.349	167.06
643.554	160.06
643.759	156.06
643.964	155.06
644.169	150.06
644.374	155.06
644.579	168.06
644.784	161.06
644.989	153.06
645.194	150.06
645.399	154.06
645.604	150.06
645.809	146.06
646.014	164.06
646.219	155.06
646.423	144.06
646.628	159.06
646.833	139.06
647.038	154.06
647.243	150.06
647.447	143.06
647.652	152.06
647.857	156.06
648.062	181.06
648.266	134.06
648.471	170.06
648.676	153.06
648.88	158.06
649.085	162.06
649.289	163.06
649.494	160.06
649.698	186.06
649.903	182.06
650.107	149.06
650.312	154.06
650.516	161.06
650.721	137.06
650.925	139.06
651.13	153.06
651.334	153.06
651.539	136.06
651.743	136.06
651.947	145.06
652.152	140.06
652.356	152.06
652.56	146.06
652.764	136.06
652.969	138.06
653.173	131.06
653.377	143.06
653.581	120.06
653.785	122.06
653.99	134.06
654.194	125.06
654.398	126.06
654.602	132.06
654.806	121.06
655.01	136.06
655.214	119.06
655.418	132.06
655.622	136.06
655.826	124.06
656.03	132.06
656.234	120.06
656.438	150.06
656.642	128.06
656.846	124.06
657.049	109.06
657.253	122.06
657.457	112.06
657.661	109.06
657.865	106.06
658.068	117.06
658.272	99.06
658.476	111.06
658.68	106.06
658.883	106.06
659.087	92.06
659.291	87.06
659.494	116.06
659.698	101.06
659.901	112.06
660.105	93.06
660.309	90.06
660.512	92.06
660.716	103.06
660.919	98.06
661.123	92.06
661.326	94.06
661.53	85.06
661.733	90.06
661.936	98.06
662.14	91.06
662.343	91.06
662.546	86.06
662.75	78.06
662.953	85.06
663.156	89.06
663.36	68.06
663.563	81.06
663.766	75.06
663.969	94.06
664.173	78.06
664.376	77.06
664.579	79.06
664.782	94.06
664.985	82.06
665.188	77.06
665.391	89.06
665.594	73.06
665.797	77.06
666	77.06
666.203	70.06
666.406	93.06
666.609	78.06
666.812	80.06
667.015	78.06
667.218	75.06
667.421	71.06
667.624	75.06
667.827	84.06
668.03	77.06
668.232	85.06
668.435	90.06
668.638	88.06
668.841	85.06
669.043	84.06
669.246	83.06
669.449	82.06
669.651	89.06
669.854	66.06
670.057	93.06
670.259	81.06
670.462	78.06
670.665	81.06
670.867	87.06
671.07	81.06
671.272	85.06
671.475	81.06
671.677	86.06
671.88	69.06
672.082	87.06
672.284	83.06
672.487	83.06
672.689	82.06
672.892	75.06
