Data from 1972.PennyLincolnUp.Lamp.En5.5.200Scan.071719.P1._HRD10591_15-29-15-845.txt Node
Date: Thu Jul 18 15:29:15 EDT 2019
User: cochatt
Spectrometer: HR+D1059
Trigger mode: 1
Integration Time (sec): 1.000000E-1
Scans to average: 1
Electric dark correction enabled: true
Nonlinearity correction enabled: false
Boxcar width: 0
XAxis mode: Wavelengths
Number of Pixels in Spectrum: 2048
>>>>>Begin Spectral Data<<<<<
223.165	-11.94
223.4	-11.94
223.635	-11.94
223.869	-25.94
224.104	-17.94
224.338	-7.94
224.573	-6.94
224.808	0.06
225.042	-7.94
225.277	-8.94
225.511	1.06
225.746	4.06
225.98	5.06
226.215	3.06
226.449	16.06
226.683	14.06
226.918	23.06
227.152	21.06
227.387	46.06
227.621	32.06
227.856	53.06
228.09	40.06
228.324	50.06
228.559	61.06
228.793	63.06
229.027	112.06
229.262	110.06
229.496	120.06
229.73	143.06
229.964	175.06
230.199	147.06
230.433	111.06
230.667	132.06
230.901	118.06
231.136	104.06
231.37	126.06
231.604	125.06
231.838	108.06
232.072	123.06
232.306	114.06
232.541	124.06
232.775	117.06
233.009	118.06
233.243	111.06
233.477	109.06
233.711	118.06
233.945	126.06
234.179	123.06
234.413	114.06
234.647	98.06
234.881	118.06
235.115	122.06
235.349	120.06
235.583	114.06
235.817	122.06
236.051	134.06
236.285	138.06
236.519	133.06
236.753	140.06
236.987	150.06
237.221	191.06
237.455	266.06
237.689	216.06
237.922	162.06
238.156	140.06
238.39	130.06
238.624	125.06
238.858	123.06
239.091	122.06
239.325	142.06
239.559	135.06
239.793	128.06
240.027	131.06
240.26	155.06
240.494	172.06
240.728	164.06
240.961	157.06
241.195	172.06
241.429	152.06
241.662	139.06
241.896	141.06
242.13	146.06
242.363	137.06
242.597	147.06
242.83	142.06
243.064	137.06
243.298	159.06
243.531	133.06
243.765	135.06
243.998	142.06
244.232	148.06
244.465	140.06
244.699	146.06
244.932	141.06
245.166	151.06
245.399	157.06
245.633	146.06
245.866	156.06
246.099	140.06
246.333	148.06
246.566	152.06
246.8	158.06
247.033	148.06
247.266	159.06
247.5	180.06
247.733	163.06
247.966	167.06
248.2	175.06
248.433	179.06
248.666	191.06
248.899	204.06
249.133	206.06
249.366	222.06
249.599	216.06
249.832	213.06
250.066	173.06
250.299	191.06
250.532	201.06
250.765	197.06
250.998	228.06
251.231	239.06
251.465	225.06
251.698	219.06
251.931	206.06
252.164	211.06
252.397	216.06
252.63	215.06
252.863	222.06
253.096	230.06
253.329	265.06
253.562	252.06
253.795	232.06
254.028	241.06
254.261	224.06
254.494	234.06
254.727	286.06
254.96	326.06
255.193	286.06
255.426	290.06
255.659	248.06
255.892	262.06
256.124	264.06
256.357	256.06
256.59	244.06
256.823	239.06
257.056	239.06
257.289	226.06
257.521	211.06
257.754	243.06
257.987	234.06
258.22	227.06
258.452	209.06
258.685	226.06
258.918	204.06
259.151	204.06
259.383	250.06
259.616	236.06
259.849	255.06
260.081	258.06
260.314	291.06
260.547	279.06
260.779	263.06
261.012	255.06
261.244	238.06
261.477	250.06
261.71	215.06
261.942	250.06
262.175	245.06
262.407	254.06
262.64	235.06
262.872	226.06
263.105	228.06
263.337	215.06
263.57	226.06
263.802	232.06
264.035	224.06
264.267	215.06
264.499	219.06
264.732	221.06
264.964	230.06
265.197	214.06
265.429	235.06
265.661	205.06
265.894	224.06
266.126	232.06
266.358	208.06
266.591	223.06
266.823	235.06
267.055	234.06
267.287	247.06
267.52	237.06
267.752	244.06
267.984	235.06
268.216	240.06
268.448	252.06
268.681	257.06
268.913	269.06
269.145	270.06
269.377	301.06
269.609	301.06
269.841	298.06
270.073	287.06
270.306	330.06
270.538	350.06
270.77	336.06
271.002	339.06
271.234	310.06
271.466	334.06
271.698	357.06
271.93	336.06
272.162	355.06
272.394	347.06
272.626	342.06
272.858	320.06
273.09	301.06
273.322	309.06
273.553	294.06
273.785	292.06
274.017	287.06
274.249	294.06
274.481	279.06
274.713	279.06
274.945	295.06
275.176	290.06
275.408	276.06
275.64	275.06
275.872	287.06
276.104	301.06
276.335	283.06
276.567	290.06
276.799	300.06
277.031	319.06
277.262	363.06
277.494	356.06
277.726	302.06
277.957	294.06
278.189	314.06
278.421	294.06
278.652	301.06
278.884	284.06
279.115	282.06
279.347	277.06
279.579	280.06
279.81	252.06
280.042	280.06
280.273	300.06
280.505	278.06
280.736	269.06
280.968	283.06
281.199	253.06
281.431	283.06
281.662	292.06
281.894	255.06
282.125	287.06
282.356	309.06
282.588	334.06
282.819	331.06
283.051	300.06
283.282	277.06
283.513	284.06
283.745	278.06
283.976	287.06
284.207	292.06
284.439	297.06
284.67	283.06
284.901	301.06
285.132	269.06
285.364	275.06
285.595	276.06
285.826	297.06
286.057	277.06
286.288	277.06
286.52	278.06
286.751	275.06
286.982	306.06
287.213	276.06
287.444	282.06
287.675	291.06
287.906	294.06
288.138	314.06
288.369	320.06
288.6	303.06
288.831	302.06
289.062	308.06
289.293	295.06
289.524	287.06
289.755	288.06
289.986	298.06
290.217	278.06
290.448	294.06
290.679	302.06
290.91	296.06
291.141	301.06
291.371	278.06
291.602	278.06
291.833	272.06
292.064	298.06
292.295	281.06
292.526	280.06
292.757	278.06
292.987	303.06
293.218	281.06
293.449	299.06
293.68	306.06
293.91	307.06
294.141	294.06
294.372	317.06
294.603	289.06
294.833	291.06
295.064	282.06
295.295	299.06
295.525	290.06
295.756	290.06
295.987	307.06
296.217	338.06
296.448	355.06
296.679	315.06
296.909	294.06
297.14	310.06
297.37	297.06
297.601	304.06
297.831	285.06
298.062	313.06
298.292	302.06
298.523	315.06
298.753	312.06
298.984	287.06
299.214	299.06
299.445	308.06
299.675	296.06
299.905	317.06
300.136	318.06
300.366	307.06
300.597	312.06
300.827	311.06
301.057	335.06
301.288	334.06
301.518	327.06
301.748	316.06
301.979	326.06
302.209	322.06
302.439	324.06
302.669	311.06
302.9	345.06
303.13	326.06
303.36	325.06
303.59	328.06
303.82	339.06
304.051	327.06
304.281	341.06
304.511	329.06
304.741	319.06
304.971	334.06
305.201	323.06
305.431	322.06
305.661	313.06
305.891	322.06
306.121	332.06
306.352	336.06
306.582	337.06
306.812	331.06
307.042	332.06
307.272	332.06
307.502	331.06
307.731	336.06
307.961	348.06
308.191	342.06
308.421	337.06
308.651	339.06
308.881	329.06
309.111	348.06
309.341	349.06
309.571	349.06
309.8	373.06
310.03	390.06
310.26	390.06
310.49	396.06
310.72	415.06
310.949	436.06
311.179	465.06
311.409	399.06
311.639	406.06
311.868	400.06
312.098	389.06
312.328	420.06
312.557	426.06
312.787	451.06
313.017	439.06
313.246	414.06
313.476	381.06
313.706	371.06
313.935	403.06
314.165	400.06
314.394	440.06
314.624	414.06
314.853	409.06
315.083	397.06
315.312	398.06
315.542	401.06
315.771	398.06
316.001	374.06
316.23	376.06
316.46	376.06
316.689	370.06
316.919	388.06
317.148	396.06
317.377	437.06
317.607	412.06
317.836	388.06
318.065	383.06
318.295	375.06
318.524	360.06
318.753	376.06
318.983	370.06
319.212	389.06
319.441	404.06
319.67	402.06
319.9	399.06
320.129	396.06
320.358	403.06
320.587	378.06
320.816	400.06
321.046	393.06
321.275	436.06
321.504	418.06
321.733	421.06
321.962	419.06
322.191	474.06
322.42	469.06
322.649	462.06
322.878	506.06
323.108	499.06
323.337	548.06
323.566	564.06
323.795	636.06
324.024	674.06
324.253	811.06
324.482	1245.06
324.71	1993.06
324.939	2926.06
325.168	2513.06
325.397	1258.06
325.626	820.06
325.855	651.06
326.084	592.06
326.313	568.06
326.542	606.06
326.77	639.06
326.999	747.06
327.228	1072.06
327.457	1691.06
327.686	2166.06
327.914	1427.06
328.143	899.06
328.372	749.06
328.6	724.06
328.829	670.06
329.058	665.06
329.287	682.06
329.515	637.06
329.744	595.06
329.972	612.06
330.201	610.06
330.43	673.06
330.658	682.06
330.887	677.06
331.115	728.06
331.344	570.06
331.572	532.06
331.801	544.06
332.03	529.06
332.258	500.06
332.486	473.06
332.715	486.06
332.943	456.06
333.172	476.06
333.4	466.06
333.629	472.06
333.857	484.06
334.085	498.06
334.314	540.06
334.542	588.06
334.771	618.06
334.999	526.06
335.227	491.06
335.455	463.06
335.684	458.06
335.912	442.06
336.14	449.06
336.369	445.06
336.597	448.06
336.825	446.06
337.053	463.06
337.281	447.06
337.51	443.06
337.738	436.06
337.966	435.06
338.194	453.06
338.422	455.06
338.65	447.06
338.878	436.06
339.106	429.06
339.334	422.06
339.562	431.06
339.79	435.06
340.018	428.06
340.246	441.06
340.474	425.06
340.702	443.06
340.93	437.06
341.158	432.06
341.386	448.06
341.614	438.06
341.842	453.06
342.07	413.06
342.298	416.06
342.526	415.06
342.754	398.06
342.981	410.06
343.209	399.06
343.437	392.06
343.665	418.06
343.893	442.06
344.12	421.06
344.348	402.06
344.576	422.06
344.804	439.06
345.031	448.06
345.259	452.06
345.487	444.06
345.714	434.06
345.942	414.06
346.17	431.06
346.397	436.06
346.625	423.06
346.853	407.06
347.08	426.06
347.308	427.06
347.535	416.06
347.763	453.06
347.99	439.06
348.218	429.06
348.445	430.06
348.673	444.06
348.9	438.06
349.128	411.06
349.355	390.06
349.583	400.06
349.81	390.06
350.037	403.06
350.265	400.06
350.492	399.06
350.72	396.06
350.947	389.06
351.174	419.06
351.402	424.06
351.629	436.06
351.856	452.06
352.083	426.06
352.311	425.06
352.538	455.06
352.765	464.06
352.992	433.06
353.22	425.06
353.447	422.06
353.674	427.06
353.901	395.06
354.128	398.06
354.355	392.06
354.583	378.06
354.81	388.06
355.037	388.06
355.264	383.06
355.491	371.06
355.718	372.06
355.945	362.06
356.172	369.06
356.399	384.06
356.626	382.06
356.853	392.06
357.08	386.06
357.307	363.06
357.534	384.06
357.761	386.06
357.988	372.06
358.215	372.06
358.441	386.06
358.668	387.06
358.895	369.06
359.122	387.06
359.349	408.06
359.576	410.06
359.802	442.06
360.029	490.06
360.256	482.06
360.483	473.06
360.709	418.06
360.936	416.06
361.163	408.06
361.39	435.06
361.616	412.06
361.843	422.06
362.07	416.06
362.296	412.06
362.523	409.06
362.749	407.06
362.976	397.06
363.203	385.06
363.429	392.06
363.656	397.06
363.882	384.06
364.109	385.06
364.335	395.06
364.562	375.06
364.788	400.06
365.015	374.06
365.241	398.06
365.468	383.06
365.694	410.06
365.92	390.06
366.147	385.06
366.373	393.06
366.599	379.06
366.826	381.06
367.052	366.06
367.278	401.06
367.505	380.06
367.731	375.06
367.957	404.06
368.184	371.06
368.41	388.06
368.636	402.06
368.862	418.06
369.089	401.06
369.315	373.06
369.541	390.06
369.767	380.06
369.993	382.06
370.219	374.06
370.445	381.06
370.672	374.06
370.898	372.06
371.124	381.06
371.35	378.06
371.576	376.06
371.802	366.06
372.028	365.06
372.254	377.06
372.48	374.06
372.706	373.06
372.932	370.06
373.158	375.06
373.384	386.06
373.61	398.06
373.835	372.06
374.061	365.06
374.287	374.06
374.513	379.06
374.739	372.06
374.965	388.06
375.191	393.06
375.416	377.06
375.642	358.06
375.868	363.06
376.094	364.06
376.319	391.06
376.545	396.06
376.771	364.06
376.997	376.06
377.222	376.06
377.448	371.06
377.674	364.06
377.899	352.06
378.125	356.06
378.35	381.06
378.576	346.06
378.802	367.06
379.027	351.06
379.253	383.06
379.478	363.06
379.704	368.06
379.929	361.06
380.155	378.06
380.38	355.06
380.606	378.06
380.831	378.06
381.057	377.06
381.282	365.06
381.507	377.06
381.733	353.06
381.958	367.06
382.184	370.06
382.409	378.06
382.634	381.06
382.86	370.06
383.085	366.06
383.31	387.06
383.535	379.06
383.761	382.06
383.986	373.06
384.211	378.06
384.436	370.06
384.662	369.06
384.887	374.06
385.112	369.06
385.337	389.06
385.562	382.06
385.787	391.06
386.013	406.06
386.238	408.06
386.463	405.06
386.688	398.06
386.913	376.06
387.138	382.06
387.363	389.06
387.588	388.06
387.813	390.06
388.038	397.06
388.263	397.06
388.488	401.06
388.713	403.06
388.938	414.06
389.163	398.06
389.387	404.06
389.612	376.06
389.837	386.06
390.062	381.06
390.287	359.06
390.512	379.06
390.736	383.06
390.961	380.06
391.186	375.06
391.411	393.06
391.636	381.06
391.86	401.06
392.085	393.06
392.31	402.06
392.534	389.06
392.759	399.06
392.984	381.06
393.208	397.06
393.433	400.06
393.658	399.06
393.882	390.06
394.107	399.06
394.331	396.06
394.556	406.06
394.78	378.06
395.005	386.06
395.229	413.06
395.454	406.06
395.678	414.06
395.903	405.06
396.127	456.06
396.352	452.06
396.576	406.06
396.801	412.06
397.025	423.06
397.249	402.06
397.474	421.06
397.698	412.06
397.922	415.06
398.147	448.06
398.371	447.06
398.595	439.06
398.82	445.06
399.044	447.06
399.268	446.06
399.492	463.06
399.717	482.06
399.941	494.06
400.165	551.06
400.389	560.06
400.613	494.06
400.837	469.06
401.062	469.06
401.286	454.06
401.51	453.06
401.734	425.06
401.958	427.06
402.182	460.06
402.406	455.06
402.63	477.06
402.854	457.06
403.078	446.06
403.302	471.06
403.526	479.06
403.75	475.06
403.974	447.06
404.198	457.06
404.422	440.06
404.645	462.06
404.869	489.06
405.093	537.06
405.317	568.06
405.541	602.06
405.765	556.06
405.988	514.06
406.212	512.06
406.436	555.06
406.66	545.06
406.883	515.06
407.107	551.06
407.331	600.06
407.555	630.06
407.778	644.06
408.002	593.06
408.226	522.06
408.449	507.06
408.673	523.06
408.896	574.06
409.12	605.06
409.344	566.06
409.567	484.06
409.791	507.06
410.014	486.06
410.238	472.06
410.461	470.06
410.685	462.06
410.908	478.06
411.132	519.06
411.355	576.06
411.578	550.06
411.802	508.06
412.025	469.06
412.249	485.06
412.472	524.06
412.695	552.06
412.919	541.06
413.142	509.06
413.365	471.06
413.589	453.06
413.812	460.06
414.035	453.06
414.258	439.06
414.482	429.06
414.705	438.06
414.928	440.06
415.151	436.06
415.374	451.06
415.597	424.06
415.821	434.06
416.044	436.06
416.267	445.06
416.49	445.06
416.713	403.06
416.936	440.06
417.159	440.06
417.382	460.06
417.605	450.06
417.828	470.06
418.051	468.06
418.274	469.06
418.497	470.06
418.72	451.06
418.943	462.06
419.166	475.06
419.389	464.06
419.611	454.06
419.834	468.06
420.057	477.06
420.28	492.06
420.503	470.06
420.726	482.06
420.948	475.06
421.171	534.06
421.394	570.06
421.617	495.06
421.839	459.06
422.062	463.06
422.285	501.06
422.507	557.06
422.73	645.06
422.953	617.06
423.175	525.06
423.398	493.06
423.621	497.06
423.843	486.06
424.066	510.06
424.288	517.06
424.511	536.06
424.733	596.06
424.956	676.06
425.178	649.06
425.401	656.06
425.623	696.06
425.846	608.06
426.068	526.06
426.291	518.06
426.513	531.06
426.735	549.06
426.958	580.06
427.18	698.06
427.402	833.06
427.625	910.06
427.847	845.06
428.069	722.06
428.292	596.06
428.514	544.06
428.736	503.06
428.958	515.06
429.181	478.06
429.403	485.06
429.625	489.06
429.847	532.06
430.069	600.06
430.292	621.06
430.514	516.06
430.736	470.06
430.958	457.06
431.18	454.06
431.402	452.06
431.624	454.06
431.846	447.06
432.068	443.06
432.29	435.06
432.512	461.06
432.734	470.06
432.956	443.06
433.178	486.06
433.4	461.06
433.622	453.06
433.844	453.06
434.066	453.06
434.287	436.06
434.509	437.06
434.731	442.06
434.953	469.06
435.175	487.06
435.397	526.06
435.618	532.06
435.84	591.06
436.062	686.06
436.284	740.06
436.505	618.06
436.727	560.06
436.949	525.06
437.17	489.06
437.392	507.06
437.614	494.06
437.835	550.06
438.057	675.06
438.278	783.06
438.5	772.06
438.721	837.06
438.943	765.06
439.165	636.06
439.386	553.06
439.608	568.06
439.829	549.06
440.05	589.06
440.272	626.06
440.493	596.06
440.715	552.06
440.936	488.06
441.158	490.06
441.379	497.06
441.6	500.06
441.822	535.06
442.043	566.06
442.264	671.06
442.486	719.06
442.707	596.06
442.928	534.06
443.149	570.06
443.371	581.06
443.592	608.06
443.813	737.06
444.034	784.06
444.255	667.06
444.476	574.06
444.698	525.06
444.919	512.06
445.14	596.06
445.361	582.06
445.582	597.06
445.803	659.06
446.024	803.06
446.245	812.06
446.466	731.06
446.687	611.06
446.908	523.06
447.129	523.06
447.35	473.06
447.571	508.06
447.792	479.06
448.013	471.06
448.234	519.06
448.455	600.06
448.675	716.06
448.896	848.06
449.117	710.06
449.338	645.06
449.559	772.06
449.779	892.06
450	714.06
450.221	557.06
450.442	516.06
450.662	477.06
450.883	516.06
451.104	532.06
451.324	524.06
451.545	490.06
451.766	459.06
451.986	444.06
452.207	441.06
452.428	441.06
452.648	435.06
452.869	447.06
453.089	462.06
453.31	477.06
453.53	430.06
453.751	444.06
453.971	462.06
454.192	467.06
454.412	452.06
454.633	450.06
454.853	427.06
455.073	441.06
455.294	473.06
455.514	564.06
455.734	551.06
455.955	464.06
456.175	418.06
456.395	405.06
456.616	408.06
456.836	424.06
457.056	386.06
457.276	405.06
457.497	401.06
457.717	396.06
457.937	397.06
458.157	410.06
458.377	418.06
458.598	469.06
458.818	524.06
459.038	651.06
459.258	662.06
459.478	542.06
459.698	474.06
459.918	456.06
460.138	453.06
460.358	443.06
460.578	442.06
460.798	468.06
461.018	432.06
461.238	434.06
461.458	420.06
461.678	432.06
461.898	440.06
462.118	431.06
462.338	437.06
462.558	447.06
462.777	441.06
462.997	463.06
463.217	470.06
463.437	455.06
463.657	470.06
463.876	453.06
464.096	481.06
464.316	474.06
464.536	477.06
464.755	477.06
464.975	481.06
465.195	557.06
465.414	619.06
465.634	574.06
465.854	523.06
466.073	493.06
466.293	456.06
466.512	446.06
466.732	432.06
466.951	423.06
467.171	443.06
467.391	440.06
467.61	467.06
467.829	476.06
468.049	440.06
468.268	457.06
468.488	485.06
468.707	439.06
468.927	420.06
469.146	432.06
469.365	439.06
469.585	426.06
469.804	438.06
470.023	446.06
470.243	452.06
470.462	467.06
470.681	475.06
470.901	471.06
471.12	447.06
471.339	449.06
471.558	464.06
471.777	456.06
471.997	435.06
472.216	465.06
472.435	514.06
472.654	488.06
472.873	452.06
473.092	430.06
473.311	436.06
473.53	436.06
473.749	463.06
473.968	509.06
474.187	652.06
474.406	643.06
474.625	536.06
474.844	474.06
475.063	438.06
475.282	439.06
475.501	456.06
475.72	449.06
475.939	468.06
476.158	457.06
476.377	461.06
476.596	471.06
476.814	478.06
477.033	476.06
477.252	473.06
477.471	471.06
477.69	478.06
477.908	468.06
478.127	492.06
478.346	478.06
478.564	488.06
478.783	489.06
479.002	487.06
479.22	500.06
479.439	521.06
479.658	548.06
479.876	538.06
480.095	553.06
480.313	576.06
480.532	563.06
480.751	544.06
480.969	574.06
481.188	655.06
481.406	719.06
481.624	616.06
481.843	573.06
482.061	551.06
482.28	539.06
482.498	525.06
482.717	536.06
482.935	525.06
483.153	508.06
483.372	532.06
483.59	526.06
483.808	514.06
484.027	553.06
484.245	518.06
484.463	524.06
484.681	533.06
484.9	524.06
485.118	532.06
485.336	542.06
485.554	546.06
485.772	559.06
485.99	552.06
486.209	579.06
486.427	547.06
486.645	571.06
486.863	589.06
487.081	598.06
487.299	575.06
487.517	581.06
487.735	567.06
487.953	557.06
488.171	587.06
488.389	555.06
488.607	584.06
488.825	571.06
489.043	559.06
489.261	586.06
489.479	588.06
489.696	563.06
489.914	558.06
490.132	583.06
490.35	582.06
490.568	587.06
490.786	605.06
491.003	634.06
491.221	629.06
491.439	635.06
491.657	638.06
491.874	652.06
492.092	639.06
492.31	673.06
492.527	650.06
492.745	661.06
492.963	656.06
493.18	663.06
493.398	695.06
493.615	679.06
493.833	682.06
494.05	672.06
494.268	664.06
494.485	669.06
494.703	690.06
494.92	672.06
495.138	672.06
495.355	672.06
495.573	688.06
495.79	698.06
496.008	672.06
496.225	676.06
496.442	666.06
496.66	680.06
496.877	662.06
497.094	680.06
497.312	686.06
497.529	680.06
497.746	712.06
497.963	723.06
498.181	713.06
498.398	724.06
498.615	730.06
498.832	742.06
499.049	728.06
499.267	757.06
499.484	729.06
499.701	774.06
499.918	793.06
500.135	797.06
500.352	829.06
500.569	812.06
500.786	822.06
501.003	820.06
501.22	816.06
501.437	812.06
501.654	836.06
501.871	805.06
502.088	782.06
502.305	754.06
502.522	765.06
502.739	718.06
502.956	714.06
503.172	698.06
503.389	724.06
503.606	714.06
503.823	693.06
504.04	685.06
504.256	690.06
504.473	650.06
504.69	682.06
504.907	678.06
505.123	654.06
505.34	666.06
505.557	655.06
505.773	649.06
505.99	668.06
506.207	662.06
506.423	669.06
506.64	674.06
506.856	649.06
507.073	640.06
507.289	656.06
507.506	663.06
507.722	682.06
507.939	686.06
508.155	657.06
508.372	620.06
508.588	630.06
508.805	625.06
509.021	627.06
509.238	644.06
509.454	655.06
509.67	656.06
509.887	640.06
510.103	641.06
510.319	640.06
510.536	773.06
510.752	1408.06
510.968	1099.06
511.184	690.06
511.401	653.06
511.617	626.06
511.833	628.06
512.049	599.06
512.265	592.06
512.481	596.06
512.698	611.06
512.914	598.06
513.13	609.06
513.346	614.06
513.562	628.06
513.778	603.06
513.994	632.06
514.21	658.06
514.426	648.06
514.642	752.06
514.858	774.06
515.074	826.06
515.29	1004.06
515.506	1547.06
515.721	1210.06
515.937	797.06
516.153	713.06
516.369	686.06
516.585	660.06
516.801	639.06
517.016	618.06
517.232	620.06
517.448	607.06
517.664	595.06
517.879	622.06
518.095	599.06
518.311	615.06
518.527	586.06
518.742	614.06
518.958	607.06
519.173	628.06
519.389	604.06
519.605	620.06
519.82	623.06
520.036	620.06
520.251	675.06
520.467	687.06
520.682	676.06
520.898	702.06
521.113	746.06
521.329	786.06
521.544	925.06
521.76	1207.06
521.975	2126.06
522.19	2025.06
522.406	1039.06
522.621	749.06
522.836	657.06
523.052	632.06
523.267	604.06
523.482	608.06
523.698	584.06
523.913	582.06
524.128	563.06
524.343	543.06
524.559	536.06
524.774	534.06
524.989	546.06
525.204	565.06
525.419	538.06
525.634	532.06
525.849	533.06
526.064	513.06
526.28	524.06
526.495	488.06
526.71	490.06
526.925	502.06
527.14	493.06
527.355	488.06
527.57	494.06
527.785	517.06
527.999	468.06
528.214	487.06
528.429	475.06
528.644	474.06
528.859	491.06
529.074	492.06
529.289	534.06
529.503	613.06
529.718	601.06
529.933	554.06
530.148	498.06
530.363	533.06
530.577	495.06
530.792	461.06
531.007	462.06
531.221	471.06
531.436	484.06
531.651	474.06
531.865	471.06
532.08	475.06
532.295	481.06
532.509	453.06
532.724	459.06
532.938	444.06
533.153	447.06
533.367	472.06
533.582	439.06
533.796	463.06
534.011	450.06
534.225	441.06
534.44	460.06
534.654	449.06
534.868	438.06
535.083	440.06
535.297	450.06
535.511	448.06
535.726	475.06
535.94	443.06
536.154	463.06
536.369	444.06
536.583	456.06
536.797	458.06
537.011	443.06
537.225	452.06
537.44	424.06
537.654	427.06
537.868	459.06
538.082	439.06
538.296	451.06
538.51	442.06
538.724	427.06
538.938	430.06
539.153	427.06
539.367	452.06
539.581	476.06
539.795	452.06
540.009	429.06
540.222	434.06
540.436	451.06
540.65	464.06
540.864	446.06
541.078	453.06
541.292	427.06
541.506	463.06
541.72	432.06
541.934	437.06
542.147	442.06
542.361	442.06
542.575	438.06
542.789	450.06
543.002	431.06
543.216	446.06
543.43	437.06
543.644	443.06
543.857	459.06
544.071	442.06
544.285	426.06
544.498	422.06
544.712	429.06
544.925	426.06
545.139	427.06
545.352	430.06
545.566	441.06
545.779	427.06
545.993	408.06
546.206	422.06
546.42	416.06
546.633	419.06
546.847	406.06
547.06	415.06
547.274	409.06
547.487	415.06
547.7	414.06
547.914	404.06
548.127	428.06
548.34	411.06
548.554	408.06
548.767	394.06
548.98	411.06
549.193	409.06
549.407	412.06
549.62	391.06
549.833	381.06
550.046	418.06
550.259	386.06
550.473	392.06
550.686	395.06
550.899	401.06
551.112	381.06
551.325	417.06
551.538	393.06
551.751	393.06
551.964	401.06
552.177	372.06
552.39	408.06
552.603	387.06
552.816	404.06
553.029	411.06
553.242	423.06
553.455	410.06
553.667	442.06
553.88	435.06
554.093	418.06
554.306	431.06
554.519	394.06
554.732	409.06
554.944	396.06
555.157	411.06
555.37	387.06
555.583	409.06
555.795	398.06
556.008	404.06
556.221	382.06
556.433	382.06
556.646	379.06
556.859	375.06
557.071	374.06
557.284	375.06
557.496	375.06
557.709	379.06
557.921	387.06
558.134	370.06
558.346	375.06
558.559	361.06
558.771	368.06
558.984	367.06
559.196	360.06
559.409	360.06
559.621	361.06
559.833	368.06
560.046	373.06
560.258	376.06
560.47	359.06
560.683	374.06
560.895	367.06
561.107	370.06
561.32	362.06
561.532	353.06
561.744	378.06
561.956	351.06
562.168	358.06
562.381	377.06
562.593	378.06
562.805	358.06
563.017	349.06
563.229	371.06
563.441	367.06
563.653	375.06
563.865	386.06
564.077	375.06
564.289	377.06
564.501	375.06
564.713	365.06
564.925	356.06
565.137	380.06
565.349	392.06
565.561	374.06
565.773	387.06
565.985	391.06
566.197	407.06
566.408	379.06
566.62	409.06
566.832	416.06
567.044	420.06
567.255	399.06
567.467	424.06
567.679	413.06
567.891	446.06
568.102	414.06
568.314	436.06
568.526	410.06
568.737	413.06
568.949	379.06
569.161	374.06
569.372	376.06
569.584	362.06
569.795	355.06
570.007	391.06
570.218	421.06
570.43	405.06
570.641	371.06
570.853	349.06
571.064	359.06
571.276	341.06
571.487	327.06
571.698	342.06
571.91	354.06
572.121	325.06
572.333	339.06
572.544	328.06
572.755	330.06
572.966	346.06
573.178	349.06
573.389	326.06
573.6	333.06
573.811	303.06
574.023	318.06
574.234	329.06
574.445	336.06
574.656	325.06
574.867	320.06
575.078	302.06
575.289	318.06
575.501	284.06
575.712	304.06
575.923	320.06
576.134	296.06
576.345	309.06
576.556	306.06
576.767	320.06
576.978	308.06
577.188	309.06
577.399	303.06
577.61	308.06
577.821	308.06
578.032	298.06
578.243	357.06
578.454	649.06
578.665	447.06
578.875	329.06
579.086	299.06
579.297	301.06
579.508	311.06
579.718	315.06
579.929	290.06
580.14	296.06
580.35	295.06
580.561	304.06
580.772	292.06
580.982	290.06
581.193	307.06
581.403	279.06
581.614	281.06
581.825	283.06
582.035	300.06
582.246	288.06
582.456	278.06
582.667	302.06
582.877	293.06
583.087	296.06
583.298	298.06
583.508	287.06
583.719	284.06
583.929	279.06
584.139	283.06
584.35	287.06
584.56	284.06
584.77	299.06
584.981	311.06
585.191	297.06
585.401	276.06
585.611	282.06
585.821	283.06
586.032	277.06
586.242	299.06
586.452	263.06
586.662	291.06
586.872	290.06
587.082	293.06
587.292	292.06
587.502	282.06
587.713	269.06
587.923	303.06
588.133	283.06
588.343	273.06
588.553	265.06
588.762	283.06
588.972	269.06
589.182	273.06
589.392	283.06
589.602	286.06
589.812	275.06
590.022	285.06
590.232	252.06
590.441	276.06
590.651	261.06
590.861	286.06
591.071	272.06
591.281	291.06
591.49	263.06
591.7	275.06
591.91	290.06
592.119	280.06
592.329	276.06
592.539	294.06
592.748	293.06
592.958	277.06
593.167	261.06
593.377	284.06
593.587	294.06
593.796	280.06
594.006	252.06
594.215	283.06
594.424	289.06
594.634	283.06
594.843	269.06
595.053	286.06
595.262	275.06
595.472	251.06
595.681	269.06
595.89	277.06
596.1	295.06
596.309	267.06
596.518	273.06
596.727	260.06
596.937	267.06
597.146	250.06
597.355	273.06
597.564	254.06
597.774	258.06
597.983	237.06
598.192	250.06
598.401	269.06
598.61	253.06
598.819	267.06
599.028	250.06
599.237	247.06
599.446	244.06
599.655	265.06
599.864	252.06
600.073	252.06
600.282	235.06
600.491	244.06
600.7	246.06
600.909	229.06
601.118	262.06
601.327	245.06
601.536	227.06
601.745	264.06
601.953	243.06
602.162	252.06
602.371	242.06
602.58	248.06
602.789	246.06
602.997	239.06
603.206	261.06
603.415	264.06
603.623	219.06
603.832	234.06
604.041	239.06
604.249	240.06
604.458	234.06
604.666	237.06
604.875	208.06
605.084	234.06
605.292	235.06
605.501	233.06
605.709	236.06
605.918	233.06
606.126	244.06
606.334	248.06
606.543	234.06
606.751	218.06
606.96	226.06
607.168	236.06
607.376	233.06
607.585	247.06
607.793	235.06
608.001	233.06
608.21	234.06
608.418	232.06
608.626	217.06
608.834	245.06
609.043	237.06
609.251	221.06
609.459	208.06
609.667	218.06
609.875	227.06
610.083	224.06
610.291	229.06
610.499	219.06
610.707	230.06
610.916	242.06
611.124	235.06
611.332	233.06
611.54	242.06
611.748	236.06
611.955	235.06
612.163	228.06
612.371	223.06
612.579	216.06
612.787	205.06
612.995	231.06
613.203	223.06
613.411	232.06
613.618	228.06
613.826	239.06
614.034	232.06
614.242	229.06
614.449	223.06
614.657	227.06
614.865	224.06
615.072	233.06
615.28	214.06
615.488	213.06
615.695	224.06
615.903	217.06
616.111	224.06
616.318	236.06
616.526	227.06
616.733	228.06
616.941	223.06
617.148	220.06
617.356	215.06
617.563	227.06
617.771	217.06
617.978	213.06
618.185	198.06
618.393	223.06
618.6	231.06
618.807	233.06
619.015	214.06
619.222	208.06
619.429	190.06
619.637	217.06
619.844	230.06
620.051	223.06
620.258	212.06
620.466	215.06
620.673	221.06
620.88	207.06
621.087	212.06
621.294	203.06
621.501	217.06
621.708	205.06
621.915	213.06
622.122	220.06
622.329	200.06
622.536	221.06
622.743	223.06
622.95	212.06
623.157	207.06
623.364	205.06
623.571	206.06
623.778	220.06
623.985	207.06
624.192	188.06
624.399	215.06
624.606	213.06
624.812	194.06
625.019	209.06
625.226	214.06
625.433	204.06
625.639	200.06
625.846	202.06
626.053	184.06
626.259	207.06
626.466	197.06
626.673	195.06
626.879	220.06
627.086	206.06
627.293	188.06
627.499	180.06
627.706	186.06
627.912	195.06
628.119	184.06
628.325	181.06
628.532	185.06
628.738	193.06
628.945	195.06
629.151	205.06
629.357	191.06
629.564	183.06
629.77	194.06
629.976	172.06
630.183	190.06
630.389	192.06
630.595	181.06
630.802	185.06
631.008	191.06
631.214	185.06
631.42	185.06
631.627	192.06
631.833	186.06
632.039	195.06
632.245	187.06
632.451	190.06
632.657	184.06
632.863	181.06
633.069	166.06
633.275	192.06
633.481	196.06
633.688	172.06
633.893	195.06
634.099	179.06
634.305	168.06
634.511	180.06
634.717	168.06
634.923	175.06
635.129	180.06
635.335	184.06
635.541	171.06
635.747	168.06
635.952	159.06
636.158	158.06
636.364	204.06
636.57	182.06
636.775	181.06
636.981	170.06
637.187	180.06
637.392	188.06
637.598	178.06
637.804	192.06
638.009	169.06
638.215	183.06
638.421	191.06
638.626	163.06
638.832	163.06
639.037	163.06
639.243	179.06
639.448	176.06
639.654	165.06
639.859	156.06
640.065	159.06
640.27	162.06
640.475	163.06
640.681	170.06
640.886	186.06
641.091	169.06
641.297	158.06
641.502	167.06
641.707	179.06
641.913	168.06
642.118	164.06
642.323	145.06
642.528	161.06
642.733	169.06
642.939	161.06
643.144	176.06
643.349	183.06
643.554	183.06
643.759	168.06
643.964	168.06
644.169	143.06
644.374	152.06
644.579	173.06
644.784	166.06
644.989	174.06
645.194	170.06
645.399	148.06
645.604	166.06
645.809	167.06
646.014	167.06
646.219	158.06
646.423	168.06
646.628	157.06
646.833	163.06
647.038	160.06
647.243	163.06
647.447	152.06
647.652	168.06
647.857	156.06
648.062	173.06
648.266	152.06
648.471	165.06
648.676	166.06
648.88	172.06
649.085	163.06
649.289	175.06
649.494	179.06
649.698	190.06
649.903	196.06
650.107	169.06
650.312	163.06
650.516	156.06
650.721	151.06
650.925	131.06
651.13	146.06
651.334	148.06
651.539	145.06
651.743	149.06
651.947	151.06
652.152	148.06
652.356	137.06
652.56	122.06
652.764	119.06
652.969	133.06
653.173	131.06
653.377	141.06
653.581	143.06
653.785	133.06
653.99	136.06
654.194	141.06
654.398	142.06
654.602	143.06
654.806	141.06
655.01	137.06
655.214	130.06
655.418	132.06
655.622	122.06
655.826	116.06
656.03	121.06
656.234	124.06
656.438	134.06
656.642	130.06
656.846	146.06
657.049	119.06
657.253	125.06
657.457	128.06
657.661	108.06
657.865	122.06
658.068	118.06
658.272	100.06
658.476	105.06
658.68	103.06
658.883	107.06
659.087	115.06
659.291	98.06
659.494	106.06
659.698	107.06
659.901	104.06
660.105	108.06
660.309	89.06
660.512	98.06
660.716	93.06
660.919	91.06
661.123	98.06
661.326	89.06
661.53	105.06
661.733	100.06
661.936	85.06
662.14	92.06
662.343	90.06
662.546	92.06
662.75	93.06
662.953	91.06
663.156	90.06
663.36	89.06
663.563	76.06
663.766	79.06
663.969	82.06
664.173	96.06
664.376	78.06
664.579	87.06
664.782	83.06
664.985	84.06
665.188	80.06
665.391	81.06
665.594	91.06
665.797	84.06
666	75.06
666.203	77.06
666.406	75.06
666.609	78.06
666.812	82.06
667.015	84.06
667.218	71.06
667.421	96.06
667.624	84.06
667.827	91.06
668.03	79.06
668.232	82.06
668.435	96.06
668.638	82.06
668.841	82.06
669.043	89.06
669.246	92.06
669.449	94.06
669.651	93.06
669.854	76.06
670.057	91.06
670.259	83.06
670.462	84.06
670.665	82.06
670.867	79.06
671.07	75.06
671.272	97.06
671.475	93.06
671.677	81.06
671.88	85.06
672.082	66.06
672.284	82.06
672.487	92.06
672.689	68.06
672.892	83.06
