Data from 1972.PennyLincolnUp.Lamp.En5.5.200Scan.071719.P1._HRD10591_15-28-52-844.txt Node
Date: Thu Jul 18 15:28:52 EDT 2019
User: cochatt
Spectrometer: HR+D1059
Trigger mode: 1
Integration Time (sec): 1.000000E-1
Scans to average: 1
Electric dark correction enabled: true
Nonlinearity correction enabled: false
Boxcar width: 0
XAxis mode: Wavelengths
Number of Pixels in Spectrum: 2048
>>>>>Begin Spectral Data<<<<<
223.165	-9.31
223.4	-9.31
223.635	-9.31
223.869	-0.31
224.104	-28.31
224.338	-18.31
224.573	-6.31
224.808	-21.31
225.042	13.69
225.277	-12.31
225.511	-13.31
225.746	-1.31
225.98	-1.31
226.215	6.69
226.449	12.69
226.683	24.69
226.918	28.69
227.152	25.69
227.387	29.69
227.621	44.69
227.856	44.69
228.09	42.69
228.324	44.69
228.559	56.69
228.793	67.69
229.027	90.69
229.262	105.69
229.496	114.69
229.73	126.69
229.964	158.69
230.199	135.69
230.433	120.69
230.667	108.69
230.901	125.69
231.136	116.69
231.37	107.69
231.604	101.69
231.838	116.69
232.072	115.69
232.306	105.69
232.541	108.69
232.775	109.69
233.009	111.69
233.243	116.69
233.477	111.69
233.711	113.69
233.945	126.69
234.179	106.69
234.413	115.69
234.647	106.69
234.881	120.69
235.115	98.69
235.349	122.69
235.583	137.69
235.817	117.69
236.051	123.69
236.285	131.69
236.519	136.69
236.753	129.69
236.987	135.69
237.221	198.69
237.455	268.69
237.689	210.69
237.922	158.69
238.156	143.69
238.39	144.69
238.624	133.69
238.858	135.69
239.091	123.69
239.325	119.69
239.559	121.69
239.793	137.69
240.027	147.69
240.26	142.69
240.494	156.69
240.728	156.69
240.961	146.69
241.195	158.69
241.429	128.69
241.662	126.69
241.896	138.69
242.13	135.69
242.363	148.69
242.597	150.69
242.83	146.69
243.064	158.69
243.298	142.69
243.531	135.69
243.765	125.69
243.998	140.69
244.232	146.69
244.465	133.69
244.699	158.69
244.932	155.69
245.166	151.69
245.399	146.69
245.633	142.69
245.866	140.69
246.099	139.69
246.333	161.69
246.566	145.69
246.8	157.69
247.033	166.69
247.266	157.69
247.5	148.69
247.733	182.69
247.966	181.69
248.2	183.69
248.433	184.69
248.666	183.69
248.899	192.69
249.133	201.69
249.366	223.69
249.599	207.69
249.832	189.69
250.066	191.69
250.299	189.69
250.532	189.69
250.765	223.69
250.998	243.69
251.231	247.69
251.465	228.69
251.698	219.69
251.931	204.69
252.164	201.69
252.397	197.69
252.63	202.69
252.863	209.69
253.096	234.69
253.329	226.69
253.562	225.69
253.795	218.69
254.028	209.69
254.261	226.69
254.494	240.69
254.727	269.69
254.96	282.69
255.193	302.69
255.426	289.69
255.659	243.69
255.892	256.69
256.124	249.69
256.357	269.69
256.59	241.69
256.823	228.69
257.056	217.69
257.289	219.69
257.521	204.69
257.754	221.69
257.987	230.69
258.22	237.69
258.452	216.69
258.685	222.69
258.918	210.69
259.151	217.69
259.383	206.69
259.616	244.69
259.849	231.69
260.081	243.69
260.314	269.69
260.547	257.69
260.779	276.69
261.012	249.69
261.244	251.69
261.477	240.69
261.71	216.69
261.942	242.69
262.175	231.69
262.407	245.69
262.64	223.69
262.872	221.69
263.105	217.69
263.337	222.69
263.57	213.69
263.802	213.69
264.035	233.69
264.267	225.69
264.499	218.69
264.732	221.69
264.964	221.69
265.197	227.69
265.429	225.69
265.661	236.69
265.894	205.69
266.126	228.69
266.358	212.69
266.591	206.69
266.823	236.69
267.055	229.69
267.287	235.69
267.52	229.69
267.752	243.69
267.984	243.69
268.216	251.69
268.448	243.69
268.681	239.69
268.913	253.69
269.145	264.69
269.377	286.69
269.609	284.69
269.841	289.69
270.073	286.69
270.306	287.69
270.538	330.69
270.77	333.69
271.002	318.69
271.234	292.69
271.466	313.69
271.698	339.69
271.93	336.69
272.162	355.69
272.394	345.69
272.626	327.69
272.858	306.69
273.09	297.69
273.322	291.69
273.553	279.69
273.785	272.69
274.017	287.69
274.249	281.69
274.481	284.69
274.713	261.69
274.945	277.69
275.176	278.69
275.408	269.69
275.64	267.69
275.872	279.69
276.104	275.69
276.335	279.69
276.567	279.69
276.799	297.69
277.031	319.69
277.262	346.69
277.494	355.69
277.726	319.69
277.957	302.69
278.189	284.69
278.421	256.69
278.652	275.69
278.884	272.69
279.115	277.69
279.347	270.69
279.579	271.69
279.81	267.69
280.042	273.69
280.273	258.69
280.505	262.69
280.736	270.69
280.968	272.69
281.199	248.69
281.431	262.69
281.662	267.69
281.894	258.69
282.125	259.69
282.356	296.69
282.588	317.69
282.819	332.69
283.051	293.69
283.282	293.69
283.513	266.69
283.745	281.69
283.976	275.69
284.207	279.69
284.439	286.69
284.67	290.69
284.901	278.69
285.132	289.69
285.364	285.69
285.595	271.69
285.826	277.69
286.057	284.69
286.288	274.69
286.52	259.69
286.751	274.69
286.982	277.69
287.213	261.69
287.444	274.69
287.675	294.69
287.906	303.69
288.138	315.69
288.369	299.69
288.6	311.69
288.831	302.69
289.062	292.69
289.293	289.69
289.524	301.69
289.755	289.69
289.986	291.69
290.217	273.69
290.448	270.69
290.679	301.69
290.91	283.69
291.141	293.69
291.371	278.69
291.602	276.69
291.833	285.69
292.064	288.69
292.295	279.69
292.526	284.69
292.757	278.69
292.987	300.69
293.218	267.69
293.449	289.69
293.68	280.69
293.91	277.69
294.141	277.69
294.372	274.69
294.603	287.69
294.833	297.69
295.064	295.69
295.295	293.69
295.525	298.69
295.756	287.69
295.987	307.69
296.217	318.69
296.448	330.69
296.679	293.69
296.909	286.69
297.14	297.69
297.37	289.69
297.601	290.69
297.831	292.69
298.062	291.69
298.292	281.69
298.523	292.69
298.753	302.69
298.984	283.69
299.214	303.69
299.445	315.69
299.675	303.69
299.905	316.69
300.136	299.69
300.366	311.69
300.597	305.69
300.827	317.69
301.057	318.69
301.288	320.69
301.518	306.69
301.748	307.69
301.979	305.69
302.209	317.69
302.439	317.69
302.669	334.69
302.9	294.69
303.13	314.69
303.36	318.69
303.59	306.69
303.82	343.69
304.051	341.69
304.281	308.69
304.511	316.69
304.741	317.69
304.971	302.69
305.201	306.69
305.431	299.69
305.661	333.69
305.891	324.69
306.121	316.69
306.352	318.69
306.582	318.69
306.812	327.69
307.042	345.69
307.272	340.69
307.502	330.69
307.731	329.69
307.961	339.69
308.191	338.69
308.421	324.69
308.651	332.69
308.881	318.69
309.111	353.69
309.341	355.69
309.571	353.69
309.8	347.69
310.03	362.69
310.26	378.69
310.49	381.69
310.72	394.69
310.949	413.69
311.179	408.69
311.409	408.69
311.639	390.69
311.868	369.69
312.098	387.69
312.328	382.69
312.557	423.69
312.787	428.69
313.017	430.69
313.246	391.69
313.476	378.69
313.706	393.69
313.935	399.69
314.165	389.69
314.394	412.69
314.624	403.69
314.853	398.69
315.083	405.69
315.312	379.69
315.542	370.69
315.771	359.69
316.001	353.69
316.23	371.69
316.46	350.69
316.689	359.69
316.919	383.69
317.148	403.69
317.377	395.69
317.607	381.69
317.836	385.69
318.065	390.69
318.295	387.69
318.524	404.69
318.753	377.69
318.983	377.69
319.212	374.69
319.441	393.69
319.67	395.69
319.9	371.69
320.129	365.69
320.358	397.69
320.587	391.69
320.816	386.69
321.046	413.69
321.275	389.69
321.504	411.69
321.733	430.69
321.962	421.69
322.191	448.69
322.42	454.69
322.649	467.69
322.878	501.69
323.108	494.69
323.337	525.69
323.566	543.69
323.795	590.69
324.024	678.69
324.253	807.69
324.482	1186.69
324.71	1861.69
324.939	2742.69
325.168	2422.69
325.397	1227.69
325.626	761.69
325.855	636.69
326.084	566.69
326.313	568.69
326.542	547.69
326.77	616.69
326.999	753.69
327.228	1067.69
327.457	1651.69
327.686	2055.69
327.914	1379.69
328.143	863.69
328.372	723.69
328.6	696.69
328.829	637.69
329.058	639.69
329.287	678.69
329.515	626.69
329.744	561.69
329.972	556.69
330.201	583.69
330.43	615.69
330.658	685.69
330.887	683.69
331.115	669.69
331.344	576.69
331.572	513.69
331.801	536.69
332.03	511.69
332.258	506.69
332.486	456.69
332.715	470.69
332.943	454.69
333.172	447.69
333.4	452.69
333.629	455.69
333.857	483.69
334.085	493.69
334.314	523.69
334.542	569.69
334.771	605.69
334.999	523.69
335.227	505.69
335.455	461.69
335.684	452.69
335.912	431.69
336.14	437.69
336.369	424.69
336.597	460.69
336.825	438.69
337.053	450.69
337.281	422.69
337.51	417.69
337.738	424.69
337.966	409.69
338.194	424.69
338.422	446.69
338.65	410.69
338.878	417.69
339.106	429.69
339.334	415.69
339.562	396.69
339.79	405.69
340.018	415.69
340.246	418.69
340.474	443.69
340.702	414.69
340.93	429.69
341.158	407.69
341.386	419.69
341.614	429.69
341.842	416.69
342.07	417.69
342.298	410.69
342.526	414.69
342.754	419.69
342.981	403.69
343.209	407.69
343.437	412.69
343.665	393.69
343.893	398.69
344.12	414.69
344.348	423.69
344.576	410.69
344.804	428.69
345.031	437.69
345.259	460.69
345.487	431.69
345.714	427.69
345.942	409.69
346.17	413.69
346.397	407.69
346.625	404.69
346.853	402.69
347.08	416.69
347.308	438.69
347.535	413.69
347.763	425.69
347.99	414.69
348.218	445.69
348.445	411.69
348.673	431.69
348.9	412.69
349.128	425.69
349.355	399.69
349.583	377.69
349.81	391.69
350.037	383.69
350.265	394.69
350.492	393.69
350.72	400.69
350.947	397.69
351.174	423.69
351.402	435.69
351.629	411.69
351.856	429.69
352.083	419.69
352.311	411.69
352.538	420.69
352.765	413.69
352.992	421.69
353.22	428.69
353.447	423.69
353.674	405.69
353.901	403.69
354.128	371.69
354.355	373.69
354.583	380.69
354.81	387.69
355.037	379.69
355.264	368.69
355.491	370.69
355.718	357.69
355.945	366.69
356.172	378.69
356.399	373.69
356.626	358.69
356.853	351.69
357.08	369.69
357.307	373.69
357.534	361.69
357.761	378.69
357.988	369.69
358.215	389.69
358.441	369.69
358.668	381.69
358.895	386.69
359.122	380.69
359.349	405.69
359.576	419.69
359.802	429.69
360.029	461.69
360.256	473.69
360.483	463.69
360.709	400.69
360.936	414.69
361.163	413.69
361.39	412.69
361.616	409.69
361.843	385.69
362.07	400.69
362.296	422.69
362.523	394.69
362.749	407.69
362.976	390.69
363.203	389.69
363.429	380.69
363.656	387.69
363.882	375.69
364.109	381.69
364.335	367.69
364.562	374.69
364.788	373.69
365.015	385.69
365.241	389.69
365.468	394.69
365.694	390.69
365.92	394.69
366.147	373.69
366.373	361.69
366.599	375.69
366.826	374.69
367.052	372.69
367.278	382.69
367.505	378.69
367.731	392.69
367.957	387.69
368.184	359.69
368.41	380.69
368.636	397.69
368.862	380.69
369.089	367.69
369.315	383.69
369.541	379.69
369.767	384.69
369.993	365.69
370.219	363.69
370.445	375.69
370.672	363.69
370.898	352.69
371.124	361.69
371.35	366.69
371.576	353.69
371.802	357.69
372.028	367.69
372.254	377.69
372.48	359.69
372.706	371.69
372.932	366.69
373.158	373.69
373.384	372.69
373.61	358.69
373.835	376.69
374.061	371.69
374.287	360.69
374.513	389.69
374.739	370.69
374.965	389.69
375.191	375.69
375.416	372.69
375.642	367.69
375.868	385.69
376.094	357.69
376.319	389.69
376.545	372.69
376.771	364.69
376.997	369.69
377.222	366.69
377.448	358.69
377.674	373.69
377.899	362.69
378.125	358.69
378.35	362.69
378.576	364.69
378.802	333.69
379.027	348.69
379.253	379.69
379.478	375.69
379.704	382.69
379.929	371.69
380.155	371.69
380.38	361.69
380.606	385.69
380.831	359.69
381.057	387.69
381.282	371.69
381.507	366.69
381.733	371.69
381.958	375.69
382.184	374.69
382.409	386.69
382.634	385.69
382.86	357.69
383.085	378.69
383.31	381.69
383.535	381.69
383.761	369.69
383.986	387.69
384.211	372.69
384.436	383.69
384.662	376.69
384.887	374.69
385.112	371.69
385.337	383.69
385.562	378.69
385.787	377.69
386.013	404.69
386.238	411.69
386.463	377.69
386.688	366.69
386.913	375.69
387.138	381.69
387.363	383.69
387.588	391.69
387.813	406.69
388.038	393.69
388.263	381.69
388.488	386.69
388.713	385.69
388.938	380.69
389.163	394.69
389.387	397.69
389.612	393.69
389.837	381.69
390.062	375.69
390.287	389.69
390.512	390.69
390.736	400.69
390.961	378.69
391.186	387.69
391.411	381.69
391.636	374.69
391.86	389.69
392.085	391.69
392.31	396.69
392.534	396.69
392.759	384.69
392.984	378.69
393.208	379.69
393.433	390.69
393.658	397.69
393.882	398.69
394.107	381.69
394.331	390.69
394.556	395.69
394.78	388.69
395.005	393.69
395.229	380.69
395.454	385.69
395.678	414.69
395.903	398.69
396.127	442.69
396.352	447.69
396.576	428.69
396.801	415.69
397.025	416.69
397.249	408.69
397.474	408.69
397.698	397.69
397.922	443.69
398.147	453.69
398.371	441.69
398.595	434.69
398.82	448.69
399.044	458.69
399.268	458.69
399.492	446.69
399.717	476.69
399.941	484.69
400.165	514.69
400.389	550.69
400.613	501.69
400.837	471.69
401.062	444.69
401.286	460.69
401.51	460.69
401.734	462.69
401.958	434.69
402.182	463.69
402.406	466.69
402.63	446.69
402.854	443.69
403.078	450.69
403.302	450.69
403.526	461.69
403.75	477.69
403.974	469.69
404.198	466.69
404.422	467.69
404.645	454.69
404.869	474.69
405.093	517.69
405.317	529.69
405.541	572.69
405.765	541.69
405.988	523.69
406.212	515.69
406.436	519.69
406.66	560.69
406.883	509.69
407.107	526.69
407.331	569.69
407.555	643.69
407.778	668.69
408.002	583.69
408.226	520.69
408.449	527.69
408.673	530.69
408.896	558.69
409.12	595.69
409.344	547.69
409.567	499.69
409.791	480.69
410.014	484.69
410.238	458.69
410.461	443.69
410.685	466.69
410.908	488.69
411.132	523.69
411.355	552.69
411.578	546.69
411.802	487.69
412.025	468.69
412.249	469.69
412.472	519.69
412.695	576.69
412.919	538.69
413.142	473.69
413.365	461.69
413.589	449.69
413.812	442.69
414.035	447.69
414.258	424.69
414.482	445.69
414.705	414.69
414.928	435.69
415.151	438.69
415.374	431.69
415.597	433.69
415.821	443.69
416.044	437.69
416.267	459.69
416.49	437.69
416.713	414.69
416.936	449.69
417.159	445.69
417.382	445.69
417.605	439.69
417.828	465.69
418.051	465.69
418.274	460.69
418.497	431.69
418.72	430.69
418.943	438.69
419.166	450.69
419.389	493.69
419.611	463.69
419.834	450.69
420.057	479.69
420.28	474.69
420.503	461.69
420.726	469.69
420.948	478.69
421.171	525.69
421.394	573.69
421.617	503.69
421.839	456.69
422.062	460.69
422.285	495.69
422.507	543.69
422.73	633.69
422.953	610.69
423.175	533.69
423.398	489.69
423.621	478.69
423.843	548.69
424.066	529.69
424.288	484.69
424.511	549.69
424.733	607.69
424.956	682.69
425.178	659.69
425.401	643.69
425.623	654.69
425.846	588.69
426.068	513.69
426.291	527.69
426.513	509.69
426.735	514.69
426.958	588.69
427.18	661.69
427.402	793.69
427.625	887.69
427.847	840.69
428.069	672.69
428.292	587.69
428.514	547.69
428.736	499.69
428.958	495.69
429.181	483.69
429.403	480.69
429.625	489.69
429.847	531.69
430.069	586.69
430.292	597.69
430.514	516.69
430.736	489.69
430.958	483.69
431.18	476.69
431.402	450.69
431.624	434.69
431.846	437.69
432.068	429.69
432.29	426.69
432.512	456.69
432.734	479.69
432.956	439.69
433.178	458.69
433.4	479.69
433.622	470.69
433.844	451.69
434.066	437.69
434.287	435.69
434.509	425.69
434.731	478.69
434.953	454.69
435.175	479.69
435.397	501.69
435.618	521.69
435.84	587.69
436.062	690.69
436.284	726.69
436.505	605.69
436.727	542.69
436.949	522.69
437.17	467.69
437.392	497.69
437.614	466.69
437.835	531.69
438.057	655.69
438.278	759.69
438.5	766.69
438.721	830.69
438.943	788.69
439.165	618.69
439.386	561.69
439.608	535.69
439.829	541.69
440.05	586.69
440.272	639.69
440.493	601.69
440.715	542.69
440.936	493.69
441.158	471.69
441.379	469.69
441.6	483.69
441.822	499.69
442.043	567.69
442.264	658.69
442.486	704.69
442.707	580.69
442.928	539.69
443.149	551.69
443.371	555.69
443.592	617.69
443.813	695.69
444.034	762.69
444.255	631.69
444.476	557.69
444.698	533.69
444.919	511.69
445.14	601.69
445.361	566.69
445.582	571.69
445.803	658.69
446.024	771.69
446.245	793.69
446.466	715.69
446.687	582.69
446.908	525.69
447.129	505.69
447.35	519.69
447.571	487.69
447.792	474.69
448.013	492.69
448.234	516.69
448.455	557.69
448.675	677.69
448.896	817.69
449.117	681.69
449.338	650.69
449.559	733.69
449.779	856.69
450	679.69
450.221	563.69
450.442	514.69
450.662	484.69
450.883	505.69
451.104	528.69
451.324	526.69
451.545	470.69
451.766	465.69
451.986	449.69
452.207	441.69
452.428	433.69
452.648	435.69
452.869	461.69
453.089	442.69
453.31	458.69
453.53	447.69
453.751	449.69
453.971	456.69
454.192	461.69
454.412	453.69
454.633	421.69
454.853	422.69
455.073	431.69
455.294	462.69
455.514	545.69
455.734	520.69
455.955	453.69
456.175	393.69
456.395	413.69
456.616	411.69
456.836	395.69
457.056	406.69
457.276	393.69
457.497	395.69
457.717	388.69
457.937	395.69
458.157	405.69
458.377	397.69
458.598	425.69
458.818	518.69
459.038	590.69
459.258	611.69
459.478	538.69
459.698	465.69
459.918	443.69
460.138	438.69
460.358	421.69
460.578	450.69
460.798	445.69
461.018	457.69
461.238	428.69
461.458	429.69
461.678	403.69
461.898	449.69
462.118	437.69
462.338	441.69
462.558	445.69
462.777	463.69
462.997	435.69
463.217	451.69
463.437	461.69
463.657	445.69
463.876	462.69
464.096	458.69
464.316	459.69
464.536	452.69
464.755	486.69
464.975	483.69
465.195	550.69
465.414	625.69
465.634	556.69
465.854	501.69
466.073	460.69
466.293	455.69
466.512	443.69
466.732	413.69
466.951	426.69
467.171	427.69
467.391	434.69
467.61	457.69
467.829	450.69
468.049	452.69
468.268	443.69
468.488	439.69
468.707	434.69
468.927	409.69
469.146	411.69
469.365	414.69
469.585	415.69
469.804	445.69
470.023	453.69
470.243	451.69
470.462	443.69
470.681	478.69
470.901	485.69
471.12	460.69
471.339	442.69
471.558	448.69
471.777	458.69
471.997	446.69
472.216	462.69
472.435	535.69
472.654	515.69
472.873	450.69
473.092	461.69
473.311	440.69
473.53	467.69
473.749	463.69
473.968	513.69
474.187	603.69
474.406	627.69
474.625	534.69
474.844	472.69
475.063	435.69
475.282	447.69
475.501	449.69
475.72	444.69
475.939	461.69
476.158	458.69
476.377	451.69
476.596	439.69
476.814	462.69
477.033	467.69
477.252	463.69
477.471	451.69
477.69	477.69
477.908	475.69
478.127	476.69
478.346	471.69
478.564	470.69
478.783	468.69
479.002	494.69
479.22	501.69
479.439	512.69
479.658	526.69
479.876	517.69
480.095	543.69
480.313	570.69
480.532	560.69
480.751	556.69
480.969	572.69
481.188	646.69
481.406	692.69
481.624	605.69
481.843	550.69
482.061	549.69
482.28	523.69
482.498	518.69
482.717	524.69
482.935	528.69
483.153	515.69
483.372	506.69
483.59	531.69
483.808	529.69
484.027	515.69
484.245	506.69
484.463	528.69
484.681	550.69
484.9	510.69
485.118	506.69
485.336	531.69
485.554	533.69
485.772	533.69
485.99	522.69
486.209	535.69
486.427	532.69
486.645	535.69
486.863	571.69
487.081	600.69
487.299	557.69
487.517	553.69
487.735	556.69
487.953	540.69
488.171	551.69
488.389	569.69
488.607	543.69
488.825	561.69
489.043	567.69
489.261	575.69
489.479	557.69
489.696	578.69
489.914	561.69
490.132	571.69
490.35	583.69
490.568	590.69
490.786	618.69
491.003	622.69
491.221	626.69
491.439	617.69
491.657	637.69
491.874	623.69
492.092	621.69
492.31	618.69
492.527	651.69
492.745	655.69
492.963	638.69
493.18	649.69
493.398	679.69
493.615	661.69
493.833	678.69
494.05	673.69
494.268	641.69
494.485	674.69
494.703	655.69
494.92	682.69
495.138	674.69
495.355	654.69
495.573	687.69
495.79	684.69
496.008	673.69
496.225	668.69
496.442	655.69
496.66	671.69
496.877	670.69
497.094	682.69
497.312	687.69
497.529	677.69
497.746	692.69
497.963	675.69
498.181	727.69
498.398	705.69
498.615	727.69
498.832	721.69
499.049	728.69
499.267	741.69
499.484	757.69
499.701	772.69
499.918	761.69
500.135	796.69
500.352	813.69
500.569	849.69
500.786	850.69
501.003	842.69
501.22	801.69
501.437	801.69
501.654	799.69
501.871	807.69
502.088	801.69
502.305	746.69
502.522	710.69
502.739	717.69
502.956	708.69
503.172	690.69
503.389	723.69
503.606	685.69
503.823	666.69
504.04	676.69
504.256	660.69
504.473	656.69
504.69	661.69
504.907	665.69
505.123	663.69
505.34	638.69
505.557	648.69
505.773	679.69
505.99	654.69
506.207	649.69
506.423	646.69
506.64	634.69
506.856	629.69
507.073	632.69
507.289	645.69
507.506	618.69
507.722	643.69
507.939	672.69
508.155	653.69
508.372	625.69
508.588	611.69
508.805	602.69
509.021	647.69
509.238	639.69
509.454	653.69
509.67	632.69
509.887	618.69
510.103	629.69
510.319	650.69
510.536	757.69
510.752	1343.69
510.968	1063.69
511.184	673.69
511.401	640.69
511.617	594.69
511.833	600.69
512.049	596.69
512.265	619.69
512.481	609.69
512.698	585.69
512.914	577.69
513.13	575.69
513.346	591.69
513.562	608.69
513.778	614.69
513.994	585.69
514.21	627.69
514.426	671.69
514.642	700.69
514.858	725.69
515.074	802.69
515.29	953.69
515.506	1501.69
515.721	1214.69
515.937	772.69
516.153	681.69
516.369	647.69
516.585	631.69
516.801	635.69
517.016	611.69
517.232	614.69
517.448	607.69
517.664	603.69
517.879	581.69
518.095	591.69
518.311	596.69
518.527	589.69
518.742	616.69
518.958	599.69
519.173	600.69
519.389	569.69
519.605	585.69
519.82	603.69
520.036	622.69
520.251	619.69
520.467	713.69
520.682	689.69
520.898	703.69
521.113	723.69
521.329	784.69
521.544	893.69
521.76	1200.69
521.975	1991.69
522.19	1989.69
522.406	1036.69
522.621	749.69
522.836	651.69
523.052	637.69
523.267	606.69
523.482	565.69
523.698	575.69
523.913	563.69
524.128	542.69
524.343	522.69
524.559	524.69
524.774	524.69
524.989	515.69
525.204	514.69
525.419	554.69
525.634	521.69
525.849	513.69
526.064	499.69
526.28	509.69
526.495	478.69
526.71	499.69
526.925	489.69
527.14	490.69
527.355	476.69
527.57	473.69
527.785	498.69
527.999	451.69
528.214	459.69
528.429	476.69
528.644	482.69
528.859	493.69
529.074	475.69
529.289	527.69
529.503	633.69
529.718	599.69
529.933	515.69
530.148	507.69
530.363	484.69
530.577	484.69
530.792	466.69
531.007	459.69
531.221	484.69
531.436	461.69
531.651	466.69
531.865	467.69
532.08	453.69
532.295	467.69
532.509	460.69
532.724	430.69
532.938	453.69
533.153	441.69
533.367	445.69
533.582	445.69
533.796	431.69
534.011	441.69
534.225	431.69
534.44	431.69
534.654	462.69
534.868	454.69
535.083	421.69
535.297	425.69
535.511	439.69
535.726	448.69
535.94	456.69
536.154	446.69
536.369	433.69
536.583	433.69
536.797	435.69
537.011	427.69
537.225	433.69
537.44	417.69
537.654	433.69
537.868	454.69
538.082	444.69
538.296	438.69
538.51	442.69
538.724	435.69
538.938	422.69
539.153	435.69
539.367	436.69
539.581	459.69
539.795	449.69
540.009	414.69
540.222	411.69
540.436	451.69
540.65	444.69
540.864	449.69
541.078	442.69
541.292	456.69
541.506	420.69
541.72	411.69
541.934	415.69
542.147	426.69
542.361	439.69
542.575	425.69
542.789	424.69
543.002	427.69
543.216	446.69
543.43	441.69
543.644	440.69
543.857	435.69
544.071	419.69
544.285	423.69
544.498	433.69
544.712	441.69
544.925	437.69
545.139	405.69
545.352	424.69
545.566	400.69
545.779	418.69
545.993	415.69
546.206	432.69
546.42	417.69
546.633	412.69
546.847	409.69
547.06	404.69
547.274	418.69
547.487	403.69
547.7	425.69
547.914	401.69
548.127	405.69
548.34	373.69
548.554	415.69
548.767	421.69
548.98	414.69
549.193	399.69
549.407	407.69
549.62	393.69
549.833	389.69
550.046	395.69
550.259	393.69
550.473	361.69
550.686	401.69
550.899	392.69
551.112	398.69
551.325	400.69
551.538	399.69
551.751	394.69
551.964	388.69
552.177	393.69
552.39	365.69
552.603	387.69
552.816	391.69
553.029	382.69
553.242	400.69
553.455	393.69
553.667	427.69
553.88	406.69
554.093	420.69
554.306	418.69
554.519	417.69
554.732	410.69
554.944	381.69
555.157	386.69
555.37	375.69
555.583	377.69
555.795	384.69
556.008	377.69
556.221	381.69
556.433	365.69
556.646	393.69
556.859	359.69
557.071	387.69
557.284	338.69
557.496	359.69
557.709	362.69
557.921	378.69
558.134	372.69
558.346	373.69
558.559	355.69
558.771	352.69
558.984	366.69
559.196	367.69
559.409	364.69
559.621	354.69
559.833	350.69
560.046	359.69
560.258	366.69
560.47	348.69
560.683	359.69
560.895	362.69
561.107	354.69
561.32	360.69
561.532	376.69
561.744	355.69
561.956	365.69
562.168	355.69
562.381	358.69
562.593	362.69
562.805	374.69
563.017	359.69
563.229	349.69
563.441	345.69
563.653	353.69
563.865	353.69
564.077	364.69
564.289	355.69
564.501	351.69
564.713	357.69
564.925	359.69
565.137	404.69
565.349	392.69
565.561	366.69
565.773	392.69
565.985	396.69
566.197	382.69
566.408	391.69
566.62	392.69
566.832	395.69
567.044	415.69
567.255	422.69
567.467	424.69
567.679	421.69
567.891	425.69
568.102	405.69
568.314	390.69
568.526	401.69
568.737	374.69
568.949	392.69
569.161	361.69
569.372	379.69
569.584	372.69
569.795	359.69
570.007	377.69
570.218	421.69
570.43	411.69
570.641	352.69
570.853	358.69
571.064	333.69
571.276	356.69
571.487	337.69
571.698	320.69
571.91	324.69
572.121	322.69
572.333	337.69
572.544	320.69
572.755	311.69
572.966	328.69
573.178	334.69
573.389	311.69
573.6	332.69
573.811	319.69
574.023	305.69
574.234	311.69
574.445	312.69
574.656	302.69
574.867	300.69
575.078	317.69
575.289	305.69
575.501	311.69
575.712	311.69
575.923	316.69
576.134	326.69
576.345	326.69
576.556	303.69
576.767	301.69
576.978	305.69
577.188	302.69
577.399	315.69
577.61	315.69
577.821	322.69
578.032	321.69
578.243	362.69
578.454	622.69
578.665	462.69
578.875	310.69
579.086	309.69
579.297	292.69
579.508	280.69
579.718	295.69
579.929	302.69
580.14	295.69
580.35	291.69
580.561	304.69
580.772	291.69
580.982	305.69
581.193	290.69
581.403	268.69
581.614	274.69
581.825	270.69
582.035	283.69
582.246	279.69
582.456	296.69
582.667	296.69
582.877	291.69
583.087	291.69
583.298	276.69
583.508	285.69
583.719	295.69
583.929	278.69
584.139	291.69
584.35	278.69
584.56	301.69
584.77	283.69
584.981	290.69
585.191	293.69
585.401	272.69
585.611	271.69
585.821	290.69
586.032	291.69
586.242	283.69
586.452	274.69
586.662	286.69
586.872	275.69
587.082	268.69
587.292	281.69
587.502	255.69
587.713	275.69
587.923	259.69
588.133	265.69
588.343	273.69
588.553	282.69
588.762	287.69
588.972	287.69
589.182	274.69
589.392	281.69
589.602	260.69
589.812	283.69
590.022	283.69
590.232	271.69
590.441	288.69
590.651	290.69
590.861	283.69
591.071	277.69
591.281	269.69
591.49	275.69
591.7	279.69
591.91	288.69
592.119	259.69
592.329	280.69
592.539	267.69
592.748	291.69
592.958	288.69
593.167	268.69
593.377	274.69
593.587	305.69
593.796	286.69
594.006	289.69
594.215	272.69
594.424	273.69
594.634	275.69
594.843	273.69
595.053	270.69
595.262	273.69
595.472	273.69
595.681	271.69
595.89	252.69
596.1	278.69
596.309	251.69
596.518	271.69
596.727	269.69
596.937	243.69
597.146	243.69
597.355	254.69
597.564	234.69
597.774	233.69
597.983	260.69
598.192	240.69
598.401	249.69
598.61	245.69
598.819	250.69
599.028	257.69
599.237	253.69
599.446	243.69
599.655	246.69
599.864	237.69
600.073	231.69
600.282	235.69
600.491	246.69
600.7	240.69
600.909	238.69
601.118	245.69
601.327	253.69
601.536	230.69
601.745	231.69
601.953	226.69
602.162	226.69
602.371	225.69
602.58	241.69
602.789	231.69
602.997	234.69
603.206	248.69
603.415	244.69
603.623	226.69
603.832	249.69
604.041	250.69
604.249	213.69
604.458	218.69
604.666	227.69
604.875	232.69
605.084	246.69
605.292	245.69
605.501	236.69
605.709	223.69
605.918	236.69
606.126	228.69
606.334	229.69
606.543	236.69
606.751	222.69
606.96	225.69
607.168	233.69
607.376	228.69
607.585	233.69
607.793	236.69
608.001	237.69
608.21	221.69
608.418	228.69
608.626	225.69
608.834	229.69
609.043	226.69
609.251	229.69
609.459	234.69
609.667	233.69
609.875	221.69
610.083	229.69
610.291	223.69
610.499	220.69
610.707	229.69
610.916	208.69
611.124	231.69
611.332	241.69
611.54	245.69
611.748	237.69
611.955	231.69
612.163	216.69
612.371	212.69
612.579	222.69
612.787	222.69
612.995	225.69
613.203	227.69
613.411	212.69
613.618	231.69
613.826	213.69
614.034	204.69
614.242	204.69
614.449	234.69
614.657	223.69
614.865	230.69
615.072	210.69
615.28	230.69
615.488	226.69
615.695	222.69
615.903	232.69
616.111	211.69
616.318	221.69
616.526	214.69
616.733	231.69
616.941	215.69
617.148	205.69
617.356	206.69
617.563	218.69
617.771	218.69
617.978	200.69
618.185	228.69
618.393	218.69
618.6	203.69
618.807	218.69
619.015	204.69
619.222	205.69
619.429	218.69
619.637	223.69
619.844	217.69
620.051	211.69
620.258	214.69
620.466	211.69
620.673	206.69
620.88	207.69
621.087	216.69
621.294	204.69
621.501	196.69
621.708	224.69
621.915	200.69
622.122	205.69
622.329	206.69
622.536	226.69
622.743	212.69
622.95	193.69
623.157	188.69
623.364	199.69
623.571	197.69
623.778	207.69
623.985	218.69
624.192	204.69
624.399	207.69
624.606	194.69
624.812	201.69
625.019	205.69
625.226	199.69
625.433	190.69
625.639	196.69
625.846	192.69
626.053	195.69
626.259	194.69
626.466	205.69
626.673	204.69
626.879	207.69
627.086	198.69
627.293	191.69
627.499	206.69
627.706	207.69
627.912	198.69
628.119	199.69
628.325	190.69
628.532	201.69
628.738	189.69
628.945	188.69
629.151	181.69
629.357	204.69
629.564	189.69
629.77	211.69
629.976	216.69
630.183	200.69
630.389	184.69
630.595	196.69
630.802	184.69
631.008	177.69
631.214	183.69
631.42	177.69
631.627	175.69
631.833	185.69
632.039	188.69
632.245	180.69
632.451	175.69
632.657	178.69
632.863	158.69
633.069	196.69
633.275	177.69
633.481	173.69
633.688	181.69
633.893	178.69
634.099	170.69
634.305	175.69
634.511	179.69
634.717	183.69
634.923	175.69
635.129	170.69
635.335	187.69
635.541	169.69
635.747	169.69
635.952	171.69
636.158	166.69
636.364	183.69
636.57	184.69
636.775	170.69
636.981	181.69
637.187	174.69
637.392	152.69
637.598	177.69
637.804	184.69
638.009	162.69
638.215	169.69
638.421	180.69
638.626	174.69
638.832	165.69
639.037	157.69
639.243	152.69
639.448	177.69
639.654	179.69
639.859	166.69
640.065	147.69
640.27	169.69
640.475	170.69
640.681	162.69
640.886	167.69
641.091	155.69
641.297	167.69
641.502	181.69
641.707	177.69
641.913	159.69
642.118	154.69
642.323	155.69
642.528	150.69
642.733	158.69
642.939	163.69
643.144	173.69
643.349	152.69
643.554	159.69
643.759	157.69
643.964	156.69
644.169	163.69
644.374	144.69
644.579	150.69
644.784	156.69
644.989	168.69
645.194	174.69
645.399	169.69
645.604	163.69
645.809	149.69
646.014	161.69
646.219	164.69
646.423	159.69
646.628	152.69
646.833	155.69
647.038	162.69
647.243	156.69
647.447	159.69
647.652	167.69
647.857	156.69
648.062	153.69
648.266	156.69
648.471	157.69
648.676	170.69
648.88	159.69
649.085	163.69
649.289	172.69
649.494	187.69
649.698	175.69
649.903	204.69
650.107	169.69
650.312	163.69
650.516	166.69
650.721	158.69
650.925	160.69
651.13	155.69
651.334	148.69
651.539	130.69
651.743	146.69
651.947	143.69
652.152	157.69
652.356	143.69
652.56	138.69
652.764	139.69
652.969	137.69
653.173	135.69
653.377	138.69
653.581	132.69
653.785	129.69
653.99	130.69
654.194	125.69
654.398	149.69
654.602	139.69
654.806	126.69
655.01	135.69
655.214	128.69
655.418	138.69
655.622	130.69
655.826	128.69
656.03	140.69
656.234	125.69
656.438	129.69
656.642	124.69
656.846	127.69
657.049	124.69
657.253	126.69
657.457	121.69
657.661	110.69
657.865	107.69
658.068	99.69
658.272	107.69
658.476	109.69
658.68	112.69
658.883	108.69
659.087	98.69
659.291	94.69
659.494	103.69
659.698	101.69
659.901	75.69
660.105	108.69
660.309	94.69
660.512	88.69
660.716	96.69
660.919	84.69
661.123	102.69
661.326	104.69
661.53	83.69
661.733	102.69
661.936	90.69
662.14	81.69
662.343	81.69
662.546	92.69
662.75	94.69
662.953	83.69
663.156	93.69
663.36	69.69
663.563	76.69
663.766	79.69
663.969	72.69
664.173	103.69
664.376	75.69
664.579	85.69
664.782	88.69
664.985	87.69
665.188	89.69
665.391	90.69
665.594	78.69
665.797	88.69
666	89.69
666.203	82.69
666.406	87.69
666.609	84.69
666.812	75.69
667.015	83.69
667.218	89.69
667.421	93.69
667.624	78.69
667.827	82.69
668.03	74.69
668.232	89.69
668.435	94.69
668.638	80.69
668.841	84.69
669.043	74.69
669.246	82.69
669.449	90.69
669.651	84.69
669.854	81.69
670.057	95.69
670.259	85.69
670.462	82.69
670.665	74.69
670.867	86.69
671.07	74.69
671.272	94.69
671.475	86.69
671.677	77.69
671.88	71.69
672.082	73.69
672.284	94.69
672.487	82.69
672.689	92.69
672.892	87.69
