Data from 1972.PennyLincolnUp.Lamp.En5.5.200Scan.071719.P1._HRD10591_15-29-46-844.txt Node
Date: Thu Jul 18 15:29:46 EDT 2019
User: cochatt
Spectrometer: HR+D1059
Trigger mode: 1
Integration Time (sec): 1.000000E-1
Scans to average: 1
Electric dark correction enabled: true
Nonlinearity correction enabled: false
Boxcar width: 0
XAxis mode: Wavelengths
Number of Pixels in Spectrum: 2048
>>>>>Begin Spectral Data<<<<<
223.165	-13.25
223.4	-13.25
223.635	-13.25
223.869	-13.25
224.104	-14.25
224.338	-2.25
224.573	-14.25
224.808	-19.25
225.042	-5.25
225.277	-11.25
225.511	-14.25
225.746	-10.25
225.98	1.75
226.215	11.75
226.449	19.75
226.683	30.75
226.918	22.75
227.152	30.75
227.387	37.75
227.621	27.75
227.856	38.75
228.09	40.75
228.324	38.75
228.559	56.75
228.793	75.75
229.027	106.75
229.262	122.75
229.496	116.75
229.73	126.75
229.964	161.75
230.199	144.75
230.433	124.75
230.667	121.75
230.901	108.75
231.136	116.75
231.37	106.75
231.604	109.75
231.838	124.75
232.072	104.75
232.306	97.75
232.541	102.75
232.775	128.75
233.009	121.75
233.243	123.75
233.477	106.75
233.711	112.75
233.945	126.75
234.179	122.75
234.413	116.75
234.647	111.75
234.881	114.75
235.115	123.75
235.349	128.75
235.583	120.75
235.817	144.75
236.051	145.75
236.285	130.75
236.519	139.75
236.753	138.75
236.987	153.75
237.221	222.75
237.455	272.75
237.689	212.75
237.922	162.75
238.156	141.75
238.39	133.75
238.624	139.75
238.858	126.75
239.091	128.75
239.325	116.75
239.559	124.75
239.793	123.75
240.027	135.75
240.26	137.75
240.494	167.75
240.728	166.75
240.961	166.75
241.195	131.75
241.429	152.75
241.662	130.75
241.896	132.75
242.13	130.75
242.363	144.75
242.597	132.75
242.83	147.75
243.064	120.75
243.298	136.75
243.531	146.75
243.765	142.75
243.998	160.75
244.232	150.75
244.465	145.75
244.699	131.75
244.932	150.75
245.166	152.75
245.399	146.75
245.633	148.75
245.866	145.75
246.099	141.75
246.333	140.75
246.566	164.75
246.8	155.75
247.033	148.75
247.266	150.75
247.5	177.75
247.733	160.75
247.966	172.75
248.2	172.75
248.433	165.75
248.666	190.75
248.899	182.75
249.133	200.75
249.366	221.75
249.599	218.75
249.832	188.75
250.066	193.75
250.299	187.75
250.532	189.75
250.765	209.75
250.998	230.75
251.231	245.75
251.465	217.75
251.698	214.75
251.931	210.75
252.164	212.75
252.397	215.75
252.63	204.75
252.863	205.75
253.096	218.75
253.329	239.75
253.562	252.75
253.795	236.75
254.028	243.75
254.261	242.75
254.494	250.75
254.727	271.75
254.96	293.75
255.193	315.75
255.426	285.75
255.659	253.75
255.892	260.75
256.124	268.75
256.357	255.75
256.59	251.75
256.823	225.75
257.056	228.75
257.289	216.75
257.521	227.75
257.754	209.75
257.987	214.75
258.22	219.75
258.452	216.75
258.685	214.75
258.918	215.75
259.151	218.75
259.383	239.75
259.616	246.75
259.849	231.75
260.081	248.75
260.314	266.75
260.547	297.75
260.779	266.75
261.012	261.75
261.244	256.75
261.477	248.75
261.71	222.75
261.942	227.75
262.175	266.75
262.407	243.75
262.64	221.75
262.872	222.75
263.105	232.75
263.337	225.75
263.57	213.75
263.802	230.75
264.035	230.75
264.267	209.75
264.499	217.75
264.732	208.75
264.964	222.75
265.197	214.75
265.429	224.75
265.661	204.75
265.894	214.75
266.126	221.75
266.358	229.75
266.591	224.75
266.823	217.75
267.055	248.75
267.287	247.75
267.52	217.75
267.752	251.75
267.984	233.75
268.216	231.75
268.448	243.75
268.681	240.75
268.913	238.75
269.145	276.75
269.377	306.75
269.609	288.75
269.841	279.75
270.073	297.75
270.306	323.75
270.538	360.75
270.77	343.75
271.002	332.75
271.234	327.75
271.466	326.75
271.698	316.75
271.93	362.75
272.162	345.75
272.394	338.75
272.626	328.75
272.858	311.75
273.09	311.75
273.322	310.75
273.553	279.75
273.785	273.75
274.017	260.75
274.249	288.75
274.481	273.75
274.713	278.75
274.945	288.75
275.176	291.75
275.408	284.75
275.64	279.75
275.872	278.75
276.104	291.75
276.335	281.75
276.567	284.75
276.799	293.75
277.031	322.75
277.262	333.75
277.494	340.75
277.726	341.75
277.957	321.75
278.189	303.75
278.421	281.75
278.652	284.75
278.884	274.75
279.115	270.75
279.347	274.75
279.579	297.75
279.81	286.75
280.042	280.75
280.273	270.75
280.505	275.75
280.736	247.75
280.968	250.75
281.199	273.75
281.431	275.75
281.662	274.75
281.894	267.75
282.125	282.75
282.356	291.75
282.588	320.75
282.819	322.75
283.051	294.75
283.282	279.75
283.513	303.75
283.745	285.75
283.976	277.75
284.207	270.75
284.439	283.75
284.67	291.75
284.901	274.75
285.132	276.75
285.364	275.75
285.595	280.75
285.826	278.75
286.057	280.75
286.288	293.75
286.52	283.75
286.751	274.75
286.982	285.75
287.213	273.75
287.444	287.75
287.675	288.75
287.906	301.75
288.138	292.75
288.369	314.75
288.6	294.75
288.831	310.75
289.062	312.75
289.293	300.75
289.524	283.75
289.755	288.75
289.986	290.75
290.217	292.75
290.448	276.75
290.679	270.75
290.91	297.75
291.141	274.75
291.371	302.75
291.602	282.75
291.833	295.75
292.064	277.75
292.295	270.75
292.526	272.75
292.757	276.75
292.987	302.75
293.218	290.75
293.449	280.75
293.68	297.75
293.91	288.75
294.141	277.75
294.372	269.75
294.603	290.75
294.833	294.75
295.064	302.75
295.295	296.75
295.525	291.75
295.756	291.75
295.987	323.75
296.217	328.75
296.448	346.75
296.679	307.75
296.909	308.75
297.14	277.75
297.37	287.75
297.601	297.75
297.831	291.75
298.062	309.75
298.292	308.75
298.523	313.75
298.753	301.75
298.984	300.75
299.214	306.75
299.445	292.75
299.675	326.75
299.905	321.75
300.136	317.75
300.366	307.75
300.597	330.75
300.827	325.75
301.057	310.75
301.288	331.75
301.518	329.75
301.748	304.75
301.979	315.75
302.209	320.75
302.439	340.75
302.669	320.75
302.9	307.75
303.13	318.75
303.36	314.75
303.59	344.75
303.82	339.75
304.051	342.75
304.281	326.75
304.511	322.75
304.741	317.75
304.971	318.75
305.201	318.75
305.431	321.75
305.661	306.75
305.891	320.75
306.121	325.75
306.352	355.75
306.582	336.75
306.812	331.75
307.042	327.75
307.272	320.75
307.502	340.75
307.731	329.75
307.961	319.75
308.191	321.75
308.421	325.75
308.651	343.75
308.881	358.75
309.111	330.75
309.341	338.75
309.571	349.75
309.8	387.75
310.03	368.75
310.26	382.75
310.49	390.75
310.72	412.75
310.949	428.75
311.179	422.75
311.409	394.75
311.639	401.75
311.868	386.75
312.098	368.75
312.328	396.75
312.557	416.75
312.787	458.75
313.017	424.75
313.246	414.75
313.476	397.75
313.706	384.75
313.935	378.75
314.165	438.75
314.394	427.75
314.624	411.75
314.853	395.75
315.083	393.75
315.312	397.75
315.542	386.75
315.771	379.75
316.001	374.75
316.23	368.75
316.46	376.75
316.689	382.75
316.919	390.75
317.148	401.75
317.377	386.75
317.607	396.75
317.836	387.75
318.065	379.75
318.295	381.75
318.524	391.75
318.753	380.75
318.983	368.75
319.212	385.75
319.441	409.75
319.67	396.75
319.9	396.75
320.129	394.75
320.358	396.75
320.587	404.75
320.816	408.75
321.046	412.75
321.275	415.75
321.504	416.75
321.733	406.75
321.962	434.75
322.191	446.75
322.42	470.75
322.649	472.75
322.878	486.75
323.108	501.75
323.337	547.75
323.566	575.75
323.795	616.75
324.024	692.75
324.253	841.75
324.482	1273.75
324.71	2050.75
324.939	2964.75
325.168	2608.75
325.397	1283.75
325.626	809.75
325.855	665.75
326.084	608.75
326.313	575.75
326.542	578.75
326.77	654.75
326.999	780.75
327.228	1117.75
327.457	1767.75
327.686	2166.75
327.914	1468.75
328.143	909.75
328.372	797.75
328.6	690.75
328.829	675.75
329.058	678.75
329.287	692.75
329.515	627.75
329.744	588.75
329.972	571.75
330.201	636.75
330.43	658.75
330.658	717.75
330.887	733.75
331.115	699.75
331.344	588.75
331.572	553.75
331.801	529.75
332.03	514.75
332.258	521.75
332.486	489.75
332.715	468.75
332.943	449.75
333.172	486.75
333.4	482.75
333.629	470.75
333.857	497.75
334.085	509.75
334.314	524.75
334.542	590.75
334.771	594.75
334.999	521.75
335.227	483.75
335.455	478.75
335.684	464.75
335.912	456.75
336.14	420.75
336.369	445.75
336.597	458.75
336.825	449.75
337.053	443.75
337.281	448.75
337.51	455.75
337.738	440.75
337.966	448.75
338.194	437.75
338.422	469.75
338.65	446.75
338.878	432.75
339.106	440.75
339.334	418.75
339.562	438.75
339.79	408.75
340.018	415.75
340.246	438.75
340.474	449.75
340.702	427.75
340.93	440.75
341.158	419.75
341.386	417.75
341.614	432.75
341.842	434.75
342.07	443.75
342.298	426.75
342.526	424.75
342.754	421.75
342.981	406.75
343.209	391.75
343.437	388.75
343.665	422.75
343.893	413.75
344.12	415.75
344.348	400.75
344.576	401.75
344.804	460.75
345.031	452.75
345.259	474.75
345.487	451.75
345.714	441.75
345.942	417.75
346.17	406.75
346.397	393.75
346.625	412.75
346.853	434.75
347.08	425.75
347.308	423.75
347.535	448.75
347.763	442.75
347.99	432.75
348.218	426.75
348.445	453.75
348.673	433.75
348.9	410.75
349.128	421.75
349.355	390.75
349.583	398.75
349.81	398.75
350.037	393.75
350.265	396.75
350.492	406.75
350.72	406.75
350.947	406.75
351.174	433.75
351.402	438.75
351.629	428.75
351.856	413.75
352.083	445.75
352.311	432.75
352.538	457.75
352.765	450.75
352.992	431.75
353.22	427.75
353.447	404.75
353.674	419.75
353.901	408.75
354.128	396.75
354.355	372.75
354.583	380.75
354.81	360.75
355.037	378.75
355.264	386.75
355.491	375.75
355.718	380.75
355.945	374.75
356.172	359.75
356.399	367.75
356.626	365.75
356.853	372.75
357.08	354.75
357.307	368.75
357.534	368.75
357.761	390.75
357.988	367.75
358.215	366.75
358.441	369.75
358.668	364.75
358.895	384.75
359.122	385.75
359.349	396.75
359.576	426.75
359.802	468.75
360.029	495.75
360.256	501.75
360.483	475.75
360.709	417.75
360.936	414.75
361.163	412.75
361.39	421.75
361.616	409.75
361.843	410.75
362.07	419.75
362.296	414.75
362.523	438.75
362.749	410.75
362.976	415.75
363.203	410.75
363.429	392.75
363.656	408.75
363.882	392.75
364.109	376.75
364.335	382.75
364.562	371.75
364.788	368.75
365.015	398.75
365.241	390.75
365.468	392.75
365.694	389.75
365.92	399.75
366.147	377.75
366.373	371.75
366.599	341.75
366.826	374.75
367.052	394.75
367.278	392.75
367.505	388.75
367.731	377.75
367.957	392.75
368.184	385.75
368.41	380.75
368.636	402.75
368.862	416.75
369.089	386.75
369.315	387.75
369.541	402.75
369.767	375.75
369.993	382.75
370.219	393.75
370.445	379.75
370.672	387.75
370.898	367.75
371.124	358.75
371.35	377.75
371.576	372.75
371.802	380.75
372.028	382.75
372.254	356.75
372.48	355.75
372.706	370.75
372.932	364.75
373.158	376.75
373.384	374.75
373.61	374.75
373.835	368.75
374.061	372.75
374.287	379.75
374.513	385.75
374.739	395.75
374.965	372.75
375.191	365.75
375.416	362.75
375.642	366.75
375.868	367.75
376.094	378.75
376.319	355.75
376.545	365.75
376.771	382.75
376.997	357.75
377.222	380.75
377.448	364.75
377.674	370.75
377.899	349.75
378.125	361.75
378.35	353.75
378.576	377.75
378.802	350.75
379.027	368.75
379.253	370.75
379.478	362.75
379.704	355.75
379.929	365.75
380.155	376.75
380.38	376.75
380.606	362.75
380.831	375.75
381.057	372.75
381.282	366.75
381.507	351.75
381.733	350.75
381.958	361.75
382.184	385.75
382.409	370.75
382.634	369.75
382.86	376.75
383.085	369.75
383.31	402.75
383.535	376.75
383.761	376.75
383.986	391.75
384.211	381.75
384.436	363.75
384.662	414.75
384.887	394.75
385.112	382.75
385.337	389.75
385.562	393.75
385.787	385.75
386.013	393.75
386.238	386.75
386.463	384.75
386.688	385.75
386.913	398.75
387.138	381.75
387.363	371.75
387.588	374.75
387.813	388.75
388.038	383.75
388.263	392.75
388.488	384.75
388.713	393.75
388.938	398.75
389.163	390.75
389.387	404.75
389.612	378.75
389.837	400.75
390.062	394.75
390.287	386.75
390.512	380.75
390.736	387.75
390.961	377.75
391.186	408.75
391.411	393.75
391.636	380.75
391.86	375.75
392.085	381.75
392.31	388.75
392.534	397.75
392.759	380.75
392.984	391.75
393.208	412.75
393.433	407.75
393.658	418.75
393.882	391.75
394.107	410.75
394.331	386.75
394.556	394.75
394.78	383.75
395.005	389.75
395.229	394.75
395.454	407.75
395.678	384.75
395.903	409.75
396.127	419.75
396.352	444.75
396.576	424.75
396.801	421.75
397.025	422.75
397.249	410.75
397.474	416.75
397.698	418.75
397.922	430.75
398.147	436.75
398.371	466.75
398.595	425.75
398.82	421.75
399.044	433.75
399.268	438.75
399.492	458.75
399.717	486.75
399.941	501.75
400.165	508.75
400.389	561.75
400.613	488.75
400.837	476.75
401.062	473.75
401.286	442.75
401.51	457.75
401.734	442.75
401.958	452.75
402.182	459.75
402.406	444.75
402.63	459.75
402.854	458.75
403.078	455.75
403.302	448.75
403.526	449.75
403.75	462.75
403.974	466.75
404.198	458.75
404.422	485.75
404.645	478.75
404.869	485.75
405.093	485.75
405.317	565.75
405.541	586.75
405.765	561.75
405.988	514.75
406.212	514.75
406.436	539.75
406.66	542.75
406.883	532.75
407.107	541.75
407.331	579.75
407.555	641.75
407.778	633.75
408.002	582.75
408.226	520.75
408.449	527.75
408.673	526.75
408.896	554.75
409.12	604.75
409.344	570.75
409.567	509.75
409.791	473.75
410.014	462.75
410.238	435.75
410.461	468.75
410.685	457.75
410.908	475.75
411.132	515.75
411.355	539.75
411.578	536.75
411.802	470.75
412.025	475.75
412.249	475.75
412.472	517.75
412.695	551.75
412.919	547.75
413.142	509.75
413.365	470.75
413.589	469.75
413.812	433.75
414.035	445.75
414.258	445.75
414.482	442.75
414.705	428.75
414.928	442.75
415.151	424.75
415.374	432.75
415.597	420.75
415.821	426.75
416.044	459.75
416.267	428.75
416.49	446.75
416.713	417.75
416.936	430.75
417.159	432.75
417.382	433.75
417.605	446.75
417.828	445.75
418.051	468.75
418.274	459.75
418.497	455.75
418.72	458.75
418.943	416.75
419.166	434.75
419.389	464.75
419.611	461.75
419.834	464.75
420.057	466.75
420.28	485.75
420.503	484.75
420.726	472.75
420.948	491.75
421.171	560.75
421.394	550.75
421.617	479.75
421.839	463.75
422.062	461.75
422.285	476.75
422.507	544.75
422.73	625.75
422.953	614.75
423.175	536.75
423.398	485.75
423.621	508.75
423.843	512.75
424.066	523.75
424.288	525.75
424.511	525.75
424.733	612.75
424.956	716.75
425.178	650.75
425.401	648.75
425.623	695.75
425.846	600.75
426.068	562.75
426.291	549.75
426.513	516.75
426.735	523.75
426.958	553.75
427.18	677.75
427.402	812.75
427.625	916.75
427.847	804.75
428.069	708.75
428.292	620.75
428.514	564.75
428.736	481.75
428.958	502.75
429.181	476.75
429.403	500.75
429.625	490.75
429.847	558.75
430.069	619.75
430.292	610.75
430.514	507.75
430.736	502.75
430.958	484.75
431.18	467.75
431.402	441.75
431.624	448.75
431.846	453.75
432.068	434.75
432.29	422.75
432.512	445.75
432.734	452.75
432.956	433.75
433.178	466.75
433.4	497.75
433.622	456.75
433.844	448.75
434.066	445.75
434.287	444.75
434.509	457.75
434.731	457.75
434.953	473.75
435.175	479.75
435.397	511.75
435.618	540.75
435.84	569.75
436.062	701.75
436.284	756.75
436.505	608.75
436.727	572.75
436.949	493.75
437.17	487.75
437.392	497.75
437.614	510.75
437.835	540.75
438.057	666.75
438.278	766.75
438.5	777.75
438.721	849.75
438.943	797.75
439.165	631.75
439.386	567.75
439.608	562.75
439.829	562.75
440.05	580.75
440.272	644.75
440.493	587.75
440.715	534.75
440.936	504.75
441.158	510.75
441.379	501.75
441.6	490.75
441.822	555.75
442.043	579.75
442.264	660.75
442.486	740.75
442.707	617.75
442.928	548.75
443.149	543.75
443.371	586.75
443.592	635.75
443.813	706.75
444.034	760.75
444.255	646.75
444.476	570.75
444.698	554.75
444.919	503.75
445.14	605.75
445.361	599.75
445.582	605.75
445.803	664.75
446.024	805.75
446.245	800.75
446.466	730.75
446.687	596.75
446.908	552.75
447.129	487.75
447.35	518.75
447.571	515.75
447.792	486.75
448.013	504.75
448.234	506.75
448.455	593.75
448.675	729.75
448.896	826.75
449.117	658.75
449.338	627.75
449.559	794.75
449.779	872.75
450	702.75
450.221	572.75
450.442	532.75
450.662	512.75
450.883	530.75
451.104	519.75
451.324	504.75
451.545	462.75
451.766	451.75
451.986	436.75
452.207	444.75
452.428	434.75
452.648	451.75
452.869	442.75
453.089	452.75
453.31	479.75
453.53	446.75
453.751	428.75
453.971	457.75
454.192	467.75
454.412	446.75
454.633	455.75
454.853	422.75
455.073	426.75
455.294	474.75
455.514	550.75
455.734	514.75
455.955	450.75
456.175	435.75
456.395	418.75
456.616	416.75
456.836	419.75
457.056	403.75
457.276	392.75
457.497	402.75
457.717	406.75
457.937	416.75
458.157	404.75
458.377	424.75
458.598	442.75
458.818	522.75
459.038	624.75
459.258	629.75
459.478	527.75
459.698	458.75
459.918	446.75
460.138	439.75
460.358	438.75
460.578	422.75
460.798	437.75
461.018	430.75
461.238	432.75
461.458	448.75
461.678	437.75
461.898	421.75
462.118	411.75
462.338	458.75
462.558	436.75
462.777	437.75
462.997	446.75
463.217	453.75
463.437	458.75
463.657	426.75
463.876	454.75
464.096	445.75
464.316	455.75
464.536	481.75
464.755	485.75
464.975	490.75
465.195	548.75
465.414	634.75
465.634	553.75
465.854	498.75
466.073	453.75
466.293	454.75
466.512	441.75
466.732	428.75
466.951	436.75
467.171	416.75
467.391	428.75
467.61	453.75
467.829	459.75
468.049	449.75
468.268	460.75
468.488	434.75
468.707	436.75
468.927	422.75
469.146	425.75
469.365	420.75
469.585	414.75
469.804	436.75
470.023	481.75
470.243	434.75
470.462	458.75
470.681	468.75
470.901	461.75
471.12	456.75
471.339	459.75
471.558	452.75
471.777	453.75
471.997	424.75
472.216	466.75
472.435	520.75
472.654	497.75
472.873	459.75
473.092	455.75
473.311	438.75
473.53	440.75
473.749	447.75
473.968	523.75
474.187	651.75
474.406	674.75
474.625	538.75
474.844	473.75
475.063	460.75
475.282	457.75
475.501	452.75
475.72	444.75
475.939	437.75
476.158	457.75
476.377	474.75
476.596	442.75
476.814	448.75
477.033	460.75
477.252	494.75
477.471	459.75
477.69	472.75
477.908	476.75
478.127	475.75
478.346	449.75
478.564	470.75
478.783	506.75
479.002	506.75
479.22	498.75
479.439	515.75
479.658	547.75
479.876	563.75
480.095	554.75
480.313	574.75
480.532	567.75
480.751	522.75
480.969	550.75
481.188	652.75
481.406	701.75
481.624	633.75
481.843	585.75
482.061	548.75
482.28	560.75
482.498	518.75
482.717	529.75
482.935	531.75
483.153	514.75
483.372	503.75
483.59	506.75
483.808	532.75
484.027	535.75
484.245	522.75
484.463	520.75
484.681	533.75
484.9	530.75
485.118	533.75
485.336	527.75
485.554	536.75
485.772	537.75
485.99	534.75
486.209	533.75
486.427	545.75
486.645	564.75
486.863	564.75
487.081	592.75
487.299	573.75
487.517	571.75
487.735	565.75
487.953	566.75
488.171	587.75
488.389	571.75
488.607	579.75
488.825	560.75
489.043	576.75
489.261	563.75
489.479	546.75
489.696	568.75
489.914	566.75
490.132	580.75
490.35	582.75
490.568	579.75
490.786	609.75
491.003	596.75
491.221	642.75
491.439	641.75
491.657	635.75
491.874	655.75
492.092	657.75
492.31	641.75
492.527	649.75
492.745	637.75
492.963	648.75
493.18	680.75
493.398	676.75
493.615	673.75
493.833	677.75
494.05	658.75
494.268	675.75
494.485	677.75
494.703	664.75
494.92	668.75
495.138	680.75
495.355	695.75
495.573	680.75
495.79	671.75
496.008	670.75
496.225	665.75
496.442	648.75
496.66	668.75
496.877	680.75
497.094	683.75
497.312	684.75
497.529	722.75
497.746	711.75
497.963	706.75
498.181	723.75
498.398	719.75
498.615	732.75
498.832	731.75
499.049	745.75
499.267	709.75
499.484	742.75
499.701	757.75
499.918	792.75
500.135	799.75
500.352	808.75
500.569	820.75
500.786	822.75
501.003	833.75
501.22	822.75
501.437	826.75
501.654	803.75
501.871	812.75
502.088	793.75
502.305	758.75
502.522	742.75
502.739	725.75
502.956	705.75
503.172	678.75
503.389	690.75
503.606	688.75
503.823	699.75
504.04	695.75
504.256	693.75
504.473	667.75
504.69	663.75
504.907	685.75
505.123	655.75
505.34	655.75
505.557	633.75
505.773	675.75
505.99	658.75
506.207	668.75
506.423	664.75
506.64	653.75
506.856	644.75
507.073	654.75
507.289	637.75
507.506	645.75
507.722	674.75
507.939	684.75
508.155	655.75
508.372	630.75
508.588	642.75
508.805	631.75
509.021	628.75
509.238	641.75
509.454	646.75
509.67	659.75
509.887	644.75
510.103	612.75
510.319	681.75
510.536	787.75
510.752	1410.75
510.968	1138.75
511.184	701.75
511.401	619.75
511.617	634.75
511.833	622.75
512.049	601.75
512.265	600.75
512.481	616.75
512.698	608.75
512.914	610.75
513.13	605.75
513.346	617.75
513.562	594.75
513.778	603.75
513.994	631.75
514.21	637.75
514.426	665.75
514.642	725.75
514.858	765.75
515.074	840.75
515.29	1010.75
515.506	1615.75
515.721	1264.75
515.937	796.75
516.153	680.75
516.369	692.75
516.585	634.75
516.801	620.75
517.016	607.75
517.232	605.75
517.448	594.75
517.664	624.75
517.879	605.75
518.095	616.75
518.311	600.75
518.527	609.75
518.742	619.75
518.958	600.75
519.173	610.75
519.389	606.75
519.605	586.75
519.82	616.75
520.036	601.75
520.251	673.75
520.467	690.75
520.682	709.75
520.898	710.75
521.113	770.75
521.329	798.75
521.544	948.75
521.76	1212.75
521.975	2108.75
522.19	2028.75
522.406	1034.75
522.621	796.75
522.836	666.75
523.052	638.75
523.267	588.75
523.482	584.75
523.698	566.75
523.913	574.75
524.128	568.75
524.343	538.75
524.559	541.75
524.774	535.75
524.989	524.75
525.204	540.75
525.419	537.75
525.634	514.75
525.849	513.75
526.064	523.75
526.28	506.75
526.495	485.75
526.71	469.75
526.925	476.75
527.14	489.75
527.355	476.75
527.57	473.75
527.785	498.75
527.999	484.75
528.214	491.75
528.429	493.75
528.644	478.75
528.859	487.75
529.074	482.75
529.289	526.75
529.503	623.75
529.718	608.75
529.933	556.75
530.148	494.75
530.363	513.75
530.577	501.75
530.792	456.75
531.007	463.75
531.221	470.75
531.436	456.75
531.651	477.75
531.865	471.75
532.08	460.75
532.295	475.75
532.509	448.75
532.724	458.75
532.938	450.75
533.153	444.75
533.367	443.75
533.582	466.75
533.796	461.75
534.011	454.75
534.225	460.75
534.44	420.75
534.654	442.75
534.868	432.75
535.083	450.75
535.297	465.75
535.511	469.75
535.726	453.75
535.94	491.75
536.154	458.75
536.369	477.75
536.583	447.75
536.797	419.75
537.011	406.75
537.225	426.75
537.44	426.75
537.654	422.75
537.868	434.75
538.082	440.75
538.296	453.75
538.51	452.75
538.724	446.75
538.938	428.75
539.153	436.75
539.367	473.75
539.581	446.75
539.795	452.75
540.009	425.75
540.222	436.75
540.436	438.75
540.65	423.75
540.864	432.75
541.078	448.75
541.292	418.75
541.506	452.75
541.72	430.75
541.934	422.75
542.147	427.75
542.361	428.75
542.575	422.75
542.789	417.75
543.002	437.75
543.216	425.75
543.43	432.75
543.644	458.75
543.857	447.75
544.071	433.75
544.285	417.75
544.498	438.75
544.712	428.75
544.925	404.75
545.139	409.75
545.352	419.75
545.566	395.75
545.779	412.75
545.993	402.75
546.206	437.75
546.42	425.75
546.633	424.75
546.847	387.75
547.06	398.75
547.274	397.75
547.487	391.75
547.7	408.75
547.914	421.75
548.127	390.75
548.34	382.75
548.554	406.75
548.767	400.75
548.98	410.75
549.193	408.75
549.407	401.75
549.62	395.75
549.833	407.75
550.046	400.75
550.259	385.75
550.473	383.75
550.686	384.75
550.899	393.75
551.112	378.75
551.325	401.75
551.538	383.75
551.751	396.75
551.964	392.75
552.177	410.75
552.39	398.75
552.603	386.75
552.816	409.75
553.029	388.75
553.242	410.75
553.455	416.75
553.667	424.75
553.88	415.75
554.093	409.75
554.306	403.75
554.519	407.75
554.732	388.75
554.944	409.75
555.157	379.75
555.37	406.75
555.583	387.75
555.795	401.75
556.008	387.75
556.221	388.75
556.433	374.75
556.646	362.75
556.859	368.75
557.071	388.75
557.284	375.75
557.496	350.75
557.709	372.75
557.921	354.75
558.134	371.75
558.346	370.75
558.559	363.75
558.771	360.75
558.984	377.75
559.196	380.75
559.409	342.75
559.621	355.75
559.833	358.75
560.046	339.75
560.258	376.75
560.47	353.75
560.683	346.75
560.895	347.75
561.107	348.75
561.32	354.75
561.532	363.75
561.744	359.75
561.956	384.75
562.168	374.75
562.381	348.75
562.593	356.75
562.805	352.75
563.017	342.75
563.229	360.75
563.441	347.75
563.653	378.75
563.865	349.75
564.077	359.75
564.289	366.75
564.501	359.75
564.713	364.75
564.925	380.75
565.137	392.75
565.349	364.75
565.561	400.75
565.773	382.75
565.985	375.75
566.197	377.75
566.408	395.75
566.62	378.75
566.832	409.75
567.044	396.75
567.255	412.75
567.467	418.75
567.679	404.75
567.891	390.75
568.102	397.75
568.314	392.75
568.526	393.75
568.737	412.75
568.949	365.75
569.161	357.75
569.372	369.75
569.584	368.75
569.795	369.75
570.007	377.75
570.218	430.75
570.43	417.75
570.641	344.75
570.853	339.75
571.064	355.75
571.276	326.75
571.487	341.75
571.698	333.75
571.91	323.75
572.121	327.75
572.333	350.75
572.544	317.75
572.755	328.75
572.966	322.75
573.178	302.75
573.389	337.75
573.6	330.75
573.811	313.75
574.023	327.75
574.234	309.75
574.445	300.75
574.656	316.75
574.867	310.75
575.078	311.75
575.289	311.75
575.501	312.75
575.712	300.75
575.923	306.75
576.134	308.75
576.345	304.75
576.556	325.75
576.767	298.75
576.978	327.75
577.188	304.75
577.399	292.75
577.61	305.75
577.821	306.75
578.032	311.75
578.243	350.75
578.454	629.75
578.665	456.75
578.875	329.75
579.086	316.75
579.297	308.75
579.508	296.75
579.718	296.75
579.929	290.75
580.14	301.75
580.35	287.75
580.561	301.75
580.772	300.75
580.982	298.75
581.193	276.75
581.403	285.75
581.614	291.75
581.825	283.75
582.035	300.75
582.246	276.75
582.456	274.75
582.667	295.75
582.877	285.75
583.087	276.75
583.298	276.75
583.508	299.75
583.719	280.75
583.929	296.75
584.139	264.75
584.35	275.75
584.56	280.75
584.77	284.75
584.981	272.75
585.191	297.75
585.401	290.75
585.611	276.75
585.821	274.75
586.032	271.75
586.242	271.75
586.452	280.75
586.662	271.75
586.872	284.75
587.082	268.75
587.292	272.75
587.502	282.75
587.713	262.75
587.923	266.75
588.133	284.75
588.343	273.75
588.553	286.75
588.762	271.75
588.972	269.75
589.182	275.75
589.392	271.75
589.602	268.75
589.812	267.75
590.022	268.75
590.232	275.75
590.441	292.75
590.651	293.75
590.861	283.75
591.071	282.75
591.281	249.75
591.49	282.75
591.7	266.75
591.91	284.75
592.119	272.75
592.329	276.75
592.539	281.75
592.748	271.75
592.958	275.75
593.167	260.75
593.377	279.75
593.587	276.75
593.796	258.75
594.006	278.75
594.215	267.75
594.424	264.75
594.634	283.75
594.843	258.75
595.053	273.75
595.262	284.75
595.472	244.75
595.681	254.75
595.89	254.75
596.1	258.75
596.309	261.75
596.518	270.75
596.727	266.75
596.937	270.75
597.146	265.75
597.355	281.75
597.564	273.75
597.774	256.75
597.983	242.75
598.192	246.75
598.401	230.75
598.61	251.75
598.819	248.75
599.028	244.75
599.237	237.75
599.446	218.75
599.655	229.75
599.864	245.75
600.073	247.75
600.282	220.75
600.491	247.75
600.7	250.75
600.909	249.75
601.118	237.75
601.327	263.75
601.536	241.75
601.745	236.75
601.953	238.75
602.162	236.75
602.371	234.75
602.58	252.75
602.789	248.75
602.997	227.75
603.206	244.75
603.415	235.75
603.623	229.75
603.832	256.75
604.041	244.75
604.249	227.75
604.458	235.75
604.666	232.75
604.875	238.75
605.084	230.75
605.292	213.75
605.501	227.75
605.709	231.75
605.918	214.75
606.126	224.75
606.334	221.75
606.543	237.75
606.751	237.75
606.96	224.75
607.168	221.75
607.376	237.75
607.585	233.75
607.793	221.75
608.001	219.75
608.21	213.75
608.418	229.75
608.626	216.75
608.834	223.75
609.043	237.75
609.251	226.75
609.459	224.75
609.667	234.75
609.875	225.75
610.083	229.75
610.291	219.75
610.499	215.75
610.707	221.75
610.916	221.75
611.124	213.75
611.332	230.75
611.54	236.75
611.748	235.75
611.955	213.75
612.163	224.75
612.371	211.75
612.579	219.75
612.787	212.75
612.995	233.75
613.203	231.75
613.411	224.75
613.618	210.75
613.826	221.75
614.034	214.75
614.242	213.75
614.449	218.75
614.657	201.75
614.865	230.75
615.072	214.75
615.28	218.75
615.488	211.75
615.695	203.75
615.903	237.75
616.111	214.75
616.318	240.75
616.526	219.75
616.733	225.75
616.941	227.75
617.148	228.75
617.356	229.75
617.563	209.75
617.771	212.75
617.978	216.75
618.185	217.75
618.393	214.75
618.6	214.75
618.807	223.75
619.015	219.75
619.222	219.75
619.429	216.75
619.637	214.75
619.844	208.75
620.051	218.75
620.258	206.75
620.466	188.75
620.673	203.75
620.88	211.75
621.087	209.75
621.294	216.75
621.501	192.75
621.708	201.75
621.915	219.75
622.122	206.75
622.329	212.75
622.536	202.75
622.743	205.75
622.95	200.75
623.157	203.75
623.364	214.75
623.571	205.75
623.778	183.75
623.985	208.75
624.192	194.75
624.399	198.75
624.606	196.75
624.812	209.75
625.019	196.75
625.226	196.75
625.433	190.75
625.639	198.75
625.846	186.75
626.053	194.75
626.259	196.75
626.466	212.75
626.673	187.75
626.879	198.75
627.086	217.75
627.293	208.75
627.499	180.75
627.706	185.75
627.912	206.75
628.119	190.75
628.325	189.75
628.532	194.75
628.738	194.75
628.945	196.75
629.151	189.75
629.357	184.75
629.564	168.75
629.77	185.75
629.976	197.75
630.183	180.75
630.389	186.75
630.595	184.75
630.802	184.75
631.008	182.75
631.214	174.75
631.42	202.75
631.627	196.75
631.833	171.75
632.039	169.75
632.245	169.75
632.451	166.75
632.657	173.75
632.863	177.75
633.069	179.75
633.275	182.75
633.481	196.75
633.688	176.75
633.893	189.75
634.099	192.75
634.305	176.75
634.511	173.75
634.717	171.75
634.923	166.75
635.129	176.75
635.335	169.75
635.541	160.75
635.747	176.75
635.952	184.75
636.158	187.75
636.364	180.75
636.57	195.75
636.775	176.75
636.981	171.75
637.187	169.75
637.392	168.75
637.598	165.75
637.804	164.75
638.009	167.75
638.215	158.75
638.421	167.75
638.626	170.75
638.832	169.75
639.037	164.75
639.243	170.75
639.448	180.75
639.654	169.75
639.859	168.75
640.065	164.75
640.27	170.75
640.475	164.75
640.681	176.75
640.886	154.75
641.091	164.75
641.297	167.75
641.502	159.75
641.707	169.75
641.913	168.75
642.118	177.75
642.323	160.75
642.528	160.75
642.733	173.75
642.939	160.75
643.144	153.75
643.349	166.75
643.554	160.75
643.759	148.75
643.964	156.75
644.169	162.75
644.374	148.75
644.579	162.75
644.784	151.75
644.989	160.75
645.194	162.75
645.399	155.75
645.604	151.75
645.809	157.75
646.014	160.75
646.219	160.75
646.423	149.75
646.628	159.75
646.833	150.75
647.038	163.75
647.243	151.75
647.447	152.75
647.652	163.75
647.857	154.75
648.062	166.75
648.266	151.75
648.471	141.75
648.676	153.75
648.88	170.75
649.085	160.75
649.289	165.75
649.494	164.75
649.698	183.75
649.903	181.75
650.107	162.75
650.312	157.75
650.516	144.75
650.721	144.75
650.925	158.75
651.13	143.75
651.334	151.75
651.539	147.75
651.743	154.75
651.947	155.75
652.152	137.75
652.356	146.75
652.56	141.75
652.764	139.75
652.969	151.75
653.173	128.75
653.377	125.75
653.581	120.75
653.785	137.75
653.99	136.75
654.194	113.75
654.398	123.75
654.602	138.75
654.806	129.75
655.01	132.75
655.214	147.75
655.418	139.75
655.622	124.75
655.826	124.75
656.03	120.75
656.234	124.75
656.438	114.75
656.642	120.75
656.846	110.75
657.049	121.75
657.253	126.75
657.457	132.75
657.661	120.75
657.865	105.75
658.068	94.75
658.272	103.75
658.476	105.75
658.68	105.75
658.883	103.75
659.087	100.75
659.291	93.75
659.494	72.75
659.698	105.75
659.901	96.75
660.105	100.75
660.309	89.75
660.512	96.75
660.716	93.75
660.919	84.75
661.123	92.75
661.326	81.75
661.53	76.75
661.733	81.75
661.936	93.75
662.14	91.75
662.343	66.75
662.546	82.75
662.75	83.75
662.953	91.75
663.156	94.75
663.36	86.75
663.563	88.75
663.766	76.75
663.969	88.75
664.173	82.75
664.376	74.75
664.579	83.75
664.782	77.75
664.985	82.75
665.188	94.75
665.391	66.75
665.594	93.75
665.797	87.75
666	90.75
666.203	82.75
666.406	91.75
666.609	76.75
666.812	92.75
667.015	74.75
667.218	86.75
667.421	77.75
667.624	72.75
667.827	86.75
668.03	86.75
668.232	69.75
668.435	74.75
668.638	76.75
668.841	81.75
669.043	71.75
669.246	92.75
669.449	89.75
669.651	76.75
669.854	88.75
670.057	79.75
670.259	89.75
670.462	84.75
670.665	77.75
670.867	86.75
671.07	87.75
671.272	98.75
671.475	97.75
671.677	73.75
671.88	72.75
672.082	66.75
672.284	73.75
672.487	84.75
672.689	82.75
672.892	78.75
