Data from 1972.PennyLincolnUp.Lamp.En5.5.200Scan.071719.P1._HRD10591_15-29-22-844.txt Node
Date: Thu Jul 18 15:29:22 EDT 2019
User: cochatt
Spectrometer: HR+D1059
Trigger mode: 1
Integration Time (sec): 1.000000E-1
Scans to average: 1
Electric dark correction enabled: true
Nonlinearity correction enabled: false
Boxcar width: 0
XAxis mode: Wavelengths
Number of Pixels in Spectrum: 2048
>>>>>Begin Spectral Data<<<<<
223.165	-12.31
223.4	-12.31
223.635	-12.31
223.869	-9.31
224.104	-21.31
224.338	-13.31
224.573	-19.31
224.808	-18.31
225.042	-6.31
225.277	-11.31
225.511	-19.31
225.746	18.69
225.98	11.69
226.215	11.69
226.449	12.69
226.683	17.69
226.918	23.69
227.152	34.69
227.387	37.69
227.621	32.69
227.856	35.69
228.09	49.69
228.324	61.69
228.559	62.69
228.793	72.69
229.027	99.69
229.262	118.69
229.496	123.69
229.73	141.69
229.964	155.69
230.199	152.69
230.433	129.69
230.667	117.69
230.901	115.69
231.136	104.69
231.37	105.69
231.604	121.69
231.838	133.69
232.072	109.69
232.306	111.69
232.541	125.69
232.775	112.69
233.009	117.69
233.243	109.69
233.477	123.69
233.711	129.69
233.945	111.69
234.179	125.69
234.413	108.69
234.647	113.69
234.881	121.69
235.115	126.69
235.349	120.69
235.583	125.69
235.817	120.69
236.051	115.69
236.285	121.69
236.519	135.69
236.753	140.69
236.987	128.69
237.221	191.69
237.455	272.69
237.689	193.69
237.922	149.69
238.156	144.69
238.39	154.69
238.624	143.69
238.858	123.69
239.091	130.69
239.325	121.69
239.559	121.69
239.793	130.69
240.027	141.69
240.26	153.69
240.494	165.69
240.728	171.69
240.961	156.69
241.195	156.69
241.429	149.69
241.662	147.69
241.896	138.69
242.13	149.69
242.363	125.69
242.597	160.69
242.83	131.69
243.064	143.69
243.298	141.69
243.531	131.69
243.765	146.69
243.998	152.69
244.232	123.69
244.465	143.69
244.699	137.69
244.932	154.69
245.166	138.69
245.399	156.69
245.633	147.69
245.866	139.69
246.099	160.69
246.333	140.69
246.566	137.69
246.8	148.69
247.033	147.69
247.266	176.69
247.5	163.69
247.733	170.69
247.966	179.69
248.2	180.69
248.433	170.69
248.666	187.69
248.899	197.69
249.133	181.69
249.366	212.69
249.599	221.69
249.832	204.69
250.066	188.69
250.299	190.69
250.532	202.69
250.765	219.69
250.998	233.69
251.231	249.69
251.465	263.69
251.698	208.69
251.931	191.69
252.164	203.69
252.397	209.69
252.63	204.69
252.863	204.69
253.096	218.69
253.329	234.69
253.562	240.69
253.795	255.69
254.028	222.69
254.261	240.69
254.494	223.69
254.727	273.69
254.96	306.69
255.193	287.69
255.426	269.69
255.659	267.69
255.892	249.69
256.124	267.69
256.357	294.69
256.59	241.69
256.823	236.69
257.056	241.69
257.289	231.69
257.521	226.69
257.754	248.69
257.987	220.69
258.22	215.69
258.452	217.69
258.685	208.69
258.918	217.69
259.151	224.69
259.383	241.69
259.616	249.69
259.849	245.69
260.081	243.69
260.314	268.69
260.547	285.69
260.779	259.69
261.012	256.69
261.244	221.69
261.477	247.69
261.71	225.69
261.942	244.69
262.175	259.69
262.407	256.69
262.64	237.69
262.872	219.69
263.105	211.69
263.337	209.69
263.57	226.69
263.802	224.69
264.035	227.69
264.267	209.69
264.499	205.69
264.732	218.69
264.964	219.69
265.197	219.69
265.429	231.69
265.661	242.69
265.894	230.69
266.126	230.69
266.358	229.69
266.591	206.69
266.823	234.69
267.055	234.69
267.287	240.69
267.52	248.69
267.752	239.69
267.984	237.69
268.216	243.69
268.448	245.69
268.681	258.69
268.913	250.69
269.145	284.69
269.377	291.69
269.609	289.69
269.841	296.69
270.073	298.69
270.306	307.69
270.538	328.69
270.77	339.69
271.002	335.69
271.234	285.69
271.466	332.69
271.698	359.69
271.93	337.69
272.162	341.69
272.394	344.69
272.626	348.69
272.858	338.69
273.09	304.69
273.322	304.69
273.553	296.69
273.785	276.69
274.017	281.69
274.249	303.69
274.481	289.69
274.713	293.69
274.945	297.69
275.176	284.69
275.408	282.69
275.64	288.69
275.872	270.69
276.104	299.69
276.335	281.69
276.567	276.69
276.799	297.69
277.031	319.69
277.262	341.69
277.494	332.69
277.726	329.69
277.957	307.69
278.189	298.69
278.421	275.69
278.652	268.69
278.884	273.69
279.115	285.69
279.347	274.69
279.579	280.69
279.81	279.69
280.042	287.69
280.273	283.69
280.505	262.69
280.736	271.69
280.968	266.69
281.199	263.69
281.431	268.69
281.662	260.69
281.894	264.69
282.125	294.69
282.356	287.69
282.588	351.69
282.819	329.69
283.051	303.69
283.282	291.69
283.513	262.69
283.745	275.69
283.976	289.69
284.207	287.69
284.439	275.69
284.67	276.69
284.901	270.69
285.132	304.69
285.364	283.69
285.595	285.69
285.826	282.69
286.057	277.69
286.288	282.69
286.52	294.69
286.751	281.69
286.982	303.69
287.213	294.69
287.444	284.69
287.675	301.69
287.906	306.69
288.138	296.69
288.369	283.69
288.6	305.69
288.831	313.69
289.062	290.69
289.293	299.69
289.524	296.69
289.755	294.69
289.986	285.69
290.217	282.69
290.448	295.69
290.679	301.69
290.91	301.69
291.141	293.69
291.371	290.69
291.602	290.69
291.833	298.69
292.064	289.69
292.295	258.69
292.526	303.69
292.757	307.69
292.987	281.69
293.218	288.69
293.449	299.69
293.68	282.69
293.91	288.69
294.141	298.69
294.372	283.69
294.603	282.69
294.833	281.69
295.064	303.69
295.295	286.69
295.525	277.69
295.756	288.69
295.987	312.69
296.217	327.69
296.448	346.69
296.679	307.69
296.909	284.69
297.14	307.69
297.37	311.69
297.601	311.69
297.831	300.69
298.062	309.69
298.292	291.69
298.523	297.69
298.753	298.69
298.984	282.69
299.214	305.69
299.445	288.69
299.675	305.69
299.905	319.69
300.136	310.69
300.366	315.69
300.597	339.69
300.827	316.69
301.057	330.69
301.288	332.69
301.518	331.69
301.748	325.69
301.979	341.69
302.209	328.69
302.439	321.69
302.669	325.69
302.9	346.69
303.13	321.69
303.36	333.69
303.59	317.69
303.82	353.69
304.051	349.69
304.281	341.69
304.511	324.69
304.741	342.69
304.971	328.69
305.201	327.69
305.431	313.69
305.661	312.69
305.891	325.69
306.121	326.69
306.352	341.69
306.582	339.69
306.812	349.69
307.042	346.69
307.272	327.69
307.502	327.69
307.731	339.69
307.961	333.69
308.191	335.69
308.421	349.69
308.651	347.69
308.881	340.69
309.111	352.69
309.341	330.69
309.571	356.69
309.8	396.69
310.03	380.69
310.26	402.69
310.49	396.69
310.72	383.69
310.949	415.69
311.179	420.69
311.409	402.69
311.639	404.69
311.868	407.69
312.098	406.69
312.328	399.69
312.557	424.69
312.787	444.69
313.017	441.69
313.246	401.69
313.476	400.69
313.706	409.69
313.935	409.69
314.165	426.69
314.394	425.69
314.624	410.69
314.853	424.69
315.083	405.69
315.312	408.69
315.542	382.69
315.771	369.69
316.001	390.69
316.23	379.69
316.46	387.69
316.689	383.69
316.919	387.69
317.148	421.69
317.377	422.69
317.607	415.69
317.836	407.69
318.065	407.69
318.295	398.69
318.524	387.69
318.753	385.69
318.983	384.69
319.212	377.69
319.441	416.69
319.67	410.69
319.9	407.69
320.129	387.69
320.358	382.69
320.587	387.69
320.816	406.69
321.046	426.69
321.275	435.69
321.504	417.69
321.733	401.69
321.962	444.69
322.191	457.69
322.42	457.69
322.649	482.69
322.878	520.69
323.108	511.69
323.337	540.69
323.566	556.69
323.795	608.69
324.024	668.69
324.253	866.69
324.482	1234.69
324.71	1970.69
324.939	2904.69
325.168	2497.69
325.397	1260.69
325.626	829.69
325.855	659.69
326.084	599.69
326.313	563.69
326.542	580.69
326.77	673.69
326.999	799.69
327.228	1132.69
327.457	1711.69
327.686	2150.69
327.914	1431.69
328.143	907.69
328.372	774.69
328.6	701.69
328.829	679.69
329.058	674.69
329.287	671.69
329.515	638.69
329.744	598.69
329.972	570.69
330.201	618.69
330.43	660.69
330.658	711.69
330.887	725.69
331.115	696.69
331.344	591.69
331.572	552.69
331.801	539.69
332.03	540.69
332.258	504.69
332.486	495.69
332.715	488.69
332.943	477.69
333.172	460.69
333.4	485.69
333.629	490.69
333.857	528.69
334.085	513.69
334.314	521.69
334.542	593.69
334.771	610.69
334.999	538.69
335.227	508.69
335.455	497.69
335.684	461.69
335.912	459.69
336.14	441.69
336.369	461.69
336.597	472.69
336.825	497.69
337.053	456.69
337.281	464.69
337.51	447.69
337.738	432.69
337.966	430.69
338.194	440.69
338.422	482.69
338.65	459.69
338.878	439.69
339.106	424.69
339.334	445.69
339.562	417.69
339.79	428.69
340.018	431.69
340.246	417.69
340.474	444.69
340.702	458.69
340.93	428.69
341.158	421.69
341.386	447.69
341.614	435.69
341.842	445.69
342.07	427.69
342.298	439.69
342.526	424.69
342.754	413.69
342.981	418.69
343.209	404.69
343.437	420.69
343.665	411.69
343.893	422.69
344.12	436.69
344.348	447.69
344.576	443.69
344.804	428.69
345.031	445.69
345.259	467.69
345.487	471.69
345.714	433.69
345.942	437.69
346.17	426.69
346.397	427.69
346.625	438.69
346.853	412.69
347.08	415.69
347.308	406.69
347.535	442.69
347.763	424.69
347.99	452.69
348.218	432.69
348.445	459.69
348.673	465.69
348.9	447.69
349.128	418.69
349.355	403.69
349.583	397.69
349.81	425.69
350.037	420.69
350.265	409.69
350.492	408.69
350.72	423.69
350.947	433.69
351.174	433.69
351.402	447.69
351.629	434.69
351.856	433.69
352.083	425.69
352.311	451.69
352.538	455.69
352.765	448.69
352.992	459.69
353.22	439.69
353.447	444.69
353.674	413.69
353.901	407.69
354.128	396.69
354.355	393.69
354.583	385.69
354.81	401.69
355.037	387.69
355.264	375.69
355.491	379.69
355.718	371.69
355.945	372.69
356.172	397.69
356.399	369.69
356.626	364.69
356.853	387.69
357.08	377.69
357.307	386.69
357.534	371.69
357.761	366.69
357.988	381.69
358.215	383.69
358.441	380.69
358.668	385.69
358.895	397.69
359.122	387.69
359.349	404.69
359.576	439.69
359.802	424.69
360.029	483.69
360.256	483.69
360.483	477.69
360.709	426.69
360.936	436.69
361.163	419.69
361.39	435.69
361.616	450.69
361.843	421.69
362.07	419.69
362.296	425.69
362.523	423.69
362.749	407.69
362.976	392.69
363.203	414.69
363.429	395.69
363.656	412.69
363.882	393.69
364.109	388.69
364.335	410.69
364.562	394.69
364.788	387.69
365.015	385.69
365.241	396.69
365.468	387.69
365.694	395.69
365.92	399.69
366.147	387.69
366.373	393.69
366.599	380.69
366.826	379.69
367.052	376.69
367.278	375.69
367.505	402.69
367.731	375.69
367.957	367.69
368.184	396.69
368.41	391.69
368.636	397.69
368.862	431.69
369.089	402.69
369.315	380.69
369.541	391.69
369.767	390.69
369.993	380.69
370.219	396.69
370.445	385.69
370.672	378.69
370.898	394.69
371.124	382.69
371.35	372.69
371.576	368.69
371.802	391.69
372.028	375.69
372.254	381.69
372.48	375.69
372.706	379.69
372.932	396.69
373.158	367.69
373.384	385.69
373.61	381.69
373.835	393.69
374.061	397.69
374.287	368.69
374.513	368.69
374.739	382.69
374.965	393.69
375.191	385.69
375.416	378.69
375.642	376.69
375.868	377.69
376.094	403.69
376.319	401.69
376.545	369.69
376.771	364.69
376.997	362.69
377.222	365.69
377.448	370.69
377.674	375.69
377.899	351.69
378.125	368.69
378.35	358.69
378.576	376.69
378.802	366.69
379.027	370.69
379.253	373.69
379.478	363.69
379.704	367.69
379.929	377.69
380.155	383.69
380.38	365.69
380.606	393.69
380.831	383.69
381.057	381.69
381.282	375.69
381.507	373.69
381.733	377.69
381.958	341.69
382.184	379.69
382.409	381.69
382.634	380.69
382.86	359.69
383.085	371.69
383.31	374.69
383.535	391.69
383.761	393.69
383.986	387.69
384.211	400.69
384.436	382.69
384.662	369.69
384.887	406.69
385.112	375.69
385.337	404.69
385.562	392.69
385.787	383.69
386.013	411.69
386.238	389.69
386.463	407.69
386.688	412.69
386.913	378.69
387.138	374.69
387.363	404.69
387.588	406.69
387.813	394.69
388.038	400.69
388.263	405.69
388.488	406.69
388.713	391.69
388.938	395.69
389.163	408.69
389.387	391.69
389.612	376.69
389.837	404.69
390.062	401.69
390.287	387.69
390.512	374.69
390.736	392.69
390.961	386.69
391.186	384.69
391.411	391.69
391.636	406.69
391.86	392.69
392.085	423.69
392.31	387.69
392.534	416.69
392.759	420.69
392.984	412.69
393.208	405.69
393.433	413.69
393.658	396.69
393.882	379.69
394.107	389.69
394.331	398.69
394.556	401.69
394.78	377.69
395.005	386.69
395.229	380.69
395.454	398.69
395.678	421.69
395.903	418.69
396.127	420.69
396.352	445.69
396.576	438.69
396.801	411.69
397.025	416.69
397.249	395.69
397.474	427.69
397.698	432.69
397.922	423.69
398.147	440.69
398.371	451.69
398.595	444.69
398.82	423.69
399.044	462.69
399.268	449.69
399.492	479.69
399.717	508.69
399.941	507.69
400.165	537.69
400.389	581.69
400.613	519.69
400.837	485.69
401.062	451.69
401.286	470.69
401.51	459.69
401.734	465.69
401.958	456.69
402.182	463.69
402.406	461.69
402.63	471.69
402.854	467.69
403.078	456.69
403.302	465.69
403.526	483.69
403.75	465.69
403.974	484.69
404.198	466.69
404.422	481.69
404.645	512.69
404.869	479.69
405.093	506.69
405.317	571.69
405.541	595.69
405.765	571.69
405.988	498.69
406.212	529.69
406.436	553.69
406.66	556.69
406.883	521.69
407.107	555.69
407.331	597.69
407.555	678.69
407.778	645.69
408.002	593.69
408.226	542.69
408.449	530.69
408.673	530.69
408.896	541.69
409.12	613.69
409.344	586.69
409.567	513.69
409.791	495.69
410.014	470.69
410.238	478.69
410.461	472.69
410.685	488.69
410.908	487.69
411.132	539.69
411.355	567.69
411.578	524.69
411.802	490.69
412.025	482.69
412.249	488.69
412.472	523.69
412.695	571.69
412.919	547.69
413.142	504.69
413.365	481.69
413.589	476.69
413.812	469.69
414.035	443.69
414.258	431.69
414.482	456.69
414.705	442.69
414.928	453.69
415.151	460.69
415.374	432.69
415.597	440.69
415.821	423.69
416.044	435.69
416.267	436.69
416.49	448.69
416.713	424.69
416.936	427.69
417.159	445.69
417.382	446.69
417.605	460.69
417.828	473.69
418.051	486.69
418.274	468.69
418.497	452.69
418.72	455.69
418.943	460.69
419.166	452.69
419.389	468.69
419.611	464.69
419.834	455.69
420.057	474.69
420.28	469.69
420.503	484.69
420.726	502.69
420.948	497.69
421.171	529.69
421.394	595.69
421.617	516.69
421.839	473.69
422.062	484.69
422.285	493.69
422.507	543.69
422.73	629.69
422.953	623.69
423.175	537.69
423.398	489.69
423.621	509.69
423.843	517.69
424.066	519.69
424.288	503.69
424.511	529.69
424.733	602.69
424.956	668.69
425.178	644.69
425.401	666.69
425.623	689.69
425.846	596.69
426.068	544.69
426.291	547.69
426.513	525.69
426.735	537.69
426.958	583.69
427.18	696.69
427.402	828.69
427.625	905.69
427.847	825.69
428.069	708.69
428.292	604.69
428.514	546.69
428.736	541.69
428.958	507.69
429.181	479.69
429.403	475.69
429.625	513.69
429.847	556.69
430.069	601.69
430.292	607.69
430.514	528.69
430.736	488.69
430.958	482.69
431.18	478.69
431.402	463.69
431.624	434.69
431.846	456.69
432.068	454.69
432.29	451.69
432.512	448.69
432.734	461.69
432.956	466.69
433.178	488.69
433.4	491.69
433.622	468.69
433.844	471.69
434.066	461.69
434.287	457.69
434.509	479.69
434.731	469.69
434.953	471.69
435.175	495.69
435.397	531.69
435.618	541.69
435.84	599.69
436.062	699.69
436.284	769.69
436.505	629.69
436.727	554.69
436.949	524.69
437.17	522.69
437.392	509.69
437.614	505.69
437.835	566.69
438.057	683.69
438.278	777.69
438.5	801.69
438.721	869.69
438.943	836.69
439.165	646.69
439.386	575.69
439.608	560.69
439.829	573.69
440.05	605.69
440.272	645.69
440.493	615.69
440.715	530.69
440.936	516.69
441.158	486.69
441.379	495.69
441.6	519.69
441.822	535.69
442.043	591.69
442.264	668.69
442.486	740.69
442.707	589.69
442.928	561.69
443.149	560.69
443.371	579.69
443.592	629.69
443.813	728.69
444.034	815.69
444.255	632.69
444.476	572.69
444.698	523.69
444.919	505.69
445.14	619.69
445.361	600.69
445.582	605.69
445.803	691.69
446.024	804.69
446.245	805.69
446.466	723.69
446.687	606.69
446.908	545.69
447.129	523.69
447.35	504.69
447.571	520.69
447.792	495.69
448.013	482.69
448.234	540.69
448.455	583.69
448.675	733.69
448.896	845.69
449.117	699.69
449.338	649.69
449.559	773.69
449.779	891.69
450	684.69
450.221	579.69
450.442	527.69
450.662	496.69
450.883	536.69
451.104	516.69
451.324	503.69
451.545	475.69
451.766	439.69
451.986	445.69
452.207	452.69
452.428	426.69
452.648	441.69
452.869	453.69
453.089	431.69
453.31	461.69
453.53	444.69
453.751	454.69
453.971	425.69
454.192	466.69
454.412	460.69
454.633	435.69
454.853	439.69
455.073	427.69
455.294	464.69
455.514	552.69
455.734	531.69
455.955	460.69
456.175	411.69
456.395	403.69
456.616	422.69
456.836	426.69
457.056	406.69
457.276	407.69
457.497	424.69
457.717	419.69
457.937	424.69
458.157	422.69
458.377	429.69
458.598	457.69
458.818	543.69
459.038	630.69
459.258	652.69
459.478	547.69
459.698	470.69
459.918	455.69
460.138	441.69
460.358	460.69
460.578	446.69
460.798	429.69
461.018	427.69
461.238	451.69
461.458	443.69
461.678	437.69
461.898	455.69
462.118	420.69
462.338	436.69
462.558	443.69
462.777	479.69
462.997	445.69
463.217	463.69
463.437	472.69
463.657	471.69
463.876	452.69
464.096	451.69
464.316	476.69
464.536	502.69
464.755	494.69
464.975	499.69
465.195	556.69
465.414	671.69
465.634	574.69
465.854	502.69
466.073	463.69
466.293	482.69
466.512	437.69
466.732	435.69
466.951	453.69
467.171	442.69
467.391	437.69
467.61	452.69
467.829	475.69
468.049	461.69
468.268	467.69
468.488	447.69
468.707	404.69
468.927	441.69
469.146	407.69
469.365	415.69
469.585	438.69
469.804	451.69
470.023	435.69
470.243	459.69
470.462	464.69
470.681	486.69
470.901	462.69
471.12	447.69
471.339	458.69
471.558	456.69
471.777	459.69
471.997	431.69
472.216	457.69
472.435	512.69
472.654	511.69
472.873	469.69
473.092	449.69
473.311	457.69
473.53	447.69
473.749	475.69
473.968	521.69
474.187	633.69
474.406	658.69
474.625	533.69
474.844	485.69
475.063	476.69
475.282	456.69
475.501	467.69
475.72	445.69
475.939	434.69
476.158	468.69
476.377	478.69
476.596	467.69
476.814	453.69
477.033	479.69
477.252	461.69
477.471	492.69
477.69	493.69
477.908	493.69
478.127	501.69
478.346	463.69
478.564	500.69
478.783	480.69
479.002	496.69
479.22	515.69
479.439	540.69
479.658	544.69
479.876	550.69
480.095	569.69
480.313	564.69
480.532	584.69
480.751	539.69
480.969	543.69
481.188	668.69
481.406	726.69
481.624	610.69
481.843	559.69
482.061	544.69
482.28	578.69
482.498	544.69
482.717	520.69
482.935	546.69
483.153	532.69
483.372	531.69
483.59	517.69
483.808	531.69
484.027	522.69
484.245	523.69
484.463	523.69
484.681	545.69
484.9	560.69
485.118	531.69
485.336	564.69
485.554	549.69
485.772	551.69
485.99	534.69
486.209	548.69
486.427	543.69
486.645	567.69
486.863	593.69
487.081	587.69
487.299	583.69
487.517	593.69
487.735	573.69
487.953	571.69
488.171	572.69
488.389	573.69
488.607	561.69
488.825	572.69
489.043	593.69
489.261	591.69
489.479	582.69
489.696	601.69
489.914	588.69
490.132	623.69
490.35	592.69
490.568	592.69
490.786	607.69
491.003	615.69
491.221	634.69
491.439	634.69
491.657	628.69
491.874	651.69
492.092	663.69
492.31	663.69
492.527	664.69
492.745	655.69
492.963	649.69
493.18	648.69
493.398	690.69
493.615	685.69
493.833	678.69
494.05	694.69
494.268	663.69
494.485	684.69
494.703	688.69
494.92	685.69
495.138	691.69
495.355	684.69
495.573	676.69
495.79	666.69
496.008	696.69
496.225	675.69
496.442	677.69
496.66	688.69
496.877	697.69
497.094	676.69
497.312	703.69
497.529	665.69
497.746	724.69
497.963	725.69
498.181	747.69
498.398	724.69
498.615	736.69
498.832	746.69
499.049	756.69
499.267	755.69
499.484	794.69
499.701	778.69
499.918	787.69
500.135	822.69
500.352	842.69
500.569	825.69
500.786	838.69
501.003	851.69
501.22	822.69
501.437	823.69
501.654	825.69
501.871	835.69
502.088	807.69
502.305	767.69
502.522	761.69
502.739	716.69
502.956	728.69
503.172	716.69
503.389	713.69
503.606	710.69
503.823	710.69
504.04	727.69
504.256	689.69
504.473	688.69
504.69	679.69
504.907	674.69
505.123	643.69
505.34	663.69
505.557	639.69
505.773	673.69
505.99	662.69
506.207	653.69
506.423	659.69
506.64	640.69
506.856	659.69
507.073	649.69
507.289	647.69
507.506	625.69
507.722	683.69
507.939	676.69
508.155	667.69
508.372	638.69
508.588	648.69
508.805	649.69
509.021	624.69
509.238	639.69
509.454	682.69
509.67	681.69
509.887	633.69
510.103	645.69
510.319	671.69
510.536	797.69
510.752	1407.69
510.968	1118.69
511.184	693.69
511.401	641.69
511.617	618.69
511.833	625.69
512.049	618.69
512.265	604.69
512.481	629.69
512.698	615.69
512.914	606.69
513.13	615.69
513.346	610.69
513.562	602.69
513.778	629.69
513.994	625.69
514.21	626.69
514.426	657.69
514.642	744.69
514.858	774.69
515.074	828.69
515.29	1034.69
515.506	1544.69
515.721	1209.69
515.937	816.69
516.153	734.69
516.369	688.69
516.585	649.69
516.801	605.69
517.016	632.69
517.232	641.69
517.448	630.69
517.664	626.69
517.879	610.69
518.095	611.69
518.311	615.69
518.527	599.69
518.742	609.69
518.958	585.69
519.173	593.69
519.389	611.69
519.605	610.69
519.82	604.69
520.036	631.69
520.251	695.69
520.467	705.69
520.682	723.69
520.898	714.69
521.113	748.69
521.329	817.69
521.544	929.69
521.76	1233.69
521.975	2109.69
522.19	1996.69
522.406	1056.69
522.621	789.69
522.836	698.69
523.052	633.69
523.267	623.69
523.482	604.69
523.698	590.69
523.913	584.69
524.128	574.69
524.343	572.69
524.559	550.69
524.774	540.69
524.989	516.69
525.204	549.69
525.419	545.69
525.634	524.69
525.849	511.69
526.064	493.69
526.28	511.69
526.495	483.69
526.71	502.69
526.925	487.69
527.14	499.69
527.355	513.69
527.57	517.69
527.785	484.69
527.999	484.69
528.214	507.69
528.429	497.69
528.644	479.69
528.859	480.69
529.074	490.69
529.289	529.69
529.503	645.69
529.718	589.69
529.933	531.69
530.148	525.69
530.363	502.69
530.577	483.69
530.792	473.69
531.007	483.69
531.221	478.69
531.436	469.69
531.651	491.69
531.865	455.69
532.08	474.69
532.295	466.69
532.509	472.69
532.724	459.69
532.938	480.69
533.153	456.69
533.367	450.69
533.582	463.69
533.796	454.69
534.011	453.69
534.225	459.69
534.44	455.69
534.654	453.69
534.868	437.69
535.083	455.69
535.297	440.69
535.511	464.69
535.726	448.69
535.94	469.69
536.154	488.69
536.369	460.69
536.583	445.69
536.797	447.69
537.011	429.69
537.225	415.69
537.44	439.69
537.654	441.69
537.868	436.69
538.082	436.69
538.296	448.69
538.51	454.69
538.724	439.69
538.938	439.69
539.153	450.69
539.367	468.69
539.581	469.69
539.795	448.69
540.009	425.69
540.222	457.69
540.436	438.69
540.65	447.69
540.864	432.69
541.078	470.69
541.292	448.69
541.506	422.69
541.72	441.69
541.934	429.69
542.147	455.69
542.361	463.69
542.575	419.69
542.789	417.69
543.002	433.69
543.216	429.69
543.43	454.69
543.644	419.69
543.857	427.69
544.071	420.69
544.285	429.69
544.498	426.69
544.712	435.69
544.925	446.69
545.139	421.69
545.352	415.69
545.566	430.69
545.779	413.69
545.993	417.69
546.206	419.69
546.42	422.69
546.633	426.69
546.847	396.69
547.06	410.69
547.274	431.69
547.487	421.69
547.7	401.69
547.914	433.69
548.127	394.69
548.34	395.69
548.554	400.69
548.767	404.69
548.98	381.69
549.193	416.69
549.407	403.69
549.62	401.69
549.833	431.69
550.046	417.69
550.259	421.69
550.473	415.69
550.686	406.69
550.899	401.69
551.112	410.69
551.325	407.69
551.538	397.69
551.751	396.69
551.964	390.69
552.177	395.69
552.39	400.69
552.603	401.69
552.816	411.69
553.029	413.69
553.242	406.69
553.455	424.69
553.667	414.69
553.88	453.69
554.093	424.69
554.306	431.69
554.519	401.69
554.732	396.69
554.944	392.69
555.157	397.69
555.37	397.69
555.583	378.69
555.795	408.69
556.008	375.69
556.221	390.69
556.433	380.69
556.646	379.69
556.859	365.69
557.071	359.69
557.284	380.69
557.496	367.69
557.709	376.69
557.921	362.69
558.134	376.69
558.346	381.69
558.559	376.69
558.771	375.69
558.984	373.69
559.196	371.69
559.409	345.69
559.621	364.69
559.833	383.69
560.046	373.69
560.258	369.69
560.47	364.69
560.683	363.69
560.895	361.69
561.107	368.69
561.32	347.69
561.532	367.69
561.744	367.69
561.956	356.69
562.168	355.69
562.381	383.69
562.593	371.69
562.805	340.69
563.017	374.69
563.229	359.69
563.441	379.69
563.653	372.69
563.865	378.69
564.077	355.69
564.289	373.69
564.501	360.69
564.713	373.69
564.925	395.69
565.137	378.69
565.349	386.69
565.561	390.69
565.773	379.69
565.985	406.69
566.197	388.69
566.408	398.69
566.62	403.69
566.832	407.69
567.044	426.69
567.255	404.69
567.467	411.69
567.679	420.69
567.891	423.69
568.102	424.69
568.314	416.69
568.526	419.69
568.737	398.69
568.949	395.69
569.161	389.69
569.372	392.69
569.584	391.69
569.795	373.69
570.007	349.69
570.218	428.69
570.43	424.69
570.641	367.69
570.853	365.69
571.064	355.69
571.276	333.69
571.487	348.69
571.698	347.69
571.91	348.69
572.121	349.69
572.333	332.69
572.544	328.69
572.755	348.69
572.966	336.69
573.178	319.69
573.389	345.69
573.6	322.69
573.811	326.69
574.023	296.69
574.234	312.69
574.445	323.69
574.656	321.69
574.867	323.69
575.078	309.69
575.289	314.69
575.501	324.69
575.712	331.69
575.923	314.69
576.134	324.69
576.345	320.69
576.556	323.69
576.767	301.69
576.978	315.69
577.188	303.69
577.399	301.69
577.61	314.69
577.821	287.69
578.032	328.69
578.243	363.69
578.454	636.69
578.665	481.69
578.875	319.69
579.086	318.69
579.297	291.69
579.508	303.69
579.718	285.69
579.929	308.69
580.14	281.69
580.35	299.69
580.561	304.69
580.772	294.69
580.982	273.69
581.193	307.69
581.403	292.69
581.614	309.69
581.825	291.69
582.035	281.69
582.246	297.69
582.456	291.69
582.667	303.69
582.877	272.69
583.087	281.69
583.298	294.69
583.508	300.69
583.719	283.69
583.929	289.69
584.139	276.69
584.35	286.69
584.56	291.69
584.77	276.69
584.981	287.69
585.191	282.69
585.401	291.69
585.611	275.69
585.821	284.69
586.032	278.69
586.242	280.69
586.452	289.69
586.662	293.69
586.872	277.69
587.082	264.69
587.292	270.69
587.502	281.69
587.713	287.69
587.923	276.69
588.133	274.69
588.343	287.69
588.553	274.69
588.762	266.69
588.972	272.69
589.182	290.69
589.392	294.69
589.602	301.69
589.812	289.69
590.022	280.69
590.232	277.69
590.441	287.69
590.651	259.69
590.861	294.69
591.071	271.69
591.281	265.69
591.49	286.69
591.7	291.69
591.91	286.69
592.119	267.69
592.329	281.69
592.539	287.69
592.748	276.69
592.958	288.69
593.167	275.69
593.377	285.69
593.587	305.69
593.796	293.69
594.006	275.69
594.215	284.69
594.424	276.69
594.634	276.69
594.843	293.69
595.053	281.69
595.262	297.69
595.472	260.69
595.681	277.69
595.89	282.69
596.1	272.69
596.309	255.69
596.518	257.69
596.727	264.69
596.937	262.69
597.146	271.69
597.355	269.69
597.564	265.69
597.774	256.69
597.983	267.69
598.192	269.69
598.401	262.69
598.61	239.69
598.819	258.69
599.028	244.69
599.237	251.69
599.446	249.69
599.655	248.69
599.864	274.69
600.073	249.69
600.282	256.69
600.491	246.69
600.7	260.69
600.909	245.69
601.118	249.69
601.327	243.69
601.536	227.69
601.745	244.69
601.953	242.69
602.162	244.69
602.371	239.69
602.58	244.69
602.789	245.69
602.997	229.69
603.206	241.69
603.415	234.69
603.623	259.69
603.832	239.69
604.041	261.69
604.249	247.69
604.458	241.69
604.666	228.69
604.875	229.69
605.084	227.69
605.292	227.69
605.501	239.69
605.709	219.69
605.918	226.69
606.126	215.69
606.334	218.69
606.543	224.69
606.751	229.69
606.96	230.69
607.168	228.69
607.376	219.69
607.585	243.69
607.793	233.69
608.001	235.69
608.21	228.69
608.418	233.69
608.626	217.69
608.834	233.69
609.043	217.69
609.251	226.69
609.459	233.69
609.667	231.69
609.875	222.69
610.083	225.69
610.291	227.69
610.499	226.69
610.707	210.69
610.916	249.69
611.124	229.69
611.332	228.69
611.54	247.69
611.748	252.69
611.955	218.69
612.163	239.69
612.371	227.69
612.579	216.69
612.787	234.69
612.995	232.69
613.203	243.69
613.411	209.69
613.618	212.69
613.826	219.69
614.034	231.69
614.242	225.69
614.449	214.69
614.657	227.69
614.865	221.69
615.072	222.69
615.28	233.69
615.488	246.69
615.695	238.69
615.903	226.69
616.111	242.69
616.318	234.69
616.526	213.69
616.733	211.69
616.941	215.69
617.148	215.69
617.356	219.69
617.563	214.69
617.771	225.69
617.978	226.69
618.185	208.69
618.393	216.69
618.6	218.69
618.807	229.69
619.015	237.69
619.222	202.69
619.429	209.69
619.637	208.69
619.844	214.69
620.051	213.69
620.258	211.69
620.466	219.69
620.673	202.69
620.88	209.69
621.087	212.69
621.294	208.69
621.501	217.69
621.708	211.69
621.915	218.69
622.122	233.69
622.329	207.69
622.536	227.69
622.743	208.69
622.95	208.69
623.157	222.69
623.364	200.69
623.571	203.69
623.778	193.69
623.985	183.69
624.192	201.69
624.399	198.69
624.606	196.69
624.812	199.69
625.019	205.69
625.226	196.69
625.433	191.69
625.639	201.69
625.846	193.69
626.053	194.69
626.259	205.69
626.466	201.69
626.673	188.69
626.879	195.69
627.086	191.69
627.293	200.69
627.499	195.69
627.706	201.69
627.912	195.69
628.119	202.69
628.325	214.69
628.532	189.69
628.738	188.69
628.945	208.69
629.151	197.69
629.357	187.69
629.564	193.69
629.77	193.69
629.976	197.69
630.183	206.69
630.389	191.69
630.595	203.69
630.802	190.69
631.008	192.69
631.214	180.69
631.42	189.69
631.627	189.69
631.833	190.69
632.039	173.69
632.245	197.69
632.451	198.69
632.657	185.69
632.863	171.69
633.069	174.69
633.275	187.69
633.481	170.69
633.688	175.69
633.893	183.69
634.099	170.69
634.305	179.69
634.511	180.69
634.717	179.69
634.923	184.69
635.129	181.69
635.335	187.69
635.541	183.69
635.747	184.69
635.952	165.69
636.158	181.69
636.364	168.69
636.57	168.69
636.775	181.69
636.981	172.69
637.187	169.69
637.392	170.69
637.598	164.69
637.804	173.69
638.009	168.69
638.215	177.69
638.421	177.69
638.626	180.69
638.832	175.69
639.037	159.69
639.243	183.69
639.448	175.69
639.654	177.69
639.859	170.69
640.065	171.69
640.27	165.69
640.475	161.69
640.681	159.69
640.886	177.69
641.091	168.69
641.297	182.69
641.502	162.69
641.707	154.69
641.913	165.69
642.118	169.69
642.323	168.69
642.528	156.69
642.733	164.69
642.939	154.69
643.144	161.69
643.349	164.69
643.554	166.69
643.759	152.69
643.964	163.69
644.169	148.69
644.374	145.69
644.579	132.69
644.784	179.69
644.989	160.69
645.194	164.69
645.399	162.69
645.604	155.69
645.809	156.69
646.014	180.69
646.219	173.69
646.423	160.69
646.628	161.69
646.833	164.69
647.038	179.69
647.243	156.69
647.447	159.69
647.652	151.69
647.857	155.69
648.062	150.69
648.266	162.69
648.471	167.69
648.676	173.69
648.88	141.69
649.085	161.69
649.289	152.69
649.494	170.69
649.698	197.69
649.903	200.69
650.107	167.69
650.312	151.69
650.516	141.69
650.721	159.69
650.925	154.69
651.13	139.69
651.334	145.69
651.539	159.69
651.743	135.69
651.947	142.69
652.152	153.69
652.356	141.69
652.56	141.69
652.764	158.69
652.969	127.69
653.173	131.69
653.377	126.69
653.581	133.69
653.785	146.69
653.99	134.69
654.194	133.69
654.398	141.69
654.602	132.69
654.806	143.69
655.01	140.69
655.214	135.69
655.418	141.69
655.622	139.69
655.826	130.69
656.03	129.69
656.234	139.69
656.438	121.69
656.642	129.69
656.846	133.69
657.049	139.69
657.253	134.69
657.457	119.69
657.661	123.69
657.865	114.69
658.068	102.69
658.272	107.69
658.476	93.69
658.68	104.69
658.883	97.69
659.087	113.69
659.291	96.69
659.494	97.69
659.698	112.69
659.901	101.69
660.105	99.69
660.309	81.69
660.512	109.69
660.716	95.69
660.919	97.69
661.123	88.69
661.326	97.69
661.53	85.69
661.733	83.69
661.936	83.69
662.14	83.69
662.343	76.69
662.546	91.69
662.75	76.69
662.953	93.69
663.156	79.69
663.36	87.69
663.563	85.69
663.766	76.69
663.969	85.69
664.173	74.69
664.376	77.69
664.579	78.69
664.782	75.69
664.985	80.69
665.188	87.69
665.391	94.69
665.594	76.69
665.797	96.69
666	84.69
666.203	72.69
666.406	87.69
666.609	78.69
666.812	89.69
667.015	81.69
667.218	88.69
667.421	83.69
667.624	86.69
667.827	93.69
668.03	77.69
668.232	95.69
668.435	86.69
668.638	77.69
668.841	80.69
669.043	83.69
669.246	82.69
669.449	71.69
669.651	90.69
669.854	65.69
670.057	83.69
670.259	69.69
670.462	74.69
670.665	86.69
670.867	71.69
671.07	88.69
671.272	73.69
671.475	73.69
671.677	88.69
671.88	89.69
672.082	80.69
672.284	81.69
672.487	81.69
672.689	79.69
672.892	81.69
