Data from 1972.PennyLincolnUp.Lamp.En5.5.200Scan.071719.P1._HRD10591_15-28-12-844.txt Node
Date: Thu Jul 18 15:28:12 EDT 2019
User: cochatt
Spectrometer: HR+D1059
Trigger mode: 1
Integration Time (sec): 1.000000E-1
Scans to average: 1
Electric dark correction enabled: true
Nonlinearity correction enabled: false
Boxcar width: 0
XAxis mode: Wavelengths
Number of Pixels in Spectrum: 2048
>>>>>Begin Spectral Data<<<<<
223.165	-3.62
223.4	-3.62
223.635	-3.62
223.869	-18.62
224.104	-33.62
224.338	-20.62
224.573	-12.62
224.808	-12.62
225.042	-4.62
225.277	-9.62
225.511	-18.62
225.746	-7.62
225.98	-1.62
226.215	21.38
226.449	31.38
226.683	24.38
226.918	24.38
227.152	42.38
227.387	34.38
227.621	36.38
227.856	42.38
228.09	33.38
228.324	49.38
228.559	53.38
228.793	67.38
229.027	104.38
229.262	109.38
229.496	129.38
229.73	156.38
229.964	162.38
230.199	140.38
230.433	121.38
230.667	122.38
230.901	115.38
231.136	120.38
231.37	119.38
231.604	110.38
231.838	109.38
232.072	103.38
232.306	106.38
232.541	107.38
232.775	113.38
233.009	127.38
233.243	122.38
233.477	123.38
233.711	120.38
233.945	123.38
234.179	122.38
234.413	123.38
234.647	113.38
234.881	110.38
235.115	123.38
235.349	118.38
235.583	118.38
235.817	126.38
236.051	131.38
236.285	125.38
236.519	135.38
236.753	125.38
236.987	153.38
237.221	184.38
237.455	262.38
237.689	204.38
237.922	146.38
238.156	136.38
238.39	127.38
238.624	127.38
238.858	120.38
239.091	139.38
239.325	130.38
239.559	118.38
239.793	132.38
240.027	152.38
240.26	150.38
240.494	189.38
240.728	163.38
240.961	149.38
241.195	150.38
241.429	141.38
241.662	143.38
241.896	141.38
242.13	116.38
242.363	148.38
242.597	131.38
242.83	131.38
243.064	134.38
243.298	143.38
243.531	134.38
243.765	135.38
243.998	136.38
244.232	155.38
244.465	143.38
244.699	142.38
244.932	142.38
245.166	147.38
245.399	145.38
245.633	143.38
245.866	153.38
246.099	142.38
246.333	149.38
246.566	154.38
246.8	158.38
247.033	153.38
247.266	159.38
247.5	170.38
247.733	167.38
247.966	183.38
248.2	176.38
248.433	163.38
248.666	202.38
248.899	194.38
249.133	190.38
249.366	205.38
249.599	203.38
249.832	198.38
250.066	200.38
250.299	198.38
250.532	200.38
250.765	204.38
250.998	218.38
251.231	232.38
251.465	220.38
251.698	219.38
251.931	223.38
252.164	200.38
252.397	196.38
252.63	216.38
252.863	215.38
253.096	237.38
253.329	215.38
253.562	216.38
253.795	243.38
254.028	216.38
254.261	231.38
254.494	262.38
254.727	264.38
254.96	311.38
255.193	286.38
255.426	266.38
255.659	242.38
255.892	237.38
256.124	258.38
256.357	252.38
256.59	223.38
256.823	236.38
257.056	229.38
257.289	223.38
257.521	235.38
257.754	217.38
257.987	213.38
258.22	204.38
258.452	224.38
258.685	205.38
258.918	213.38
259.151	216.38
259.383	234.38
259.616	234.38
259.849	226.38
260.081	247.38
260.314	277.38
260.547	268.38
260.779	277.38
261.012	248.38
261.244	234.38
261.477	237.38
261.71	219.38
261.942	240.38
262.175	254.38
262.407	246.38
262.64	235.38
262.872	227.38
263.105	219.38
263.337	223.38
263.57	219.38
263.802	224.38
264.035	225.38
264.267	222.38
264.499	232.38
264.732	223.38
264.964	219.38
265.197	199.38
265.429	206.38
265.661	211.38
265.894	223.38
266.126	223.38
266.358	207.38
266.591	224.38
266.823	222.38
267.055	233.38
267.287	231.38
267.52	222.38
267.752	215.38
267.984	217.38
268.216	221.38
268.448	226.38
268.681	235.38
268.913	247.38
269.145	264.38
269.377	281.38
269.609	278.38
269.841	284.38
270.073	282.38
270.306	295.38
270.538	334.38
270.77	321.38
271.002	326.38
271.234	300.38
271.466	306.38
271.698	335.38
271.93	322.38
272.162	324.38
272.394	324.38
272.626	336.38
272.858	324.38
273.09	291.38
273.322	291.38
273.553	270.38
273.785	263.38
274.017	274.38
274.249	287.38
274.481	280.38
274.713	270.38
274.945	276.38
275.176	273.38
275.408	263.38
275.64	266.38
275.872	264.38
276.104	259.38
276.335	267.38
276.567	266.38
276.799	281.38
277.031	323.38
277.262	328.38
277.494	343.38
277.726	315.38
277.957	308.38
278.189	307.38
278.421	270.38
278.652	270.38
278.884	271.38
279.115	280.38
279.347	284.38
279.579	277.38
279.81	277.38
280.042	256.38
280.273	278.38
280.505	278.38
280.736	262.38
280.968	266.38
281.199	276.38
281.431	276.38
281.662	280.38
281.894	281.38
282.125	276.38
282.356	310.38
282.588	319.38
282.819	323.38
283.051	285.38
283.282	267.38
283.513	278.38
283.745	271.38
283.976	268.38
284.207	279.38
284.439	280.38
284.67	283.38
284.901	279.38
285.132	271.38
285.364	293.38
285.595	279.38
285.826	288.38
286.057	285.38
286.288	267.38
286.52	286.38
286.751	274.38
286.982	268.38
287.213	276.38
287.444	272.38
287.675	287.38
287.906	311.38
288.138	297.38
288.369	310.38
288.6	302.38
288.831	295.38
289.062	312.38
289.293	291.38
289.524	279.38
289.755	294.38
289.986	300.38
290.217	290.38
290.448	281.38
290.679	292.38
290.91	264.38
291.141	284.38
291.371	283.38
291.602	273.38
291.833	275.38
292.064	286.38
292.295	276.38
292.526	295.38
292.757	272.38
292.987	290.38
293.218	279.38
293.449	298.38
293.68	287.38
293.91	278.38
294.141	282.38
294.372	279.38
294.603	289.38
294.833	280.38
295.064	292.38
295.295	268.38
295.525	280.38
295.756	291.38
295.987	311.38
296.217	322.38
296.448	340.38
296.679	310.38
296.909	286.38
297.14	289.38
297.37	299.38
297.601	289.38
297.831	280.38
298.062	295.38
298.292	303.38
298.523	307.38
298.753	301.38
298.984	305.38
299.214	326.38
299.445	297.38
299.675	283.38
299.905	295.38
300.136	294.38
300.366	283.38
300.597	299.38
300.827	302.38
301.057	300.38
301.288	325.38
301.518	309.38
301.748	307.38
301.979	311.38
302.209	313.38
302.439	336.38
302.669	316.38
302.9	310.38
303.13	325.38
303.36	301.38
303.59	325.38
303.82	325.38
304.051	319.38
304.281	330.38
304.511	310.38
304.741	317.38
304.971	323.38
305.201	309.38
305.431	333.38
305.661	299.38
305.891	306.38
306.121	322.38
306.352	334.38
306.582	328.38
306.812	328.38
307.042	324.38
307.272	334.38
307.502	329.38
307.731	344.38
307.961	339.38
308.191	332.38
308.421	319.38
308.651	318.38
308.881	330.38
309.111	345.38
309.341	343.38
309.571	359.38
309.8	371.38
310.03	363.38
310.26	373.38
310.49	381.38
310.72	390.38
310.949	407.38
311.179	419.38
311.409	383.38
311.639	363.38
311.868	380.38
312.098	388.38
312.328	410.38
312.557	404.38
312.787	440.38
313.017	419.38
313.246	395.38
313.476	392.38
313.706	381.38
313.935	395.38
314.165	386.38
314.394	429.38
314.624	394.38
314.853	386.38
315.083	374.38
315.312	375.38
315.542	370.38
315.771	392.38
316.001	369.38
316.23	362.38
316.46	371.38
316.689	360.38
316.919	380.38
317.148	392.38
317.377	388.38
317.607	399.38
317.836	388.38
318.065	391.38
318.295	374.38
318.524	397.38
318.753	391.38
318.983	383.38
319.212	388.38
319.441	384.38
319.67	386.38
319.9	371.38
320.129	393.38
320.358	365.38
320.587	396.38
320.816	382.38
321.046	392.38
321.275	416.38
321.504	402.38
321.733	406.38
321.962	426.38
322.191	448.38
322.42	446.38
322.649	468.38
322.878	470.38
323.108	468.38
323.337	505.38
323.566	559.38
323.795	574.38
324.024	642.38
324.253	826.38
324.482	1151.38
324.71	1850.38
324.939	2639.38
325.168	2344.38
325.397	1188.38
325.626	771.38
325.855	618.38
326.084	568.38
326.313	570.38
326.542	555.38
326.77	629.38
326.999	738.38
327.228	1048.38
327.457	1600.38
327.686	2019.38
327.914	1350.38
328.143	839.38
328.372	714.38
328.6	652.38
328.829	653.38
329.058	636.38
329.287	653.38
329.515	592.38
329.744	554.38
329.972	555.38
330.201	604.38
330.43	647.38
330.658	630.38
330.887	681.38
331.115	674.38
331.344	586.38
331.572	517.38
331.801	508.38
332.03	522.38
332.258	495.38
332.486	475.38
332.715	460.38
332.943	455.38
333.172	458.38
333.4	468.38
333.629	474.38
333.857	470.38
334.085	491.38
334.314	518.38
334.542	554.38
334.771	577.38
334.999	499.38
335.227	476.38
335.455	432.38
335.684	453.38
335.912	443.38
336.14	431.38
336.369	439.38
336.597	437.38
336.825	452.38
337.053	438.38
337.281	420.38
337.51	418.38
337.738	420.38
337.966	431.38
338.194	447.38
338.422	439.38
338.65	437.38
338.878	428.38
339.106	419.38
339.334	415.38
339.562	409.38
339.79	421.38
340.018	409.38
340.246	411.38
340.474	406.38
340.702	427.38
340.93	406.38
341.158	398.38
341.386	409.38
341.614	414.38
341.842	431.38
342.07	407.38
342.298	397.38
342.526	408.38
342.754	417.38
342.981	392.38
343.209	410.38
343.437	398.38
343.665	397.38
343.893	383.38
344.12	402.38
344.348	409.38
344.576	406.38
344.804	407.38
345.031	427.38
345.259	433.38
345.487	442.38
345.714	425.38
345.942	404.38
346.17	401.38
346.397	389.38
346.625	407.38
346.853	418.38
347.08	414.38
347.308	420.38
347.535	422.38
347.763	423.38
347.99	433.38
348.218	440.38
348.445	427.38
348.673	422.38
348.9	400.38
349.128	395.38
349.355	397.38
349.583	401.38
349.81	375.38
350.037	395.38
350.265	400.38
350.492	399.38
350.72	387.38
350.947	390.38
351.174	417.38
351.402	407.38
351.629	408.38
351.856	421.38
352.083	423.38
352.311	430.38
352.538	431.38
352.765	442.38
352.992	430.38
353.22	404.38
353.447	410.38
353.674	400.38
353.901	396.38
354.128	366.38
354.355	366.38
354.583	373.38
354.81	376.38
355.037	386.38
355.264	365.38
355.491	365.38
355.718	363.38
355.945	366.38
356.172	360.38
356.399	365.38
356.626	361.38
356.853	380.38
357.08	358.38
357.307	372.38
357.534	378.38
357.761	379.38
357.988	376.38
358.215	363.38
358.441	356.38
358.668	359.38
358.895	379.38
359.122	372.38
359.349	389.38
359.576	406.38
359.802	415.38
360.029	482.38
360.256	487.38
360.483	470.38
360.709	436.38
360.936	416.38
361.163	388.38
361.39	409.38
361.616	428.38
361.843	397.38
362.07	405.38
362.296	422.38
362.523	412.38
362.749	395.38
362.976	410.38
363.203	397.38
363.429	382.38
363.656	384.38
363.882	385.38
364.109	379.38
364.335	379.38
364.562	368.38
364.788	375.38
365.015	374.38
365.241	382.38
365.468	399.38
365.694	405.38
365.92	386.38
366.147	394.38
366.373	386.38
366.599	373.38
366.826	380.38
367.052	382.38
367.278	363.38
367.505	388.38
367.731	394.38
367.957	380.38
368.184	381.38
368.41	376.38
368.636	390.38
368.862	387.38
369.089	381.38
369.315	366.38
369.541	392.38
369.767	386.38
369.993	379.38
370.219	361.38
370.445	393.38
370.672	379.38
370.898	370.38
371.124	388.38
371.35	379.38
371.576	365.38
371.802	344.38
372.028	373.38
372.254	360.38
372.48	350.38
372.706	360.38
372.932	350.38
373.158	371.38
373.384	378.38
373.61	383.38
373.835	380.38
374.061	385.38
374.287	380.38
374.513	355.38
374.739	378.38
374.965	366.38
375.191	364.38
375.416	375.38
375.642	366.38
375.868	373.38
376.094	357.38
376.319	368.38
376.545	361.38
376.771	375.38
376.997	362.38
377.222	360.38
377.448	355.38
377.674	357.38
377.899	339.38
378.125	357.38
378.35	350.38
378.576	351.38
378.802	349.38
379.027	373.38
379.253	352.38
379.478	366.38
379.704	372.38
379.929	364.38
380.155	374.38
380.38	386.38
380.606	367.38
380.831	353.38
381.057	378.38
381.282	368.38
381.507	360.38
381.733	367.38
381.958	350.38
382.184	358.38
382.409	358.38
382.634	362.38
382.86	359.38
383.085	358.38
383.31	363.38
383.535	374.38
383.761	383.38
383.986	369.38
384.211	395.38
384.436	375.38
384.662	386.38
384.887	388.38
385.112	353.38
385.337	386.38
385.562	375.38
385.787	374.38
386.013	403.38
386.238	391.38
386.463	400.38
386.688	381.38
386.913	382.38
387.138	381.38
387.363	394.38
387.588	399.38
387.813	388.38
388.038	376.38
388.263	358.38
388.488	381.38
388.713	396.38
388.938	371.38
389.163	398.38
389.387	398.38
389.612	392.38
389.837	394.38
390.062	384.38
390.287	389.38
390.512	374.38
390.736	379.38
390.961	382.38
391.186	404.38
391.411	399.38
391.636	383.38
391.86	350.38
392.085	386.38
392.31	383.38
392.534	384.38
392.759	380.38
392.984	359.38
393.208	379.38
393.433	406.38
393.658	416.38
393.882	383.38
394.107	371.38
394.331	381.38
394.556	399.38
394.78	375.38
395.005	381.38
395.229	392.38
395.454	397.38
395.678	380.38
395.903	421.38
396.127	439.38
396.352	451.38
396.576	409.38
396.801	415.38
397.025	437.38
397.249	411.38
397.474	408.38
397.698	437.38
397.922	420.38
398.147	440.38
398.371	439.38
398.595	419.38
398.82	442.38
399.044	438.38
399.268	442.38
399.492	454.38
399.717	466.38
399.941	488.38
400.165	536.38
400.389	551.38
400.613	518.38
400.837	464.38
401.062	456.38
401.286	443.38
401.51	452.38
401.734	434.38
401.958	450.38
402.182	454.38
402.406	460.38
402.63	442.38
402.854	464.38
403.078	451.38
403.302	455.38
403.526	456.38
403.75	448.38
403.974	455.38
404.198	453.38
404.422	466.38
404.645	451.38
404.869	464.38
405.093	502.38
405.317	564.38
405.541	571.38
405.765	541.38
405.988	498.38
406.212	506.38
406.436	539.38
406.66	533.38
406.883	530.38
407.107	492.38
407.331	574.38
407.555	645.38
407.778	620.38
408.002	564.38
408.226	539.38
408.449	506.38
408.673	509.38
408.896	530.38
409.12	587.38
409.344	566.38
409.567	490.38
409.791	475.38
410.014	468.38
410.238	442.38
410.461	470.38
410.685	458.38
410.908	482.38
411.132	517.38
411.355	559.38
411.578	530.38
411.802	477.38
412.025	447.38
412.249	468.38
412.472	509.38
412.695	538.38
412.919	539.38
413.142	486.38
413.365	434.38
413.589	469.38
413.812	470.38
414.035	437.38
414.258	443.38
414.482	429.38
414.705	438.38
414.928	443.38
415.151	417.38
415.374	424.38
415.597	422.38
415.821	409.38
416.044	451.38
416.267	432.38
416.49	430.38
416.713	446.38
416.936	431.38
417.159	438.38
417.382	432.38
417.605	450.38
417.828	440.38
418.051	463.38
418.274	457.38
418.497	462.38
418.72	444.38
418.943	421.38
419.166	472.38
419.389	459.38
419.611	442.38
419.834	456.38
420.057	475.38
420.28	456.38
420.503	456.38
420.726	461.38
420.948	483.38
421.171	526.38
421.394	557.38
421.617	501.38
421.839	448.38
422.062	460.38
422.285	465.38
422.507	535.38
422.73	638.38
422.953	592.38
423.175	500.38
423.398	482.38
423.621	472.38
423.843	506.38
424.066	498.38
424.288	505.38
424.511	554.38
424.733	595.38
424.956	642.38
425.178	646.38
425.401	628.38
425.623	664.38
425.846	575.38
426.068	529.38
426.291	506.38
426.513	503.38
426.735	534.38
426.958	559.38
427.18	639.38
427.402	778.38
427.625	868.38
427.847	782.38
428.069	682.38
428.292	605.38
428.514	532.38
428.736	516.38
428.958	470.38
429.181	479.38
429.403	465.38
429.625	480.38
429.847	536.38
430.069	596.38
430.292	580.38
430.514	526.38
430.736	466.38
430.958	456.38
431.18	456.38
431.402	422.38
431.624	434.38
431.846	438.38
432.068	451.38
432.29	443.38
432.512	445.38
432.734	433.38
432.956	443.38
433.178	453.38
433.4	464.38
433.622	469.38
433.844	446.38
434.066	427.38
434.287	442.38
434.509	424.38
434.731	443.38
434.953	447.38
435.175	455.38
435.397	496.38
435.618	495.38
435.84	570.38
436.062	644.38
436.284	738.38
436.505	606.38
436.727	546.38
436.949	518.38
437.17	476.38
437.392	490.38
437.614	484.38
437.835	527.38
438.057	644.38
438.278	732.38
438.5	720.38
438.721	826.38
438.943	778.38
439.165	600.38
439.386	556.38
439.608	555.38
439.829	542.38
440.05	581.38
440.272	614.38
440.493	560.38
440.715	512.38
440.936	503.38
441.158	483.38
441.379	476.38
441.6	482.38
441.822	501.38
442.043	572.38
442.264	651.38
442.486	680.38
442.707	595.38
442.928	526.38
443.149	533.38
443.371	583.38
443.592	607.38
443.813	700.38
444.034	771.38
444.255	624.38
444.476	547.38
444.698	524.38
444.919	510.38
445.14	605.38
445.361	568.38
445.582	586.38
445.803	645.38
446.024	780.38
446.245	769.38
446.466	703.38
446.687	566.38
446.908	536.38
447.129	518.38
447.35	490.38
447.571	491.38
447.792	467.38
448.013	491.38
448.234	522.38
448.455	567.38
448.675	646.38
448.896	786.38
449.117	668.38
449.338	653.38
449.559	728.38
449.779	842.38
450	667.38
450.221	532.38
450.442	502.38
450.662	474.38
450.883	502.38
451.104	523.38
451.324	486.38
451.545	469.38
451.766	477.38
451.986	435.38
452.207	426.38
452.428	434.38
452.648	432.38
452.869	439.38
453.089	436.38
453.31	435.38
453.53	424.38
453.751	416.38
453.971	442.38
454.192	469.38
454.412	456.38
454.633	456.38
454.853	411.38
455.073	427.38
455.294	471.38
455.514	526.38
455.734	512.38
455.955	444.38
456.175	437.38
456.395	402.38
456.616	412.38
456.836	411.38
457.056	413.38
457.276	383.38
457.497	386.38
457.717	396.38
457.937	375.38
458.157	412.38
458.377	410.38
458.598	438.38
458.818	532.38
459.038	606.38
459.258	628.38
459.478	499.38
459.698	451.38
459.918	455.38
460.138	431.38
460.358	451.38
460.578	427.38
460.798	438.38
461.018	438.38
461.238	425.38
461.458	451.38
461.678	434.38
461.898	442.38
462.118	439.38
462.338	445.38
462.558	446.38
462.777	450.38
462.997	458.38
463.217	480.38
463.437	463.38
463.657	452.38
463.876	447.38
464.096	440.38
464.316	446.38
464.536	458.38
464.755	487.38
464.975	483.38
465.195	555.38
465.414	615.38
465.634	536.38
465.854	474.38
466.073	458.38
466.293	439.38
466.512	423.38
466.732	447.38
466.951	428.38
467.171	424.38
467.391	438.38
467.61	437.38
467.829	468.38
468.049	427.38
468.268	438.38
468.488	406.38
468.707	420.38
468.927	414.38
469.146	394.38
469.365	427.38
469.585	412.38
469.804	409.38
470.023	475.38
470.243	464.38
470.462	452.38
470.681	458.38
470.901	468.38
471.12	456.38
471.339	424.38
471.558	442.38
471.777	443.38
471.997	432.38
472.216	454.38
472.435	516.38
472.654	494.38
472.873	462.38
473.092	424.38
473.311	438.38
473.53	413.38
473.749	459.38
473.968	520.38
474.187	623.38
474.406	639.38
474.625	523.38
474.844	475.38
475.063	434.38
475.282	439.38
475.501	463.38
475.72	447.38
475.939	456.38
476.158	463.38
476.377	427.38
476.596	452.38
476.814	451.38
477.033	475.38
477.252	454.38
477.471	454.38
477.69	451.38
477.908	463.38
478.127	467.38
478.346	473.38
478.564	480.38
478.783	477.38
479.002	479.38
479.22	495.38
479.439	509.38
479.658	512.38
479.876	529.38
480.095	533.38
480.313	571.38
480.532	544.38
480.751	562.38
480.969	550.38
481.188	636.38
481.406	690.38
481.624	590.38
481.843	529.38
482.061	524.38
482.28	541.38
482.498	517.38
482.717	505.38
482.935	507.38
483.153	508.38
483.372	511.38
483.59	515.38
483.808	504.38
484.027	543.38
484.245	538.38
484.463	518.38
484.681	520.38
484.9	524.38
485.118	528.38
485.336	521.38
485.554	525.38
485.772	516.38
485.99	521.38
486.209	534.38
486.427	541.38
486.645	570.38
486.863	557.38
487.081	564.38
487.299	560.38
487.517	533.38
487.735	559.38
487.953	565.38
488.171	549.38
488.389	556.38
488.607	554.38
488.825	538.38
489.043	549.38
489.261	552.38
489.479	571.38
489.696	561.38
489.914	574.38
490.132	563.38
490.35	567.38
490.568	574.38
490.786	581.38
491.003	591.38
491.221	595.38
491.439	602.38
491.657	615.38
491.874	635.38
492.092	634.38
492.31	651.38
492.527	634.38
492.745	650.38
492.963	642.38
493.18	622.38
493.398	654.38
493.615	644.38
493.833	647.38
494.05	661.38
494.268	652.38
494.485	652.38
494.703	655.38
494.92	630.38
495.138	670.38
495.355	669.38
495.573	646.38
495.79	664.38
496.008	666.38
496.225	647.38
496.442	678.38
496.66	664.38
496.877	634.38
497.094	665.38
497.312	663.38
497.529	684.38
497.746	671.38
497.963	662.38
498.181	691.38
498.398	712.38
498.615	707.38
498.832	745.38
499.049	727.38
499.267	730.38
499.484	746.38
499.701	757.38
499.918	764.38
500.135	788.38
500.352	818.38
500.569	832.38
500.786	828.38
501.003	832.38
501.22	788.38
501.437	805.38
501.654	791.38
501.871	798.38
502.088	762.38
502.305	743.38
502.522	710.38
502.739	712.38
502.956	685.38
503.172	694.38
503.389	691.38
503.606	674.38
503.823	680.38
504.04	676.38
504.256	664.38
504.473	654.38
504.69	642.38
504.907	669.38
505.123	650.38
505.34	633.38
505.557	654.38
505.773	661.38
505.99	648.38
506.207	636.38
506.423	631.38
506.64	650.38
506.856	642.38
507.073	645.38
507.289	622.38
507.506	630.38
507.722	647.38
507.939	684.38
508.155	672.38
508.372	631.38
508.588	602.38
508.805	607.38
509.021	599.38
509.238	629.38
509.454	627.38
509.67	627.38
509.887	622.38
510.103	639.38
510.319	658.38
510.536	757.38
510.752	1304.38
510.968	1086.38
511.184	652.38
511.401	611.38
511.617	584.38
511.833	596.38
512.049	605.38
512.265	568.38
512.481	585.38
512.698	570.38
512.914	578.38
513.13	588.38
513.346	574.38
513.562	605.38
513.778	608.38
513.994	627.38
514.21	620.38
514.426	644.38
514.642	722.38
514.858	724.38
515.074	775.38
515.29	970.38
515.506	1478.38
515.721	1169.38
515.937	782.38
516.153	668.38
516.369	670.38
516.585	616.38
516.801	605.38
517.016	582.38
517.232	594.38
517.448	591.38
517.664	594.38
517.879	596.38
518.095	598.38
518.311	587.38
518.527	593.38
518.742	583.38
518.958	580.38
519.173	588.38
519.389	582.38
519.605	580.38
519.82	583.38
520.036	593.38
520.251	644.38
520.467	671.38
520.682	663.38
520.898	681.38
521.113	727.38
521.329	780.38
521.544	897.38
521.76	1178.38
521.975	2008.38
522.19	1984.38
522.406	1020.38
522.621	781.38
522.836	656.38
523.052	621.38
523.267	587.38
523.482	576.38
523.698	550.38
523.913	534.38
524.128	556.38
524.343	548.38
524.559	500.38
524.774	513.38
524.989	519.38
525.204	521.38
525.419	526.38
525.634	490.38
525.849	495.38
526.064	469.38
526.28	486.38
526.495	478.38
526.71	487.38
526.925	485.38
527.14	470.38
527.355	493.38
527.57	460.38
527.785	452.38
527.999	454.38
528.214	464.38
528.429	478.38
528.644	463.38
528.859	480.38
529.074	503.38
529.289	514.38
529.503	619.38
529.718	604.38
529.933	503.38
530.148	500.38
530.363	479.38
530.577	483.38
530.792	469.38
531.007	484.38
531.221	440.38
531.436	445.38
531.651	447.38
531.865	470.38
532.08	444.38
532.295	440.38
532.509	430.38
532.724	438.38
532.938	468.38
533.153	454.38
533.367	454.38
533.582	452.38
533.796	454.38
534.011	434.38
534.225	450.38
534.44	440.38
534.654	442.38
534.868	429.38
535.083	442.38
535.297	424.38
535.511	468.38
535.726	460.38
535.94	451.38
536.154	442.38
536.369	460.38
536.583	456.38
536.797	424.38
537.011	416.38
537.225	427.38
537.44	415.38
537.654	428.38
537.868	432.38
538.082	423.38
538.296	426.38
538.51	424.38
538.724	454.38
538.938	444.38
539.153	419.38
539.367	444.38
539.581	445.38
539.795	443.38
540.009	421.38
540.222	427.38
540.436	439.38
540.65	427.38
540.864	454.38
541.078	468.38
541.292	436.38
541.506	431.38
541.72	436.38
541.934	445.38
542.147	419.38
542.361	419.38
542.575	413.38
542.789	430.38
543.002	429.38
543.216	415.38
543.43	442.38
543.644	442.38
543.857	431.38
544.071	442.38
544.285	412.38
544.498	440.38
544.712	435.38
544.925	412.38
545.139	398.38
545.352	415.38
545.566	405.38
545.779	426.38
545.993	420.38
546.206	413.38
546.42	409.38
546.633	409.38
546.847	405.38
547.06	411.38
547.274	398.38
547.487	404.38
547.7	406.38
547.914	393.38
548.127	409.38
548.34	412.38
548.554	413.38
548.767	395.38
548.98	399.38
549.193	407.38
549.407	398.38
549.62	392.38
549.833	401.38
550.046	398.38
550.259	392.38
550.473	384.38
550.686	394.38
550.899	375.38
551.112	388.38
551.325	373.38
551.538	398.38
551.751	381.38
551.964	382.38
552.177	389.38
552.39	373.38
552.603	401.38
552.816	397.38
553.029	389.38
553.242	400.38
553.455	398.38
553.667	396.38
553.88	423.38
554.093	421.38
554.306	419.38
554.519	382.38
554.732	372.38
554.944	374.38
555.157	358.38
555.37	384.38
555.583	392.38
555.795	395.38
556.008	365.38
556.221	366.38
556.433	389.38
556.646	366.38
556.859	368.38
557.071	350.38
557.284	357.38
557.496	371.38
557.709	372.38
557.921	364.38
558.134	355.38
558.346	351.38
558.559	350.38
558.771	351.38
558.984	359.38
559.196	359.38
559.409	374.38
559.621	344.38
559.833	376.38
560.046	349.38
560.258	365.38
560.47	362.38
560.683	360.38
560.895	354.38
561.107	362.38
561.32	369.38
561.532	357.38
561.744	364.38
561.956	370.38
562.168	353.38
562.381	364.38
562.593	354.38
562.805	356.38
563.017	356.38
563.229	340.38
563.441	359.38
563.653	342.38
563.865	355.38
564.077	369.38
564.289	376.38
564.501	373.38
564.713	377.38
564.925	378.38
565.137	387.38
565.349	380.38
565.561	383.38
565.773	375.38
565.985	399.38
566.197	399.38
566.408	381.38
566.62	387.38
566.832	393.38
567.044	402.38
567.255	401.38
567.467	399.38
567.679	399.38
567.891	399.38
568.102	416.38
568.314	392.38
568.526	392.38
568.737	387.38
568.949	377.38
569.161	383.38
569.372	369.38
569.584	360.38
569.795	378.38
570.007	363.38
570.218	434.38
570.43	416.38
570.641	349.38
570.853	349.38
571.064	348.38
571.276	340.38
571.487	321.38
571.698	328.38
571.91	333.38
572.121	323.38
572.333	323.38
572.544	320.38
572.755	331.38
572.966	331.38
573.178	319.38
573.389	308.38
573.6	312.38
573.811	333.38
574.023	310.38
574.234	330.38
574.445	324.38
574.656	307.38
574.867	313.38
575.078	305.38
575.289	338.38
575.501	318.38
575.712	304.38
575.923	323.38
576.134	313.38
576.345	308.38
576.556	281.38
576.767	302.38
576.978	295.38
577.188	290.38
577.399	312.38
577.61	303.38
577.821	309.38
578.032	311.38
578.243	373.38
578.454	645.38
578.665	454.38
578.875	320.38
579.086	315.38
579.297	281.38
579.508	290.38
579.718	311.38
579.929	287.38
580.14	307.38
580.35	293.38
580.561	285.38
580.772	276.38
580.982	310.38
581.193	290.38
581.403	278.38
581.614	267.38
581.825	275.38
582.035	273.38
582.246	273.38
582.456	302.38
582.667	292.38
582.877	275.38
583.087	273.38
583.298	293.38
583.508	285.38
583.719	288.38
583.929	280.38
584.139	287.38
584.35	271.38
584.56	282.38
584.77	284.38
584.981	285.38
585.191	290.38
585.401	278.38
585.611	270.38
585.821	295.38
586.032	276.38
586.242	272.38
586.452	272.38
586.662	292.38
586.872	282.38
587.082	286.38
587.292	275.38
587.502	282.38
587.713	282.38
587.923	284.38
588.133	268.38
588.343	275.38
588.553	258.38
588.762	268.38
588.972	291.38
589.182	308.38
589.392	262.38
589.602	263.38
589.812	271.38
590.022	278.38
590.232	291.38
590.441	280.38
590.651	278.38
590.861	271.38
591.071	245.38
591.281	279.38
591.49	295.38
591.7	285.38
591.91	275.38
592.119	281.38
592.329	282.38
592.539	280.38
592.748	292.38
592.958	287.38
593.167	255.38
593.377	276.38
593.587	283.38
593.796	271.38
594.006	283.38
594.215	283.38
594.424	266.38
594.634	273.38
594.843	255.38
595.053	258.38
595.262	266.38
595.472	280.38
595.681	270.38
595.89	276.38
596.1	266.38
596.309	263.38
596.518	263.38
596.727	271.38
596.937	245.38
597.146	270.38
597.355	260.38
597.564	272.38
597.774	233.38
597.983	254.38
598.192	253.38
598.401	247.38
598.61	251.38
598.819	258.38
599.028	268.38
599.237	244.38
599.446	244.38
599.655	226.38
599.864	243.38
600.073	254.38
600.282	238.38
600.491	225.38
600.7	259.38
600.909	236.38
601.118	254.38
601.327	252.38
601.536	247.38
601.745	245.38
601.953	242.38
602.162	237.38
602.371	227.38
602.58	231.38
602.789	242.38
602.997	223.38
603.206	232.38
603.415	228.38
603.623	234.38
603.832	230.38
604.041	231.38
604.249	238.38
604.458	226.38
604.666	243.38
604.875	217.38
605.084	235.38
605.292	243.38
605.501	244.38
605.709	245.38
605.918	227.38
606.126	223.38
606.334	231.38
606.543	217.38
606.751	229.38
606.96	214.38
607.168	231.38
607.376	222.38
607.585	220.38
607.793	235.38
608.001	243.38
608.21	222.38
608.418	228.38
608.626	235.38
608.834	232.38
609.043	219.38
609.251	238.38
609.459	235.38
609.667	224.38
609.875	233.38
610.083	217.38
610.291	210.38
610.499	214.38
610.707	227.38
610.916	233.38
611.124	231.38
611.332	236.38
611.54	246.38
611.748	234.38
611.955	219.38
612.163	226.38
612.371	231.38
612.579	224.38
612.787	224.38
612.995	237.38
613.203	232.38
613.411	203.38
613.618	216.38
613.826	216.38
614.034	212.38
614.242	189.38
614.449	234.38
614.657	210.38
614.865	226.38
615.072	213.38
615.28	221.38
615.488	224.38
615.695	233.38
615.903	212.38
616.111	214.38
616.318	215.38
616.526	214.38
616.733	236.38
616.941	215.38
617.148	216.38
617.356	216.38
617.563	223.38
617.771	212.38
617.978	219.38
618.185	222.38
618.393	224.38
618.6	237.38
618.807	231.38
619.015	217.38
619.222	206.38
619.429	219.38
619.637	227.38
619.844	220.38
620.051	217.38
620.258	214.38
620.466	213.38
620.673	199.38
620.88	214.38
621.087	214.38
621.294	193.38
621.501	221.38
621.708	196.38
621.915	207.38
622.122	202.38
622.329	216.38
622.536	206.38
622.743	217.38
622.95	227.38
623.157	205.38
623.364	204.38
623.571	197.38
623.778	219.38
623.985	194.38
624.192	199.38
624.399	213.38
624.606	224.38
624.812	194.38
625.019	187.38
625.226	201.38
625.433	203.38
625.639	203.38
625.846	206.38
626.053	191.38
626.259	195.38
626.466	204.38
626.673	187.38
626.879	194.38
627.086	192.38
627.293	193.38
627.499	210.38
627.706	206.38
627.912	194.38
628.119	198.38
628.325	206.38
628.532	195.38
628.738	196.38
628.945	207.38
629.151	181.38
629.357	194.38
629.564	199.38
629.77	194.38
629.976	187.38
630.183	203.38
630.389	181.38
630.595	171.38
630.802	186.38
631.008	180.38
631.214	201.38
631.42	194.38
631.627	192.38
631.833	188.38
632.039	187.38
632.245	188.38
632.451	174.38
632.657	177.38
632.863	180.38
633.069	166.38
633.275	190.38
633.481	168.38
633.688	174.38
633.893	187.38
634.099	187.38
634.305	178.38
634.511	178.38
634.717	191.38
634.923	174.38
635.129	171.38
635.335	178.38
635.541	184.38
635.747	181.38
635.952	181.38
636.158	181.38
636.364	176.38
636.57	184.38
636.775	186.38
636.981	185.38
637.187	187.38
637.392	166.38
637.598	180.38
637.804	195.38
638.009	174.38
638.215	186.38
638.421	171.38
638.626	154.38
638.832	171.38
639.037	170.38
639.243	175.38
639.448	159.38
639.654	177.38
639.859	178.38
640.065	164.38
640.27	167.38
640.475	169.38
640.681	167.38
640.886	178.38
641.091	165.38
641.297	180.38
641.502	182.38
641.707	158.38
641.913	171.38
642.118	173.38
642.323	164.38
642.528	170.38
642.733	169.38
642.939	163.38
643.144	164.38
643.349	171.38
643.554	153.38
643.759	146.38
643.964	154.38
644.169	169.38
644.374	150.38
644.579	163.38
644.784	158.38
644.989	164.38
645.194	163.38
645.399	154.38
645.604	166.38
645.809	169.38
646.014	159.38
646.219	162.38
646.423	164.38
646.628	167.38
646.833	160.38
647.038	153.38
647.243	153.38
647.447	180.38
647.652	171.38
647.857	158.38
648.062	156.38
648.266	163.38
648.471	151.38
648.676	178.38
648.88	164.38
649.085	156.38
649.289	172.38
649.494	174.38
649.698	180.38
649.903	173.38
650.107	155.38
650.312	167.38
650.516	170.38
650.721	150.38
650.925	159.38
651.13	141.38
651.334	154.38
651.539	154.38
651.743	152.38
651.947	164.38
652.152	128.38
652.356	137.38
652.56	128.38
652.764	150.38
652.969	133.38
653.173	136.38
653.377	129.38
653.581	151.38
653.785	140.38
653.99	145.38
654.194	143.38
654.398	130.38
654.602	136.38
654.806	130.38
655.01	139.38
655.214	136.38
655.418	127.38
655.622	141.38
655.826	136.38
656.03	118.38
656.234	141.38
656.438	145.38
656.642	117.38
656.846	125.38
657.049	112.38
657.253	106.38
657.457	109.38
657.661	111.38
657.865	110.38
658.068	122.38
658.272	115.38
658.476	114.38
658.68	108.38
658.883	110.38
659.087	90.38
659.291	96.38
659.494	96.38
659.698	87.38
659.901	100.38
660.105	89.38
660.309	95.38
660.512	101.38
660.716	93.38
660.919	99.38
661.123	92.38
661.326	100.38
661.53	94.38
661.733	86.38
661.936	84.38
662.14	80.38
662.343	91.38
662.546	94.38
662.75	83.38
662.953	84.38
663.156	80.38
663.36	82.38
663.563	78.38
663.766	92.38
663.969	84.38
664.173	84.38
664.376	87.38
664.579	83.38
664.782	86.38
664.985	78.38
665.188	86.38
665.391	75.38
665.594	78.38
665.797	91.38
666	87.38
666.203	78.38
666.406	75.38
666.609	84.38
666.812	90.38
667.015	90.38
667.218	64.38
667.421	78.38
667.624	109.38
667.827	95.38
668.03	79.38
668.232	94.38
668.435	82.38
668.638	86.38
668.841	90.38
669.043	85.38
669.246	78.38
669.449	79.38
669.651	79.38
669.854	85.38
670.057	100.38
670.259	78.38
670.462	92.38
670.665	73.38
670.867	79.38
671.07	92.38
671.272	85.38
671.475	83.38
671.677	80.38
671.88	83.38
672.082	67.38
672.284	84.38
672.487	80.38
672.689	97.38
672.892	77.38
