Data from 1972.PennyLincolnUp.Lamp.En5.5.200Scan.071719.P1._HRD10591_15-28-09-843.txt Node
Date: Thu Jul 18 15:28:09 EDT 2019
User: cochatt
Spectrometer: HR+D1059
Trigger mode: 1
Integration Time (sec): 1.000000E-1
Scans to average: 1
Electric dark correction enabled: true
Nonlinearity correction enabled: false
Boxcar width: 0
XAxis mode: Wavelengths
Number of Pixels in Spectrum: 2048
>>>>>Begin Spectral Data<<<<<
223.165	-21.75
223.4	-21.75
223.635	-21.75
223.869	-1.75
224.104	-27.75
224.338	-14.75
224.573	-21.75
224.808	-1.75
225.042	5.25
225.277	4.25
225.511	2.25
225.746	-8.75
225.98	4.25
226.215	17.25
226.449	18.25
226.683	15.25
226.918	20.25
227.152	11.25
227.387	27.25
227.621	38.25
227.856	33.25
228.09	46.25
228.324	44.25
228.559	58.25
228.793	52.25
229.027	100.25
229.262	126.25
229.496	116.25
229.73	150.25
229.964	162.25
230.199	139.25
230.433	124.25
230.667	123.25
230.901	105.25
231.136	120.25
231.37	100.25
231.604	105.25
231.838	114.25
232.072	107.25
232.306	107.25
232.541	111.25
232.775	120.25
233.009	125.25
233.243	114.25
233.477	100.25
233.711	103.25
233.945	121.25
234.179	128.25
234.413	117.25
234.647	113.25
234.881	112.25
235.115	107.25
235.349	107.25
235.583	109.25
235.817	120.25
236.051	129.25
236.285	121.25
236.519	126.25
236.753	133.25
236.987	150.25
237.221	215.25
237.455	250.25
237.689	187.25
237.922	142.25
238.156	133.25
238.39	133.25
238.624	106.25
238.858	119.25
239.091	136.25
239.325	125.25
239.559	127.25
239.793	124.25
240.027	125.25
240.26	129.25
240.494	151.25
240.728	155.25
240.961	154.25
241.195	153.25
241.429	133.25
241.662	121.25
241.896	129.25
242.13	120.25
242.363	144.25
242.597	143.25
242.83	139.25
243.064	132.25
243.298	141.25
243.531	132.25
243.765	131.25
243.998	129.25
244.232	133.25
244.465	137.25
244.699	146.25
244.932	143.25
245.166	134.25
245.399	132.25
245.633	143.25
245.866	142.25
246.099	128.25
246.333	152.25
246.566	149.25
246.8	132.25
247.033	146.25
247.266	164.25
247.5	156.25
247.733	168.25
247.966	170.25
248.2	150.25
248.433	148.25
248.666	164.25
248.899	179.25
249.133	189.25
249.366	214.25
249.599	202.25
249.832	176.25
250.066	196.25
250.299	194.25
250.532	185.25
250.765	198.25
250.998	227.25
251.231	225.25
251.465	216.25
251.698	205.25
251.931	192.25
252.164	199.25
252.397	198.25
252.63	201.25
252.863	211.25
253.096	225.25
253.329	222.25
253.562	228.25
253.795	220.25
254.028	229.25
254.261	213.25
254.494	230.25
254.727	266.25
254.96	282.25
255.193	279.25
255.426	269.25
255.659	259.25
255.892	237.25
256.124	248.25
256.357	221.25
256.59	232.25
256.823	229.25
257.056	202.25
257.289	204.25
257.521	227.25
257.754	190.25
257.987	203.25
258.22	224.25
258.452	217.25
258.685	207.25
258.918	198.25
259.151	216.25
259.383	220.25
259.616	228.25
259.849	232.25
260.081	232.25
260.314	243.25
260.547	268.25
260.779	241.25
261.012	236.25
261.244	226.25
261.477	216.25
261.71	227.25
261.942	240.25
262.175	241.25
262.407	232.25
262.64	231.25
262.872	224.25
263.105	223.25
263.337	208.25
263.57	212.25
263.802	218.25
264.035	207.25
264.267	196.25
264.499	220.25
264.732	222.25
264.964	224.25
265.197	198.25
265.429	202.25
265.661	207.25
265.894	214.25
266.126	202.25
266.358	206.25
266.591	223.25
266.823	213.25
267.055	235.25
267.287	224.25
267.52	232.25
267.752	209.25
267.984	224.25
268.216	229.25
268.448	225.25
268.681	222.25
268.913	246.25
269.145	258.25
269.377	285.25
269.609	275.25
269.841	275.25
270.073	283.25
270.306	292.25
270.538	318.25
270.77	310.25
271.002	300.25
271.234	291.25
271.466	286.25
271.698	305.25
271.93	314.25
272.162	320.25
272.394	318.25
272.626	324.25
272.858	299.25
273.09	289.25
273.322	288.25
273.553	268.25
273.785	262.25
274.017	268.25
274.249	275.25
274.481	273.25
274.713	251.25
274.945	243.25
275.176	268.25
275.408	257.25
275.64	282.25
275.872	264.25
276.104	266.25
276.335	264.25
276.567	278.25
276.799	291.25
277.031	293.25
277.262	329.25
277.494	330.25
277.726	289.25
277.957	291.25
278.189	274.25
278.421	265.25
278.652	260.25
278.884	266.25
279.115	278.25
279.347	256.25
279.579	262.25
279.81	266.25
280.042	274.25
280.273	269.25
280.505	257.25
280.736	257.25
280.968	270.25
281.199	271.25
281.431	262.25
281.662	268.25
281.894	259.25
282.125	270.25
282.356	275.25
282.588	306.25
282.819	307.25
283.051	270.25
283.282	253.25
283.513	275.25
283.745	259.25
283.976	276.25
284.207	286.25
284.439	282.25
284.67	277.25
284.901	273.25
285.132	259.25
285.364	269.25
285.595	266.25
285.826	245.25
286.057	282.25
286.288	267.25
286.52	273.25
286.751	260.25
286.982	279.25
287.213	281.25
287.444	268.25
287.675	290.25
287.906	282.25
288.138	285.25
288.369	291.25
288.6	294.25
288.831	294.25
289.062	268.25
289.293	277.25
289.524	288.25
289.755	281.25
289.986	278.25
290.217	265.25
290.448	269.25
290.679	292.25
290.91	268.25
291.141	266.25
291.371	275.25
291.602	265.25
291.833	256.25
292.064	275.25
292.295	263.25
292.526	265.25
292.757	280.25
292.987	266.25
293.218	268.25
293.449	256.25
293.68	259.25
293.91	276.25
294.141	277.25
294.372	266.25
294.603	264.25
294.833	269.25
295.064	265.25
295.295	288.25
295.525	282.25
295.756	278.25
295.987	299.25
296.217	331.25
296.448	340.25
296.679	299.25
296.909	282.25
297.14	273.25
297.37	271.25
297.601	282.25
297.831	284.25
298.062	279.25
298.292	275.25
298.523	289.25
298.753	294.25
298.984	279.25
299.214	287.25
299.445	293.25
299.675	311.25
299.905	291.25
300.136	297.25
300.366	306.25
300.597	306.25
300.827	299.25
301.057	314.25
301.288	315.25
301.518	297.25
301.748	307.25
301.979	310.25
302.209	307.25
302.439	316.25
302.669	299.25
302.9	312.25
303.13	308.25
303.36	301.25
303.59	307.25
303.82	344.25
304.051	347.25
304.281	329.25
304.511	321.25
304.741	301.25
304.971	276.25
305.201	316.25
305.431	320.25
305.661	327.25
305.891	328.25
306.121	317.25
306.352	315.25
306.582	310.25
306.812	320.25
307.042	315.25
307.272	312.25
307.502	312.25
307.731	307.25
307.961	329.25
308.191	315.25
308.421	319.25
308.651	323.25
308.881	326.25
309.111	351.25
309.341	324.25
309.571	333.25
309.8	347.25
310.03	352.25
310.26	373.25
310.49	370.25
310.72	381.25
310.949	403.25
311.179	402.25
311.409	388.25
311.639	381.25
311.868	361.25
312.098	351.25
312.328	368.25
312.557	406.25
312.787	392.25
313.017	414.25
313.246	411.25
313.476	338.25
313.706	350.25
313.935	379.25
314.165	384.25
314.394	392.25
314.624	409.25
314.853	380.25
315.083	375.25
315.312	366.25
315.542	370.25
315.771	369.25
316.001	368.25
316.23	355.25
316.46	349.25
316.689	360.25
316.919	380.25
317.148	378.25
317.377	363.25
317.607	372.25
317.836	380.25
318.065	375.25
318.295	361.25
318.524	349.25
318.753	352.25
318.983	368.25
319.212	342.25
319.441	380.25
319.67	388.25
319.9	381.25
320.129	368.25
320.358	358.25
320.587	379.25
320.816	378.25
321.046	378.25
321.275	416.25
321.504	392.25
321.733	398.25
321.962	415.25
322.191	410.25
322.42	432.25
322.649	457.25
322.878	465.25
323.108	483.25
323.337	509.25
323.566	532.25
323.795	550.25
324.024	619.25
324.253	777.25
324.482	1110.25
324.71	1754.25
324.939	2629.25
325.168	2239.25
325.397	1162.25
325.626	761.25
325.855	617.25
326.084	548.25
326.313	530.25
326.542	526.25
326.77	576.25
326.999	728.25
327.228	983.25
327.457	1529.25
327.686	1940.25
327.914	1266.25
328.143	818.25
328.372	683.25
328.6	646.25
328.829	618.25
329.058	633.25
329.287	644.25
329.515	582.25
329.744	540.25
329.972	542.25
330.201	549.25
330.43	624.25
330.658	642.25
330.887	663.25
331.115	621.25
331.344	526.25
331.572	488.25
331.801	478.25
332.03	497.25
332.258	476.25
332.486	438.25
332.715	410.25
332.943	443.25
333.172	418.25
333.4	420.25
333.629	422.25
333.857	451.25
334.085	476.25
334.314	487.25
334.542	502.25
334.771	568.25
334.999	501.25
335.227	470.25
335.455	465.25
335.684	449.25
335.912	417.25
336.14	406.25
336.369	414.25
336.597	425.25
336.825	428.25
337.053	426.25
337.281	425.25
337.51	414.25
337.738	435.25
337.966	414.25
338.194	430.25
338.422	441.25
338.65	402.25
338.878	390.25
339.106	393.25
339.334	412.25
339.562	394.25
339.79	397.25
340.018	413.25
340.246	414.25
340.474	433.25
340.702	403.25
340.93	394.25
341.158	392.25
341.386	382.25
341.614	406.25
341.842	408.25
342.07	399.25
342.298	416.25
342.526	414.25
342.754	406.25
342.981	374.25
343.209	374.25
343.437	402.25
343.665	387.25
343.893	398.25
344.12	419.25
344.348	413.25
344.576	422.25
344.804	420.25
345.031	428.25
345.259	428.25
345.487	432.25
345.714	412.25
345.942	414.25
346.17	413.25
346.397	395.25
346.625	405.25
346.853	399.25
347.08	410.25
347.308	390.25
347.535	412.25
347.763	417.25
347.99	413.25
348.218	391.25
348.445	397.25
348.673	404.25
348.9	388.25
349.128	384.25
349.355	387.25
349.583	377.25
349.81	385.25
350.037	384.25
350.265	384.25
350.492	377.25
350.72	389.25
350.947	389.25
351.174	378.25
351.402	402.25
351.629	391.25
351.856	426.25
352.083	407.25
352.311	418.25
352.538	427.25
352.765	414.25
352.992	406.25
353.22	395.25
353.447	408.25
353.674	378.25
353.901	375.25
354.128	379.25
354.355	395.25
354.583	361.25
354.81	368.25
355.037	368.25
355.264	346.25
355.491	350.25
355.718	359.25
355.945	354.25
356.172	358.25
356.399	357.25
356.626	350.25
356.853	355.25
357.08	354.25
357.307	356.25
357.534	365.25
357.761	360.25
357.988	348.25
358.215	341.25
358.441	357.25
358.668	374.25
358.895	373.25
359.122	382.25
359.349	377.25
359.576	395.25
359.802	404.25
360.029	462.25
360.256	486.25
360.483	440.25
360.709	396.25
360.936	398.25
361.163	392.25
361.39	404.25
361.616	408.25
361.843	378.25
362.07	386.25
362.296	406.25
362.523	379.25
362.749	390.25
362.976	365.25
363.203	372.25
363.429	366.25
363.656	371.25
363.882	374.25
364.109	369.25
364.335	369.25
364.562	387.25
364.788	371.25
365.015	387.25
365.241	363.25
365.468	384.25
365.694	388.25
365.92	384.25
366.147	380.25
366.373	384.25
366.599	382.25
366.826	370.25
367.052	362.25
367.278	352.25
367.505	374.25
367.731	374.25
367.957	363.25
368.184	365.25
368.41	369.25
368.636	376.25
368.862	369.25
369.089	392.25
369.315	368.25
369.541	362.25
369.767	348.25
369.993	373.25
370.219	363.25
370.445	360.25
370.672	361.25
370.898	343.25
371.124	357.25
371.35	368.25
371.576	354.25
371.802	376.25
372.028	363.25
372.254	361.25
372.48	355.25
372.706	346.25
372.932	347.25
373.158	348.25
373.384	352.25
373.61	355.25
373.835	353.25
374.061	352.25
374.287	349.25
374.513	358.25
374.739	351.25
374.965	350.25
375.191	378.25
375.416	363.25
375.642	345.25
375.868	358.25
376.094	357.25
376.319	360.25
376.545	359.25
376.771	345.25
376.997	349.25
377.222	371.25
377.448	344.25
377.674	340.25
377.899	349.25
378.125	352.25
378.35	354.25
378.576	344.25
378.802	347.25
379.027	342.25
379.253	357.25
379.478	363.25
379.704	342.25
379.929	353.25
380.155	368.25
380.38	368.25
380.606	364.25
380.831	355.25
381.057	362.25
381.282	328.25
381.507	372.25
381.733	354.25
381.958	348.25
382.184	362.25
382.409	362.25
382.634	356.25
382.86	346.25
383.085	357.25
383.31	362.25
383.535	358.25
383.761	363.25
383.986	350.25
384.211	350.25
384.436	353.25
384.662	369.25
384.887	358.25
385.112	356.25
385.337	369.25
385.562	356.25
385.787	373.25
386.013	388.25
386.238	372.25
386.463	381.25
386.688	376.25
386.913	365.25
387.138	362.25
387.363	389.25
387.588	396.25
387.813	380.25
388.038	356.25
388.263	370.25
388.488	380.25
388.713	371.25
388.938	373.25
389.163	385.25
389.387	377.25
389.612	355.25
389.837	368.25
390.062	370.25
390.287	359.25
390.512	374.25
390.736	376.25
390.961	375.25
391.186	360.25
391.411	378.25
391.636	390.25
391.86	380.25
392.085	392.25
392.31	360.25
392.534	358.25
392.759	382.25
392.984	369.25
393.208	398.25
393.433	377.25
393.658	392.25
393.882	369.25
394.107	370.25
394.331	374.25
394.556	386.25
394.78	375.25
395.005	369.25
395.229	382.25
395.454	389.25
395.678	388.25
395.903	408.25
396.127	432.25
396.352	433.25
396.576	420.25
396.801	390.25
397.025	393.25
397.249	401.25
397.474	398.25
397.698	405.25
397.922	400.25
398.147	454.25
398.371	444.25
398.595	429.25
398.82	418.25
399.044	414.25
399.268	426.25
399.492	449.25
399.717	469.25
399.941	478.25
400.165	521.25
400.389	517.25
400.613	491.25
400.837	464.25
401.062	438.25
401.286	434.25
401.51	428.25
401.734	409.25
401.958	416.25
402.182	444.25
402.406	449.25
402.63	449.25
402.854	439.25
403.078	438.25
403.302	421.25
403.526	424.25
403.75	446.25
403.974	445.25
404.198	432.25
404.422	449.25
404.645	444.25
404.869	454.25
405.093	490.25
405.317	526.25
405.541	560.25
405.765	496.25
405.988	474.25
406.212	476.25
406.436	523.25
406.66	526.25
406.883	518.25
407.107	530.25
407.331	553.25
407.555	629.25
407.778	638.25
408.002	552.25
408.226	475.25
408.449	486.25
408.673	497.25
408.896	516.25
409.12	578.25
409.344	538.25
409.567	493.25
409.791	473.25
410.014	445.25
410.238	444.25
410.461	422.25
410.685	448.25
410.908	462.25
411.132	501.25
411.355	547.25
411.578	526.25
411.802	474.25
412.025	462.25
412.249	450.25
412.472	484.25
412.695	551.25
412.919	502.25
413.142	469.25
413.365	463.25
413.589	458.25
413.812	443.25
414.035	428.25
414.258	437.25
414.482	423.25
414.705	410.25
414.928	421.25
415.151	411.25
415.374	407.25
415.597	412.25
415.821	421.25
416.044	422.25
416.267	413.25
416.49	401.25
416.713	418.25
416.936	430.25
417.159	420.25
417.382	419.25
417.605	446.25
417.828	432.25
418.051	430.25
418.274	448.25
418.497	413.25
418.72	405.25
418.943	419.25
419.166	440.25
419.389	456.25
419.611	425.25
419.834	429.25
420.057	457.25
420.28	443.25
420.503	454.25
420.726	454.25
420.948	461.25
421.171	499.25
421.394	548.25
421.617	472.25
421.839	460.25
422.062	449.25
422.285	452.25
422.507	542.25
422.73	606.25
422.953	598.25
423.175	495.25
423.398	472.25
423.621	458.25
423.843	495.25
424.066	496.25
424.288	500.25
424.511	529.25
424.733	577.25
424.956	652.25
425.178	619.25
425.401	641.25
425.623	632.25
425.846	541.25
426.068	496.25
426.291	505.25
426.513	506.25
426.735	498.25
426.958	565.25
427.18	654.25
427.402	770.25
427.625	844.25
427.847	763.25
428.069	665.25
428.292	566.25
428.514	516.25
428.736	497.25
428.958	457.25
429.181	454.25
429.403	453.25
429.625	467.25
429.847	501.25
430.069	555.25
430.292	556.25
430.514	482.25
430.736	463.25
430.958	451.25
431.18	423.25
431.402	426.25
431.624	441.25
431.846	422.25
432.068	420.25
432.29	413.25
432.512	448.25
432.734	438.25
432.956	445.25
433.178	432.25
433.4	456.25
433.622	446.25
433.844	444.25
434.066	431.25
434.287	443.25
434.509	411.25
434.731	435.25
434.953	433.25
435.175	448.25
435.397	485.25
435.618	504.25
435.84	545.25
436.062	664.25
436.284	730.25
436.505	581.25
436.727	539.25
436.949	490.25
437.17	478.25
437.392	460.25
437.614	480.25
437.835	513.25
438.057	638.25
438.278	717.25
438.5	730.25
438.721	762.25
438.943	765.25
439.165	591.25
439.386	519.25
439.608	543.25
439.829	510.25
440.05	576.25
440.272	605.25
440.493	579.25
440.715	512.25
440.936	473.25
441.158	470.25
441.379	477.25
441.6	472.25
441.822	485.25
442.043	568.25
442.264	622.25
442.486	680.25
442.707	589.25
442.928	499.25
443.149	524.25
443.371	564.25
443.592	606.25
443.813	682.25
444.034	771.25
444.255	611.25
444.476	525.25
444.698	504.25
444.919	499.25
445.14	604.25
445.361	554.25
445.582	564.25
445.803	626.25
446.024	733.25
446.245	772.25
446.466	683.25
446.687	574.25
446.908	530.25
447.129	517.25
447.35	460.25
447.571	466.25
447.792	461.25
448.013	437.25
448.234	503.25
448.455	541.25
448.675	650.25
448.896	780.25
449.117	659.25
449.338	626.25
449.559	723.25
449.779	826.25
450	632.25
450.221	549.25
450.442	478.25
450.662	476.25
450.883	463.25
451.104	493.25
451.324	496.25
451.545	472.25
451.766	418.25
451.986	411.25
452.207	433.25
452.428	410.25
452.648	419.25
452.869	405.25
453.089	430.25
453.31	440.25
453.53	426.25
453.751	407.25
453.971	416.25
454.192	440.25
454.412	439.25
454.633	441.25
454.853	410.25
455.073	421.25
455.294	461.25
455.514	522.25
455.734	511.25
455.955	419.25
456.175	392.25
456.395	381.25
456.616	373.25
456.836	381.25
457.056	387.25
457.276	374.25
457.497	392.25
457.717	388.25
457.937	410.25
458.157	404.25
458.377	409.25
458.598	417.25
458.818	495.25
459.038	571.25
459.258	618.25
459.478	521.25
459.698	444.25
459.918	434.25
460.138	426.25
460.358	432.25
460.578	402.25
460.798	420.25
461.018	422.25
461.238	425.25
461.458	408.25
461.678	415.25
461.898	414.25
462.118	432.25
462.338	428.25
462.558	426.25
462.777	408.25
462.997	426.25
463.217	430.25
463.437	433.25
463.657	463.25
463.876	445.25
464.096	441.25
464.316	429.25
464.536	433.25
464.755	458.25
464.975	475.25
465.195	534.25
465.414	607.25
465.634	514.25
465.854	483.25
466.073	453.25
466.293	445.25
466.512	448.25
466.732	428.25
466.951	397.25
467.171	401.25
467.391	412.25
467.61	419.25
467.829	456.25
468.049	435.25
468.268	444.25
468.488	420.25
468.707	396.25
468.927	402.25
469.146	412.25
469.365	410.25
469.585	408.25
469.804	419.25
470.023	450.25
470.243	434.25
470.462	445.25
470.681	462.25
470.901	442.25
471.12	439.25
471.339	422.25
471.558	423.25
471.777	420.25
471.997	409.25
472.216	434.25
472.435	482.25
472.654	490.25
472.873	436.25
473.092	418.25
473.311	419.25
473.53	433.25
473.749	448.25
473.968	473.25
474.187	607.25
474.406	640.25
474.625	492.25
474.844	456.25
475.063	457.25
475.282	439.25
475.501	439.25
475.72	409.25
475.939	432.25
476.158	434.25
476.377	438.25
476.596	454.25
476.814	435.25
477.033	451.25
477.252	445.25
477.471	447.25
477.69	447.25
477.908	441.25
478.127	450.25
478.346	461.25
478.564	470.25
478.783	461.25
479.002	472.25
479.22	482.25
479.439	482.25
479.658	514.25
479.876	536.25
480.095	516.25
480.313	547.25
480.532	517.25
480.751	492.25
480.969	539.25
481.188	612.25
481.406	673.25
481.624	570.25
481.843	536.25
482.061	529.25
482.28	543.25
482.498	499.25
482.717	483.25
482.935	490.25
483.153	504.25
483.372	499.25
483.59	505.25
483.808	491.25
484.027	489.25
484.245	500.25
484.463	510.25
484.681	518.25
484.9	524.25
485.118	505.25
485.336	522.25
485.554	518.25
485.772	526.25
485.99	520.25
486.209	506.25
486.427	546.25
486.645	527.25
486.863	551.25
487.081	534.25
487.299	557.25
487.517	564.25
487.735	561.25
487.953	524.25
488.171	544.25
488.389	514.25
488.607	540.25
488.825	539.25
489.043	536.25
489.261	551.25
489.479	576.25
489.696	548.25
489.914	566.25
490.132	547.25
490.35	564.25
490.568	547.25
490.786	574.25
491.003	579.25
491.221	585.25
491.439	597.25
491.657	620.25
491.874	609.25
492.092	604.25
492.31	628.25
492.527	637.25
492.745	645.25
492.963	639.25
493.18	628.25
493.398	616.25
493.615	648.25
493.833	654.25
494.05	665.25
494.268	614.25
494.485	634.25
494.703	628.25
494.92	630.25
495.138	629.25
495.355	633.25
495.573	641.25
495.79	643.25
496.008	656.25
496.225	624.25
496.442	627.25
496.66	632.25
496.877	640.25
497.094	647.25
497.312	675.25
497.529	642.25
497.746	671.25
497.963	670.25
498.181	697.25
498.398	725.25
498.615	669.25
498.832	720.25
499.049	715.25
499.267	714.25
499.484	717.25
499.701	716.25
499.918	754.25
500.135	767.25
500.352	774.25
500.569	788.25
500.786	780.25
501.003	799.25
501.22	789.25
501.437	784.25
501.654	782.25
501.871	804.25
502.088	736.25
502.305	722.25
502.522	700.25
502.739	668.25
502.956	684.25
503.172	679.25
503.389	678.25
503.606	682.25
503.823	675.25
504.04	670.25
504.256	675.25
504.473	646.25
504.69	640.25
504.907	621.25
505.123	647.25
505.34	616.25
505.557	617.25
505.773	616.25
505.99	641.25
506.207	617.25
506.423	630.25
506.64	628.25
506.856	629.25
507.073	621.25
507.289	603.25
507.506	616.25
507.722	624.25
507.939	634.25
508.155	611.25
508.372	602.25
508.588	591.25
508.805	598.25
509.021	597.25
509.238	598.25
509.454	628.25
509.67	611.25
509.887	620.25
510.103	626.25
510.319	645.25
510.536	714.25
510.752	1274.25
510.968	1012.25
511.184	644.25
511.401	600.25
511.617	584.25
511.833	581.25
512.049	561.25
512.265	565.25
512.481	567.25
512.698	582.25
512.914	567.25
513.13	561.25
513.346	547.25
513.562	568.25
513.778	570.25
513.994	578.25
514.21	590.25
514.426	630.25
514.642	664.25
514.858	713.25
515.074	749.25
515.29	951.25
515.506	1427.25
515.721	1140.25
515.937	760.25
516.153	677.25
516.369	644.25
516.585	619.25
516.801	601.25
517.016	601.25
517.232	585.25
517.448	571.25
517.664	580.25
517.879	593.25
518.095	590.25
518.311	579.25
518.527	599.25
518.742	575.25
518.958	564.25
519.173	577.25
519.389	553.25
519.605	563.25
519.82	582.25
520.036	601.25
520.251	614.25
520.467	645.25
520.682	640.25
520.898	653.25
521.113	696.25
521.329	734.25
521.544	843.25
521.76	1122.25
521.975	1922.25
522.19	1825.25
522.406	979.25
522.621	716.25
522.836	614.25
523.052	584.25
523.267	540.25
523.482	541.25
523.698	536.25
523.913	555.25
524.128	522.25
524.343	519.25
524.559	514.25
524.774	489.25
524.989	481.25
525.204	498.25
525.419	505.25
525.634	490.25
525.849	482.25
526.064	469.25
526.28	468.25
526.495	483.25
526.71	485.25
526.925	445.25
527.14	462.25
527.355	461.25
527.57	451.25
527.785	461.25
527.999	470.25
528.214	469.25
528.429	458.25
528.644	487.25
528.859	437.25
529.074	460.25
529.289	491.25
529.503	594.25
529.718	562.25
529.933	516.25
530.148	483.25
530.363	466.25
530.577	472.25
530.792	458.25
531.007	451.25
531.221	446.25
531.436	468.25
531.651	464.25
531.865	452.25
532.08	429.25
532.295	441.25
532.509	446.25
532.724	436.25
532.938	430.25
533.153	424.25
533.367	422.25
533.582	440.25
533.796	437.25
534.011	439.25
534.225	422.25
534.44	432.25
534.654	429.25
534.868	439.25
535.083	434.25
535.297	419.25
535.511	446.25
535.726	436.25
535.94	442.25
536.154	412.25
536.369	440.25
536.583	420.25
536.797	430.25
537.011	382.25
537.225	412.25
537.44	412.25
537.654	418.25
537.868	400.25
538.082	397.25
538.296	422.25
538.51	441.25
538.724	421.25
538.938	421.25
539.153	422.25
539.367	438.25
539.581	445.25
539.795	418.25
540.009	429.25
540.222	416.25
540.436	434.25
540.65	445.25
540.864	417.25
541.078	408.25
541.292	441.25
541.506	420.25
541.72	413.25
541.934	419.25
542.147	412.25
542.361	428.25
542.575	405.25
542.789	381.25
543.002	406.25
543.216	434.25
543.43	402.25
543.644	432.25
543.857	420.25
544.071	421.25
544.285	429.25
544.498	415.25
544.712	414.25
544.925	404.25
545.139	410.25
545.352	413.25
545.566	412.25
545.779	395.25
545.993	402.25
546.206	405.25
546.42	396.25
546.633	387.25
546.847	390.25
547.06	412.25
547.274	393.25
547.487	405.25
547.7	391.25
547.914	382.25
548.127	386.25
548.34	387.25
548.554	385.25
548.767	383.25
548.98	382.25
549.193	377.25
549.407	375.25
549.62	390.25
549.833	403.25
550.046	392.25
550.259	391.25
550.473	379.25
550.686	385.25
550.899	386.25
551.112	366.25
551.325	377.25
551.538	383.25
551.751	394.25
551.964	394.25
552.177	372.25
552.39	385.25
552.603	375.25
552.816	384.25
553.029	392.25
553.242	392.25
553.455	397.25
553.667	421.25
553.88	404.25
554.093	416.25
554.306	412.25
554.519	395.25
554.732	392.25
554.944	382.25
555.157	370.25
555.37	380.25
555.583	366.25
555.795	380.25
556.008	378.25
556.221	354.25
556.433	375.25
556.646	364.25
556.859	336.25
557.071	351.25
557.284	361.25
557.496	371.25
557.709	362.25
557.921	359.25
558.134	363.25
558.346	341.25
558.559	347.25
558.771	345.25
558.984	342.25
559.196	366.25
559.409	343.25
559.621	362.25
559.833	347.25
560.046	337.25
560.258	329.25
560.47	357.25
560.683	349.25
560.895	347.25
561.107	341.25
561.32	352.25
561.532	351.25
561.744	352.25
561.956	360.25
562.168	345.25
562.381	353.25
562.593	361.25
562.805	350.25
563.017	344.25
563.229	362.25
563.441	357.25
563.653	345.25
563.865	359.25
564.077	355.25
564.289	351.25
564.501	367.25
564.713	368.25
564.925	371.25
565.137	372.25
565.349	374.25
565.561	376.25
565.773	376.25
565.985	380.25
566.197	396.25
566.408	394.25
566.62	390.25
566.832	401.25
567.044	401.25
567.255	393.25
567.467	397.25
567.679	436.25
567.891	397.25
568.102	399.25
568.314	403.25
568.526	387.25
568.737	380.25
568.949	381.25
569.161	357.25
569.372	353.25
569.584	342.25
569.795	345.25
570.007	357.25
570.218	409.25
570.43	396.25
570.641	341.25
570.853	344.25
571.064	370.25
571.276	340.25
571.487	328.25
571.698	327.25
571.91	333.25
572.121	318.25
572.333	337.25
572.544	310.25
572.755	324.25
572.966	318.25
573.178	309.25
573.389	327.25
573.6	298.25
573.811	287.25
574.023	295.25
574.234	286.25
574.445	310.25
574.656	289.25
574.867	314.25
575.078	308.25
575.289	315.25
575.501	301.25
575.712	292.25
575.923	288.25
576.134	305.25
576.345	291.25
576.556	293.25
576.767	302.25
576.978	296.25
577.188	289.25
577.399	303.25
577.61	288.25
577.821	301.25
578.032	308.25
578.243	340.25
578.454	594.25
578.665	436.25
578.875	326.25
579.086	300.25
579.297	297.25
579.508	285.25
579.718	283.25
579.929	273.25
580.14	277.25
580.35	275.25
580.561	289.25
580.772	291.25
580.982	283.25
581.193	296.25
581.403	283.25
581.614	264.25
581.825	285.25
582.035	276.25
582.246	276.25
582.456	281.25
582.667	271.25
582.877	276.25
583.087	286.25
583.298	274.25
583.508	284.25
583.719	268.25
583.929	265.25
584.139	270.25
584.35	293.25
584.56	282.25
584.77	277.25
584.981	283.25
585.191	271.25
585.401	283.25
585.611	278.25
585.821	271.25
586.032	273.25
586.242	262.25
586.452	269.25
586.662	275.25
586.872	276.25
587.082	275.25
587.292	265.25
587.502	278.25
587.713	260.25
587.923	279.25
588.133	267.25
588.343	274.25
588.553	266.25
588.762	273.25
588.972	278.25
589.182	273.25
589.392	282.25
589.602	264.25
589.812	271.25
590.022	259.25
590.232	279.25
590.441	277.25
590.651	262.25
590.861	272.25
591.071	253.25
591.281	246.25
591.49	257.25
591.7	265.25
591.91	271.25
592.119	278.25
592.329	267.25
592.539	267.25
592.748	277.25
592.958	278.25
593.167	275.25
593.377	267.25
593.587	283.25
593.796	264.25
594.006	265.25
594.215	262.25
594.424	282.25
594.634	272.25
594.843	268.25
595.053	268.25
595.262	274.25
595.472	240.25
595.681	259.25
595.89	256.25
596.1	257.25
596.309	252.25
596.518	279.25
596.727	254.25
596.937	247.25
597.146	247.25
597.355	242.25
597.564	248.25
597.774	239.25
597.983	254.25
598.192	244.25
598.401	237.25
598.61	227.25
598.819	261.25
599.028	245.25
599.237	237.25
599.446	250.25
599.655	254.25
599.864	243.25
600.073	245.25
600.282	229.25
600.491	229.25
600.7	249.25
600.909	218.25
601.118	231.25
601.327	228.25
601.536	237.25
601.745	254.25
601.953	267.25
602.162	228.25
602.371	238.25
602.58	239.25
602.789	256.25
602.997	238.25
603.206	234.25
603.415	209.25
603.623	226.25
603.832	229.25
604.041	210.25
604.249	217.25
604.458	221.25
604.666	235.25
604.875	231.25
605.084	226.25
605.292	223.25
605.501	223.25
605.709	217.25
605.918	234.25
606.126	222.25
606.334	242.25
606.543	217.25
606.751	223.25
606.96	243.25
607.168	238.25
607.376	239.25
607.585	221.25
607.793	210.25
608.001	212.25
608.21	230.25
608.418	231.25
608.626	227.25
608.834	220.25
609.043	227.25
609.251	226.25
609.459	228.25
609.667	213.25
609.875	209.25
610.083	217.25
610.291	215.25
610.499	209.25
610.707	204.25
610.916	234.25
611.124	209.25
611.332	219.25
611.54	235.25
611.748	241.25
611.955	228.25
612.163	223.25
612.371	211.25
612.579	221.25
612.787	225.25
612.995	230.25
613.203	218.25
613.411	213.25
613.618	223.25
613.826	223.25
614.034	216.25
614.242	204.25
614.449	202.25
614.657	212.25
614.865	218.25
615.072	219.25
615.28	220.25
615.488	206.25
615.695	227.25
615.903	200.25
616.111	209.25
616.318	212.25
616.526	196.25
616.733	214.25
616.941	205.25
617.148	224.25
617.356	212.25
617.563	228.25
617.771	218.25
617.978	210.25
618.185	211.25
618.393	209.25
618.6	219.25
618.807	214.25
619.015	224.25
619.222	229.25
619.429	211.25
619.637	195.25
619.844	204.25
620.051	214.25
620.258	196.25
620.466	204.25
620.673	209.25
620.88	201.25
621.087	200.25
621.294	206.25
621.501	220.25
621.708	224.25
621.915	205.25
622.122	202.25
622.329	206.25
622.536	211.25
622.743	197.25
622.95	215.25
623.157	212.25
623.364	191.25
623.571	205.25
623.778	200.25
623.985	204.25
624.192	221.25
624.399	209.25
624.606	197.25
624.812	200.25
625.019	195.25
625.226	181.25
625.433	203.25
625.639	190.25
625.846	196.25
626.053	194.25
626.259	201.25
626.466	193.25
626.673	198.25
626.879	192.25
627.086	189.25
627.293	192.25
627.499	203.25
627.706	181.25
627.912	180.25
628.119	195.25
628.325	197.25
628.532	202.25
628.738	204.25
628.945	188.25
629.151	187.25
629.357	177.25
629.564	186.25
629.77	201.25
629.976	193.25
630.183	196.25
630.389	178.25
630.595	192.25
630.802	184.25
631.008	189.25
631.214	182.25
631.42	187.25
631.627	180.25
631.833	169.25
632.039	169.25
632.245	179.25
632.451	159.25
632.657	187.25
632.863	173.25
633.069	178.25
633.275	186.25
633.481	184.25
633.688	172.25
633.893	179.25
634.099	171.25
634.305	190.25
634.511	169.25
634.717	171.25
634.923	164.25
635.129	173.25
635.335	186.25
635.541	178.25
635.747	179.25
635.952	173.25
636.158	166.25
636.364	180.25
636.57	169.25
636.775	171.25
636.981	175.25
637.187	186.25
637.392	181.25
637.598	168.25
637.804	150.25
638.009	174.25
638.215	164.25
638.421	168.25
638.626	147.25
638.832	158.25
639.037	165.25
639.243	162.25
639.448	153.25
639.654	176.25
639.859	176.25
640.065	168.25
640.27	176.25
640.475	159.25
640.681	164.25
640.886	169.25
641.091	172.25
641.297	168.25
641.502	150.25
641.707	177.25
641.913	168.25
642.118	164.25
642.323	163.25
642.528	165.25
642.733	143.25
642.939	152.25
643.144	154.25
643.349	158.25
643.554	153.25
643.759	165.25
643.964	150.25
644.169	165.25
644.374	153.25
644.579	161.25
644.784	156.25
644.989	166.25
645.194	165.25
645.399	137.25
645.604	156.25
645.809	143.25
646.014	165.25
646.219	153.25
646.423	152.25
646.628	161.25
646.833	152.25
647.038	171.25
647.243	156.25
647.447	151.25
647.652	149.25
647.857	146.25
648.062	166.25
648.266	154.25
648.471	141.25
648.676	147.25
648.88	163.25
649.085	163.25
649.289	154.25
649.494	150.25
649.698	184.25
649.903	172.25
650.107	168.25
650.312	155.25
650.516	151.25
650.721	139.25
650.925	132.25
651.13	136.25
651.334	146.25
651.539	150.25
651.743	140.25
651.947	146.25
652.152	146.25
652.356	152.25
652.56	142.25
652.764	139.25
652.969	146.25
653.173	132.25
653.377	124.25
653.581	130.25
653.785	139.25
653.99	132.25
654.194	130.25
654.398	122.25
654.602	125.25
654.806	139.25
655.01	150.25
655.214	131.25
655.418	124.25
655.622	124.25
655.826	125.25
656.03	129.25
656.234	124.25
656.438	124.25
656.642	125.25
656.846	113.25
657.049	99.25
657.253	121.25
657.457	125.25
657.661	114.25
657.865	101.25
658.068	89.25
658.272	116.25
658.476	104.25
658.68	97.25
658.883	96.25
659.087	106.25
659.291	103.25
659.494	109.25
659.698	86.25
659.901	91.25
660.105	85.25
660.309	84.25
660.512	91.25
660.716	90.25
660.919	107.25
661.123	93.25
661.326	89.25
661.53	93.25
661.733	85.25
661.936	93.25
662.14	79.25
662.343	76.25
662.546	68.25
662.75	71.25
662.953	78.25
663.156	86.25
663.36	81.25
663.563	93.25
663.766	83.25
663.969	91.25
664.173	91.25
664.376	85.25
664.579	81.25
664.782	83.25
664.985	90.25
665.188	82.25
665.391	88.25
665.594	87.25
665.797	90.25
666	84.25
666.203	84.25
666.406	75.25
666.609	72.25
666.812	93.25
667.015	80.25
667.218	78.25
667.421	82.25
667.624	70.25
667.827	77.25
668.03	67.25
668.232	69.25
668.435	71.25
668.638	92.25
668.841	88.25
669.043	79.25
669.246	85.25
669.449	92.25
669.651	81.25
669.854	78.25
670.057	95.25
670.259	78.25
670.462	90.25
670.665	68.25
670.867	96.25
671.07	92.25
671.272	88.25
671.475	84.25
671.677	86.25
671.88	77.25
672.082	73.25
672.284	81.25
672.487	87.25
672.689	91.25
672.892	85.25
