Data from 1972.PennyLincolnUp.Lamp.En5.5.200Scan.071719.P1._HRD10591_15-30-01-845.txt Node
Date: Thu Jul 18 15:30:01 EDT 2019
User: cochatt
Spectrometer: HR+D1059
Trigger mode: 1
Integration Time (sec): 1.000000E-1
Scans to average: 1
Electric dark correction enabled: true
Nonlinearity correction enabled: false
Boxcar width: 0
XAxis mode: Wavelengths
Number of Pixels in Spectrum: 2048
>>>>>Begin Spectral Data<<<<<
223.165	-5.94
223.4	-5.94
223.635	-5.94
223.869	-26.94
224.104	-0.94
224.338	8.06
224.573	-5.94
224.808	-4.94
225.042	-18.94
225.277	-9.94
225.511	-3.94
225.746	-15.94
225.98	-2.94
226.215	4.06
226.449	16.06
226.683	17.06
226.918	20.06
227.152	31.06
227.387	53.06
227.621	35.06
227.856	34.06
228.09	45.06
228.324	49.06
228.559	66.06
228.793	63.06
229.027	107.06
229.262	123.06
229.496	119.06
229.73	138.06
229.964	172.06
230.199	154.06
230.433	128.06
230.667	118.06
230.901	126.06
231.136	125.06
231.37	119.06
231.604	128.06
231.838	136.06
232.072	110.06
232.306	109.06
232.541	119.06
232.775	114.06
233.009	126.06
233.243	108.06
233.477	103.06
233.711	127.06
233.945	114.06
234.179	124.06
234.413	133.06
234.647	125.06
234.881	117.06
235.115	126.06
235.349	128.06
235.583	124.06
235.817	136.06
236.051	124.06
236.285	139.06
236.519	135.06
236.753	151.06
236.987	159.06
237.221	211.06
237.455	273.06
237.689	216.06
237.922	157.06
238.156	150.06
238.39	143.06
238.624	137.06
238.858	140.06
239.091	132.06
239.325	132.06
239.559	145.06
239.793	142.06
240.027	139.06
240.26	135.06
240.494	174.06
240.728	157.06
240.961	165.06
241.195	157.06
241.429	148.06
241.662	157.06
241.896	152.06
242.13	138.06
242.363	138.06
242.597	143.06
242.83	134.06
243.064	154.06
243.298	138.06
243.531	157.06
243.765	130.06
243.998	152.06
244.232	139.06
244.465	155.06
244.699	138.06
244.932	140.06
245.166	162.06
245.399	154.06
245.633	152.06
245.866	152.06
246.099	145.06
246.333	161.06
246.566	168.06
246.8	169.06
247.033	164.06
247.266	182.06
247.5	173.06
247.733	180.06
247.966	174.06
248.2	191.06
248.433	189.06
248.666	199.06
248.899	206.06
249.133	226.06
249.366	229.06
249.599	213.06
249.832	201.06
250.066	205.06
250.299	210.06
250.532	207.06
250.765	218.06
250.998	240.06
251.231	266.06
251.465	238.06
251.698	218.06
251.931	232.06
252.164	229.06
252.397	227.06
252.63	212.06
252.863	227.06
253.096	241.06
253.329	239.06
253.562	249.06
253.795	257.06
254.028	259.06
254.261	253.06
254.494	271.06
254.727	310.06
254.96	326.06
255.193	314.06
255.426	284.06
255.659	251.06
255.892	259.06
256.124	266.06
256.357	246.06
256.59	250.06
256.823	246.06
257.056	240.06
257.289	220.06
257.521	234.06
257.754	227.06
257.987	224.06
258.22	232.06
258.452	232.06
258.685	219.06
258.918	213.06
259.151	220.06
259.383	233.06
259.616	234.06
259.849	235.06
260.081	246.06
260.314	285.06
260.547	294.06
260.779	270.06
261.012	268.06
261.244	263.06
261.477	262.06
261.71	245.06
261.942	256.06
262.175	262.06
262.407	243.06
262.64	249.06
262.872	236.06
263.105	226.06
263.337	223.06
263.57	245.06
263.802	232.06
264.035	216.06
264.267	234.06
264.499	233.06
264.732	242.06
264.964	218.06
265.197	226.06
265.429	219.06
265.661	231.06
265.894	226.06
266.126	219.06
266.358	236.06
266.591	222.06
266.823	242.06
267.055	235.06
267.287	246.06
267.52	232.06
267.752	252.06
267.984	235.06
268.216	239.06
268.448	245.06
268.681	264.06
268.913	258.06
269.145	294.06
269.377	312.06
269.609	294.06
269.841	299.06
270.073	284.06
270.306	305.06
270.538	338.06
270.77	356.06
271.002	342.06
271.234	303.06
271.466	324.06
271.698	339.06
271.93	370.06
272.162	351.06
272.394	350.06
272.626	334.06
272.858	335.06
273.09	312.06
273.322	300.06
273.553	300.06
273.785	291.06
274.017	290.06
274.249	287.06
274.481	286.06
274.713	301.06
274.945	302.06
275.176	288.06
275.408	281.06
275.64	296.06
275.872	291.06
276.104	294.06
276.335	276.06
276.567	299.06
276.799	311.06
277.031	345.06
277.262	355.06
277.494	342.06
277.726	343.06
277.957	308.06
278.189	322.06
278.421	312.06
278.652	287.06
278.884	287.06
279.115	270.06
279.347	290.06
279.579	277.06
279.81	291.06
280.042	292.06
280.273	289.06
280.505	281.06
280.736	296.06
280.968	276.06
281.199	286.06
281.431	271.06
281.662	281.06
281.894	278.06
282.125	293.06
282.356	294.06
282.588	335.06
282.819	349.06
283.051	299.06
283.282	284.06
283.513	289.06
283.745	306.06
283.976	300.06
284.207	294.06
284.439	291.06
284.67	279.06
284.901	297.06
285.132	284.06
285.364	295.06
285.595	299.06
285.826	296.06
286.057	285.06
286.288	286.06
286.52	303.06
286.751	291.06
286.982	284.06
287.213	292.06
287.444	306.06
287.675	310.06
287.906	313.06
288.138	301.06
288.369	318.06
288.6	331.06
288.831	312.06
289.062	303.06
289.293	315.06
289.524	301.06
289.755	308.06
289.986	306.06
290.217	300.06
290.448	298.06
290.679	288.06
290.91	301.06
291.141	300.06
291.371	282.06
291.602	286.06
291.833	300.06
292.064	286.06
292.295	299.06
292.526	286.06
292.757	301.06
292.987	297.06
293.218	308.06
293.449	310.06
293.68	325.06
293.91	285.06
294.141	306.06
294.372	294.06
294.603	287.06
294.833	295.06
295.064	291.06
295.295	300.06
295.525	304.06
295.756	298.06
295.987	308.06
296.217	352.06
296.448	335.06
296.679	316.06
296.909	302.06
297.14	312.06
297.37	314.06
297.601	321.06
297.831	298.06
298.062	299.06
298.292	308.06
298.523	315.06
298.753	315.06
298.984	307.06
299.214	326.06
299.445	319.06
299.675	308.06
299.905	321.06
300.136	310.06
300.366	316.06
300.597	301.06
300.827	320.06
301.057	333.06
301.288	350.06
301.518	343.06
301.748	333.06
301.979	340.06
302.209	327.06
302.439	341.06
302.669	343.06
302.9	341.06
303.13	330.06
303.36	355.06
303.59	345.06
303.82	361.06
304.051	351.06
304.281	333.06
304.511	314.06
304.741	319.06
304.971	340.06
305.201	334.06
305.431	331.06
305.661	320.06
305.891	338.06
306.121	349.06
306.352	342.06
306.582	343.06
306.812	336.06
307.042	337.06
307.272	338.06
307.502	332.06
307.731	349.06
307.961	333.06
308.191	346.06
308.421	349.06
308.651	353.06
308.881	349.06
309.111	343.06
309.341	359.06
309.571	378.06
309.8	376.06
310.03	401.06
310.26	402.06
310.49	404.06
310.72	420.06
310.949	435.06
311.179	435.06
311.409	409.06
311.639	400.06
311.868	396.06
312.098	390.06
312.328	388.06
312.557	438.06
312.787	454.06
313.017	471.06
313.246	412.06
313.476	398.06
313.706	405.06
313.935	410.06
314.165	431.06
314.394	444.06
314.624	447.06
314.853	405.06
315.083	420.06
315.312	414.06
315.542	398.06
315.771	389.06
316.001	384.06
316.23	390.06
316.46	400.06
316.689	404.06
316.919	407.06
317.148	417.06
317.377	400.06
317.607	418.06
317.836	417.06
318.065	388.06
318.295	384.06
318.524	364.06
318.753	404.06
318.983	398.06
319.212	388.06
319.441	423.06
319.67	429.06
319.9	396.06
320.129	399.06
320.358	395.06
320.587	392.06
320.816	423.06
321.046	424.06
321.275	421.06
321.504	446.06
321.733	442.06
321.962	426.06
322.191	471.06
322.42	461.06
322.649	498.06
322.878	530.06
323.108	503.06
323.337	549.06
323.566	603.06
323.795	653.06
324.024	711.06
324.253	879.06
324.482	1308.06
324.71	2076.06
324.939	3086.06
325.168	2692.06
325.397	1300.06
325.626	867.06
325.855	684.06
326.084	638.06
326.313	593.06
326.542	609.06
326.77	672.06
326.999	825.06
327.228	1159.06
327.457	1848.06
327.686	2320.06
327.914	1502.06
328.143	948.06
328.372	803.06
328.6	754.06
328.829	679.06
329.058	706.06
329.287	715.06
329.515	659.06
329.744	598.06
329.972	602.06
330.201	642.06
330.43	694.06
330.658	738.06
330.887	759.06
331.115	750.06
331.344	636.06
331.572	574.06
331.801	528.06
332.03	557.06
332.258	516.06
332.486	502.06
332.715	494.06
332.943	483.06
333.172	471.06
333.4	489.06
333.629	494.06
333.857	518.06
334.085	541.06
334.314	539.06
334.542	609.06
334.771	633.06
334.999	566.06
335.227	514.06
335.455	488.06
335.684	483.06
335.912	470.06
336.14	489.06
336.369	463.06
336.597	482.06
336.825	478.06
337.053	469.06
337.281	451.06
337.51	448.06
337.738	455.06
337.966	451.06
338.194	467.06
338.422	445.06
338.65	461.06
338.878	429.06
339.106	437.06
339.334	447.06
339.562	428.06
339.79	433.06
340.018	445.06
340.246	463.06
340.474	459.06
340.702	439.06
340.93	421.06
341.158	432.06
341.386	465.06
341.614	454.06
341.842	440.06
342.07	445.06
342.298	446.06
342.526	425.06
342.754	419.06
342.981	429.06
343.209	417.06
343.437	417.06
343.665	424.06
343.893	434.06
344.12	428.06
344.348	441.06
344.576	438.06
344.804	450.06
345.031	475.06
345.259	488.06
345.487	478.06
345.714	434.06
345.942	437.06
346.17	429.06
346.397	439.06
346.625	425.06
346.853	434.06
347.08	432.06
347.308	444.06
347.535	467.06
347.763	445.06
347.99	440.06
348.218	445.06
348.445	440.06
348.673	447.06
348.9	419.06
349.128	419.06
349.355	414.06
349.583	414.06
349.81	416.06
350.037	410.06
350.265	409.06
350.492	400.06
350.72	416.06
350.947	428.06
351.174	437.06
351.402	444.06
351.629	455.06
351.856	451.06
352.083	456.06
352.311	471.06
352.538	448.06
352.765	469.06
352.992	461.06
353.22	451.06
353.447	446.06
353.674	418.06
353.901	400.06
354.128	420.06
354.355	404.06
354.583	414.06
354.81	415.06
355.037	408.06
355.264	401.06
355.491	386.06
355.718	380.06
355.945	380.06
356.172	373.06
356.399	392.06
356.626	410.06
356.853	378.06
357.08	379.06
357.307	386.06
357.534	389.06
357.761	384.06
357.988	377.06
358.215	380.06
358.441	398.06
358.668	391.06
358.895	394.06
359.122	394.06
359.349	416.06
359.576	443.06
359.802	472.06
360.029	494.06
360.256	524.06
360.483	475.06
360.709	454.06
360.936	422.06
361.163	418.06
361.39	430.06
361.616	443.06
361.843	429.06
362.07	435.06
362.296	431.06
362.523	420.06
362.749	413.06
362.976	434.06
363.203	393.06
363.429	390.06
363.656	390.06
363.882	389.06
364.109	413.06
364.335	393.06
364.562	396.06
364.788	398.06
365.015	392.06
365.241	427.06
365.468	429.06
365.694	391.06
365.92	399.06
366.147	392.06
366.373	396.06
366.599	401.06
366.826	384.06
367.052	401.06
367.278	415.06
367.505	386.06
367.731	405.06
367.957	388.06
368.184	402.06
368.41	413.06
368.636	409.06
368.862	412.06
369.089	413.06
369.315	395.06
369.541	378.06
369.767	398.06
369.993	418.06
370.219	397.06
370.445	390.06
370.672	400.06
370.898	391.06
371.124	359.06
371.35	380.06
371.576	374.06
371.802	370.06
372.028	374.06
372.254	396.06
372.48	379.06
372.706	380.06
372.932	396.06
373.158	393.06
373.384	396.06
373.61	399.06
373.835	379.06
374.061	383.06
374.287	377.06
374.513	380.06
374.739	389.06
374.965	390.06
375.191	366.06
375.416	404.06
375.642	373.06
375.868	397.06
376.094	396.06
376.319	374.06
376.545	400.06
376.771	374.06
376.997	381.06
377.222	368.06
377.448	394.06
377.674	361.06
377.899	347.06
378.125	369.06
378.35	385.06
378.576	377.06
378.802	367.06
379.027	382.06
379.253	368.06
379.478	372.06
379.704	374.06
379.929	382.06
380.155	367.06
380.38	375.06
380.606	397.06
380.831	383.06
381.057	375.06
381.282	367.06
381.507	374.06
381.733	395.06
381.958	396.06
382.184	388.06
382.409	383.06
382.634	392.06
382.86	382.06
383.085	388.06
383.31	386.06
383.535	373.06
383.761	392.06
383.986	415.06
384.211	418.06
384.436	383.06
384.662	398.06
384.887	395.06
385.112	399.06
385.337	397.06
385.562	404.06
385.787	402.06
386.013	422.06
386.238	419.06
386.463	418.06
386.688	400.06
386.913	382.06
387.138	388.06
387.363	411.06
387.588	399.06
387.813	408.06
388.038	406.06
388.263	406.06
388.488	417.06
388.713	410.06
388.938	414.06
389.163	386.06
389.387	403.06
389.612	395.06
389.837	399.06
390.062	400.06
390.287	408.06
390.512	373.06
390.736	379.06
390.961	407.06
391.186	398.06
391.411	398.06
391.636	402.06
391.86	403.06
392.085	424.06
392.31	411.06
392.534	383.06
392.759	413.06
392.984	420.06
393.208	401.06
393.433	421.06
393.658	416.06
393.882	399.06
394.107	422.06
394.331	394.06
394.556	407.06
394.78	394.06
395.005	412.06
395.229	402.06
395.454	408.06
395.678	421.06
395.903	421.06
396.127	455.06
396.352	444.06
396.576	422.06
396.801	440.06
397.025	422.06
397.249	418.06
397.474	425.06
397.698	428.06
397.922	440.06
398.147	454.06
398.371	445.06
398.595	452.06
398.82	439.06
399.044	447.06
399.268	462.06
399.492	482.06
399.717	478.06
399.941	546.06
400.165	552.06
400.389	567.06
400.613	518.06
400.837	490.06
401.062	471.06
401.286	460.06
401.51	439.06
401.734	464.06
401.958	483.06
402.182	474.06
402.406	491.06
402.63	472.06
402.854	461.06
403.078	455.06
403.302	470.06
403.526	476.06
403.75	477.06
403.974	474.06
404.198	472.06
404.422	478.06
404.645	487.06
404.869	495.06
405.093	536.06
405.317	584.06
405.541	617.06
405.765	538.06
405.988	497.06
406.212	523.06
406.436	522.06
406.66	547.06
406.883	541.06
407.107	554.06
407.331	585.06
407.555	664.06
407.778	666.06
408.002	590.06
408.226	542.06
408.449	530.06
408.673	542.06
408.896	568.06
409.12	620.06
409.344	582.06
409.567	505.06
409.791	502.06
410.014	482.06
410.238	489.06
410.461	481.06
410.685	470.06
410.908	501.06
411.132	548.06
411.355	595.06
411.578	600.06
411.802	515.06
412.025	486.06
412.249	487.06
412.472	527.06
412.695	570.06
412.919	585.06
413.142	507.06
413.365	478.06
413.589	478.06
413.812	454.06
414.035	447.06
414.258	437.06
414.482	459.06
414.705	467.06
414.928	424.06
415.151	451.06
415.374	438.06
415.597	451.06
415.821	443.06
416.044	454.06
416.267	444.06
416.49	434.06
416.713	438.06
416.936	455.06
417.159	440.06
417.382	436.06
417.605	447.06
417.828	477.06
418.051	511.06
418.274	476.06
418.497	452.06
418.72	463.06
418.943	456.06
419.166	472.06
419.389	475.06
419.611	498.06
419.834	488.06
420.057	490.06
420.28	467.06
420.503	484.06
420.726	508.06
420.948	507.06
421.171	552.06
421.394	588.06
421.617	513.06
421.839	484.06
422.062	486.06
422.285	479.06
422.507	571.06
422.73	649.06
422.953	629.06
423.175	544.06
423.398	532.06
423.621	496.06
423.843	522.06
424.066	540.06
424.288	533.06
424.511	544.06
424.733	613.06
424.956	717.06
425.178	678.06
425.401	676.06
425.623	714.06
425.846	582.06
426.068	538.06
426.291	544.06
426.513	541.06
426.735	579.06
426.958	608.06
427.18	680.06
427.402	836.06
427.625	947.06
427.847	822.06
428.069	713.06
428.292	629.06
428.514	564.06
428.736	534.06
428.958	520.06
429.181	502.06
429.403	490.06
429.625	506.06
429.847	550.06
430.069	636.06
430.292	644.06
430.514	512.06
430.736	500.06
430.958	478.06
431.18	453.06
431.402	470.06
431.624	459.06
431.846	430.06
432.068	430.06
432.29	457.06
432.512	459.06
432.734	454.06
432.956	474.06
433.178	476.06
433.4	486.06
433.622	462.06
433.844	493.06
434.066	446.06
434.287	443.06
434.509	467.06
434.731	466.06
434.953	469.06
435.175	498.06
435.397	528.06
435.618	540.06
435.84	580.06
436.062	684.06
436.284	786.06
436.505	621.06
436.727	569.06
436.949	535.06
437.17	494.06
437.392	492.06
437.614	534.06
437.835	588.06
438.057	693.06
438.278	798.06
438.5	790.06
438.721	881.06
438.943	815.06
439.165	678.06
439.386	576.06
439.608	571.06
439.829	596.06
440.05	626.06
440.272	678.06
440.493	635.06
440.715	572.06
440.936	506.06
441.158	510.06
441.379	496.06
441.6	522.06
441.822	548.06
442.043	599.06
442.264	682.06
442.486	734.06
442.707	622.06
442.928	587.06
443.149	571.06
443.371	611.06
443.592	661.06
443.813	757.06
444.034	792.06
444.255	686.06
444.476	588.06
444.698	555.06
444.919	522.06
445.14	609.06
445.361	616.06
445.582	602.06
445.803	690.06
446.024	812.06
446.245	840.06
446.466	747.06
446.687	631.06
446.908	550.06
447.129	551.06
447.35	513.06
447.571	512.06
447.792	491.06
448.013	503.06
448.234	536.06
448.455	605.06
448.675	735.06
448.896	834.06
449.117	712.06
449.338	706.06
449.559	799.06
449.779	895.06
450	698.06
450.221	566.06
450.442	536.06
450.662	494.06
450.883	518.06
451.104	560.06
451.324	543.06
451.545	487.06
451.766	481.06
451.986	459.06
452.207	453.06
452.428	446.06
452.648	447.06
452.869	450.06
453.089	484.06
453.31	490.06
453.53	459.06
453.751	458.06
453.971	470.06
454.192	489.06
454.412	477.06
454.633	462.06
454.853	435.06
455.073	455.06
455.294	487.06
455.514	586.06
455.734	563.06
455.955	444.06
456.175	419.06
456.395	428.06
456.616	434.06
456.836	431.06
457.056	413.06
457.276	411.06
457.497	406.06
457.717	411.06
457.937	432.06
458.157	441.06
458.377	434.06
458.598	469.06
458.818	543.06
459.038	638.06
459.258	668.06
459.478	536.06
459.698	500.06
459.918	452.06
460.138	459.06
460.358	452.06
460.578	442.06
460.798	471.06
461.018	466.06
461.238	457.06
461.458	467.06
461.678	436.06
461.898	455.06
462.118	438.06
462.338	438.06
462.558	467.06
462.777	451.06
462.997	478.06
463.217	449.06
463.437	466.06
463.657	455.06
463.876	464.06
464.096	474.06
464.316	482.06
464.536	504.06
464.755	495.06
464.975	503.06
465.195	577.06
465.414	668.06
465.634	577.06
465.854	528.06
466.073	484.06
466.293	469.06
466.512	472.06
466.732	439.06
466.951	443.06
467.171	459.06
467.391	454.06
467.61	464.06
467.829	472.06
468.049	464.06
468.268	494.06
468.488	451.06
468.707	436.06
468.927	420.06
469.146	444.06
469.365	442.06
469.585	425.06
469.804	451.06
470.023	445.06
470.243	464.06
470.462	467.06
470.681	489.06
470.901	463.06
471.12	477.06
471.339	475.06
471.558	469.06
471.777	457.06
471.997	451.06
472.216	474.06
472.435	541.06
472.654	522.06
472.873	468.06
473.092	443.06
473.311	453.06
473.53	479.06
473.749	461.06
473.968	505.06
474.187	638.06
474.406	674.06
474.625	557.06
474.844	490.06
475.063	483.06
475.282	459.06
475.501	466.06
475.72	465.06
475.939	467.06
476.158	469.06
476.377	479.06
476.596	468.06
476.814	471.06
477.033	500.06
477.252	500.06
477.471	484.06
477.69	470.06
477.908	501.06
478.127	496.06
478.346	478.06
478.564	488.06
478.783	492.06
479.002	503.06
479.22	530.06
479.439	544.06
479.658	586.06
479.876	580.06
480.095	558.06
480.313	587.06
480.532	560.06
480.751	558.06
480.969	583.06
481.188	685.06
481.406	761.06
481.624	644.06
481.843	600.06
482.061	562.06
482.28	564.06
482.498	553.06
482.717	523.06
482.935	516.06
483.153	528.06
483.372	543.06
483.59	528.06
483.808	538.06
484.027	534.06
484.245	531.06
484.463	539.06
484.681	564.06
484.9	547.06
485.118	534.06
485.336	558.06
485.554	567.06
485.772	552.06
485.99	561.06
486.209	544.06
486.427	568.06
486.645	578.06
486.863	613.06
487.081	611.06
487.299	576.06
487.517	575.06
487.735	572.06
487.953	576.06
488.171	605.06
488.389	599.06
488.607	601.06
488.825	582.06
489.043	578.06
489.261	570.06
489.479	589.06
489.696	588.06
489.914	600.06
490.132	597.06
490.35	607.06
490.568	620.06
490.786	623.06
491.003	635.06
491.221	660.06
491.439	639.06
491.657	675.06
491.874	669.06
492.092	688.06
492.31	676.06
492.527	678.06
492.745	676.06
492.963	663.06
493.18	682.06
493.398	706.06
493.615	703.06
493.833	729.06
494.05	695.06
494.268	714.06
494.485	675.06
494.703	664.06
494.92	691.06
495.138	706.06
495.355	706.06
495.573	677.06
495.79	693.06
496.008	705.06
496.225	706.06
496.442	694.06
496.66	686.06
496.877	674.06
497.094	712.06
497.312	712.06
497.529	707.06
497.746	714.06
497.963	742.06
498.181	711.06
498.398	768.06
498.615	738.06
498.832	767.06
499.049	749.06
499.267	764.06
499.484	757.06
499.701	793.06
499.918	785.06
500.135	824.06
500.352	835.06
500.569	873.06
500.786	875.06
501.003	847.06
501.22	860.06
501.437	850.06
501.654	841.06
501.871	827.06
502.088	820.06
502.305	771.06
502.522	756.06
502.739	764.06
502.956	711.06
503.172	690.06
503.389	728.06
503.606	717.06
503.823	710.06
504.04	704.06
504.256	691.06
504.473	679.06
504.69	674.06
504.907	660.06
505.123	670.06
505.34	691.06
505.557	679.06
505.773	692.06
505.99	684.06
506.207	687.06
506.423	698.06
506.64	687.06
506.856	650.06
507.073	652.06
507.289	643.06
507.506	662.06
507.722	684.06
507.939	698.06
508.155	669.06
508.372	664.06
508.588	621.06
508.805	652.06
509.021	646.06
509.238	646.06
509.454	664.06
509.67	653.06
509.887	652.06
510.103	660.06
510.319	674.06
510.536	796.06
510.752	1482.06
510.968	1127.06
511.184	687.06
511.401	640.06
511.617	658.06
511.833	622.06
512.049	637.06
512.265	625.06
512.481	618.06
512.698	617.06
512.914	618.06
513.13	620.06
513.346	604.06
513.562	613.06
513.778	641.06
513.994	644.06
514.21	668.06
514.426	675.06
514.642	749.06
514.858	785.06
515.074	850.06
515.29	1074.06
515.506	1638.06
515.721	1277.06
515.937	837.06
516.153	725.06
516.369	699.06
516.585	667.06
516.801	646.06
517.016	638.06
517.232	623.06
517.448	629.06
517.664	619.06
517.879	603.06
518.095	634.06
518.311	617.06
518.527	618.06
518.742	633.06
518.958	618.06
519.173	610.06
519.389	633.06
519.605	633.06
519.82	630.06
520.036	652.06
520.251	656.06
520.467	714.06
520.682	732.06
520.898	747.06
521.113	759.06
521.329	850.06
521.544	984.06
521.76	1302.06
521.975	2204.06
522.19	2136.06
522.406	1115.06
522.621	806.06
522.836	717.06
523.052	660.06
523.267	623.06
523.482	605.06
523.698	588.06
523.913	591.06
524.128	569.06
524.343	558.06
524.559	564.06
524.774	539.06
524.989	541.06
525.204	560.06
525.419	563.06
525.634	538.06
525.849	534.06
526.064	528.06
526.28	508.06
526.495	481.06
526.71	532.06
526.925	499.06
527.14	486.06
527.355	500.06
527.57	494.06
527.785	478.06
527.999	480.06
528.214	488.06
528.429	501.06
528.644	494.06
528.859	489.06
529.074	494.06
529.289	545.06
529.503	657.06
529.718	629.06
529.933	544.06
530.148	534.06
530.363	530.06
530.577	507.06
530.792	499.06
531.007	477.06
531.221	492.06
531.436	478.06
531.651	483.06
531.865	464.06
532.08	469.06
532.295	473.06
532.509	475.06
532.724	480.06
532.938	475.06
533.153	462.06
533.367	469.06
533.582	472.06
533.796	474.06
534.011	458.06
534.225	462.06
534.44	438.06
534.654	442.06
534.868	483.06
535.083	463.06
535.297	462.06
535.511	462.06
535.726	465.06
535.94	458.06
536.154	480.06
536.369	467.06
536.583	440.06
536.797	452.06
537.011	435.06
537.225	450.06
537.44	448.06
537.654	457.06
537.868	435.06
538.082	428.06
538.296	478.06
538.51	464.06
538.724	446.06
538.938	447.06
539.153	447.06
539.367	485.06
539.581	474.06
539.795	452.06
540.009	442.06
540.222	435.06
540.436	427.06
540.65	455.06
540.864	459.06
541.078	466.06
541.292	479.06
541.506	466.06
541.72	431.06
541.934	444.06
542.147	455.06
542.361	442.06
542.575	431.06
542.789	432.06
543.002	440.06
543.216	460.06
543.43	452.06
543.644	465.06
543.857	425.06
544.071	452.06
544.285	446.06
544.498	436.06
544.712	436.06
544.925	416.06
545.139	426.06
545.352	426.06
545.566	434.06
545.779	415.06
545.993	436.06
546.206	419.06
546.42	427.06
546.633	416.06
546.847	416.06
547.06	424.06
547.274	422.06
547.487	405.06
547.7	425.06
547.914	426.06
548.127	393.06
548.34	430.06
548.554	414.06
548.767	399.06
548.98	434.06
549.193	410.06
549.407	387.06
549.62	401.06
549.833	412.06
550.046	421.06
550.259	394.06
550.473	418.06
550.686	401.06
550.899	412.06
551.112	410.06
551.325	404.06
551.538	403.06
551.751	414.06
551.964	405.06
552.177	394.06
552.39	408.06
552.603	405.06
552.816	410.06
553.029	423.06
553.242	404.06
553.455	408.06
553.667	420.06
553.88	435.06
554.093	439.06
554.306	405.06
554.519	424.06
554.732	406.06
554.944	417.06
555.157	407.06
555.37	398.06
555.583	389.06
555.795	395.06
556.008	393.06
556.221	388.06
556.433	391.06
556.646	380.06
556.859	380.06
557.071	379.06
557.284	380.06
557.496	383.06
557.709	378.06
557.921	362.06
558.134	365.06
558.346	366.06
558.559	366.06
558.771	379.06
558.984	370.06
559.196	383.06
559.409	382.06
559.621	352.06
559.833	346.06
560.046	375.06
560.258	378.06
560.47	365.06
560.683	375.06
560.895	354.06
561.107	358.06
561.32	361.06
561.532	378.06
561.744	370.06
561.956	372.06
562.168	384.06
562.381	366.06
562.593	380.06
562.805	366.06
563.017	379.06
563.229	350.06
563.441	374.06
563.653	355.06
563.865	364.06
564.077	379.06
564.289	400.06
564.501	381.06
564.713	388.06
564.925	400.06
565.137	406.06
565.349	400.06
565.561	402.06
565.773	386.06
565.985	402.06
566.197	398.06
566.408	408.06
566.62	387.06
566.832	438.06
567.044	444.06
567.255	414.06
567.467	404.06
567.679	419.06
567.891	416.06
568.102	418.06
568.314	409.06
568.526	397.06
568.737	404.06
568.949	394.06
569.161	378.06
569.372	374.06
569.584	367.06
569.795	372.06
570.007	388.06
570.218	426.06
570.43	426.06
570.641	374.06
570.853	367.06
571.064	345.06
571.276	376.06
571.487	354.06
571.698	340.06
571.91	339.06
572.121	328.06
572.333	340.06
572.544	331.06
572.755	333.06
572.966	344.06
573.178	325.06
573.389	322.06
573.6	324.06
573.811	311.06
574.023	321.06
574.234	316.06
574.445	324.06
574.656	318.06
574.867	299.06
575.078	321.06
575.289	326.06
575.501	302.06
575.712	296.06
575.923	315.06
576.134	326.06
576.345	316.06
576.556	307.06
576.767	313.06
576.978	326.06
577.188	326.06
577.399	317.06
577.61	309.06
577.821	290.06
578.032	302.06
578.243	381.06
578.454	676.06
578.665	459.06
578.875	343.06
579.086	314.06
579.297	322.06
579.508	297.06
579.718	307.06
579.929	332.06
580.14	317.06
580.35	309.06
580.561	284.06
580.772	292.06
580.982	298.06
581.193	282.06
581.403	300.06
581.614	286.06
581.825	299.06
582.035	292.06
582.246	288.06
582.456	298.06
582.667	282.06
582.877	297.06
583.087	300.06
583.298	287.06
583.508	280.06
583.719	279.06
583.929	288.06
584.139	286.06
584.35	289.06
584.56	278.06
584.77	282.06
584.981	285.06
585.191	263.06
585.401	300.06
585.611	293.06
585.821	316.06
586.032	274.06
586.242	286.06
586.452	298.06
586.662	294.06
586.872	298.06
587.082	282.06
587.292	292.06
587.502	283.06
587.713	282.06
587.923	281.06
588.133	293.06
588.343	288.06
588.553	254.06
588.762	271.06
588.972	284.06
589.182	272.06
589.392	277.06
589.602	271.06
589.812	275.06
590.022	271.06
590.232	291.06
590.441	279.06
590.651	279.06
590.861	262.06
591.071	268.06
591.281	288.06
591.49	303.06
591.7	290.06
591.91	274.06
592.119	272.06
592.329	270.06
592.539	296.06
592.748	290.06
592.958	275.06
593.167	288.06
593.377	264.06
593.587	290.06
593.796	303.06
594.006	300.06
594.215	295.06
594.424	289.06
594.634	282.06
594.843	283.06
595.053	271.06
595.262	287.06
595.472	273.06
595.681	269.06
595.89	296.06
596.1	271.06
596.309	294.06
596.518	272.06
596.727	282.06
596.937	279.06
597.146	268.06
597.355	260.06
597.564	261.06
597.774	267.06
597.983	249.06
598.192	246.06
598.401	249.06
598.61	253.06
598.819	240.06
599.028	264.06
599.237	256.06
599.446	263.06
599.655	267.06
599.864	238.06
600.073	251.06
600.282	273.06
600.491	235.06
600.7	247.06
600.909	251.06
601.118	242.06
601.327	245.06
601.536	247.06
601.745	250.06
601.953	229.06
602.162	250.06
602.371	253.06
602.58	247.06
602.789	241.06
602.997	226.06
603.206	243.06
603.415	242.06
603.623	238.06
603.832	250.06
604.041	218.06
604.249	237.06
604.458	235.06
604.666	228.06
604.875	229.06
605.084	244.06
605.292	222.06
605.501	231.06
605.709	247.06
605.918	234.06
606.126	226.06
606.334	250.06
606.543	245.06
606.751	246.06
606.96	246.06
607.168	225.06
607.376	235.06
607.585	248.06
607.793	250.06
608.001	252.06
608.21	253.06
608.418	218.06
608.626	238.06
608.834	215.06
609.043	232.06
609.251	239.06
609.459	238.06
609.667	242.06
609.875	239.06
610.083	222.06
610.291	217.06
610.499	244.06
610.707	238.06
610.916	241.06
611.124	230.06
611.332	235.06
611.54	220.06
611.748	236.06
611.955	251.06
612.163	223.06
612.371	245.06
612.579	228.06
612.787	232.06
612.995	220.06
613.203	234.06
613.411	212.06
613.618	240.06
613.826	243.06
614.034	229.06
614.242	240.06
614.449	215.06
614.657	232.06
614.865	227.06
615.072	236.06
615.28	228.06
615.488	231.06
615.695	228.06
615.903	220.06
616.111	222.06
616.318	201.06
616.526	215.06
616.733	234.06
616.941	225.06
617.148	239.06
617.356	244.06
617.563	214.06
617.771	242.06
617.978	220.06
618.185	232.06
618.393	218.06
618.6	211.06
618.807	218.06
619.015	224.06
619.222	227.06
619.429	235.06
619.637	223.06
619.844	204.06
620.051	214.06
620.258	215.06
620.466	211.06
620.673	197.06
620.88	213.06
621.087	219.06
621.294	211.06
621.501	214.06
621.708	209.06
621.915	212.06
622.122	192.06
622.329	205.06
622.536	207.06
622.743	219.06
622.95	208.06
623.157	208.06
623.364	217.06
623.571	214.06
623.778	220.06
623.985	212.06
624.192	215.06
624.399	226.06
624.606	217.06
624.812	210.06
625.019	206.06
625.226	212.06
625.433	213.06
625.639	206.06
625.846	195.06
626.053	203.06
626.259	214.06
626.466	205.06
626.673	211.06
626.879	190.06
627.086	197.06
627.293	206.06
627.499	201.06
627.706	189.06
627.912	203.06
628.119	203.06
628.325	195.06
628.532	189.06
628.738	206.06
628.945	202.06
629.151	182.06
629.357	207.06
629.564	190.06
629.77	188.06
629.976	190.06
630.183	186.06
630.389	205.06
630.595	200.06
630.802	202.06
631.008	180.06
631.214	176.06
631.42	196.06
631.627	184.06
631.833	196.06
632.039	201.06
632.245	184.06
632.451	188.06
632.657	193.06
632.863	183.06
633.069	182.06
633.275	185.06
633.481	186.06
633.688	190.06
633.893	191.06
634.099	171.06
634.305	174.06
634.511	170.06
634.717	164.06
634.923	178.06
635.129	174.06
635.335	188.06
635.541	182.06
635.747	179.06
635.952	182.06
636.158	189.06
636.364	182.06
636.57	191.06
636.775	188.06
636.981	188.06
637.187	181.06
637.392	175.06
637.598	170.06
637.804	187.06
638.009	186.06
638.215	176.06
638.421	172.06
638.626	151.06
638.832	164.06
639.037	175.06
639.243	178.06
639.448	191.06
639.654	186.06
639.859	174.06
640.065	172.06
640.27	175.06
640.475	171.06
640.681	168.06
640.886	179.06
641.091	171.06
641.297	162.06
641.502	172.06
641.707	164.06
641.913	175.06
642.118	169.06
642.323	164.06
642.528	180.06
642.733	173.06
642.939	183.06
643.144	176.06
643.349	167.06
643.554	153.06
643.759	165.06
643.964	161.06
644.169	166.06
644.374	157.06
644.579	166.06
644.784	167.06
644.989	154.06
645.194	160.06
645.399	181.06
645.604	163.06
645.809	170.06
646.014	151.06
646.219	159.06
646.423	178.06
646.628	180.06
646.833	163.06
647.038	153.06
647.243	155.06
647.447	157.06
647.652	168.06
647.857	173.06
648.062	163.06
648.266	161.06
648.471	150.06
648.676	157.06
648.88	164.06
649.085	173.06
649.289	186.06
649.494	188.06
649.698	192.06
649.903	179.06
650.107	162.06
650.312	162.06
650.516	153.06
650.721	162.06
650.925	146.06
651.13	140.06
651.334	167.06
651.539	152.06
651.743	142.06
651.947	138.06
652.152	155.06
652.356	148.06
652.56	145.06
652.764	151.06
652.969	142.06
653.173	159.06
653.377	138.06
653.581	147.06
653.785	144.06
653.99	133.06
654.194	137.06
654.398	142.06
654.602	140.06
654.806	140.06
655.01	157.06
655.214	153.06
655.418	128.06
655.622	144.06
655.826	136.06
656.03	135.06
656.234	135.06
656.438	126.06
656.642	126.06
656.846	128.06
657.049	138.06
657.253	124.06
657.457	112.06
657.661	120.06
657.865	132.06
658.068	117.06
658.272	120.06
658.476	106.06
658.68	112.06
658.883	97.06
659.087	108.06
659.291	98.06
659.494	105.06
659.698	97.06
659.901	100.06
660.105	100.06
660.309	98.06
660.512	90.06
660.716	88.06
660.919	92.06
661.123	101.06
661.326	88.06
661.53	92.06
661.733	100.06
661.936	82.06
662.14	89.06
662.343	91.06
662.546	88.06
662.75	92.06
662.953	84.06
663.156	73.06
663.36	82.06
663.563	82.06
663.766	85.06
663.969	81.06
664.173	92.06
664.376	84.06
664.579	79.06
664.782	77.06
664.985	89.06
665.188	86.06
665.391	91.06
665.594	81.06
665.797	78.06
666	90.06
666.203	96.06
666.406	74.06
666.609	91.06
666.812	84.06
667.015	93.06
667.218	94.06
667.421	89.06
667.624	103.06
667.827	84.06
668.03	82.06
668.232	78.06
668.435	96.06
668.638	81.06
668.841	95.06
669.043	86.06
669.246	68.06
669.449	76.06
669.651	84.06
669.854	85.06
670.057	85.06
670.259	79.06
670.462	83.06
670.665	89.06
670.867	83.06
671.07	85.06
671.272	80.06
671.475	89.06
671.677	79.06
671.88	83.06
672.082	93.06
672.284	76.06
672.487	89.06
672.689	80.06
672.892	94.06
