Data from 1972.PennyLincolnUp.Lamp.En5.5.200Scan.071719.P1._HRD10591_15-28-31-844.txt Node
Date: Thu Jul 18 15:28:31 EDT 2019
User: cochatt
Spectrometer: HR+D1059
Trigger mode: 1
Integration Time (sec): 1.000000E-1
Scans to average: 1
Electric dark correction enabled: true
Nonlinearity correction enabled: false
Boxcar width: 0
XAxis mode: Wavelengths
Number of Pixels in Spectrum: 2048
>>>>>Begin Spectral Data<<<<<
223.165	-17.62
223.4	-17.62
223.635	-17.62
223.869	-18.62
224.104	-15.62
224.338	-18.62
224.573	-24.62
224.808	-6.62
225.042	0.38
225.277	-11.62
225.511	10.38
225.746	0.38
225.98	8.38
226.215	12.38
226.449	15.38
226.683	12.38
226.918	26.38
227.152	27.38
227.387	50.38
227.621	41.38
227.856	49.38
228.09	42.38
228.324	43.38
228.559	50.38
228.793	86.38
229.027	115.38
229.262	109.38
229.496	119.38
229.73	131.38
229.964	186.38
230.199	148.38
230.433	137.38
230.667	131.38
230.901	123.38
231.136	121.38
231.37	105.38
231.604	118.38
231.838	121.38
232.072	125.38
232.306	127.38
232.541	129.38
232.775	117.38
233.009	128.38
233.243	109.38
233.477	108.38
233.711	126.38
233.945	128.38
234.179	129.38
234.413	129.38
234.647	127.38
234.881	125.38
235.115	123.38
235.349	118.38
235.583	130.38
235.817	122.38
236.051	142.38
236.285	136.38
236.519	138.38
236.753	119.38
236.987	144.38
237.221	203.38
237.455	258.38
237.689	203.38
237.922	154.38
238.156	143.38
238.39	145.38
238.624	118.38
238.858	135.38
239.091	118.38
239.325	122.38
239.559	131.38
239.793	134.38
240.027	144.38
240.26	157.38
240.494	174.38
240.728	158.38
240.961	152.38
241.195	166.38
241.429	146.38
241.662	124.38
241.896	148.38
242.13	144.38
242.363	133.38
242.597	134.38
242.83	142.38
243.064	135.38
243.298	147.38
243.531	138.38
243.765	145.38
243.998	150.38
244.232	144.38
244.465	144.38
244.699	134.38
244.932	152.38
245.166	145.38
245.399	157.38
245.633	146.38
245.866	144.38
246.099	146.38
246.333	138.38
246.566	152.38
246.8	163.38
247.033	170.38
247.266	183.38
247.5	179.38
247.733	179.38
247.966	189.38
248.2	186.38
248.433	196.38
248.666	178.38
248.899	193.38
249.133	209.38
249.366	219.38
249.599	211.38
249.832	194.38
250.066	190.38
250.299	202.38
250.532	191.38
250.765	228.38
250.998	232.38
251.231	225.38
251.465	237.38
251.698	215.38
251.931	210.38
252.164	206.38
252.397	202.38
252.63	212.38
252.863	215.38
253.096	199.38
253.329	230.38
253.562	249.38
253.795	234.38
254.028	227.38
254.261	247.38
254.494	252.38
254.727	263.38
254.96	318.38
255.193	297.38
255.426	264.38
255.659	247.38
255.892	242.38
256.124	246.38
256.357	260.38
256.59	260.38
256.823	247.38
257.056	247.38
257.289	243.38
257.521	231.38
257.754	232.38
257.987	214.38
258.22	212.38
258.452	232.38
258.685	231.38
258.918	212.38
259.151	215.38
259.383	217.38
259.616	240.38
259.849	253.38
260.081	240.38
260.314	267.38
260.547	286.38
260.779	251.38
261.012	250.38
261.244	252.38
261.477	243.38
261.71	244.38
261.942	258.38
262.175	269.38
262.407	250.38
262.64	230.38
262.872	239.38
263.105	219.38
263.337	250.38
263.57	227.38
263.802	226.38
264.035	228.38
264.267	234.38
264.499	214.38
264.732	227.38
264.964	230.38
265.197	230.38
265.429	217.38
265.661	221.38
265.894	216.38
266.126	232.38
266.358	208.38
266.591	218.38
266.823	239.38
267.055	236.38
267.287	238.38
267.52	238.38
267.752	226.38
267.984	219.38
268.216	247.38
268.448	237.38
268.681	234.38
268.913	270.38
269.145	288.38
269.377	304.38
269.609	295.38
269.841	282.38
270.073	286.38
270.306	296.38
270.538	333.38
270.77	340.38
271.002	315.38
271.234	300.38
271.466	323.38
271.698	335.38
271.93	339.38
272.162	330.38
272.394	342.38
272.626	317.38
272.858	304.38
273.09	304.38
273.322	283.38
273.553	304.38
273.785	297.38
274.017	303.38
274.249	294.38
274.481	271.38
274.713	285.38
274.945	303.38
275.176	282.38
275.408	286.38
275.64	278.38
275.872	270.38
276.104	288.38
276.335	287.38
276.567	299.38
276.799	312.38
277.031	336.38
277.262	348.38
277.494	340.38
277.726	321.38
277.957	301.38
278.189	296.38
278.421	289.38
278.652	287.38
278.884	307.38
279.115	297.38
279.347	288.38
279.579	286.38
279.81	274.38
280.042	270.38
280.273	280.38
280.505	261.38
280.736	280.38
280.968	271.38
281.199	278.38
281.431	274.38
281.662	292.38
281.894	265.38
282.125	288.38
282.356	282.38
282.588	312.38
282.819	332.38
283.051	287.38
283.282	270.38
283.513	283.38
283.745	273.38
283.976	272.38
284.207	287.38
284.439	283.38
284.67	297.38
284.901	284.38
285.132	280.38
285.364	268.38
285.595	271.38
285.826	275.38
286.057	294.38
286.288	307.38
286.52	277.38
286.751	275.38
286.982	282.38
287.213	281.38
287.444	282.38
287.675	299.38
287.906	290.38
288.138	296.38
288.369	316.38
288.6	311.38
288.831	301.38
289.062	288.38
289.293	296.38
289.524	304.38
289.755	288.38
289.986	283.38
290.217	295.38
290.448	281.38
290.679	274.38
290.91	307.38
291.141	297.38
291.371	291.38
291.602	293.38
291.833	302.38
292.064	270.38
292.295	291.38
292.526	282.38
292.757	282.38
292.987	301.38
293.218	286.38
293.449	304.38
293.68	289.38
293.91	288.38
294.141	289.38
294.372	272.38
294.603	302.38
294.833	298.38
295.064	294.38
295.295	299.38
295.525	292.38
295.756	316.38
295.987	316.38
296.217	333.38
296.448	338.38
296.679	318.38
296.909	291.38
297.14	300.38
297.37	302.38
297.601	285.38
297.831	299.38
298.062	305.38
298.292	305.38
298.523	314.38
298.753	308.38
298.984	299.38
299.214	324.38
299.445	327.38
299.675	315.38
299.905	294.38
300.136	313.38
300.366	310.38
300.597	316.38
300.827	327.38
301.057	328.38
301.288	335.38
301.518	324.38
301.748	332.38
301.979	326.38
302.209	329.38
302.439	330.38
302.669	332.38
302.9	314.38
303.13	320.38
303.36	335.38
303.59	339.38
303.82	354.38
304.051	328.38
304.281	327.38
304.511	324.38
304.741	307.38
304.971	315.38
305.201	321.38
305.431	335.38
305.661	317.38
305.891	322.38
306.121	348.38
306.352	340.38
306.582	359.38
306.812	338.38
307.042	335.38
307.272	329.38
307.502	338.38
307.731	332.38
307.961	340.38
308.191	336.38
308.421	346.38
308.651	341.38
308.881	355.38
309.111	365.38
309.341	342.38
309.571	352.38
309.8	363.38
310.03	398.38
310.26	394.38
310.49	380.38
310.72	391.38
310.949	425.38
311.179	415.38
311.409	392.38
311.639	388.38
311.868	410.38
312.098	393.38
312.328	419.38
312.557	421.38
312.787	439.38
313.017	426.38
313.246	427.38
313.476	396.38
313.706	396.38
313.935	410.38
314.165	404.38
314.394	426.38
314.624	427.38
314.853	399.38
315.083	401.38
315.312	383.38
315.542	374.38
315.771	388.38
316.001	381.38
316.23	383.38
316.46	396.38
316.689	394.38
316.919	390.38
317.148	398.38
317.377	401.38
317.607	426.38
317.836	410.38
318.065	388.38
318.295	391.38
318.524	390.38
318.753	392.38
318.983	398.38
319.212	377.38
319.441	407.38
319.67	398.38
319.9	390.38
320.129	394.38
320.358	387.38
320.587	412.38
320.816	418.38
321.046	424.38
321.275	427.38
321.504	428.38
321.733	412.38
321.962	439.38
322.191	446.38
322.42	477.38
322.649	490.38
322.878	488.38
323.108	511.38
323.337	527.38
323.566	575.38
323.795	616.38
324.024	681.38
324.253	826.38
324.482	1243.38
324.71	1946.38
324.939	2824.38
325.168	2510.38
325.397	1264.38
325.626	812.38
325.855	666.38
326.084	603.38
326.313	580.38
326.542	571.38
326.77	640.38
326.999	764.38
327.228	1092.38
327.457	1704.38
327.686	2140.38
327.914	1399.38
328.143	921.38
328.372	763.38
328.6	694.38
328.829	658.38
329.058	678.38
329.287	698.38
329.515	642.38
329.744	563.38
329.972	555.38
330.201	611.38
330.43	650.38
330.658	726.38
330.887	715.38
331.115	696.38
331.344	595.38
331.572	532.38
331.801	538.38
332.03	513.38
332.258	505.38
332.486	484.38
332.715	469.38
332.943	475.38
333.172	458.38
333.4	465.38
333.629	473.38
333.857	486.38
334.085	525.38
334.314	550.38
334.542	576.38
334.771	604.38
334.999	557.38
335.227	495.38
335.455	456.38
335.684	466.38
335.912	458.38
336.14	451.38
336.369	442.38
336.597	476.38
336.825	463.38
337.053	450.38
337.281	429.38
337.51	419.38
337.738	447.38
337.966	460.38
338.194	443.38
338.422	448.38
338.65	444.38
338.878	426.38
339.106	424.38
339.334	410.38
339.562	422.38
339.79	415.38
340.018	438.38
340.246	423.38
340.474	426.38
340.702	431.38
340.93	445.38
341.158	419.38
341.386	439.38
341.614	435.38
341.842	438.38
342.07	414.38
342.298	431.38
342.526	396.38
342.754	400.38
342.981	425.38
343.209	414.38
343.437	419.38
343.665	414.38
343.893	404.38
344.12	425.38
344.348	418.38
344.576	431.38
344.804	440.38
345.031	451.38
345.259	472.38
345.487	456.38
345.714	445.38
345.942	426.38
346.17	411.38
346.397	423.38
346.625	417.38
346.853	424.38
347.08	438.38
347.308	431.38
347.535	468.38
347.763	451.38
347.99	432.38
348.218	466.38
348.445	452.38
348.673	434.38
348.9	406.38
349.128	426.38
349.355	382.38
349.583	394.38
349.81	389.38
350.037	401.38
350.265	391.38
350.492	409.38
350.72	402.38
350.947	408.38
351.174	428.38
351.402	440.38
351.629	438.38
351.856	422.38
352.083	429.38
352.311	449.38
352.538	459.38
352.765	465.38
352.992	442.38
353.22	442.38
353.447	429.38
353.674	417.38
353.901	405.38
354.128	412.38
354.355	394.38
354.583	403.38
354.81	395.38
355.037	388.38
355.264	387.38
355.491	377.38
355.718	370.38
355.945	385.38
356.172	382.38
356.399	368.38
356.626	350.38
356.853	380.38
357.08	375.38
357.307	383.38
357.534	347.38
357.761	374.38
357.988	369.38
358.215	375.38
358.441	374.38
358.668	382.38
358.895	378.38
359.122	394.38
359.349	395.38
359.576	400.38
359.802	444.38
360.029	479.38
360.256	503.38
360.483	479.38
360.709	435.38
360.936	413.38
361.163	431.38
361.39	401.38
361.616	421.38
361.843	424.38
362.07	410.38
362.296	423.38
362.523	435.38
362.749	422.38
362.976	426.38
363.203	402.38
363.429	405.38
363.656	399.38
363.882	396.38
364.109	403.38
364.335	380.38
364.562	382.38
364.788	417.38
365.015	413.38
365.241	384.38
365.468	406.38
365.694	419.38
365.92	402.38
366.147	401.38
366.373	391.38
366.599	391.38
366.826	390.38
367.052	395.38
367.278	374.38
367.505	400.38
367.731	400.38
367.957	388.38
368.184	399.38
368.41	392.38
368.636	407.38
368.862	400.38
369.089	402.38
369.315	396.38
369.541	378.38
369.767	383.38
369.993	377.38
370.219	386.38
370.445	390.38
370.672	380.38
370.898	371.38
371.124	381.38
371.35	385.38
371.576	367.38
371.802	367.38
372.028	383.38
372.254	372.38
372.48	360.38
372.706	380.38
372.932	380.38
373.158	371.38
373.384	368.38
373.61	369.38
373.835	373.38
374.061	395.38
374.287	370.38
374.513	356.38
374.739	379.38
374.965	386.38
375.191	374.38
375.416	374.38
375.642	392.38
375.868	396.38
376.094	377.38
376.319	371.38
376.545	374.38
376.771	359.38
376.997	374.38
377.222	375.38
377.448	366.38
377.674	376.38
377.899	376.38
378.125	380.38
378.35	378.38
378.576	391.38
378.802	359.38
379.027	368.38
379.253	362.38
379.478	358.38
379.704	365.38
379.929	361.38
380.155	362.38
380.38	380.38
380.606	383.38
380.831	383.38
381.057	376.38
381.282	380.38
381.507	376.38
381.733	364.38
381.958	393.38
382.184	378.38
382.409	382.38
382.634	389.38
382.86	380.38
383.085	382.38
383.31	381.38
383.535	387.38
383.761	378.38
383.986	385.38
384.211	388.38
384.436	371.38
384.662	394.38
384.887	378.38
385.112	394.38
385.337	385.38
385.562	393.38
385.787	383.38
386.013	402.38
386.238	415.38
386.463	409.38
386.688	394.38
386.913	411.38
387.138	402.38
387.363	394.38
387.588	426.38
387.813	390.38
388.038	393.38
388.263	407.38
388.488	403.38
388.713	388.38
388.938	417.38
389.163	384.38
389.387	380.38
389.612	384.38
389.837	418.38
390.062	394.38
390.287	405.38
390.512	376.38
390.736	407.38
390.961	402.38
391.186	400.38
391.411	421.38
391.636	401.38
391.86	402.38
392.085	401.38
392.31	413.38
392.534	403.38
392.759	406.38
392.984	386.38
393.208	400.38
393.433	415.38
393.658	392.38
393.882	400.38
394.107	371.38
394.331	401.38
394.556	409.38
394.78	408.38
395.005	404.38
395.229	399.38
395.454	385.38
395.678	391.38
395.903	408.38
396.127	430.38
396.352	447.38
396.576	438.38
396.801	413.38
397.025	422.38
397.249	425.38
397.474	403.38
397.698	408.38
397.922	437.38
398.147	459.38
398.371	468.38
398.595	443.38
398.82	447.38
399.044	451.38
399.268	447.38
399.492	472.38
399.717	480.38
399.941	527.38
400.165	554.38
400.389	581.38
400.613	503.38
400.837	489.38
401.062	471.38
401.286	461.38
401.51	474.38
401.734	451.38
401.958	446.38
402.182	467.38
402.406	468.38
402.63	453.38
402.854	468.38
403.078	448.38
403.302	470.38
403.526	476.38
403.75	457.38
403.974	472.38
404.198	472.38
404.422	475.38
404.645	454.38
404.869	495.38
405.093	534.38
405.317	569.38
405.541	607.38
405.765	538.38
405.988	519.38
406.212	511.38
406.436	524.38
406.66	551.38
406.883	536.38
407.107	532.38
407.331	589.38
407.555	634.38
407.778	659.38
408.002	594.38
408.226	525.38
408.449	551.38
408.673	537.38
408.896	563.38
409.12	608.38
409.344	556.38
409.567	498.38
409.791	505.38
410.014	478.38
410.238	471.38
410.461	474.38
410.685	490.38
410.908	485.38
411.132	558.38
411.355	596.38
411.578	546.38
411.802	465.38
412.025	473.38
412.249	470.38
412.472	511.38
412.695	550.38
412.919	568.38
413.142	502.38
413.365	465.38
413.589	459.38
413.812	447.38
414.035	454.38
414.258	444.38
414.482	448.38
414.705	438.38
414.928	424.38
415.151	431.38
415.374	446.38
415.597	430.38
415.821	448.38
416.044	448.38
416.267	457.38
416.49	440.38
416.713	438.38
416.936	430.38
417.159	436.38
417.382	465.38
417.605	467.38
417.828	457.38
418.051	469.38
418.274	481.38
418.497	452.38
418.72	440.38
418.943	475.38
419.166	467.38
419.389	454.38
419.611	492.38
419.834	463.38
420.057	481.38
420.28	483.38
420.503	480.38
420.726	472.38
420.948	483.38
421.171	534.38
421.394	572.38
421.617	534.38
421.839	474.38
422.062	486.38
422.285	490.38
422.507	560.38
422.73	632.38
422.953	618.38
423.175	538.38
423.398	484.38
423.621	507.38
423.843	514.38
424.066	526.38
424.288	523.38
424.511	523.38
424.733	605.38
424.956	686.38
425.178	668.38
425.401	676.38
425.623	694.38
425.846	586.38
426.068	543.38
426.291	499.38
426.513	514.38
426.735	548.38
426.958	594.38
427.18	652.38
427.402	819.38
427.625	915.38
427.847	834.38
428.069	723.38
428.292	604.38
428.514	542.38
428.736	504.38
428.958	492.38
429.181	493.38
429.403	471.38
429.625	497.38
429.847	539.38
430.069	607.38
430.292	605.38
430.514	520.38
430.736	504.38
430.958	463.38
431.18	464.38
431.402	464.38
431.624	467.38
431.846	451.38
432.068	454.38
432.29	460.38
432.512	468.38
432.734	460.38
432.956	452.38
433.178	471.38
433.4	476.38
433.622	459.38
433.844	466.38
434.066	443.38
434.287	438.38
434.509	481.38
434.731	463.38
434.953	451.38
435.175	479.38
435.397	519.38
435.618	522.38
435.84	568.38
436.062	691.38
436.284	734.38
436.505	626.38
436.727	544.38
436.949	515.38
437.17	491.38
437.392	498.38
437.614	512.38
437.835	538.38
438.057	648.38
438.278	773.38
438.5	780.38
438.721	855.38
438.943	827.38
439.165	634.38
439.386	570.38
439.608	567.38
439.829	547.38
440.05	575.38
440.272	650.38
440.493	623.38
440.715	537.38
440.936	508.38
441.158	531.38
441.379	497.38
441.6	512.38
441.822	523.38
442.043	566.38
442.264	670.38
442.486	731.38
442.707	621.38
442.928	564.38
443.149	570.38
443.371	605.38
443.592	620.38
443.813	722.38
444.034	787.38
444.255	625.38
444.476	568.38
444.698	530.38
444.919	536.38
445.14	602.38
445.361	584.38
445.582	582.38
445.803	670.38
446.024	769.38
446.245	833.38
446.466	727.38
446.687	593.38
446.908	555.38
447.129	522.38
447.35	508.38
447.571	491.38
447.792	486.38
448.013	498.38
448.234	515.38
448.455	594.38
448.675	702.38
448.896	824.38
449.117	698.38
449.338	657.38
449.559	747.38
449.779	872.38
450	678.38
450.221	559.38
450.442	520.38
450.662	516.38
450.883	512.38
451.104	530.38
451.324	523.38
451.545	491.38
451.766	447.38
451.986	451.38
452.207	458.38
452.428	440.38
452.648	449.38
452.869	457.38
453.089	436.38
453.31	480.38
453.53	442.38
453.751	456.38
453.971	450.38
454.192	476.38
454.412	442.38
454.633	453.38
454.853	447.38
455.073	444.38
455.294	470.38
455.514	554.38
455.734	539.38
455.955	452.38
456.175	414.38
456.395	411.38
456.616	400.38
456.836	426.38
457.056	399.38
457.276	418.38
457.497	403.38
457.717	436.38
457.937	425.38
458.157	432.38
458.377	423.38
458.598	466.38
458.818	547.38
459.038	639.38
459.258	638.38
459.478	520.38
459.698	496.38
459.918	471.38
460.138	447.38
460.358	457.38
460.578	435.38
460.798	443.38
461.018	474.38
461.238	443.38
461.458	451.38
461.678	442.38
461.898	441.38
462.118	435.38
462.338	448.38
462.558	449.38
462.777	440.38
462.997	469.38
463.217	457.38
463.437	487.38
463.657	474.38
463.876	462.38
464.096	464.38
464.316	460.38
464.536	493.38
464.755	494.38
464.975	496.38
465.195	577.38
465.414	678.38
465.634	552.38
465.854	482.38
466.073	488.38
466.293	480.38
466.512	450.38
466.732	436.38
466.951	432.38
467.171	431.38
467.391	433.38
467.61	443.38
467.829	454.38
468.049	468.38
468.268	448.38
468.488	443.38
468.707	429.38
468.927	440.38
469.146	424.38
469.365	415.38
469.585	422.38
469.804	459.38
470.023	436.38
470.243	446.38
470.462	460.38
470.681	487.38
470.901	472.38
471.12	446.38
471.339	456.38
471.558	465.38
471.777	458.38
471.997	451.38
472.216	449.38
472.435	510.38
472.654	495.38
472.873	472.38
473.092	456.38
473.311	444.38
473.53	457.38
473.749	464.38
473.968	504.38
474.187	642.38
474.406	662.38
474.625	546.38
474.844	474.38
475.063	453.38
475.282	451.38
475.501	445.38
475.72	449.38
475.939	464.38
476.158	467.38
476.377	476.38
476.596	460.38
476.814	441.38
477.033	472.38
477.252	495.38
477.471	488.38
477.69	473.38
477.908	490.38
478.127	496.38
478.346	474.38
478.564	490.38
478.783	460.38
479.002	517.38
479.22	512.38
479.439	522.38
479.658	557.38
479.876	554.38
480.095	536.38
480.313	577.38
480.532	568.38
480.751	547.38
480.969	576.38
481.188	665.38
481.406	714.38
481.624	617.38
481.843	580.38
482.061	545.38
482.28	523.38
482.498	510.38
482.717	524.38
482.935	522.38
483.153	520.38
483.372	529.38
483.59	523.38
483.808	530.38
484.027	520.38
484.245	520.38
484.463	542.38
484.681	538.38
484.9	533.38
485.118	525.38
485.336	562.38
485.554	539.38
485.772	566.38
485.99	534.38
486.209	541.38
486.427	552.38
486.645	553.38
486.863	579.38
487.081	581.38
487.299	580.38
487.517	557.38
487.735	575.38
487.953	576.38
488.171	563.38
488.389	561.38
488.607	566.38
488.825	574.38
489.043	560.38
489.261	546.38
489.479	567.38
489.696	574.38
489.914	600.38
490.132	577.38
490.35	576.38
490.568	594.38
490.786	633.38
491.003	592.38
491.221	628.38
491.439	626.38
491.657	627.38
491.874	668.38
492.092	669.38
492.31	646.38
492.527	656.38
492.745	646.38
492.963	675.38
493.18	672.38
493.398	654.38
493.615	676.38
493.833	687.38
494.05	680.38
494.268	678.38
494.485	667.38
494.703	676.38
494.92	676.38
495.138	671.38
495.355	668.38
495.573	700.38
495.79	664.38
496.008	670.38
496.225	663.38
496.442	686.38
496.66	667.38
496.877	666.38
497.094	668.38
497.312	666.38
497.529	683.38
497.746	692.38
497.963	700.38
498.181	706.38
498.398	733.38
498.615	720.38
498.832	719.38
499.049	743.38
499.267	751.38
499.484	760.38
499.701	776.38
499.918	796.38
500.135	809.38
500.352	813.38
500.569	812.38
500.786	808.38
501.003	829.38
501.22	814.38
501.437	806.38
501.654	819.38
501.871	826.38
502.088	800.38
502.305	760.38
502.522	729.38
502.739	720.38
502.956	703.38
503.172	691.38
503.389	697.38
503.606	711.38
503.823	729.38
504.04	700.38
504.256	682.38
504.473	689.38
504.69	668.38
504.907	665.38
505.123	653.38
505.34	668.38
505.557	662.38
505.773	655.38
505.99	642.38
506.207	666.38
506.423	661.38
506.64	649.38
506.856	642.38
507.073	640.38
507.289	641.38
507.506	646.38
507.722	679.38
507.939	692.38
508.155	680.38
508.372	648.38
508.588	631.38
508.805	624.38
509.021	649.38
509.238	643.38
509.454	668.38
509.67	653.38
509.887	617.38
510.103	624.38
510.319	646.38
510.536	783.38
510.752	1408.38
510.968	1100.38
511.184	696.38
511.401	634.38
511.617	628.38
511.833	603.38
512.049	614.38
512.265	588.38
512.481	615.38
512.698	616.38
512.914	608.38
513.13	618.38
513.346	631.38
513.562	603.38
513.778	602.38
513.994	612.38
514.21	677.38
514.426	675.38
514.642	721.38
514.858	774.38
515.074	804.38
515.29	1000.38
515.506	1508.38
515.721	1242.38
515.937	797.38
516.153	699.38
516.369	659.38
516.585	623.38
516.801	630.38
517.016	642.38
517.232	624.38
517.448	610.38
517.664	622.38
517.879	591.38
518.095	602.38
518.311	621.38
518.527	602.38
518.742	628.38
518.958	628.38
519.173	597.38
519.389	573.38
519.605	598.38
519.82	626.38
520.036	611.38
520.251	656.38
520.467	690.38
520.682	694.38
520.898	724.38
521.113	741.38
521.329	818.38
521.544	906.38
521.76	1227.38
521.975	2105.38
522.19	2051.38
522.406	1056.38
522.621	769.38
522.836	660.38
523.052	640.38
523.267	610.38
523.482	558.38
523.698	573.38
523.913	593.38
524.128	586.38
524.343	528.38
524.559	514.38
524.774	536.38
524.989	545.38
525.204	569.38
525.419	553.38
525.634	536.38
525.849	506.38
526.064	507.38
526.28	523.38
526.495	505.38
526.71	504.38
526.925	492.38
527.14	502.38
527.355	508.38
527.57	479.38
527.785	474.38
527.999	491.38
528.214	482.38
528.429	482.38
528.644	490.38
528.859	488.38
529.074	489.38
529.289	519.38
529.503	613.38
529.718	616.38
529.933	525.38
530.148	521.38
530.363	500.38
530.577	485.38
530.792	483.38
531.007	487.38
531.221	469.38
531.436	486.38
531.651	469.38
531.865	467.38
532.08	460.38
532.295	464.38
532.509	448.38
532.724	454.38
532.938	440.38
533.153	450.38
533.367	464.38
533.582	444.38
533.796	460.38
534.011	435.38
534.225	452.38
534.44	449.38
534.654	475.38
534.868	453.38
535.083	437.38
535.297	460.38
535.511	442.38
535.726	466.38
535.94	455.38
536.154	468.38
536.369	439.38
536.583	438.38
536.797	461.38
537.011	450.38
537.225	424.38
537.44	445.38
537.654	430.38
537.868	436.38
538.082	443.38
538.296	434.38
538.51	460.38
538.724	454.38
538.938	448.38
539.153	447.38
539.367	465.38
539.581	462.38
539.795	464.38
540.009	452.38
540.222	435.38
540.436	452.38
540.65	443.38
540.864	447.38
541.078	459.38
541.292	443.38
541.506	446.38
541.72	442.38
541.934	442.38
542.147	444.38
542.361	424.38
542.575	425.38
542.789	434.38
543.002	446.38
543.216	438.38
543.43	432.38
543.644	457.38
543.857	441.38
544.071	445.38
544.285	438.38
544.498	464.38
544.712	435.38
544.925	414.38
545.139	410.38
545.352	426.38
545.566	422.38
545.779	425.38
545.993	433.38
546.206	422.38
546.42	428.38
546.633	409.38
546.847	427.38
547.06	412.38
547.274	426.38
547.487	419.38
547.7	396.38
547.914	409.38
548.127	415.38
548.34	395.38
548.554	396.38
548.767	416.38
548.98	411.38
549.193	398.38
549.407	413.38
549.62	408.38
549.833	417.38
550.046	400.38
550.259	381.38
550.473	390.38
550.686	397.38
550.899	396.38
551.112	409.38
551.325	394.38
551.538	385.38
551.751	393.38
551.964	379.38
552.177	401.38
552.39	404.38
552.603	405.38
552.816	414.38
553.029	402.38
553.242	405.38
553.455	412.38
553.667	429.38
553.88	416.38
554.093	417.38
554.306	423.38
554.519	416.38
554.732	405.38
554.944	410.38
555.157	414.38
555.37	402.38
555.583	386.38
555.795	397.38
556.008	391.38
556.221	380.38
556.433	379.38
556.646	387.38
556.859	391.38
557.071	369.38
557.284	379.38
557.496	390.38
557.709	380.38
557.921	364.38
558.134	376.38
558.346	379.38
558.559	365.38
558.771	366.38
558.984	379.38
559.196	347.38
559.409	360.38
559.621	369.38
559.833	380.38
560.046	365.38
560.258	358.38
560.47	361.38
560.683	384.38
560.895	365.38
561.107	358.38
561.32	366.38
561.532	373.38
561.744	356.38
561.956	374.38
562.168	355.38
562.381	362.38
562.593	355.38
562.805	360.38
563.017	366.38
563.229	364.38
563.441	353.38
563.653	364.38
563.865	378.38
564.077	373.38
564.289	348.38
564.501	367.38
564.713	344.38
564.925	376.38
565.137	390.38
565.349	370.38
565.561	370.38
565.773	374.38
565.985	385.38
566.197	394.38
566.408	394.38
566.62	412.38
566.832	412.38
567.044	416.38
567.255	425.38
567.467	421.38
567.679	427.38
567.891	417.38
568.102	403.38
568.314	415.38
568.526	407.38
568.737	404.38
568.949	385.38
569.161	374.38
569.372	375.38
569.584	359.38
569.795	376.38
570.007	355.38
570.218	439.38
570.43	398.38
570.641	361.38
570.853	350.38
571.064	337.38
571.276	353.38
571.487	342.38
571.698	344.38
571.91	351.38
572.121	327.38
572.333	327.38
572.544	335.38
572.755	313.38
572.966	324.38
573.178	334.38
573.389	335.38
573.6	306.38
573.811	310.38
574.023	331.38
574.234	324.38
574.445	304.38
574.656	304.38
574.867	321.38
575.078	314.38
575.289	320.38
575.501	314.38
575.712	295.38
575.923	304.38
576.134	317.38
576.345	326.38
576.556	327.38
576.767	318.38
576.978	297.38
577.188	295.38
577.399	320.38
577.61	316.38
577.821	324.38
578.032	322.38
578.243	355.38
578.454	644.38
578.665	482.38
578.875	340.38
579.086	318.38
579.297	317.38
579.508	315.38
579.718	300.38
579.929	294.38
580.14	306.38
580.35	300.38
580.561	310.38
580.772	303.38
580.982	310.38
581.193	270.38
581.403	316.38
581.614	278.38
581.825	275.38
582.035	273.38
582.246	304.38
582.456	280.38
582.667	286.38
582.877	311.38
583.087	273.38
583.298	287.38
583.508	295.38
583.719	290.38
583.929	296.38
584.139	283.38
584.35	298.38
584.56	296.38
584.77	303.38
584.981	306.38
585.191	279.38
585.401	266.38
585.611	264.38
585.821	287.38
586.032	288.38
586.242	297.38
586.452	281.38
586.662	272.38
586.872	284.38
587.082	270.38
587.292	290.38
587.502	278.38
587.713	269.38
587.923	294.38
588.133	284.38
588.343	282.38
588.553	292.38
588.762	271.38
588.972	271.38
589.182	274.38
589.392	266.38
589.602	276.38
589.812	282.38
590.022	293.38
590.232	274.38
590.441	292.38
590.651	305.38
590.861	269.38
591.071	269.38
591.281	294.38
591.49	278.38
591.7	273.38
591.91	285.38
592.119	267.38
592.329	279.38
592.539	283.38
592.748	286.38
592.958	297.38
593.167	284.38
593.377	267.38
593.587	305.38
593.796	259.38
594.006	301.38
594.215	280.38
594.424	276.38
594.634	281.38
594.843	282.38
595.053	276.38
595.262	276.38
595.472	279.38
595.681	278.38
595.89	286.38
596.1	277.38
596.309	273.38
596.518	274.38
596.727	262.38
596.937	268.38
597.146	250.38
597.355	249.38
597.564	263.38
597.774	269.38
597.983	270.38
598.192	259.38
598.401	260.38
598.61	252.38
598.819	256.38
599.028	254.38
599.237	259.38
599.446	270.38
599.655	254.38
599.864	263.38
600.073	244.38
600.282	251.38
600.491	255.38
600.7	232.38
600.909	258.38
601.118	252.38
601.327	246.38
601.536	251.38
601.745	262.38
601.953	254.38
602.162	251.38
602.371	252.38
602.58	244.38
602.789	243.38
602.997	243.38
603.206	248.38
603.415	246.38
603.623	239.38
603.832	240.38
604.041	242.38
604.249	234.38
604.458	231.38
604.666	261.38
604.875	229.38
605.084	241.38
605.292	227.38
605.501	250.38
605.709	240.38
605.918	234.38
606.126	231.38
606.334	232.38
606.543	240.38
606.751	244.38
606.96	221.38
607.168	230.38
607.376	241.38
607.585	234.38
607.793	243.38
608.001	234.38
608.21	222.38
608.418	219.38
608.626	232.38
608.834	236.38
609.043	233.38
609.251	235.38
609.459	223.38
609.667	225.38
609.875	246.38
610.083	228.38
610.291	235.38
610.499	228.38
610.707	229.38
610.916	231.38
611.124	228.38
611.332	248.38
611.54	243.38
611.748	239.38
611.955	237.38
612.163	236.38
612.371	231.38
612.579	237.38
612.787	239.38
612.995	239.38
613.203	246.38
613.411	227.38
613.618	236.38
613.826	242.38
614.034	230.38
614.242	226.38
614.449	214.38
614.657	222.38
614.865	230.38
615.072	217.38
615.28	234.38
615.488	223.38
615.695	202.38
615.903	214.38
616.111	229.38
616.318	225.38
616.526	210.38
616.733	217.38
616.941	226.38
617.148	216.38
617.356	231.38
617.563	232.38
617.771	225.38
617.978	226.38
618.185	231.38
618.393	227.38
618.6	231.38
618.807	230.38
619.015	225.38
619.222	230.38
619.429	225.38
619.637	231.38
619.844	208.38
620.051	218.38
620.258	214.38
620.466	212.38
620.673	220.38
620.88	214.38
621.087	209.38
621.294	200.38
621.501	219.38
621.708	214.38
621.915	218.38
622.122	214.38
622.329	225.38
622.536	212.38
622.743	205.38
622.95	229.38
623.157	207.38
623.364	218.38
623.571	222.38
623.778	217.38
623.985	205.38
624.192	218.38
624.399	216.38
624.606	210.38
624.812	224.38
625.019	215.38
625.226	212.38
625.433	212.38
625.639	197.38
625.846	208.38
626.053	204.38
626.259	196.38
626.466	191.38
626.673	203.38
626.879	207.38
627.086	210.38
627.293	223.38
627.499	196.38
627.706	203.38
627.912	193.38
628.119	203.38
628.325	197.38
628.532	186.38
628.738	202.38
628.945	200.38
629.151	200.38
629.357	203.38
629.564	196.38
629.77	175.38
629.976	192.38
630.183	193.38
630.389	188.38
630.595	190.38
630.802	166.38
631.008	188.38
631.214	198.38
631.42	183.38
631.627	192.38
631.833	178.38
632.039	175.38
632.245	183.38
632.451	200.38
632.657	173.38
632.863	190.38
633.069	194.38
633.275	178.38
633.481	196.38
633.688	193.38
633.893	182.38
634.099	190.38
634.305	170.38
634.511	191.38
634.717	192.38
634.923	172.38
635.129	197.38
635.335	188.38
635.541	188.38
635.747	176.38
635.952	179.38
636.158	178.38
636.364	204.38
636.57	189.38
636.775	183.38
636.981	178.38
637.187	182.38
637.392	177.38
637.598	179.38
637.804	165.38
638.009	184.38
638.215	190.38
638.421	192.38
638.626	161.38
638.832	177.38
639.037	166.38
639.243	170.38
639.448	176.38
639.654	183.38
639.859	168.38
640.065	178.38
640.27	176.38
640.475	174.38
640.681	190.38
640.886	167.38
641.091	190.38
641.297	168.38
641.502	172.38
641.707	179.38
641.913	181.38
642.118	175.38
642.323	182.38
642.528	162.38
642.733	175.38
642.939	182.38
643.144	166.38
643.349	165.38
643.554	170.38
643.759	175.38
643.964	159.38
644.169	167.38
644.374	160.38
644.579	168.38
644.784	162.38
644.989	159.38
645.194	172.38
645.399	156.38
645.604	152.38
645.809	161.38
646.014	158.38
646.219	164.38
646.423	173.38
646.628	183.38
646.833	168.38
647.038	165.38
647.243	166.38
647.447	163.38
647.652	170.38
647.857	151.38
648.062	163.38
648.266	170.38
648.471	173.38
648.676	164.38
648.88	158.38
649.085	160.38
649.289	170.38
649.494	178.38
649.698	190.38
649.903	182.38
650.107	174.38
650.312	169.38
650.516	156.38
650.721	153.38
650.925	164.38
651.13	169.38
651.334	148.38
651.539	153.38
651.743	150.38
651.947	149.38
652.152	146.38
652.356	149.38
652.56	158.38
652.764	149.38
652.969	139.38
653.173	134.38
653.377	136.38
653.581	142.38
653.785	142.38
653.99	151.38
654.194	142.38
654.398	146.38
654.602	129.38
654.806	147.38
655.01	152.38
655.214	142.38
655.418	138.38
655.622	128.38
655.826	153.38
656.03	146.38
656.234	137.38
656.438	136.38
656.642	123.38
656.846	139.38
657.049	116.38
657.253	126.38
657.457	112.38
657.661	114.38
657.865	122.38
658.068	113.38
658.272	117.38
658.476	114.38
658.68	101.38
658.883	105.38
659.087	99.38
659.291	92.38
659.494	93.38
659.698	90.38
659.901	104.38
660.105	91.38
660.309	98.38
660.512	103.38
660.716	82.38
660.919	94.38
661.123	100.38
661.326	92.38
661.53	86.38
661.733	106.38
661.936	90.38
662.14	111.38
662.343	76.38
662.546	81.38
662.75	95.38
662.953	98.38
663.156	99.38
663.36	94.38
663.563	92.38
663.766	89.38
663.969	103.38
664.173	83.38
664.376	91.38
664.579	100.38
664.782	72.38
664.985	86.38
665.188	83.38
665.391	75.38
665.594	89.38
665.797	97.38
666	76.38
666.203	74.38
666.406	84.38
666.609	95.38
666.812	99.38
667.015	98.38
667.218	80.38
667.421	78.38
667.624	93.38
667.827	80.38
668.03	73.38
668.232	90.38
668.435	98.38
668.638	82.38
668.841	88.38
669.043	84.38
669.246	106.38
669.449	86.38
669.651	90.38
669.854	92.38
670.057	102.38
670.259	73.38
670.462	95.38
670.665	84.38
670.867	81.38
671.07	99.38
671.272	89.38
671.475	87.38
671.677	98.38
671.88	98.38
672.082	104.38
672.284	91.38
672.487	93.38
672.689	88.38
672.892	91.38
