Data from 1972.PennyLincolnUp.Lamp.En5.5.200Scan.071719.P1._HRD10591_15-27-23-844.txt Node
Date: Thu Jul 18 15:27:23 EDT 2019
User: cochatt
Spectrometer: HR+D1059
Trigger mode: 1
Integration Time (sec): 1.000000E-1
Scans to average: 1
Electric dark correction enabled: true
Nonlinearity correction enabled: false
Boxcar width: 0
XAxis mode: Wavelengths
Number of Pixels in Spectrum: 2048
>>>>>Begin Spectral Data<<<<<
223.165	-26.31
223.4	-26.31
223.635	-26.31
223.869	-7.31
224.104	-8.31
224.338	-14.31
224.573	-21.31
224.808	-28.31
225.042	-0.31
225.277	5.69
225.511	-9.31
225.746	-17.31
225.98	3.69
226.215	10.69
226.449	22.69
226.683	23.69
226.918	28.69
227.152	37.69
227.387	29.69
227.621	38.69
227.856	40.69
228.09	37.69
228.324	56.69
228.559	60.69
228.793	69.69
229.027	97.69
229.262	100.69
229.496	102.69
229.73	119.69
229.964	155.69
230.199	124.69
230.433	127.69
230.667	116.69
230.901	114.69
231.136	118.69
231.37	105.69
231.604	114.69
231.838	101.69
232.072	100.69
232.306	98.69
232.541	115.69
232.775	110.69
233.009	104.69
233.243	113.69
233.477	118.69
233.711	121.69
233.945	102.69
234.179	98.69
234.413	108.69
234.647	102.69
234.881	116.69
235.115	110.69
235.349	110.69
235.583	100.69
235.817	114.69
236.051	122.69
236.285	126.69
236.519	118.69
236.753	138.69
236.987	144.69
237.221	164.69
237.455	245.69
237.689	191.69
237.922	132.69
238.156	129.69
238.39	113.69
238.624	122.69
238.858	118.69
239.091	117.69
239.325	113.69
239.559	110.69
239.793	138.69
240.027	126.69
240.26	128.69
240.494	149.69
240.728	152.69
240.961	129.69
241.195	128.69
241.429	133.69
241.662	134.69
241.896	140.69
242.13	124.69
242.363	126.69
242.597	122.69
242.83	123.69
243.064	131.69
243.298	138.69
243.531	123.69
243.765	142.69
243.998	120.69
244.232	128.69
244.465	131.69
244.699	140.69
244.932	141.69
245.166	128.69
245.399	142.69
245.633	130.69
245.866	144.69
246.099	145.69
246.333	138.69
246.566	134.69
246.8	133.69
247.033	152.69
247.266	155.69
247.5	147.69
247.733	149.69
247.966	163.69
248.2	154.69
248.433	156.69
248.666	182.69
248.899	185.69
249.133	187.69
249.366	212.69
249.599	200.69
249.832	187.69
250.066	170.69
250.299	172.69
250.532	191.69
250.765	171.69
250.998	204.69
251.231	200.69
251.465	203.69
251.698	189.69
251.931	199.69
252.164	197.69
252.397	195.69
252.63	194.69
252.863	182.69
253.096	181.69
253.329	215.69
253.562	222.69
253.795	205.69
254.028	193.69
254.261	195.69
254.494	200.69
254.727	225.69
254.96	261.69
255.193	257.69
255.426	242.69
255.659	226.69
255.892	228.69
256.124	222.69
256.357	224.69
256.59	214.69
256.823	220.69
257.056	213.69
257.289	206.69
257.521	206.69
257.754	204.69
257.987	197.69
258.22	201.69
258.452	216.69
258.685	190.69
258.918	191.69
259.151	220.69
259.383	210.69
259.616	208.69
259.849	213.69
260.081	208.69
260.314	249.69
260.547	258.69
260.779	231.69
261.012	226.69
261.244	206.69
261.477	212.69
261.71	197.69
261.942	225.69
262.175	224.69
262.407	213.69
262.64	215.69
262.872	197.69
263.105	188.69
263.337	197.69
263.57	195.69
263.802	186.69
264.035	204.69
264.267	208.69
264.499	209.69
264.732	210.69
264.964	193.69
265.197	199.69
265.429	200.69
265.661	199.69
265.894	207.69
266.126	189.69
266.358	190.69
266.591	216.69
266.823	209.69
267.055	208.69
267.287	202.69
267.52	215.69
267.752	205.69
267.984	222.69
268.216	206.69
268.448	220.69
268.681	220.69
268.913	229.69
269.145	232.69
269.377	264.69
269.609	262.69
269.841	260.69
270.073	259.69
270.306	255.69
270.538	306.69
270.77	293.69
271.002	280.69
271.234	278.69
271.466	281.69
271.698	282.69
271.93	298.69
272.162	292.69
272.394	304.69
272.626	278.69
272.858	284.69
273.09	279.69
273.322	269.69
273.553	250.69
273.785	251.69
274.017	234.69
274.249	249.69
274.481	252.69
274.713	247.69
274.945	247.69
275.176	248.69
275.408	260.69
275.64	252.69
275.872	235.69
276.104	253.69
276.335	240.69
276.567	254.69
276.799	260.69
277.031	279.69
277.262	299.69
277.494	306.69
277.726	287.69
277.957	272.69
278.189	268.69
278.421	255.69
278.652	260.69
278.884	265.69
279.115	233.69
279.347	247.69
279.579	256.69
279.81	264.69
280.042	245.69
280.273	247.69
280.505	230.69
280.736	247.69
280.968	229.69
281.199	244.69
281.431	232.69
281.662	245.69
281.894	240.69
282.125	240.69
282.356	256.69
282.588	274.69
282.819	289.69
283.051	242.69
283.282	253.69
283.513	249.69
283.745	255.69
283.976	245.69
284.207	249.69
284.439	254.69
284.67	252.69
284.901	265.69
285.132	230.69
285.364	238.69
285.595	257.69
285.826	232.69
286.057	272.69
286.288	236.69
286.52	267.69
286.751	257.69
286.982	244.69
287.213	253.69
287.444	238.69
287.675	260.69
287.906	270.69
288.138	282.69
288.369	268.69
288.6	274.69
288.831	247.69
289.062	248.69
289.293	267.69
289.524	269.69
289.755	228.69
289.986	241.69
290.217	264.69
290.448	242.69
290.679	260.69
290.91	258.69
291.141	257.69
291.371	253.69
291.602	232.69
291.833	256.69
292.064	260.69
292.295	256.69
292.526	265.69
292.757	253.69
292.987	265.69
293.218	254.69
293.449	282.69
293.68	264.69
293.91	259.69
294.141	247.69
294.372	241.69
294.603	264.69
294.833	266.69
295.064	265.69
295.295	261.69
295.525	254.69
295.756	276.69
295.987	293.69
296.217	302.69
296.448	297.69
296.679	304.69
296.909	256.69
297.14	268.69
297.37	281.69
297.601	278.69
297.831	260.69
298.062	292.69
298.292	259.69
298.523	277.69
298.753	257.69
298.984	269.69
299.214	259.69
299.445	238.69
299.675	269.69
299.905	270.69
300.136	281.69
300.366	271.69
300.597	262.69
300.827	277.69
301.057	276.69
301.288	282.69
301.518	308.69
301.748	270.69
301.979	295.69
302.209	291.69
302.439	302.69
302.669	295.69
302.9	278.69
303.13	293.69
303.36	284.69
303.59	289.69
303.82	294.69
304.051	292.69
304.281	292.69
304.511	274.69
304.741	270.69
304.971	302.69
305.201	295.69
305.431	279.69
305.661	280.69
305.891	286.69
306.121	286.69
306.352	294.69
306.582	288.69
306.812	290.69
307.042	286.69
307.272	299.69
307.502	296.69
307.731	297.69
307.961	294.69
308.191	310.69
308.421	306.69
308.651	289.69
308.881	306.69
309.111	307.69
309.341	307.69
309.571	307.69
309.8	343.69
310.03	325.69
310.26	328.69
310.49	338.69
310.72	353.69
310.949	358.69
311.179	376.69
311.409	349.69
311.639	328.69
311.868	332.69
312.098	348.69
312.328	356.69
312.557	376.69
312.787	386.69
313.017	374.69
313.246	345.69
313.476	342.69
313.706	325.69
313.935	353.69
314.165	365.69
314.394	370.69
314.624	352.69
314.853	367.69
315.083	331.69
315.312	334.69
315.542	334.69
315.771	338.69
316.001	343.69
316.23	327.69
316.46	319.69
316.689	329.69
316.919	348.69
317.148	356.69
317.377	353.69
317.607	337.69
317.836	345.69
318.065	338.69
318.295	340.69
318.524	321.69
318.753	339.69
318.983	334.69
319.212	333.69
319.441	356.69
319.67	362.69
319.9	355.69
320.129	360.69
320.358	336.69
320.587	353.69
320.816	364.69
321.046	360.69
321.275	358.69
321.504	385.69
321.733	363.69
321.962	374.69
322.191	372.69
322.42	401.69
322.649	419.69
322.878	428.69
323.108	439.69
323.337	450.69
323.566	486.69
323.795	494.69
324.024	547.69
324.253	678.69
324.482	972.69
324.71	1565.69
324.939	2314.69
325.168	2021.69
325.397	1042.69
325.626	651.69
325.855	536.69
326.084	497.69
326.313	476.69
326.542	470.69
326.77	532.69
326.999	623.69
327.228	902.69
327.457	1405.69
327.686	1725.69
327.914	1124.69
328.143	724.69
328.372	597.69
328.6	574.69
328.829	531.69
329.058	547.69
329.287	576.69
329.515	532.69
329.744	480.69
329.972	495.69
330.201	518.69
330.43	544.69
330.658	567.69
330.887	609.69
331.115	573.69
331.344	496.69
331.572	475.69
331.801	448.69
332.03	455.69
332.258	415.69
332.486	415.69
332.715	398.69
332.943	404.69
333.172	410.69
333.4	416.69
333.629	420.69
333.857	422.69
334.085	445.69
334.314	466.69
334.542	504.69
334.771	503.69
334.999	470.69
335.227	428.69
335.455	408.69
335.684	381.69
335.912	403.69
336.14	383.69
336.369	389.69
336.597	393.69
336.825	414.69
337.053	378.69
337.281	383.69
337.51	384.69
337.738	390.69
337.966	395.69
338.194	394.69
338.422	389.69
338.65	380.69
338.878	378.69
339.106	397.69
339.334	377.69
339.562	366.69
339.79	382.69
340.018	378.69
340.246	390.69
340.474	394.69
340.702	364.69
340.93	390.69
341.158	362.69
341.386	365.69
341.614	397.69
341.842	370.69
342.07	380.69
342.298	370.69
342.526	382.69
342.754	371.69
342.981	345.69
343.209	353.69
343.437	361.69
343.665	350.69
343.893	368.69
344.12	364.69
344.348	373.69
344.576	391.69
344.804	372.69
345.031	399.69
345.259	408.69
345.487	387.69
345.714	378.69
345.942	374.69
346.17	366.69
346.397	361.69
346.625	365.69
346.853	363.69
347.08	369.69
347.308	376.69
347.535	369.69
347.763	376.69
347.99	390.69
348.218	386.69
348.445	379.69
348.673	381.69
348.9	382.69
349.128	362.69
349.355	364.69
349.583	361.69
349.81	353.69
350.037	339.69
350.265	373.69
350.492	353.69
350.72	360.69
350.947	363.69
351.174	377.69
351.402	395.69
351.629	372.69
351.856	378.69
352.083	382.69
352.311	385.69
352.538	381.69
352.765	387.69
352.992	405.69
353.22	368.69
353.447	379.69
353.674	358.69
353.901	355.69
354.128	344.69
354.355	357.69
354.583	343.69
354.81	341.69
355.037	333.69
355.264	318.69
355.491	333.69
355.718	340.69
355.945	333.69
356.172	339.69
356.399	339.69
356.626	322.69
356.853	337.69
357.08	348.69
357.307	329.69
357.534	338.69
357.761	327.69
357.988	352.69
358.215	339.69
358.441	338.69
358.668	350.69
358.895	349.69
359.122	332.69
359.349	354.69
359.576	362.69
359.802	387.69
360.029	420.69
360.256	442.69
360.483	422.69
360.709	372.69
360.936	369.69
361.163	365.69
361.39	366.69
361.616	374.69
361.843	370.69
362.07	356.69
362.296	346.69
362.523	368.69
362.749	373.69
362.976	352.69
363.203	353.69
363.429	340.69
363.656	338.69
363.882	353.69
364.109	346.69
364.335	339.69
364.562	368.69
364.788	349.69
365.015	363.69
365.241	348.69
365.468	345.69
365.694	336.69
365.92	369.69
366.147	336.69
366.373	331.69
366.599	334.69
366.826	328.69
367.052	340.69
367.278	338.69
367.505	363.69
367.731	353.69
367.957	336.69
368.184	335.69
368.41	351.69
368.636	351.69
368.862	365.69
369.089	353.69
369.315	364.69
369.541	343.69
369.767	349.69
369.993	336.69
370.219	339.69
370.445	357.69
370.672	322.69
370.898	328.69
371.124	330.69
371.35	331.69
371.576	329.69
371.802	348.69
372.028	329.69
372.254	333.69
372.48	323.69
372.706	328.69
372.932	325.69
373.158	331.69
373.384	336.69
373.61	336.69
373.835	334.69
374.061	328.69
374.287	344.69
374.513	341.69
374.739	336.69
374.965	336.69
375.191	328.69
375.416	339.69
375.642	322.69
375.868	327.69
376.094	348.69
376.319	332.69
376.545	352.69
376.771	325.69
376.997	322.69
377.222	323.69
377.448	307.69
377.674	341.69
377.899	308.69
378.125	325.69
378.35	329.69
378.576	350.69
378.802	321.69
379.027	333.69
379.253	320.69
379.478	332.69
379.704	332.69
379.929	344.69
380.155	349.69
380.38	341.69
380.606	337.69
380.831	333.69
381.057	341.69
381.282	324.69
381.507	330.69
381.733	328.69
381.958	348.69
382.184	345.69
382.409	337.69
382.634	336.69
382.86	335.69
383.085	359.69
383.31	346.69
383.535	344.69
383.761	334.69
383.986	352.69
384.211	354.69
384.436	349.69
384.662	373.69
384.887	359.69
385.112	342.69
385.337	331.69
385.562	356.69
385.787	359.69
386.013	365.69
386.238	346.69
386.463	355.69
386.688	364.69
386.913	350.69
387.138	347.69
387.363	334.69
387.588	372.69
387.813	362.69
388.038	360.69
388.263	351.69
388.488	354.69
388.713	369.69
388.938	354.69
389.163	349.69
389.387	364.69
389.612	341.69
389.837	363.69
390.062	337.69
390.287	347.69
390.512	334.69
390.736	363.69
390.961	379.69
391.186	340.69
391.411	376.69
391.636	357.69
391.86	355.69
392.085	373.69
392.31	356.69
392.534	370.69
392.759	373.69
392.984	363.69
393.208	372.69
393.433	369.69
393.658	398.69
393.882	359.69
394.107	347.69
394.331	351.69
394.556	347.69
394.78	348.69
395.005	371.69
395.229	364.69
395.454	384.69
395.678	376.69
395.903	385.69
396.127	402.69
396.352	389.69
396.576	370.69
396.801	359.69
397.025	380.69
397.249	368.69
397.474	372.69
397.698	373.69
397.922	384.69
398.147	394.69
398.371	404.69
398.595	404.69
398.82	409.69
399.044	411.69
399.268	396.69
399.492	419.69
399.717	422.69
399.941	453.69
400.165	476.69
400.389	518.69
400.613	458.69
400.837	418.69
401.062	420.69
401.286	410.69
401.51	419.69
401.734	382.69
401.958	393.69
402.182	397.69
402.406	418.69
402.63	416.69
402.854	400.69
403.078	407.69
403.302	419.69
403.526	419.69
403.75	412.69
403.974	427.69
404.198	424.69
404.422	417.69
404.645	430.69
404.869	445.69
405.093	456.69
405.317	499.69
405.541	550.69
405.765	488.69
405.988	471.69
406.212	438.69
406.436	487.69
406.66	493.69
406.883	462.69
407.107	482.69
407.331	514.69
407.555	588.69
407.778	573.69
408.002	515.69
408.226	469.69
408.449	478.69
408.673	465.69
408.896	514.69
409.12	533.69
409.344	499.69
409.567	444.69
409.791	442.69
410.014	447.69
410.238	416.69
410.461	421.69
410.685	453.69
410.908	436.69
411.132	481.69
411.355	519.69
411.578	493.69
411.802	445.69
412.025	425.69
412.249	439.69
412.472	462.69
412.695	507.69
412.919	483.69
413.142	444.69
413.365	406.69
413.589	426.69
413.812	400.69
414.035	414.69
414.258	408.69
414.482	396.69
414.705	410.69
414.928	404.69
415.151	392.69
415.374	383.69
415.597	380.69
415.821	407.69
416.044	395.69
416.267	399.69
416.49	400.69
416.713	380.69
416.936	377.69
417.159	379.69
417.382	401.69
417.605	393.69
417.828	417.69
418.051	419.69
418.274	403.69
418.497	429.69
418.72	418.69
418.943	389.69
419.166	410.69
419.389	429.69
419.611	425.69
419.834	430.69
420.057	425.69
420.28	420.69
420.503	416.69
420.726	407.69
420.948	433.69
421.171	466.69
421.394	514.69
421.617	442.69
421.839	410.69
422.062	416.69
422.285	430.69
422.507	463.69
422.73	586.69
422.953	522.69
423.175	468.69
423.398	462.69
423.621	454.69
423.843	476.69
424.066	453.69
424.288	436.69
424.511	479.69
424.733	519.69
424.956	611.69
425.178	577.69
425.401	565.69
425.623	608.69
425.846	494.69
426.068	467.69
426.291	476.69
426.513	458.69
426.735	446.69
426.958	509.69
427.18	594.69
427.402	726.69
427.625	797.69
427.847	691.69
428.069	610.69
428.292	523.69
428.514	485.69
428.736	429.69
428.958	438.69
429.181	432.69
429.403	428.69
429.625	442.69
429.847	478.69
430.069	555.69
430.292	552.69
430.514	444.69
430.736	405.69
430.958	424.69
431.18	404.69
431.402	409.69
431.624	401.69
431.846	389.69
432.068	407.69
432.29	408.69
432.512	410.69
432.734	418.69
432.956	417.69
433.178	399.69
433.4	427.69
433.622	428.69
433.844	423.69
434.066	401.69
434.287	388.69
434.509	412.69
434.731	416.69
434.953	405.69
435.175	446.69
435.397	464.69
435.618	485.69
435.84	497.69
436.062	585.69
436.284	646.69
436.505	562.69
436.727	516.69
436.949	460.69
437.17	420.69
437.392	441.69
437.614	471.69
437.835	471.69
438.057	585.69
438.278	672.69
438.5	654.69
438.721	704.69
438.943	709.69
439.165	551.69
439.386	489.69
439.608	475.69
439.829	485.69
440.05	508.69
440.272	570.69
440.493	514.69
440.715	465.69
440.936	452.69
441.158	436.69
441.379	439.69
441.6	441.69
441.822	470.69
442.043	497.69
442.264	569.69
442.486	668.69
442.707	539.69
442.928	497.69
443.149	480.69
443.371	493.69
443.592	544.69
443.813	625.69
444.034	684.69
444.255	559.69
444.476	493.69
444.698	477.69
444.919	455.69
445.14	560.69
445.361	520.69
445.582	525.69
445.803	574.69
446.024	672.69
446.245	682.69
446.466	631.69
446.687	527.69
446.908	494.69
447.129	447.69
447.35	450.69
447.571	468.69
447.792	423.69
448.013	448.69
448.234	455.69
448.455	508.69
448.675	619.69
448.896	692.69
449.117	606.69
449.338	604.69
449.559	668.69
449.779	794.69
450	604.69
450.221	508.69
450.442	480.69
450.662	438.69
450.883	448.69
451.104	464.69
451.324	462.69
451.545	420.69
451.766	407.69
451.986	377.69
452.207	373.69
452.428	398.69
452.648	375.69
452.869	411.69
453.089	409.69
453.31	416.69
453.53	396.69
453.751	394.69
453.971	395.69
454.192	394.69
454.412	432.69
454.633	400.69
454.853	371.69
455.073	379.69
455.294	407.69
455.514	473.69
455.734	467.69
455.955	407.69
456.175	388.69
456.395	367.69
456.616	360.69
456.836	360.69
457.056	372.69
457.276	346.69
457.497	352.69
457.717	362.69
457.937	368.69
458.157	362.69
458.377	384.69
458.598	398.69
458.818	470.69
459.038	540.69
459.258	540.69
459.478	474.69
459.698	413.69
459.918	409.69
460.138	390.69
460.358	388.69
460.578	392.69
460.798	393.69
461.018	391.69
461.238	399.69
461.458	396.69
461.678	400.69
461.898	408.69
462.118	391.69
462.338	413.69
462.558	398.69
462.777	426.69
462.997	442.69
463.217	433.69
463.437	430.69
463.657	427.69
463.876	402.69
464.096	418.69
464.316	415.69
464.536	428.69
464.755	434.69
464.975	429.69
465.195	497.69
465.414	566.69
465.634	489.69
465.854	443.69
466.073	413.69
466.293	409.69
466.512	395.69
466.732	390.69
466.951	417.69
467.171	385.69
467.391	402.69
467.61	405.69
467.829	441.69
468.049	430.69
468.268	418.69
468.488	380.69
468.707	374.69
468.927	370.69
469.146	381.69
469.365	392.69
469.585	392.69
469.804	398.69
470.023	410.69
470.243	396.69
470.462	395.69
470.681	429.69
470.901	420.69
471.12	402.69
471.339	401.69
471.558	406.69
471.777	410.69
471.997	394.69
472.216	408.69
472.435	458.69
472.654	424.69
472.873	411.69
473.092	398.69
473.311	390.69
473.53	400.69
473.749	408.69
473.968	467.69
474.187	549.69
474.406	581.69
474.625	473.69
474.844	415.69
475.063	385.69
475.282	394.69
475.501	433.69
475.72	404.69
475.939	401.69
476.158	415.69
476.377	411.69
476.596	411.69
476.814	410.69
477.033	424.69
477.252	427.69
477.471	407.69
477.69	416.69
477.908	412.69
478.127	421.69
478.346	429.69
478.564	424.69
478.783	426.69
479.002	442.69
479.22	448.69
479.439	460.69
479.658	477.69
479.876	492.69
480.095	476.69
480.313	519.69
480.532	518.69
480.751	484.69
480.969	509.69
481.188	567.69
481.406	591.69
481.624	525.69
481.843	485.69
482.061	474.69
482.28	458.69
482.498	456.69
482.717	470.69
482.935	484.69
483.153	468.69
483.372	451.69
483.59	485.69
483.808	458.69
484.027	479.69
484.245	469.69
484.463	464.69
484.681	478.69
484.9	457.69
485.118	496.69
485.336	456.69
485.554	476.69
485.772	463.69
485.99	480.69
486.209	474.69
486.427	488.69
486.645	463.69
486.863	501.69
487.081	515.69
487.299	530.69
487.517	499.69
487.735	530.69
487.953	499.69
488.171	499.69
488.389	505.69
488.607	512.69
488.825	509.69
489.043	496.69
489.261	496.69
489.479	513.69
489.696	510.69
489.914	505.69
490.132	513.69
490.35	517.69
490.568	540.69
490.786	553.69
491.003	546.69
491.221	549.69
491.439	574.69
491.657	562.69
491.874	573.69
492.092	580.69
492.31	604.69
492.527	564.69
492.745	550.69
492.963	568.69
493.18	570.69
493.398	588.69
493.615	592.69
493.833	590.69
494.05	605.69
494.268	579.69
494.485	599.69
494.703	583.69
494.92	614.69
495.138	614.69
495.355	603.69
495.573	600.69
495.79	612.69
496.008	602.69
496.225	614.69
496.442	598.69
496.66	604.69
496.877	624.69
497.094	589.69
497.312	633.69
497.529	627.69
497.746	609.69
497.963	619.69
498.181	621.69
498.398	642.69
498.615	635.69
498.832	664.69
499.049	649.69
499.267	648.69
499.484	675.69
499.701	670.69
499.918	699.69
500.135	743.69
500.352	747.69
500.569	755.69
500.786	748.69
501.003	772.69
501.22	760.69
501.437	724.69
501.654	759.69
501.871	747.69
502.088	709.69
502.305	682.69
502.522	662.69
502.739	647.69
502.956	644.69
503.172	633.69
503.389	645.69
503.606	647.69
503.823	639.69
504.04	638.69
504.256	618.69
504.473	594.69
504.69	577.69
504.907	605.69
505.123	591.69
505.34	578.69
505.557	600.69
505.773	606.69
505.99	586.69
506.207	568.69
506.423	577.69
506.64	574.69
506.856	581.69
507.073	569.69
507.289	561.69
507.506	578.69
507.722	565.69
507.939	621.69
508.155	585.69
508.372	550.69
508.588	544.69
508.805	564.69
509.021	562.69
509.238	587.69
509.454	573.69
509.67	577.69
509.887	589.69
510.103	572.69
510.319	551.69
510.536	666.69
510.752	1176.69
510.968	925.69
511.184	600.69
511.401	538.69
511.617	555.69
511.833	524.69
512.049	549.69
512.265	543.69
512.481	530.69
512.698	542.69
512.914	539.69
513.13	535.69
513.346	538.69
513.562	529.69
513.778	522.69
513.994	547.69
514.21	564.69
514.426	595.69
514.642	616.69
514.858	634.69
515.074	682.69
515.29	882.69
515.506	1314.69
515.721	1047.69
515.937	681.69
516.153	606.69
516.369	575.69
516.585	557.69
516.801	553.69
517.016	550.69
517.232	529.69
517.448	542.69
517.664	547.69
517.879	540.69
518.095	524.69
518.311	525.69
518.527	526.69
518.742	516.69
518.958	523.69
519.173	525.69
519.389	540.69
519.605	536.69
519.82	535.69
520.036	553.69
520.251	585.69
520.467	611.69
520.682	600.69
520.898	613.69
521.113	633.69
521.329	704.69
521.544	787.69
521.76	1036.69
521.975	1707.69
522.19	1683.69
522.406	921.69
522.621	694.69
522.836	615.69
523.052	548.69
523.267	541.69
523.482	523.69
523.698	493.69
523.913	524.69
524.128	492.69
524.343	484.69
524.559	476.69
524.774	492.69
524.989	473.69
525.204	484.69
525.419	488.69
525.634	472.69
525.849	455.69
526.064	439.69
526.28	450.69
526.495	445.69
526.71	422.69
526.925	436.69
527.14	423.69
527.355	445.69
527.57	446.69
527.785	439.69
527.999	450.69
528.214	432.69
528.429	425.69
528.644	451.69
528.859	439.69
529.074	437.69
529.289	476.69
529.503	548.69
529.718	515.69
529.933	475.69
530.148	448.69
530.363	442.69
530.577	450.69
530.792	421.69
531.007	418.69
531.221	420.69
531.436	437.69
531.651	414.69
531.865	413.69
532.08	411.69
532.295	411.69
532.509	412.69
532.724	423.69
532.938	403.69
533.153	402.69
533.367	375.69
533.582	382.69
533.796	408.69
534.011	411.69
534.225	413.69
534.44	422.69
534.654	385.69
534.868	394.69
535.083	413.69
535.297	395.69
535.511	408.69
535.726	416.69
535.94	410.69
536.154	403.69
536.369	402.69
536.583	396.69
536.797	390.69
537.011	403.69
537.225	385.69
537.44	391.69
537.654	408.69
537.868	386.69
538.082	407.69
538.296	388.69
538.51	411.69
538.724	389.69
538.938	391.69
539.153	398.69
539.367	415.69
539.581	418.69
539.795	387.69
540.009	393.69
540.222	375.69
540.436	403.69
540.65	404.69
540.864	408.69
541.078	391.69
541.292	417.69
541.506	419.69
541.72	374.69
541.934	388.69
542.147	422.69
542.361	379.69
542.575	396.69
542.789	395.69
543.002	409.69
543.216	408.69
543.43	394.69
543.644	404.69
543.857	404.69
544.071	382.69
544.285	408.69
544.498	387.69
544.712	382.69
544.925	400.69
545.139	398.69
545.352	400.69
545.566	386.69
545.779	359.69
545.993	378.69
546.206	377.69
546.42	382.69
546.633	386.69
546.847	370.69
547.06	388.69
547.274	359.69
547.487	369.69
547.7	384.69
547.914	364.69
548.127	386.69
548.34	376.69
548.554	368.69
548.767	368.69
548.98	360.69
549.193	352.69
549.407	358.69
549.62	363.69
549.833	360.69
550.046	363.69
550.259	370.69
550.473	355.69
550.686	368.69
550.899	362.69
551.112	358.69
551.325	358.69
551.538	352.69
551.751	359.69
551.964	357.69
552.177	362.69
552.39	377.69
552.603	371.69
552.816	371.69
553.029	369.69
553.242	373.69
553.455	368.69
553.667	360.69
553.88	390.69
554.093	354.69
554.306	380.69
554.519	374.69
554.732	363.69
554.944	361.69
555.157	361.69
555.37	363.69
555.583	355.69
555.795	361.69
556.008	371.69
556.221	352.69
556.433	361.69
556.646	347.69
556.859	346.69
557.071	332.69
557.284	336.69
557.496	344.69
557.709	335.69
557.921	318.69
558.134	336.69
558.346	334.69
558.559	335.69
558.771	318.69
558.984	335.69
559.196	343.69
559.409	329.69
559.621	340.69
559.833	336.69
560.046	318.69
560.258	331.69
560.47	324.69
560.683	318.69
560.895	331.69
561.107	342.69
561.32	336.69
561.532	315.69
561.744	330.69
561.956	329.69
562.168	343.69
562.381	330.69
562.593	320.69
562.805	310.69
563.017	325.69
563.229	347.69
563.441	340.69
563.653	332.69
563.865	344.69
564.077	332.69
564.289	338.69
564.501	340.69
564.713	345.69
564.925	344.69
565.137	340.69
565.349	371.69
565.561	363.69
565.773	345.69
565.985	357.69
566.197	353.69
566.408	354.69
566.62	373.69
566.832	373.69
567.044	380.69
567.255	373.69
567.467	408.69
567.679	374.69
567.891	399.69
568.102	385.69
568.314	369.69
568.526	346.69
568.737	343.69
568.949	342.69
569.161	331.69
569.372	326.69
569.584	347.69
569.795	347.69
570.007	336.69
570.218	377.69
570.43	365.69
570.641	330.69
570.853	321.69
571.064	318.69
571.276	308.69
571.487	320.69
571.698	324.69
571.91	322.69
572.121	318.69
572.333	309.69
572.544	306.69
572.755	299.69
572.966	302.69
573.178	299.69
573.389	320.69
573.6	305.69
573.811	308.69
574.023	298.69
574.234	312.69
574.445	314.69
574.656	278.69
574.867	284.69
575.078	286.69
575.289	283.69
575.501	286.69
575.712	288.69
575.923	285.69
576.134	266.69
576.345	304.69
576.556	267.69
576.767	287.69
576.978	288.69
577.188	273.69
577.399	271.69
577.61	287.69
577.821	291.69
578.032	298.69
578.243	333.69
578.454	564.69
578.665	390.69
578.875	295.69
579.086	296.69
579.297	291.69
579.508	272.69
579.718	277.69
579.929	278.69
580.14	274.69
580.35	272.69
580.561	294.69
580.772	276.69
580.982	254.69
581.193	274.69
581.403	280.69
581.614	261.69
581.825	270.69
582.035	269.69
582.246	259.69
582.456	270.69
582.667	268.69
582.877	270.69
583.087	271.69
583.298	270.69
583.508	254.69
583.719	270.69
583.929	262.69
584.139	259.69
584.35	267.69
584.56	245.69
584.77	269.69
584.981	278.69
585.191	246.69
585.401	260.69
585.611	233.69
585.821	268.69
586.032	268.69
586.242	266.69
586.452	286.69
586.662	268.69
586.872	250.69
587.082	253.69
587.292	244.69
587.502	241.69
587.713	257.69
587.923	267.69
588.133	268.69
588.343	242.69
588.553	250.69
588.762	265.69
588.972	269.69
589.182	265.69
589.392	278.69
589.602	260.69
589.812	258.69
590.022	254.69
590.232	247.69
590.441	261.69
590.651	269.69
590.861	236.69
591.071	260.69
591.281	246.69
591.49	256.69
591.7	243.69
591.91	266.69
592.119	256.69
592.329	238.69
592.539	269.69
592.748	258.69
592.958	247.69
593.167	269.69
593.377	270.69
593.587	277.69
593.796	265.69
594.006	241.69
594.215	258.69
594.424	259.69
594.634	243.69
594.843	243.69
595.053	245.69
595.262	258.69
595.472	265.69
595.681	274.69
595.89	246.69
596.1	255.69
596.309	249.69
596.518	245.69
596.727	253.69
596.937	232.69
597.146	249.69
597.355	242.69
597.564	246.69
597.774	237.69
597.983	227.69
598.192	230.69
598.401	238.69
598.61	244.69
598.819	209.69
599.028	232.69
599.237	224.69
599.446	249.69
599.655	221.69
599.864	234.69
600.073	211.69
600.282	235.69
600.491	238.69
600.7	253.69
600.909	230.69
601.118	226.69
601.327	222.69
601.536	218.69
601.745	230.69
601.953	238.69
602.162	226.69
602.371	210.69
602.58	212.69
602.789	230.69
602.997	219.69
603.206	209.69
603.415	221.69
603.623	218.69
603.832	223.69
604.041	227.69
604.249	232.69
604.458	216.69
604.666	220.69
604.875	225.69
605.084	214.69
605.292	208.69
605.501	209.69
605.709	205.69
605.918	217.69
606.126	220.69
606.334	230.69
606.543	229.69
606.751	212.69
606.96	212.69
607.168	224.69
607.376	221.69
607.585	207.69
607.793	214.69
608.001	221.69
608.21	213.69
608.418	219.69
608.626	199.69
608.834	228.69
609.043	207.69
609.251	202.69
609.459	215.69
609.667	198.69
609.875	214.69
610.083	199.69
610.291	214.69
610.499	200.69
610.707	214.69
610.916	220.69
611.124	214.69
611.332	211.69
611.54	227.69
611.748	218.69
611.955	211.69
612.163	210.69
612.371	215.69
612.579	201.69
612.787	211.69
612.995	197.69
613.203	209.69
613.411	203.69
613.618	192.69
613.826	203.69
614.034	209.69
614.242	206.69
614.449	205.69
614.657	206.69
614.865	221.69
615.072	216.69
615.28	215.69
615.488	202.69
615.695	215.69
615.903	202.69
616.111	203.69
616.318	214.69
616.526	207.69
616.733	201.69
616.941	195.69
617.148	194.69
617.356	204.69
617.563	197.69
617.771	204.69
617.978	203.69
618.185	223.69
618.393	214.69
618.6	196.69
618.807	228.69
619.015	195.69
619.222	199.69
619.429	196.69
619.637	210.69
619.844	200.69
620.051	183.69
620.258	196.69
620.466	201.69
620.673	189.69
620.88	161.69
621.087	191.69
621.294	207.69
621.501	205.69
621.708	186.69
621.915	217.69
622.122	193.69
622.329	192.69
622.536	189.69
622.743	205.69
622.95	188.69
623.157	194.69
623.364	191.69
623.571	203.69
623.778	189.69
623.985	196.69
624.192	192.69
624.399	188.69
624.606	193.69
624.812	188.69
625.019	192.69
625.226	187.69
625.433	201.69
625.639	188.69
625.846	187.69
626.053	194.69
626.259	186.69
626.466	185.69
626.673	179.69
626.879	158.69
627.086	192.69
627.293	186.69
627.499	165.69
627.706	186.69
627.912	176.69
628.119	190.69
628.325	198.69
628.532	173.69
628.738	173.69
628.945	185.69
629.151	176.69
629.357	177.69
629.564	181.69
629.77	176.69
629.976	170.69
630.183	181.69
630.389	181.69
630.595	188.69
630.802	178.69
631.008	170.69
631.214	169.69
631.42	176.69
631.627	178.69
631.833	189.69
632.039	182.69
632.245	178.69
632.451	157.69
632.657	180.69
632.863	182.69
633.069	164.69
633.275	166.69
633.481	178.69
633.688	173.69
633.893	168.69
634.099	173.69
634.305	180.69
634.511	150.69
634.717	162.69
634.923	161.69
635.129	157.69
635.335	161.69
635.541	156.69
635.747	171.69
635.952	170.69
636.158	163.69
636.364	181.69
636.57	169.69
636.775	180.69
636.981	161.69
637.187	164.69
637.392	180.69
637.598	154.69
637.804	157.69
638.009	176.69
638.215	144.69
638.421	169.69
638.626	156.69
638.832	146.69
639.037	157.69
639.243	159.69
639.448	142.69
639.654	153.69
639.859	147.69
640.065	150.69
640.27	163.69
640.475	158.69
640.681	152.69
640.886	154.69
641.091	160.69
641.297	155.69
641.502	151.69
641.707	148.69
641.913	165.69
642.118	153.69
642.323	152.69
642.528	158.69
642.733	147.69
642.939	156.69
643.144	156.69
643.349	159.69
643.554	148.69
643.759	162.69
643.964	138.69
644.169	135.69
644.374	143.69
644.579	138.69
644.784	165.69
644.989	163.69
645.194	148.69
645.399	138.69
645.604	141.69
645.809	160.69
646.014	142.69
646.219	162.69
646.423	144.69
646.628	168.69
646.833	163.69
647.038	172.69
647.243	155.69
647.447	142.69
647.652	151.69
647.857	150.69
648.062	149.69
648.266	158.69
648.471	166.69
648.676	152.69
648.88	152.69
649.085	162.69
649.289	152.69
649.494	157.69
649.698	179.69
649.903	182.69
650.107	144.69
650.312	156.69
650.516	162.69
650.721	159.69
650.925	129.69
651.13	141.69
651.334	133.69
651.539	153.69
651.743	137.69
651.947	144.69
652.152	140.69
652.356	132.69
652.56	137.69
652.764	143.69
652.969	140.69
653.173	122.69
653.377	120.69
653.581	126.69
653.785	131.69
653.99	120.69
654.194	113.69
654.398	132.69
654.602	104.69
654.806	127.69
655.01	135.69
655.214	126.69
655.418	111.69
655.622	118.69
655.826	123.69
656.03	130.69
656.234	130.69
656.438	131.69
656.642	119.69
656.846	112.69
657.049	133.69
657.253	126.69
657.457	121.69
657.661	117.69
657.865	112.69
658.068	101.69
658.272	95.69
658.476	97.69
658.68	100.69
658.883	117.69
659.087	107.69
659.291	87.69
659.494	105.69
659.698	95.69
659.901	102.69
660.105	98.69
660.309	93.69
660.512	90.69
660.716	92.69
660.919	98.69
661.123	103.69
661.326	94.69
661.53	85.69
661.733	90.69
661.936	72.69
662.14	81.69
662.343	90.69
662.546	85.69
662.75	102.69
662.953	83.69
663.156	83.69
663.36	83.69
663.563	79.69
663.766	83.69
663.969	84.69
664.173	88.69
664.376	88.69
664.579	72.69
664.782	87.69
664.985	70.69
665.188	89.69
665.391	80.69
665.594	73.69
665.797	93.69
666	86.69
666.203	90.69
666.406	85.69
666.609	74.69
666.812	77.69
667.015	79.69
667.218	87.69
667.421	72.69
667.624	80.69
667.827	75.69
668.03	92.69
668.232	86.69
668.435	64.69
668.638	93.69
668.841	106.69
669.043	92.69
669.246	102.69
669.449	80.69
669.651	89.69
669.854	81.69
670.057	93.69
670.259	86.69
670.462	90.69
670.665	84.69
670.867	73.69
671.07	87.69
671.272	85.69
671.475	87.69
671.677	89.69
671.88	76.69
672.082	76.69
672.284	70.69
672.487	80.69
672.689	74.69
672.892	77.69
