Data from 1972.PennyLincolnUp.Lamp.En5.5.200Scan.071719.P1._HRD10591_15-28-14-844.txt Node
Date: Thu Jul 18 15:28:14 EDT 2019
User: cochatt
Spectrometer: HR+D1059
Trigger mode: 1
Integration Time (sec): 1.000000E-1
Scans to average: 1
Electric dark correction enabled: true
Nonlinearity correction enabled: false
Boxcar width: 0
XAxis mode: Wavelengths
Number of Pixels in Spectrum: 2048
>>>>>Begin Spectral Data<<<<<
223.165	-26.12
223.4	-26.12
223.635	-26.12
223.869	-18.12
224.104	-18.12
224.338	-24.12
224.573	-11.12
224.808	-16.12
225.042	-8.12
225.277	6.88
225.511	-6.12
225.746	7.88
225.98	7.88
226.215	6.88
226.449	16.88
226.683	29.88
226.918	25.88
227.152	25.88
227.387	38.88
227.621	37.88
227.856	43.88
228.09	39.88
228.324	37.88
228.559	49.88
228.793	63.88
229.027	103.88
229.262	109.88
229.496	135.88
229.73	140.88
229.964	167.88
230.199	141.88
230.433	127.88
230.667	128.88
230.901	117.88
231.136	110.88
231.37	122.88
231.604	110.88
231.838	106.88
232.072	121.88
232.306	115.88
232.541	117.88
232.775	118.88
233.009	110.88
233.243	117.88
233.477	121.88
233.711	127.88
233.945	121.88
234.179	98.88
234.413	113.88
234.647	109.88
234.881	118.88
235.115	108.88
235.349	116.88
235.583	113.88
235.817	121.88
236.051	129.88
236.285	127.88
236.519	122.88
236.753	133.88
236.987	147.88
237.221	198.88
237.455	248.88
237.689	195.88
237.922	145.88
238.156	149.88
238.39	128.88
238.624	126.88
238.858	118.88
239.091	124.88
239.325	125.88
239.559	126.88
239.793	146.88
240.027	137.88
240.26	126.88
240.494	151.88
240.728	157.88
240.961	146.88
241.195	166.88
241.429	127.88
241.662	137.88
241.896	126.88
242.13	139.88
242.363	141.88
242.597	135.88
242.83	136.88
243.064	129.88
243.298	147.88
243.531	140.88
243.765	145.88
243.998	143.88
244.232	137.88
244.465	155.88
244.699	144.88
244.932	130.88
245.166	157.88
245.399	148.88
245.633	141.88
245.866	141.88
246.099	149.88
246.333	151.88
246.566	140.88
246.8	147.88
247.033	138.88
247.266	153.88
247.5	182.88
247.733	173.88
247.966	184.88
248.2	176.88
248.433	167.88
248.666	166.88
248.899	179.88
249.133	195.88
249.366	205.88
249.599	205.88
249.832	194.88
250.066	195.88
250.299	185.88
250.532	192.88
250.765	202.88
250.998	211.88
251.231	232.88
251.465	226.88
251.698	207.88
251.931	207.88
252.164	204.88
252.397	194.88
252.63	205.88
252.863	207.88
253.096	227.88
253.329	222.88
253.562	213.88
253.795	217.88
254.028	230.88
254.261	230.88
254.494	232.88
254.727	263.88
254.96	283.88
255.193	272.88
255.426	277.88
255.659	249.88
255.892	240.88
256.124	247.88
256.357	257.88
256.59	218.88
256.823	235.88
257.056	238.88
257.289	212.88
257.521	201.88
257.754	218.88
257.987	214.88
258.22	221.88
258.452	229.88
258.685	223.88
258.918	226.88
259.151	231.88
259.383	234.88
259.616	223.88
259.849	235.88
260.081	248.88
260.314	253.88
260.547	273.88
260.779	260.88
261.012	231.88
261.244	214.88
261.477	240.88
261.71	243.88
261.942	227.88
262.175	248.88
262.407	238.88
262.64	227.88
262.872	208.88
263.105	203.88
263.337	213.88
263.57	227.88
263.802	214.88
264.035	205.88
264.267	207.88
264.499	205.88
264.732	218.88
264.964	214.88
265.197	210.88
265.429	205.88
265.661	222.88
265.894	209.88
266.126	222.88
266.358	205.88
266.591	216.88
266.823	239.88
267.055	234.88
267.287	216.88
267.52	210.88
267.752	233.88
267.984	214.88
268.216	226.88
268.448	227.88
268.681	233.88
268.913	240.88
269.145	273.88
269.377	297.88
269.609	278.88
269.841	277.88
270.073	277.88
270.306	294.88
270.538	313.88
270.77	321.88
271.002	317.88
271.234	298.88
271.466	321.88
271.698	325.88
271.93	329.88
272.162	336.88
272.394	326.88
272.626	319.88
272.858	313.88
273.09	284.88
273.322	293.88
273.553	279.88
273.785	279.88
274.017	277.88
274.249	282.88
274.481	263.88
274.713	280.88
274.945	270.88
275.176	261.88
275.408	273.88
275.64	266.88
275.872	266.88
276.104	262.88
276.335	281.88
276.567	271.88
276.799	321.88
277.031	327.88
277.262	326.88
277.494	326.88
277.726	309.88
277.957	292.88
278.189	295.88
278.421	294.88
278.652	273.88
278.884	259.88
279.115	268.88
279.347	251.88
279.579	259.88
279.81	266.88
280.042	267.88
280.273	262.88
280.505	245.88
280.736	265.88
280.968	264.88
281.199	263.88
281.431	278.88
281.662	275.88
281.894	265.88
282.125	284.88
282.356	289.88
282.588	305.88
282.819	317.88
283.051	289.88
283.282	257.88
283.513	278.88
283.745	264.88
283.976	267.88
284.207	289.88
284.439	276.88
284.67	276.88
284.901	255.88
285.132	277.88
285.364	270.88
285.595	278.88
285.826	256.88
286.057	252.88
286.288	266.88
286.52	252.88
286.751	277.88
286.982	287.88
287.213	271.88
287.444	288.88
287.675	288.88
287.906	288.88
288.138	313.88
288.369	298.88
288.6	302.88
288.831	279.88
289.062	295.88
289.293	273.88
289.524	267.88
289.755	281.88
289.986	263.88
290.217	271.88
290.448	276.88
290.679	280.88
290.91	293.88
291.141	259.88
291.371	292.88
291.602	281.88
291.833	243.88
292.064	272.88
292.295	295.88
292.526	283.88
292.757	271.88
292.987	295.88
293.218	262.88
293.449	265.88
293.68	271.88
293.91	277.88
294.141	262.88
294.372	285.88
294.603	268.88
294.833	291.88
295.064	280.88
295.295	284.88
295.525	281.88
295.756	289.88
295.987	314.88
296.217	313.88
296.448	325.88
296.679	298.88
296.909	290.88
297.14	280.88
297.37	290.88
297.601	287.88
297.831	283.88
298.062	270.88
298.292	274.88
298.523	287.88
298.753	298.88
298.984	276.88
299.214	314.88
299.445	300.88
299.675	295.88
299.905	295.88
300.136	311.88
300.366	289.88
300.597	287.88
300.827	304.88
301.057	316.88
301.288	323.88
301.518	325.88
301.748	308.88
301.979	307.88
302.209	279.88
302.439	309.88
302.669	310.88
302.9	322.88
303.13	292.88
303.36	327.88
303.59	317.88
303.82	333.88
304.051	332.88
304.281	315.88
304.511	293.88
304.741	317.88
304.971	315.88
305.201	299.88
305.431	305.88
305.661	319.88
305.891	295.88
306.121	298.88
306.352	336.88
306.582	334.88
306.812	310.88
307.042	317.88
307.272	339.88
307.502	310.88
307.731	321.88
307.961	333.88
308.191	326.88
308.421	321.88
308.651	339.88
308.881	327.88
309.111	325.88
309.341	350.88
309.571	345.88
309.8	342.88
310.03	355.88
310.26	382.88
310.49	381.88
310.72	371.88
310.949	384.88
311.179	418.88
311.409	387.88
311.639	371.88
311.868	366.88
312.098	369.88
312.328	378.88
312.557	401.88
312.787	392.88
313.017	406.88
313.246	381.88
313.476	361.88
313.706	365.88
313.935	380.88
314.165	383.88
314.394	401.88
314.624	394.88
314.853	389.88
315.083	397.88
315.312	371.88
315.542	372.88
315.771	373.88
316.001	337.88
316.23	366.88
316.46	358.88
316.689	354.88
316.919	366.88
317.148	378.88
317.377	379.88
317.607	364.88
317.836	379.88
318.065	393.88
318.295	366.88
318.524	369.88
318.753	375.88
318.983	374.88
319.212	367.88
319.441	381.88
319.67	405.88
319.9	374.88
320.129	365.88
320.358	368.88
320.587	385.88
320.816	391.88
321.046	412.88
321.275	400.88
321.504	383.88
321.733	422.88
321.962	401.88
322.191	423.88
322.42	438.88
322.649	444.88
322.878	475.88
323.108	489.88
323.337	509.88
323.566	520.88
323.795	551.88
324.024	641.88
324.253	773.88
324.482	1150.88
324.71	1800.88
324.939	2602.88
325.168	2317.88
325.397	1145.88
325.626	773.88
325.855	606.88
326.084	565.88
326.313	549.88
326.542	553.88
326.77	606.88
326.999	701.88
327.228	1023.88
327.457	1599.88
327.686	2002.88
327.914	1325.88
328.143	842.88
328.372	701.88
328.6	646.88
328.829	629.88
329.058	623.88
329.287	637.88
329.515	596.88
329.744	540.88
329.972	544.88
330.201	573.88
330.43	618.88
330.658	623.88
330.887	668.88
331.115	665.88
331.344	568.88
331.572	493.88
331.801	502.88
332.03	491.88
332.258	491.88
332.486	443.88
332.715	440.88
332.943	424.88
333.172	433.88
333.4	423.88
333.629	455.88
333.857	453.88
334.085	482.88
334.314	514.88
334.542	517.88
334.771	571.88
334.999	517.88
335.227	469.88
335.455	459.88
335.684	455.88
335.912	418.88
336.14	433.88
336.369	417.88
336.597	436.88
336.825	438.88
337.053	430.88
337.281	420.88
337.51	391.88
337.738	432.88
337.966	405.88
338.194	409.88
338.422	404.88
338.65	415.88
338.878	407.88
339.106	390.88
339.334	400.88
339.562	407.88
339.79	421.88
340.018	406.88
340.246	422.88
340.474	410.88
340.702	414.88
340.93	426.88
341.158	425.88
341.386	408.88
341.614	419.88
341.842	420.88
342.07	437.88
342.298	402.88
342.526	389.88
342.754	380.88
342.981	390.88
343.209	397.88
343.437	389.88
343.665	393.88
343.893	383.88
344.12	414.88
344.348	399.88
344.576	400.88
344.804	397.88
345.031	403.88
345.259	406.88
345.487	433.88
345.714	421.88
345.942	398.88
346.17	379.88
346.397	392.88
346.625	390.88
346.853	403.88
347.08	413.88
347.308	404.88
347.535	410.88
347.763	422.88
347.99	426.88
348.218	427.88
348.445	421.88
348.673	423.88
348.9	415.88
349.128	405.88
349.355	376.88
349.583	387.88
349.81	381.88
350.037	388.88
350.265	366.88
350.492	374.88
350.72	383.88
350.947	382.88
351.174	409.88
351.402	421.88
351.629	407.88
351.856	399.88
352.083	425.88
352.311	425.88
352.538	413.88
352.765	427.88
352.992	406.88
353.22	414.88
353.447	422.88
353.674	389.88
353.901	375.88
354.128	372.88
354.355	374.88
354.583	354.88
354.81	362.88
355.037	362.88
355.264	358.88
355.491	360.88
355.718	342.88
355.945	369.88
356.172	356.88
356.399	356.88
356.626	361.88
356.853	366.88
357.08	372.88
357.307	340.88
357.534	351.88
357.761	370.88
357.988	375.88
358.215	345.88
358.441	355.88
358.668	376.88
358.895	362.88
359.122	343.88
359.349	378.88
359.576	404.88
359.802	433.88
360.029	454.88
360.256	478.88
360.483	442.88
360.709	401.88
360.936	403.88
361.163	404.88
361.39	393.88
361.616	402.88
361.843	381.88
362.07	392.88
362.296	400.88
362.523	394.88
362.749	384.88
362.976	379.88
363.203	382.88
363.429	374.88
363.656	385.88
363.882	381.88
364.109	377.88
364.335	380.88
364.562	366.88
364.788	366.88
365.015	366.88
365.241	381.88
365.468	367.88
365.694	382.88
365.92	374.88
366.147	370.88
366.373	376.88
366.599	356.88
366.826	362.88
367.052	362.88
367.278	370.88
367.505	378.88
367.731	357.88
367.957	370.88
368.184	361.88
368.41	361.88
368.636	369.88
368.862	401.88
369.089	384.88
369.315	373.88
369.541	356.88
369.767	360.88
369.993	348.88
370.219	356.88
370.445	353.88
370.672	342.88
370.898	349.88
371.124	392.88
371.35	379.88
371.576	354.88
371.802	359.88
372.028	371.88
372.254	359.88
372.48	360.88
372.706	347.88
372.932	361.88
373.158	370.88
373.384	364.88
373.61	349.88
373.835	372.88
374.061	341.88
374.287	383.88
374.513	369.88
374.739	377.88
374.965	357.88
375.191	371.88
375.416	369.88
375.642	378.88
375.868	353.88
376.094	346.88
376.319	347.88
376.545	350.88
376.771	341.88
376.997	347.88
377.222	369.88
377.448	348.88
377.674	353.88
377.899	357.88
378.125	354.88
378.35	363.88
378.576	362.88
378.802	348.88
379.027	347.88
379.253	354.88
379.478	374.88
379.704	356.88
379.929	347.88
380.155	335.88
380.38	349.88
380.606	378.88
380.831	348.88
381.057	356.88
381.282	357.88
381.507	355.88
381.733	362.88
381.958	344.88
382.184	376.88
382.409	371.88
382.634	358.88
382.86	358.88
383.085	356.88
383.31	377.88
383.535	369.88
383.761	386.88
383.986	364.88
384.211	373.88
384.436	361.88
384.662	372.88
384.887	369.88
385.112	360.88
385.337	371.88
385.562	371.88
385.787	368.88
386.013	397.88
386.238	395.88
386.463	395.88
386.688	382.88
386.913	382.88
387.138	356.88
387.363	367.88
387.588	380.88
387.813	373.88
388.038	394.88
388.263	382.88
388.488	393.88
388.713	372.88
388.938	381.88
389.163	380.88
389.387	381.88
389.612	380.88
389.837	371.88
390.062	381.88
390.287	372.88
390.512	381.88
390.736	390.88
390.961	370.88
391.186	371.88
391.411	397.88
391.636	382.88
391.86	370.88
392.085	378.88
392.31	369.88
392.534	385.88
392.759	404.88
392.984	399.88
393.208	385.88
393.433	391.88
393.658	403.88
393.882	383.88
394.107	366.88
394.331	387.88
394.556	369.88
394.78	384.88
395.005	380.88
395.229	358.88
395.454	378.88
395.678	401.88
395.903	400.88
396.127	434.88
396.352	420.88
396.576	411.88
396.801	407.88
397.025	407.88
397.249	409.88
397.474	391.88
397.698	407.88
397.922	425.88
398.147	417.88
398.371	415.88
398.595	390.88
398.82	415.88
399.044	399.88
399.268	424.88
399.492	441.88
399.717	468.88
399.941	487.88
400.165	528.88
400.389	535.88
400.613	497.88
400.837	481.88
401.062	433.88
401.286	433.88
401.51	439.88
401.734	411.88
401.958	439.88
402.182	426.88
402.406	457.88
402.63	440.88
402.854	446.88
403.078	436.88
403.302	441.88
403.526	430.88
403.75	449.88
403.974	445.88
404.198	420.88
404.422	467.88
404.645	481.88
404.869	480.88
405.093	505.88
405.317	539.88
405.541	562.88
405.765	533.88
405.988	493.88
406.212	495.88
406.436	524.88
406.66	523.88
406.883	483.88
407.107	513.88
407.331	551.88
407.555	597.88
407.778	602.88
408.002	558.88
408.226	523.88
408.449	513.88
408.673	509.88
408.896	549.88
409.12	571.88
409.344	546.88
409.567	476.88
409.791	445.88
410.014	442.88
410.238	468.88
410.461	451.88
410.685	446.88
410.908	471.88
411.132	491.88
411.355	546.88
411.578	493.88
411.802	481.88
412.025	445.88
412.249	456.88
412.472	497.88
412.695	553.88
412.919	524.88
413.142	486.88
413.365	452.88
413.589	425.88
413.812	419.88
414.035	407.88
414.258	416.88
414.482	414.88
414.705	419.88
414.928	413.88
415.151	412.88
415.374	414.88
415.597	389.88
415.821	398.88
416.044	409.88
416.267	420.88
416.49	411.88
416.713	405.88
416.936	423.88
417.159	438.88
417.382	437.88
417.605	435.88
417.828	445.88
418.051	474.88
418.274	451.88
418.497	425.88
418.72	439.88
418.943	414.88
419.166	418.88
419.389	474.88
419.611	464.88
419.834	449.88
420.057	464.88
420.28	455.88
420.503	451.88
420.726	456.88
420.948	464.88
421.171	492.88
421.394	549.88
421.617	498.88
421.839	448.88
422.062	445.88
422.285	457.88
422.507	522.88
422.73	601.88
422.953	573.88
423.175	515.88
423.398	489.88
423.621	484.88
423.843	494.88
424.066	478.88
424.288	486.88
424.511	531.88
424.733	577.88
424.956	674.88
425.178	632.88
425.401	641.88
425.623	663.88
425.846	571.88
426.068	497.88
426.291	497.88
426.513	491.88
426.735	500.88
426.958	565.88
427.18	632.88
427.402	777.88
427.625	839.88
427.847	760.88
428.069	668.88
428.292	602.88
428.514	511.88
428.736	502.88
428.958	501.88
429.181	472.88
429.403	466.88
429.625	473.88
429.847	488.88
430.069	587.88
430.292	597.88
430.514	488.88
430.736	451.88
430.958	447.88
431.18	469.88
431.402	437.88
431.624	432.88
431.846	410.88
432.068	426.88
432.29	442.88
432.512	449.88
432.734	437.88
432.956	442.88
433.178	447.88
433.4	455.88
433.622	454.88
433.844	439.88
434.066	417.88
434.287	433.88
434.509	426.88
434.731	431.88
434.953	420.88
435.175	466.88
435.397	478.88
435.618	514.88
435.84	543.88
436.062	647.88
436.284	707.88
436.505	578.88
436.727	523.88
436.949	483.88
437.17	483.88
437.392	462.88
437.614	501.88
437.835	515.88
438.057	634.88
438.278	729.88
438.5	751.88
438.721	803.88
438.943	734.88
439.165	621.88
439.386	563.88
439.608	550.88
439.829	539.88
440.05	577.88
440.272	601.88
440.493	579.88
440.715	521.88
440.936	491.88
441.158	478.88
441.379	460.88
441.6	484.88
441.822	490.88
442.043	549.88
442.264	633.88
442.486	659.88
442.707	563.88
442.928	539.88
443.149	533.88
443.371	557.88
443.592	609.88
443.813	709.88
444.034	753.88
444.255	641.88
444.476	542.88
444.698	513.88
444.919	503.88
445.14	637.88
445.361	551.88
445.582	552.88
445.803	641.88
446.024	756.88
446.245	771.88
446.466	704.88
446.687	556.88
446.908	524.88
447.129	510.88
447.35	486.88
447.571	469.88
447.792	443.88
448.013	480.88
448.234	499.88
448.455	541.88
448.675	693.88
448.896	771.88
449.117	683.88
449.338	627.88
449.559	710.88
449.779	810.88
450	655.88
450.221	543.88
450.442	507.88
450.662	481.88
450.883	490.88
451.104	490.88
451.324	485.88
451.545	462.88
451.766	430.88
451.986	422.88
452.207	438.88
452.428	409.88
452.648	409.88
452.869	428.88
453.089	421.88
453.31	447.88
453.53	428.88
453.751	417.88
453.971	429.88
454.192	457.88
454.412	438.88
454.633	424.88
454.853	418.88
455.073	412.88
455.294	458.88
455.514	534.88
455.734	501.88
455.955	445.88
456.175	393.88
456.395	399.88
456.616	389.88
456.836	384.88
457.056	381.88
457.276	365.88
457.497	379.88
457.717	385.88
457.937	398.88
458.157	428.88
458.377	389.88
458.598	437.88
458.818	479.88
459.038	603.88
459.258	595.88
459.478	495.88
459.698	454.88
459.918	432.88
460.138	437.88
460.358	435.88
460.578	436.88
460.798	425.88
461.018	417.88
461.238	429.88
461.458	437.88
461.678	411.88
461.898	429.88
462.118	415.88
462.338	425.88
462.558	436.88
462.777	429.88
462.997	431.88
463.217	458.88
463.437	447.88
463.657	420.88
463.876	443.88
464.096	452.88
464.316	451.88
464.536	470.88
464.755	450.88
464.975	460.88
465.195	523.88
465.414	634.88
465.634	533.88
465.854	470.88
466.073	463.88
466.293	449.88
466.512	425.88
466.732	423.88
466.951	413.88
467.171	391.88
467.391	423.88
467.61	446.88
467.829	451.88
468.049	422.88
468.268	436.88
468.488	433.88
468.707	434.88
468.927	408.88
469.146	409.88
469.365	402.88
469.585	410.88
469.804	423.88
470.023	436.88
470.243	418.88
470.462	437.88
470.681	465.88
470.901	447.88
471.12	446.88
471.339	430.88
471.558	441.88
471.777	447.88
471.997	405.88
472.216	426.88
472.435	494.88
472.654	473.88
472.873	442.88
473.092	420.88
473.311	430.88
473.53	451.88
473.749	476.88
473.968	491.88
474.187	627.88
474.406	629.88
474.625	503.88
474.844	457.88
475.063	435.88
475.282	439.88
475.501	446.88
475.72	439.88
475.939	428.88
476.158	459.88
476.377	441.88
476.596	417.88
476.814	433.88
477.033	439.88
477.252	454.88
477.471	434.88
477.69	456.88
477.908	443.88
478.127	474.88
478.346	453.88
478.564	470.88
478.783	470.88
479.002	474.88
479.22	459.88
479.439	490.88
479.658	513.88
479.876	523.88
480.095	522.88
480.313	560.88
480.532	543.88
480.751	529.88
480.969	546.88
481.188	618.88
481.406	666.88
481.624	580.88
481.843	514.88
482.061	517.88
482.28	527.88
482.498	508.88
482.717	506.88
482.935	523.88
483.153	496.88
483.372	508.88
483.59	516.88
483.808	499.88
484.027	490.88
484.245	486.88
484.463	510.88
484.681	519.88
484.9	519.88
485.118	528.88
485.336	528.88
485.554	512.88
485.772	522.88
485.99	518.88
486.209	527.88
486.427	525.88
486.645	540.88
486.863	555.88
487.081	540.88
487.299	547.88
487.517	549.88
487.735	543.88
487.953	538.88
488.171	542.88
488.389	553.88
488.607	557.88
488.825	528.88
489.043	538.88
489.261	549.88
489.479	547.88
489.696	541.88
489.914	557.88
490.132	552.88
490.35	571.88
490.568	577.88
490.786	569.88
491.003	570.88
491.221	616.88
491.439	630.88
491.657	635.88
491.874	625.88
492.092	613.88
492.31	620.88
492.527	626.88
492.745	629.88
492.963	644.88
493.18	628.88
493.398	637.88
493.615	648.88
493.833	677.88
494.05	660.88
494.268	636.88
494.485	633.88
494.703	622.88
494.92	651.88
495.138	645.88
495.355	641.88
495.573	666.88
495.79	625.88
496.008	652.88
496.225	662.88
496.442	651.88
496.66	655.88
496.877	661.88
497.094	623.88
497.312	640.88
497.529	675.88
497.746	661.88
497.963	671.88
498.181	685.88
498.398	690.88
498.615	702.88
498.832	706.88
499.049	697.88
499.267	718.88
499.484	716.88
499.701	744.88
499.918	746.88
500.135	755.88
500.352	798.88
500.569	777.88
500.786	807.88
501.003	821.88
501.22	777.88
501.437	792.88
501.654	789.88
501.871	773.88
502.088	782.88
502.305	746.88
502.522	713.88
502.739	686.88
502.956	665.88
503.172	667.88
503.389	681.88
503.606	669.88
503.823	650.88
504.04	671.88
504.256	651.88
504.473	613.88
504.69	652.88
504.907	630.88
505.123	620.88
505.34	633.88
505.557	647.88
505.773	642.88
505.99	651.88
506.207	638.88
506.423	646.88
506.64	649.88
506.856	645.88
507.073	615.88
507.289	636.88
507.506	621.88
507.722	637.88
507.939	630.88
508.155	652.88
508.372	605.88
508.588	610.88
508.805	589.88
509.021	605.88
509.238	621.88
509.454	621.88
509.67	631.88
509.887	612.88
510.103	630.88
510.319	632.88
510.536	711.88
510.752	1278.88
510.968	1075.88
511.184	641.88
511.401	601.88
511.617	601.88
511.833	583.88
512.049	561.88
512.265	570.88
512.481	583.88
512.698	564.88
512.914	555.88
513.13	586.88
513.346	586.88
513.562	601.88
513.778	561.88
513.994	588.88
514.21	616.88
514.426	649.88
514.642	696.88
514.858	729.88
515.074	776.88
515.29	935.88
515.506	1459.88
515.721	1158.88
515.937	755.88
516.153	675.88
516.369	642.88
516.585	610.88
516.801	583.88
517.016	610.88
517.232	591.88
517.448	587.88
517.664	578.88
517.879	575.88
518.095	587.88
518.311	562.88
518.527	553.88
518.742	559.88
518.958	564.88
519.173	563.88
519.389	595.88
519.605	558.88
519.82	577.88
520.036	601.88
520.251	634.88
520.467	665.88
520.682	673.88
520.898	673.88
521.113	714.88
521.329	753.88
521.544	903.88
521.76	1144.88
521.975	1991.88
522.19	1889.88
522.406	970.88
522.621	731.88
522.836	649.88
523.052	604.88
523.267	577.88
523.482	564.88
523.698	542.88
523.913	555.88
524.128	541.88
524.343	525.88
524.559	520.88
524.774	513.88
524.989	515.88
525.204	499.88
525.419	540.88
525.634	500.88
525.849	502.88
526.064	473.88
526.28	513.88
526.495	497.88
526.71	463.88
526.925	472.88
527.14	467.88
527.355	477.88
527.57	466.88
527.785	469.88
527.999	468.88
528.214	469.88
528.429	468.88
528.644	476.88
528.859	473.88
529.074	451.88
529.289	513.88
529.503	609.88
529.718	579.88
529.933	523.88
530.148	477.88
530.363	486.88
530.577	469.88
530.792	461.88
531.007	453.88
531.221	460.88
531.436	464.88
531.651	447.88
531.865	441.88
532.08	434.88
532.295	430.88
532.509	423.88
532.724	441.88
532.938	443.88
533.153	463.88
533.367	452.88
533.582	427.88
533.796	435.88
534.011	441.88
534.225	448.88
534.44	448.88
534.654	423.88
534.868	436.88
535.083	440.88
535.297	444.88
535.511	443.88
535.726	457.88
535.94	471.88
536.154	425.88
536.369	421.88
536.583	444.88
536.797	425.88
537.011	439.88
537.225	431.88
537.44	402.88
537.654	408.88
537.868	421.88
538.082	418.88
538.296	423.88
538.51	420.88
538.724	409.88
538.938	419.88
539.153	402.88
539.367	438.88
539.581	435.88
539.795	428.88
540.009	427.88
540.222	410.88
540.436	424.88
540.65	399.88
540.864	441.88
541.078	424.88
541.292	423.88
541.506	423.88
541.72	412.88
541.934	435.88
542.147	399.88
542.361	421.88
542.575	418.88
542.789	414.88
543.002	419.88
543.216	429.88
543.43	430.88
543.644	439.88
543.857	423.88
544.071	405.88
544.285	413.88
544.498	421.88
544.712	415.88
544.925	432.88
545.139	390.88
545.352	397.88
545.566	424.88
545.779	396.88
545.993	392.88
546.206	418.88
546.42	394.88
546.633	400.88
546.847	408.88
547.06	404.88
547.274	410.88
547.487	383.88
547.7	397.88
547.914	398.88
548.127	403.88
548.34	404.88
548.554	387.88
548.767	394.88
548.98	405.88
549.193	397.88
549.407	389.88
549.62	383.88
549.833	397.88
550.046	411.88
550.259	390.88
550.473	375.88
550.686	366.88
550.899	390.88
551.112	393.88
551.325	383.88
551.538	380.88
551.751	383.88
551.964	393.88
552.177	387.88
552.39	392.88
552.603	381.88
552.816	393.88
553.029	382.88
553.242	375.88
553.455	373.88
553.667	410.88
553.88	411.88
554.093	404.88
554.306	411.88
554.519	400.88
554.732	399.88
554.944	399.88
555.157	363.88
555.37	358.88
555.583	387.88
555.795	391.88
556.008	382.88
556.221	376.88
556.433	370.88
556.646	382.88
556.859	375.88
557.071	358.88
557.284	380.88
557.496	359.88
557.709	367.88
557.921	344.88
558.134	360.88
558.346	355.88
558.559	356.88
558.771	346.88
558.984	336.88
559.196	346.88
559.409	350.88
559.621	354.88
559.833	344.88
560.046	354.88
560.258	347.88
560.47	343.88
560.683	342.88
560.895	361.88
561.107	345.88
561.32	340.88
561.532	354.88
561.744	354.88
561.956	358.88
562.168	346.88
562.381	355.88
562.593	363.88
562.805	344.88
563.017	334.88
563.229	343.88
563.441	362.88
563.653	358.88
563.865	362.88
564.077	362.88
564.289	358.88
564.501	359.88
564.713	363.88
564.925	345.88
565.137	374.88
565.349	391.88
565.561	356.88
565.773	346.88
565.985	373.88
566.197	374.88
566.408	375.88
566.62	390.88
566.832	406.88
567.044	400.88
567.255	402.88
567.467	407.88
567.679	398.88
567.891	414.88
568.102	403.88
568.314	388.88
568.526	392.88
568.737	399.88
568.949	363.88
569.161	361.88
569.372	356.88
569.584	354.88
569.795	333.88
570.007	354.88
570.218	410.88
570.43	398.88
570.641	347.88
570.853	349.88
571.064	349.88
571.276	342.88
571.487	328.88
571.698	335.88
571.91	328.88
572.121	324.88
572.333	344.88
572.544	340.88
572.755	307.88
572.966	325.88
573.178	327.88
573.389	335.88
573.6	317.88
573.811	308.88
574.023	314.88
574.234	323.88
574.445	320.88
574.656	295.88
574.867	289.88
575.078	324.88
575.289	296.88
575.501	301.88
575.712	286.88
575.923	309.88
576.134	292.88
576.345	291.88
576.556	300.88
576.767	282.88
576.978	283.88
577.188	310.88
577.399	293.88
577.61	298.88
577.821	306.88
578.032	299.88
578.243	349.88
578.454	592.88
578.665	434.88
578.875	313.88
579.086	291.88
579.297	289.88
579.508	285.88
579.718	296.88
579.929	311.88
580.14	283.88
580.35	277.88
580.561	300.88
580.772	309.88
580.982	270.88
581.193	287.88
581.403	280.88
581.614	291.88
581.825	267.88
582.035	279.88
582.246	262.88
582.456	277.88
582.667	268.88
582.877	281.88
583.087	270.88
583.298	287.88
583.508	282.88
583.719	266.88
583.929	272.88
584.139	283.88
584.35	290.88
584.56	286.88
584.77	280.88
584.981	277.88
585.191	281.88
585.401	254.88
585.611	293.88
585.821	282.88
586.032	286.88
586.242	266.88
586.452	274.88
586.662	263.88
586.872	261.88
587.082	258.88
587.292	259.88
587.502	258.88
587.713	267.88
587.923	268.88
588.133	275.88
588.343	279.88
588.553	267.88
588.762	289.88
588.972	258.88
589.182	258.88
589.392	263.88
589.602	266.88
589.812	262.88
590.022	266.88
590.232	246.88
590.441	278.88
590.651	260.88
590.861	254.88
591.071	285.88
591.281	274.88
591.49	258.88
591.7	261.88
591.91	271.88
592.119	268.88
592.329	266.88
592.539	267.88
592.748	275.88
592.958	286.88
593.167	283.88
593.377	270.88
593.587	270.88
593.796	254.88
594.006	271.88
594.215	271.88
594.424	270.88
594.634	257.88
594.843	262.88
595.053	271.88
595.262	265.88
595.472	258.88
595.681	255.88
595.89	265.88
596.1	250.88
596.309	258.88
596.518	266.88
596.727	250.88
596.937	265.88
597.146	256.88
597.355	246.88
597.564	251.88
597.774	249.88
597.983	239.88
598.192	243.88
598.401	257.88
598.61	245.88
598.819	250.88
599.028	241.88
599.237	240.88
599.446	232.88
599.655	248.88
599.864	249.88
600.073	246.88
600.282	239.88
600.491	223.88
600.7	225.88
600.909	241.88
601.118	266.88
601.327	242.88
601.536	230.88
601.745	232.88
601.953	228.88
602.162	235.88
602.371	221.88
602.58	233.88
602.789	228.88
602.997	247.88
603.206	230.88
603.415	233.88
603.623	218.88
603.832	217.88
604.041	226.88
604.249	243.88
604.458	224.88
604.666	229.88
604.875	239.88
605.084	228.88
605.292	225.88
605.501	234.88
605.709	227.88
605.918	233.88
606.126	224.88
606.334	216.88
606.543	236.88
606.751	223.88
606.96	217.88
607.168	235.88
607.376	221.88
607.585	229.88
607.793	216.88
608.001	222.88
608.21	224.88
608.418	225.88
608.626	233.88
608.834	216.88
609.043	221.88
609.251	228.88
609.459	209.88
609.667	228.88
609.875	229.88
610.083	229.88
610.291	242.88
610.499	237.88
610.707	245.88
610.916	215.88
611.124	230.88
611.332	228.88
611.54	237.88
611.748	237.88
611.955	218.88
612.163	228.88
612.371	225.88
612.579	223.88
612.787	228.88
612.995	216.88
613.203	218.88
613.411	228.88
613.618	228.88
613.826	206.88
614.034	221.88
614.242	226.88
614.449	214.88
614.657	225.88
614.865	209.88
615.072	210.88
615.28	211.88
615.488	200.88
615.695	218.88
615.903	194.88
616.111	202.88
616.318	229.88
616.526	221.88
616.733	215.88
616.941	221.88
617.148	217.88
617.356	207.88
617.563	207.88
617.771	223.88
617.978	237.88
618.185	198.88
618.393	228.88
618.6	236.88
618.807	213.88
619.015	198.88
619.222	201.88
619.429	220.88
619.637	222.88
619.844	215.88
620.051	205.88
620.258	206.88
620.466	212.88
620.673	211.88
620.88	181.88
621.087	209.88
621.294	201.88
621.501	215.88
621.708	210.88
621.915	215.88
622.122	204.88
622.329	208.88
622.536	195.88
622.743	225.88
622.95	191.88
623.157	185.88
623.364	202.88
623.571	196.88
623.778	212.88
623.985	193.88
624.192	207.88
624.399	199.88
624.606	187.88
624.812	181.88
625.019	188.88
625.226	198.88
625.433	186.88
625.639	207.88
625.846	200.88
626.053	202.88
626.259	199.88
626.466	197.88
626.673	195.88
626.879	174.88
627.086	187.88
627.293	185.88
627.499	188.88
627.706	195.88
627.912	189.88
628.119	200.88
628.325	190.88
628.532	179.88
628.738	187.88
628.945	179.88
629.151	193.88
629.357	193.88
629.564	188.88
629.77	185.88
629.976	183.88
630.183	191.88
630.389	189.88
630.595	179.88
630.802	183.88
631.008	185.88
631.214	181.88
631.42	180.88
631.627	185.88
631.833	175.88
632.039	178.88
632.245	184.88
632.451	186.88
632.657	182.88
632.863	185.88
633.069	171.88
633.275	169.88
633.481	172.88
633.688	188.88
633.893	173.88
634.099	174.88
634.305	158.88
634.511	181.88
634.717	159.88
634.923	161.88
635.129	178.88
635.335	180.88
635.541	163.88
635.747	177.88
635.952	180.88
636.158	170.88
636.364	174.88
636.57	174.88
636.775	172.88
636.981	175.88
637.187	168.88
637.392	155.88
637.598	169.88
637.804	156.88
638.009	164.88
638.215	187.88
638.421	165.88
638.626	167.88
638.832	161.88
639.037	148.88
639.243	172.88
639.448	178.88
639.654	158.88
639.859	164.88
640.065	159.88
640.27	181.88
640.475	158.88
640.681	151.88
640.886	160.88
641.091	167.88
641.297	173.88
641.502	162.88
641.707	175.88
641.913	159.88
642.118	169.88
642.323	156.88
642.528	164.88
642.733	161.88
642.939	168.88
643.144	169.88
643.349	142.88
643.554	154.88
643.759	147.88
643.964	166.88
644.169	156.88
644.374	149.88
644.579	169.88
644.784	145.88
644.989	144.88
645.194	146.88
645.399	163.88
645.604	167.88
645.809	166.88
646.014	168.88
646.219	165.88
646.423	164.88
646.628	161.88
646.833	167.88
647.038	169.88
647.243	160.88
647.447	155.88
647.652	163.88
647.857	165.88
648.062	165.88
648.266	172.88
648.471	171.88
648.676	175.88
648.88	167.88
649.085	154.88
649.289	147.88
649.494	159.88
649.698	173.88
649.903	181.88
650.107	154.88
650.312	161.88
650.516	140.88
650.721	153.88
650.925	155.88
651.13	153.88
651.334	155.88
651.539	158.88
651.743	142.88
651.947	132.88
652.152	129.88
652.356	140.88
652.56	141.88
652.764	127.88
652.969	140.88
653.173	133.88
653.377	122.88
653.581	145.88
653.785	125.88
653.99	136.88
654.194	126.88
654.398	141.88
654.602	138.88
654.806	118.88
655.01	148.88
655.214	143.88
655.418	131.88
655.622	133.88
655.826	134.88
656.03	135.88
656.234	126.88
656.438	124.88
656.642	121.88
656.846	118.88
657.049	136.88
657.253	122.88
657.457	106.88
657.661	108.88
657.865	110.88
658.068	110.88
658.272	116.88
658.476	104.88
658.68	97.88
658.883	116.88
659.087	104.88
659.291	93.88
659.494	113.88
659.698	92.88
659.901	99.88
660.105	98.88
660.309	95.88
660.512	104.88
660.716	105.88
660.919	99.88
661.123	95.88
661.326	78.88
661.53	88.88
661.733	82.88
661.936	88.88
662.14	89.88
662.343	91.88
662.546	95.88
662.75	71.88
662.953	90.88
663.156	73.88
663.36	85.88
663.563	87.88
663.766	79.88
663.969	83.88
664.173	83.88
664.376	78.88
664.579	93.88
664.782	91.88
664.985	86.88
665.188	83.88
665.391	95.88
665.594	79.88
665.797	84.88
666	66.88
666.203	85.88
666.406	82.88
666.609	84.88
666.812	88.88
667.015	98.88
667.218	96.88
667.421	90.88
667.624	83.88
667.827	84.88
668.03	92.88
668.232	86.88
668.435	71.88
668.638	77.88
668.841	85.88
669.043	78.88
669.246	91.88
669.449	89.88
669.651	83.88
669.854	82.88
670.057	91.88
670.259	94.88
670.462	84.88
670.665	75.88
670.867	76.88
671.07	84.88
671.272	79.88
671.475	97.88
671.677	78.88
671.88	82.88
672.082	85.88
672.284	96.88
672.487	82.88
672.689	81.88
672.892	82.88
