Data from 1972.PennyLincolnUp.Lamp.En5.5.200Scan.071719.P1._HRD10591_15-27-34-843.txt Node
Date: Thu Jul 18 15:27:34 EDT 2019
User: cochatt
Spectrometer: HR+D1059
Trigger mode: 1
Integration Time (sec): 1.000000E-1
Scans to average: 1
Electric dark correction enabled: true
Nonlinearity correction enabled: false
Boxcar width: 0
XAxis mode: Wavelengths
Number of Pixels in Spectrum: 2048
>>>>>Begin Spectral Data<<<<<
223.165	-23.94
223.4	-23.94
223.635	-23.94
223.869	-24.94
224.104	-27.94
224.338	-18.94
224.573	0.06
224.808	-6.94
225.042	-2.94
225.277	-12.94
225.511	-9.94
225.746	9.06
225.98	7.06
226.215	19.06
226.449	19.06
226.683	11.06
226.918	24.06
227.152	39.06
227.387	37.06
227.621	51.06
227.856	48.06
228.09	57.06
228.324	49.06
228.559	56.06
228.793	73.06
229.027	107.06
229.262	108.06
229.496	109.06
229.73	154.06
229.964	150.06
230.199	124.06
230.433	119.06
230.667	104.06
230.901	123.06
231.136	122.06
231.37	102.06
231.604	101.06
231.838	117.06
232.072	121.06
232.306	110.06
232.541	106.06
232.775	111.06
233.009	117.06
233.243	115.06
233.477	103.06
233.711	122.06
233.945	115.06
234.179	101.06
234.413	121.06
234.647	112.06
234.881	129.06
235.115	114.06
235.349	117.06
235.583	115.06
235.817	113.06
236.051	124.06
236.285	130.06
236.519	128.06
236.753	131.06
236.987	147.06
237.221	203.06
237.455	233.06
237.689	184.06
237.922	139.06
238.156	122.06
238.39	126.06
238.624	127.06
238.858	117.06
239.091	121.06
239.325	123.06
239.559	122.06
239.793	126.06
240.027	126.06
240.26	133.06
240.494	155.06
240.728	142.06
240.961	160.06
241.195	132.06
241.429	138.06
241.662	143.06
241.896	111.06
242.13	131.06
242.363	129.06
242.597	133.06
242.83	135.06
243.064	129.06
243.298	125.06
243.531	129.06
243.765	135.06
243.998	133.06
244.232	127.06
244.465	140.06
244.699	138.06
244.932	141.06
245.166	149.06
245.399	137.06
245.633	144.06
245.866	146.06
246.099	143.06
246.333	145.06
246.566	158.06
246.8	143.06
247.033	138.06
247.266	138.06
247.5	149.06
247.733	155.06
247.966	172.06
248.2	174.06
248.433	181.06
248.666	152.06
248.899	179.06
249.133	199.06
249.366	214.06
249.599	200.06
249.832	181.06
250.066	176.06
250.299	157.06
250.532	190.06
250.765	199.06
250.998	212.06
251.231	230.06
251.465	207.06
251.698	203.06
251.931	202.06
252.164	198.06
252.397	200.06
252.63	195.06
252.863	199.06
253.096	214.06
253.329	222.06
253.562	221.06
253.795	213.06
254.028	217.06
254.261	224.06
254.494	211.06
254.727	255.06
254.96	289.06
255.193	261.06
255.426	259.06
255.659	230.06
255.892	229.06
256.124	232.06
256.357	231.06
256.59	215.06
256.823	208.06
257.056	190.06
257.289	199.06
257.521	201.06
257.754	227.06
257.987	193.06
258.22	197.06
258.452	191.06
258.685	190.06
258.918	186.06
259.151	209.06
259.383	220.06
259.616	202.06
259.849	218.06
260.081	230.06
260.314	251.06
260.547	261.06
260.779	209.06
261.012	218.06
261.244	225.06
261.477	210.06
261.71	224.06
261.942	220.06
262.175	234.06
262.407	245.06
262.64	196.06
262.872	205.06
263.105	215.06
263.337	211.06
263.57	191.06
263.802	202.06
264.035	204.06
264.267	201.06
264.499	205.06
264.732	212.06
264.964	208.06
265.197	207.06
265.429	203.06
265.661	195.06
265.894	208.06
266.126	227.06
266.358	207.06
266.591	193.06
266.823	229.06
267.055	204.06
267.287	197.06
267.52	209.06
267.752	229.06
267.984	228.06
268.216	200.06
268.448	231.06
268.681	232.06
268.913	231.06
269.145	230.06
269.377	270.06
269.609	247.06
269.841	266.06
270.073	263.06
270.306	283.06
270.538	303.06
270.77	305.06
271.002	300.06
271.234	292.06
271.466	275.06
271.698	286.06
271.93	307.06
272.162	310.06
272.394	312.06
272.626	278.06
272.858	279.06
273.09	273.06
273.322	272.06
273.553	266.06
273.785	237.06
274.017	247.06
274.249	251.06
274.481	252.06
274.713	252.06
274.945	260.06
275.176	251.06
275.408	247.06
275.64	244.06
275.872	264.06
276.104	235.06
276.335	262.06
276.567	267.06
276.799	281.06
277.031	291.06
277.262	291.06
277.494	289.06
277.726	303.06
277.957	267.06
278.189	260.06
278.421	235.06
278.652	247.06
278.884	241.06
279.115	263.06
279.347	263.06
279.579	252.06
279.81	247.06
280.042	263.06
280.273	258.06
280.505	254.06
280.736	251.06
280.968	240.06
281.199	256.06
281.431	248.06
281.662	234.06
281.894	232.06
282.125	252.06
282.356	284.06
282.588	314.06
282.819	309.06
283.051	257.06
283.282	244.06
283.513	265.06
283.745	251.06
283.976	235.06
284.207	255.06
284.439	278.06
284.67	263.06
284.901	261.06
285.132	259.06
285.364	266.06
285.595	256.06
285.826	263.06
286.057	257.06
286.288	249.06
286.52	236.06
286.751	251.06
286.982	254.06
287.213	247.06
287.444	260.06
287.675	262.06
287.906	265.06
288.138	262.06
288.369	279.06
288.6	280.06
288.831	270.06
289.062	273.06
289.293	283.06
289.524	265.06
289.755	265.06
289.986	263.06
290.217	253.06
290.448	281.06
290.679	264.06
290.91	257.06
291.141	263.06
291.371	268.06
291.602	256.06
291.833	251.06
292.064	273.06
292.295	247.06
292.526	250.06
292.757	250.06
292.987	269.06
293.218	270.06
293.449	251.06
293.68	256.06
293.91	258.06
294.141	243.06
294.372	247.06
294.603	251.06
294.833	258.06
295.064	255.06
295.295	277.06
295.525	288.06
295.756	276.06
295.987	290.06
296.217	308.06
296.448	320.06
296.679	281.06
296.909	270.06
297.14	283.06
297.37	270.06
297.601	253.06
297.831	265.06
298.062	270.06
298.292	280.06
298.523	294.06
298.753	293.06
298.984	265.06
299.214	271.06
299.445	257.06
299.675	269.06
299.905	289.06
300.136	292.06
300.366	278.06
300.597	279.06
300.827	292.06
301.057	289.06
301.288	292.06
301.518	304.06
301.748	296.06
301.979	287.06
302.209	308.06
302.439	302.06
302.669	311.06
302.9	284.06
303.13	305.06
303.36	307.06
303.59	287.06
303.82	321.06
304.051	307.06
304.281	300.06
304.511	297.06
304.741	291.06
304.971	288.06
305.201	287.06
305.431	282.06
305.661	302.06
305.891	293.06
306.121	290.06
306.352	287.06
306.582	311.06
306.812	293.06
307.042	319.06
307.272	295.06
307.502	309.06
307.731	294.06
307.961	303.06
308.191	304.06
308.421	289.06
308.651	316.06
308.881	316.06
309.111	315.06
309.341	318.06
309.571	312.06
309.8	343.06
310.03	352.06
310.26	359.06
310.49	334.06
310.72	343.06
310.949	381.06
311.179	397.06
311.409	367.06
311.639	352.06
311.868	351.06
312.098	357.06
312.328	361.06
312.557	376.06
312.787	409.06
313.017	375.06
313.246	367.06
313.476	353.06
313.706	352.06
313.935	358.06
314.165	353.06
314.394	372.06
314.624	381.06
314.853	373.06
315.083	366.06
315.312	358.06
315.542	344.06
315.771	334.06
316.001	358.06
316.23	346.06
316.46	358.06
316.689	363.06
316.919	335.06
317.148	356.06
317.377	354.06
317.607	374.06
317.836	359.06
318.065	351.06
318.295	334.06
318.524	350.06
318.753	348.06
318.983	342.06
319.212	351.06
319.441	361.06
319.67	358.06
319.9	337.06
320.129	356.06
320.358	348.06
320.587	365.06
320.816	365.06
321.046	356.06
321.275	371.06
321.504	385.06
321.733	387.06
321.962	380.06
322.191	397.06
322.42	418.06
322.649	424.06
322.878	433.06
323.108	426.06
323.337	472.06
323.566	496.06
323.795	513.06
324.024	585.06
324.253	691.06
324.482	1004.06
324.71	1564.06
324.939	2346.06
325.168	2049.06
325.397	1053.06
325.626	682.06
325.855	544.06
326.084	490.06
326.313	492.06
326.542	498.06
326.77	553.06
326.999	667.06
327.228	899.06
327.457	1392.06
327.686	1758.06
327.914	1157.06
328.143	769.06
328.372	640.06
328.6	616.06
328.829	559.06
329.058	573.06
329.287	593.06
329.515	558.06
329.744	512.06
329.972	515.06
330.201	536.06
330.43	573.06
330.658	607.06
330.887	620.06
331.115	605.06
331.344	509.06
331.572	452.06
331.801	461.06
332.03	458.06
332.258	451.06
332.486	413.06
332.715	420.06
332.943	411.06
333.172	428.06
333.4	402.06
333.629	405.06
333.857	451.06
334.085	457.06
334.314	459.06
334.542	505.06
334.771	501.06
334.999	457.06
335.227	421.06
335.455	424.06
335.684	409.06
335.912	402.06
336.14	400.06
336.369	430.06
336.597	407.06
336.825	413.06
337.053	383.06
337.281	405.06
337.51	402.06
337.738	398.06
337.966	402.06
338.194	394.06
338.422	430.06
338.65	425.06
338.878	392.06
339.106	383.06
339.334	379.06
339.562	381.06
339.79	395.06
340.018	389.06
340.246	399.06
340.474	405.06
340.702	381.06
340.93	381.06
341.158	393.06
341.386	388.06
341.614	375.06
341.842	391.06
342.07	366.06
342.298	393.06
342.526	375.06
342.754	389.06
342.981	371.06
343.209	351.06
343.437	355.06
343.665	375.06
343.893	373.06
344.12	384.06
344.348	404.06
344.576	378.06
344.804	393.06
345.031	398.06
345.259	409.06
345.487	397.06
345.714	415.06
345.942	387.06
346.17	407.06
346.397	387.06
346.625	399.06
346.853	394.06
347.08	377.06
347.308	376.06
347.535	383.06
347.763	410.06
347.99	388.06
348.218	379.06
348.445	409.06
348.673	407.06
348.9	392.06
349.128	381.06
349.355	359.06
349.583	379.06
349.81	354.06
350.037	367.06
350.265	377.06
350.492	367.06
350.72	358.06
350.947	360.06
351.174	380.06
351.402	394.06
351.629	397.06
351.856	391.06
352.083	381.06
352.311	428.06
352.538	423.06
352.765	398.06
352.992	362.06
353.22	379.06
353.447	381.06
353.674	379.06
353.901	351.06
354.128	352.06
354.355	344.06
354.583	359.06
354.81	343.06
355.037	353.06
355.264	363.06
355.491	337.06
355.718	335.06
355.945	349.06
356.172	338.06
356.399	341.06
356.626	357.06
356.853	352.06
357.08	350.06
357.307	340.06
357.534	348.06
357.761	357.06
357.988	336.06
358.215	325.06
358.441	345.06
358.668	341.06
358.895	371.06
359.122	347.06
359.349	363.06
359.576	390.06
359.802	411.06
360.029	438.06
360.256	435.06
360.483	410.06
360.709	392.06
360.936	367.06
361.163	359.06
361.39	378.06
361.616	382.06
361.843	384.06
362.07	357.06
362.296	371.06
362.523	350.06
362.749	363.06
362.976	377.06
363.203	352.06
363.429	337.06
363.656	373.06
363.882	355.06
364.109	336.06
364.335	342.06
364.562	364.06
364.788	345.06
365.015	346.06
365.241	360.06
365.468	362.06
365.694	361.06
365.92	355.06
366.147	343.06
366.373	344.06
366.599	365.06
366.826	330.06
367.052	338.06
367.278	334.06
367.505	347.06
367.731	351.06
367.957	340.06
368.184	346.06
368.41	371.06
368.636	361.06
368.862	363.06
369.089	366.06
369.315	352.06
369.541	361.06
369.767	351.06
369.993	364.06
370.219	361.06
370.445	351.06
370.672	348.06
370.898	349.06
371.124	348.06
371.35	348.06
371.576	338.06
371.802	347.06
372.028	347.06
372.254	356.06
372.48	344.06
372.706	355.06
372.932	353.06
373.158	348.06
373.384	358.06
373.61	357.06
373.835	342.06
374.061	311.06
374.287	329.06
374.513	354.06
374.739	330.06
374.965	358.06
375.191	355.06
375.416	339.06
375.642	345.06
375.868	349.06
376.094	348.06
376.319	343.06
376.545	343.06
376.771	340.06
376.997	337.06
377.222	333.06
377.448	337.06
377.674	343.06
377.899	329.06
378.125	331.06
378.35	344.06
378.576	325.06
378.802	354.06
379.027	354.06
379.253	344.06
379.478	354.06
379.704	328.06
379.929	352.06
380.155	358.06
380.38	347.06
380.606	340.06
380.831	350.06
381.057	337.06
381.282	360.06
381.507	329.06
381.733	347.06
381.958	357.06
382.184	355.06
382.409	349.06
382.634	332.06
382.86	338.06
383.085	354.06
383.31	339.06
383.535	368.06
383.761	355.06
383.986	341.06
384.211	366.06
384.436	376.06
384.662	364.06
384.887	375.06
385.112	349.06
385.337	355.06
385.562	351.06
385.787	361.06
386.013	384.06
386.238	375.06
386.463	364.06
386.688	372.06
386.913	368.06
387.138	363.06
387.363	345.06
387.588	371.06
387.813	359.06
388.038	358.06
388.263	358.06
388.488	365.06
388.713	361.06
388.938	371.06
389.163	360.06
389.387	392.06
389.612	356.06
389.837	362.06
390.062	381.06
390.287	352.06
390.512	338.06
390.736	349.06
390.961	364.06
391.186	374.06
391.411	376.06
391.636	361.06
391.86	377.06
392.085	380.06
392.31	372.06
392.534	379.06
392.759	357.06
392.984	374.06
393.208	373.06
393.433	397.06
393.658	383.06
393.882	368.06
394.107	373.06
394.331	364.06
394.556	365.06
394.78	373.06
395.005	350.06
395.229	366.06
395.454	371.06
395.678	383.06
395.903	383.06
396.127	383.06
396.352	401.06
396.576	384.06
396.801	362.06
397.025	393.06
397.249	407.06
397.474	393.06
397.698	379.06
397.922	420.06
398.147	412.06
398.371	430.06
398.595	377.06
398.82	394.06
399.044	395.06
399.268	415.06
399.492	429.06
399.717	466.06
399.941	465.06
400.165	496.06
400.389	542.06
400.613	487.06
400.837	432.06
401.062	420.06
401.286	411.06
401.51	429.06
401.734	423.06
401.958	413.06
402.182	432.06
402.406	422.06
402.63	422.06
402.854	425.06
403.078	422.06
403.302	440.06
403.526	403.06
403.75	441.06
403.974	436.06
404.198	441.06
404.422	420.06
404.645	443.06
404.869	439.06
405.093	457.06
405.317	524.06
405.541	533.06
405.765	492.06
405.988	470.06
406.212	484.06
406.436	483.06
406.66	502.06
406.883	487.06
407.107	496.06
407.331	519.06
407.555	591.06
407.778	602.06
408.002	537.06
408.226	491.06
408.449	488.06
408.673	473.06
408.896	479.06
409.12	551.06
409.344	511.06
409.567	449.06
409.791	437.06
410.014	426.06
410.238	417.06
410.461	449.06
410.685	421.06
410.908	462.06
411.132	488.06
411.355	516.06
411.578	485.06
411.802	469.06
412.025	438.06
412.249	442.06
412.472	473.06
412.695	499.06
412.919	499.06
413.142	456.06
413.365	426.06
413.589	448.06
413.812	427.06
414.035	397.06
414.258	385.06
414.482	401.06
414.705	416.06
414.928	402.06
415.151	379.06
415.374	396.06
415.597	411.06
415.821	411.06
416.044	411.06
416.267	397.06
416.49	429.06
416.713	402.06
416.936	401.06
417.159	419.06
417.382	408.06
417.605	411.06
417.828	425.06
418.051	420.06
418.274	423.06
418.497	407.06
418.72	413.06
418.943	409.06
419.166	414.06
419.389	430.06
419.611	446.06
419.834	428.06
420.057	415.06
420.28	427.06
420.503	437.06
420.726	427.06
420.948	457.06
421.171	480.06
421.394	504.06
421.617	458.06
421.839	443.06
422.062	425.06
422.285	447.06
422.507	495.06
422.73	573.06
422.953	560.06
423.175	477.06
423.398	441.06
423.621	456.06
423.843	471.06
424.066	453.06
424.288	471.06
424.511	489.06
424.733	554.06
424.956	632.06
425.178	578.06
425.401	571.06
425.623	613.06
425.846	529.06
426.068	485.06
426.291	484.06
426.513	484.06
426.735	486.06
426.958	504.06
427.18	606.06
427.402	719.06
427.625	804.06
427.847	745.06
428.069	622.06
428.292	555.06
428.514	492.06
428.736	465.06
428.958	477.06
429.181	446.06
429.403	426.06
429.625	445.06
429.847	483.06
430.069	537.06
430.292	537.06
430.514	457.06
430.736	443.06
430.958	425.06
431.18	439.06
431.402	426.06
431.624	412.06
431.846	401.06
432.068	415.06
432.29	393.06
432.512	407.06
432.734	431.06
432.956	422.06
433.178	424.06
433.4	456.06
433.622	429.06
433.844	417.06
434.066	430.06
434.287	425.06
434.509	400.06
434.731	421.06
434.953	433.06
435.175	440.06
435.397	458.06
435.618	461.06
435.84	518.06
436.062	620.06
436.284	691.06
436.505	565.06
436.727	499.06
436.949	479.06
437.17	444.06
437.392	456.06
437.614	461.06
437.835	487.06
438.057	593.06
438.278	668.06
438.5	671.06
438.721	746.06
438.943	712.06
439.165	556.06
439.386	536.06
439.608	501.06
439.829	504.06
440.05	545.06
440.272	580.06
440.493	535.06
440.715	488.06
440.936	455.06
441.158	459.06
441.379	455.06
441.6	457.06
441.822	471.06
442.043	509.06
442.264	583.06
442.486	647.06
442.707	546.06
442.928	517.06
443.149	509.06
443.371	523.06
443.592	566.06
443.813	654.06
444.034	727.06
444.255	585.06
444.476	472.06
444.698	477.06
444.919	460.06
445.14	590.06
445.361	544.06
445.582	515.06
445.803	601.06
446.024	691.06
446.245	704.06
446.466	633.06
446.687	540.06
446.908	503.06
447.129	481.06
447.35	454.06
447.571	423.06
447.792	460.06
448.013	448.06
448.234	470.06
448.455	529.06
448.675	635.06
448.896	723.06
449.117	640.06
449.338	603.06
449.559	704.06
449.779	769.06
450	604.06
450.221	503.06
450.442	469.06
450.662	430.06
450.883	461.06
451.104	479.06
451.324	475.06
451.545	446.06
451.766	410.06
451.986	415.06
452.207	391.06
452.428	398.06
452.648	413.06
452.869	406.06
453.089	425.06
453.31	425.06
453.53	423.06
453.751	412.06
453.971	418.06
454.192	425.06
454.412	407.06
454.633	393.06
454.853	393.06
455.073	388.06
455.294	415.06
455.514	479.06
455.734	475.06
455.955	410.06
456.175	383.06
456.395	380.06
456.616	373.06
456.836	364.06
457.056	367.06
457.276	353.06
457.497	386.06
457.717	381.06
457.937	380.06
458.157	379.06
458.377	389.06
458.598	403.06
458.818	449.06
459.038	561.06
459.258	571.06
459.478	473.06
459.698	436.06
459.918	402.06
460.138	407.06
460.358	391.06
460.578	408.06
460.798	421.06
461.018	414.06
461.238	421.06
461.458	402.06
461.678	405.06
461.898	405.06
462.118	420.06
462.338	380.06
462.558	408.06
462.777	423.06
462.997	436.06
463.217	410.06
463.437	441.06
463.657	429.06
463.876	412.06
464.096	421.06
464.316	423.06
464.536	444.06
464.755	423.06
464.975	430.06
465.195	476.06
465.414	560.06
465.634	506.06
465.854	468.06
466.073	419.06
466.293	403.06
466.512	408.06
466.732	399.06
466.951	409.06
467.171	410.06
467.391	405.06
467.61	403.06
467.829	423.06
468.049	420.06
468.268	419.06
468.488	410.06
468.707	399.06
468.927	395.06
469.146	391.06
469.365	397.06
469.585	387.06
469.804	395.06
470.023	414.06
470.243	429.06
470.462	411.06
470.681	450.06
470.901	420.06
471.12	422.06
471.339	397.06
471.558	398.06
471.777	404.06
471.997	415.06
472.216	420.06
472.435	451.06
472.654	457.06
472.873	427.06
473.092	419.06
473.311	416.06
473.53	400.06
473.749	411.06
473.968	465.06
474.187	561.06
474.406	577.06
474.625	482.06
474.844	400.06
475.063	408.06
475.282	412.06
475.501	432.06
475.72	411.06
475.939	422.06
476.158	425.06
476.377	419.06
476.596	415.06
476.814	425.06
477.033	433.06
477.252	414.06
477.471	390.06
477.69	453.06
477.908	445.06
478.127	428.06
478.346	461.06
478.564	459.06
478.783	447.06
479.002	480.06
479.22	447.06
479.439	476.06
479.658	473.06
479.876	481.06
480.095	497.06
480.313	520.06
480.532	496.06
480.751	489.06
480.969	529.06
481.188	590.06
481.406	647.06
481.624	522.06
481.843	509.06
482.061	501.06
482.28	487.06
482.498	489.06
482.717	459.06
482.935	490.06
483.153	473.06
483.372	475.06
483.59	476.06
483.808	497.06
484.027	485.06
484.245	467.06
484.463	494.06
484.681	485.06
484.9	490.06
485.118	486.06
485.336	482.06
485.554	480.06
485.772	496.06
485.99	500.06
486.209	506.06
486.427	507.06
486.645	504.06
486.863	522.06
487.081	522.06
487.299	533.06
487.517	511.06
487.735	528.06
487.953	500.06
488.171	532.06
488.389	525.06
488.607	516.06
488.825	517.06
489.043	536.06
489.261	529.06
489.479	546.06
489.696	522.06
489.914	537.06
490.132	516.06
490.35	518.06
490.568	532.06
490.786	561.06
491.003	555.06
491.221	559.06
491.439	591.06
491.657	591.06
491.874	587.06
492.092	607.06
492.31	589.06
492.527	572.06
492.745	623.06
492.963	597.06
493.18	594.06
493.398	616.06
493.615	608.06
493.833	611.06
494.05	598.06
494.268	595.06
494.485	603.06
494.703	594.06
494.92	615.06
495.138	603.06
495.355	591.06
495.573	616.06
495.79	604.06
496.008	606.06
496.225	613.06
496.442	585.06
496.66	601.06
496.877	615.06
497.094	621.06
497.312	603.06
497.529	649.06
497.746	655.06
497.963	661.06
498.181	656.06
498.398	672.06
498.615	666.06
498.832	649.06
499.049	679.06
499.267	672.06
499.484	672.06
499.701	692.06
499.918	719.06
500.135	727.06
500.352	779.06
500.569	766.06
500.786	750.06
501.003	759.06
501.22	729.06
501.437	770.06
501.654	752.06
501.871	744.06
502.088	728.06
502.305	670.06
502.522	683.06
502.739	669.06
502.956	658.06
503.172	633.06
503.389	633.06
503.606	616.06
503.823	633.06
504.04	633.06
504.256	617.06
504.473	607.06
504.69	605.06
504.907	627.06
505.123	599.06
505.34	599.06
505.557	606.06
505.773	597.06
505.99	575.06
506.207	589.06
506.423	584.06
506.64	601.06
506.856	591.06
507.073	592.06
507.289	600.06
507.506	557.06
507.722	624.06
507.939	622.06
508.155	588.06
508.372	581.06
508.588	575.06
508.805	555.06
509.021	559.06
509.238	563.06
509.454	560.06
509.67	589.06
509.887	578.06
510.103	583.06
510.319	581.06
510.536	669.06
510.752	1177.06
510.968	981.06
511.184	602.06
511.401	576.06
511.617	565.06
511.833	564.06
512.049	552.06
512.265	553.06
512.481	538.06
512.698	556.06
512.914	540.06
513.13	550.06
513.346	540.06
513.562	550.06
513.778	549.06
513.994	551.06
514.21	581.06
514.426	605.06
514.642	654.06
514.858	679.06
515.074	696.06
515.29	860.06
515.506	1339.06
515.721	1095.06
515.937	716.06
516.153	649.06
516.369	610.06
516.585	563.06
516.801	565.06
517.016	558.06
517.232	560.06
517.448	569.06
517.664	560.06
517.879	554.06
518.095	535.06
518.311	527.06
518.527	561.06
518.742	560.06
518.958	540.06
519.173	528.06
519.389	535.06
519.605	549.06
519.82	543.06
520.036	555.06
520.251	603.06
520.467	614.06
520.682	617.06
520.898	643.06
521.113	665.06
521.329	718.06
521.544	779.06
521.76	1036.06
521.975	1768.06
522.19	1781.06
522.406	915.06
522.621	676.06
522.836	599.06
523.052	555.06
523.267	524.06
523.482	519.06
523.698	504.06
523.913	497.06
524.128	519.06
524.343	509.06
524.559	503.06
524.774	494.06
524.989	479.06
525.204	488.06
525.419	473.06
525.634	468.06
525.849	465.06
526.064	449.06
526.28	460.06
526.495	451.06
526.71	449.06
526.925	428.06
527.14	435.06
527.355	433.06
527.57	442.06
527.785	447.06
527.999	436.06
528.214	464.06
528.429	446.06
528.644	462.06
528.859	458.06
529.074	438.06
529.289	469.06
529.503	546.06
529.718	546.06
529.933	499.06
530.148	476.06
530.363	442.06
530.577	438.06
530.792	432.06
531.007	425.06
531.221	428.06
531.436	446.06
531.651	409.06
531.865	414.06
532.08	444.06
532.295	432.06
532.509	407.06
532.724	396.06
532.938	430.06
533.153	405.06
533.367	407.06
533.582	410.06
533.796	416.06
534.011	411.06
534.225	405.06
534.44	407.06
534.654	408.06
534.868	414.06
535.083	382.06
535.297	412.06
535.511	416.06
535.726	438.06
535.94	416.06
536.154	419.06
536.369	411.06
536.583	395.06
536.797	396.06
537.011	394.06
537.225	383.06
537.44	409.06
537.654	408.06
537.868	404.06
538.082	393.06
538.296	407.06
538.51	399.06
538.724	411.06
538.938	403.06
539.153	399.06
539.367	417.06
539.581	419.06
539.795	415.06
540.009	397.06
540.222	407.06
540.436	399.06
540.65	401.06
540.864	409.06
541.078	426.06
541.292	417.06
541.506	415.06
541.72	413.06
541.934	405.06
542.147	415.06
542.361	413.06
542.575	399.06
542.789	405.06
543.002	415.06
543.216	404.06
543.43	427.06
543.644	404.06
543.857	407.06
544.071	383.06
544.285	409.06
544.498	402.06
544.712	391.06
544.925	395.06
545.139	389.06
545.352	387.06
545.566	381.06
545.779	387.06
545.993	389.06
546.206	380.06
546.42	385.06
546.633	369.06
546.847	371.06
547.06	396.06
547.274	387.06
547.487	371.06
547.7	383.06
547.914	382.06
548.127	373.06
548.34	383.06
548.554	367.06
548.767	389.06
548.98	385.06
549.193	371.06
549.407	366.06
549.62	378.06
549.833	383.06
550.046	377.06
550.259	381.06
550.473	347.06
550.686	377.06
550.899	386.06
551.112	382.06
551.325	364.06
551.538	383.06
551.751	377.06
551.964	369.06
552.177	358.06
552.39	350.06
552.603	390.06
552.816	372.06
553.029	369.06
553.242	362.06
553.455	389.06
553.667	412.06
553.88	416.06
554.093	397.06
554.306	380.06
554.519	375.06
554.732	381.06
554.944	369.06
555.157	383.06
555.37	368.06
555.583	352.06
555.795	371.06
556.008	354.06
556.221	356.06
556.433	372.06
556.646	353.06
556.859	376.06
557.071	361.06
557.284	342.06
557.496	346.06
557.709	351.06
557.921	354.06
558.134	344.06
558.346	337.06
558.559	319.06
558.771	322.06
558.984	336.06
559.196	350.06
559.409	323.06
559.621	333.06
559.833	348.06
560.046	344.06
560.258	330.06
560.47	350.06
560.683	344.06
560.895	337.06
561.107	337.06
561.32	343.06
561.532	330.06
561.744	335.06
561.956	359.06
562.168	343.06
562.381	351.06
562.593	340.06
562.805	347.06
563.017	350.06
563.229	327.06
563.441	330.06
563.653	342.06
563.865	346.06
564.077	338.06
564.289	358.06
564.501	332.06
564.713	345.06
564.925	372.06
565.137	361.06
565.349	346.06
565.561	347.06
565.773	367.06
565.985	364.06
566.197	373.06
566.408	373.06
566.62	375.06
566.832	405.06
567.044	383.06
567.255	381.06
567.467	398.06
567.679	407.06
567.891	389.06
568.102	387.06
568.314	388.06
568.526	381.06
568.737	359.06
568.949	371.06
569.161	341.06
569.372	349.06
569.584	345.06
569.795	363.06
570.007	352.06
570.218	400.06
570.43	366.06
570.641	344.06
570.853	330.06
571.064	309.06
571.276	318.06
571.487	312.06
571.698	315.06
571.91	334.06
572.121	320.06
572.333	307.06
572.544	318.06
572.755	301.06
572.966	319.06
573.178	297.06
573.389	302.06
573.6	289.06
573.811	315.06
574.023	308.06
574.234	298.06
574.445	288.06
574.656	294.06
574.867	313.06
575.078	307.06
575.289	314.06
575.501	290.06
575.712	298.06
575.923	280.06
576.134	278.06
576.345	278.06
576.556	283.06
576.767	298.06
576.978	296.06
577.188	282.06
577.399	285.06
577.61	291.06
577.821	283.06
578.032	284.06
578.243	363.06
578.454	597.06
578.665	424.06
578.875	315.06
579.086	303.06
579.297	273.06
579.508	265.06
579.718	286.06
579.929	261.06
580.14	290.06
580.35	276.06
580.561	285.06
580.772	267.06
580.982	270.06
581.193	283.06
581.403	279.06
581.614	272.06
581.825	274.06
582.035	274.06
582.246	284.06
582.456	283.06
582.667	269.06
582.877	271.06
583.087	283.06
583.298	271.06
583.508	278.06
583.719	267.06
583.929	262.06
584.139	262.06
584.35	277.06
584.56	283.06
584.77	269.06
584.981	272.06
585.191	290.06
585.401	277.06
585.611	270.06
585.821	259.06
586.032	291.06
586.242	276.06
586.452	249.06
586.662	259.06
586.872	251.06
587.082	261.06
587.292	264.06
587.502	261.06
587.713	237.06
587.923	256.06
588.133	273.06
588.343	265.06
588.553	271.06
588.762	263.06
588.972	264.06
589.182	277.06
589.392	278.06
589.602	249.06
589.812	265.06
590.022	258.06
590.232	286.06
590.441	279.06
590.651	265.06
590.861	263.06
591.071	261.06
591.281	261.06
591.49	258.06
591.7	258.06
591.91	251.06
592.119	258.06
592.329	292.06
592.539	286.06
592.748	275.06
592.958	263.06
593.167	250.06
593.377	254.06
593.587	282.06
593.796	271.06
594.006	277.06
594.215	267.06
594.424	270.06
594.634	244.06
594.843	269.06
595.053	264.06
595.262	261.06
595.472	269.06
595.681	255.06
595.89	251.06
596.1	261.06
596.309	266.06
596.518	257.06
596.727	256.06
596.937	249.06
597.146	244.06
597.355	252.06
597.564	247.06
597.774	251.06
597.983	235.06
598.192	238.06
598.401	237.06
598.61	243.06
598.819	240.06
599.028	255.06
599.237	222.06
599.446	253.06
599.655	255.06
599.864	235.06
600.073	238.06
600.282	236.06
600.491	240.06
600.7	234.06
600.909	244.06
601.118	235.06
601.327	239.06
601.536	232.06
601.745	237.06
601.953	238.06
602.162	229.06
602.371	227.06
602.58	229.06
602.789	230.06
602.997	224.06
603.206	233.06
603.415	213.06
603.623	240.06
603.832	225.06
604.041	221.06
604.249	229.06
604.458	242.06
604.666	213.06
604.875	201.06
605.084	223.06
605.292	238.06
605.501	227.06
605.709	217.06
605.918	214.06
606.126	212.06
606.334	220.06
606.543	225.06
606.751	221.06
606.96	203.06
607.168	221.06
607.376	192.06
607.585	207.06
607.793	229.06
608.001	209.06
608.21	222.06
608.418	230.06
608.626	207.06
608.834	216.06
609.043	211.06
609.251	207.06
609.459	218.06
609.667	235.06
609.875	224.06
610.083	224.06
610.291	224.06
610.499	219.06
610.707	229.06
610.916	230.06
611.124	228.06
611.332	228.06
611.54	217.06
611.748	223.06
611.955	220.06
612.163	216.06
612.371	206.06
612.579	216.06
612.787	220.06
612.995	222.06
613.203	209.06
613.411	207.06
613.618	213.06
613.826	203.06
614.034	203.06
614.242	226.06
614.449	213.06
614.657	215.06
614.865	207.06
615.072	200.06
615.28	225.06
615.488	209.06
615.695	207.06
615.903	201.06
616.111	205.06
616.318	221.06
616.526	204.06
616.733	208.06
616.941	205.06
617.148	220.06
617.356	196.06
617.563	223.06
617.771	211.06
617.978	208.06
618.185	207.06
618.393	200.06
618.6	204.06
618.807	199.06
619.015	206.06
619.222	213.06
619.429	190.06
619.637	207.06
619.844	204.06
620.051	199.06
620.258	202.06
620.466	197.06
620.673	204.06
620.88	190.06
621.087	217.06
621.294	213.06
621.501	207.06
621.708	212.06
621.915	205.06
622.122	191.06
622.329	205.06
622.536	204.06
622.743	190.06
622.95	173.06
623.157	181.06
623.364	186.06
623.571	196.06
623.778	181.06
623.985	206.06
624.192	204.06
624.399	188.06
624.606	185.06
624.812	199.06
625.019	199.06
625.226	201.06
625.433	198.06
625.639	199.06
625.846	187.06
626.053	183.06
626.259	183.06
626.466	193.06
626.673	195.06
626.879	197.06
627.086	191.06
627.293	190.06
627.499	193.06
627.706	185.06
627.912	185.06
628.119	192.06
628.325	194.06
628.532	190.06
628.738	180.06
628.945	191.06
629.151	191.06
629.357	169.06
629.564	196.06
629.77	191.06
629.976	190.06
630.183	194.06
630.389	186.06
630.595	176.06
630.802	170.06
631.008	172.06
631.214	166.06
631.42	184.06
631.627	191.06
631.833	175.06
632.039	181.06
632.245	175.06
632.451	181.06
632.657	183.06
632.863	169.06
633.069	183.06
633.275	185.06
633.481	192.06
633.688	175.06
633.893	179.06
634.099	166.06
634.305	169.06
634.511	183.06
634.717	159.06
634.923	169.06
635.129	168.06
635.335	166.06
635.541	156.06
635.747	175.06
635.952	165.06
636.158	172.06
636.364	167.06
636.57	167.06
636.775	166.06
636.981	173.06
637.187	180.06
637.392	169.06
637.598	171.06
637.804	186.06
638.009	167.06
638.215	155.06
638.421	175.06
638.626	158.06
638.832	165.06
639.037	144.06
639.243	162.06
639.448	157.06
639.654	173.06
639.859	143.06
640.065	152.06
640.27	172.06
640.475	163.06
640.681	163.06
640.886	167.06
641.091	158.06
641.297	161.06
641.502	172.06
641.707	189.06
641.913	168.06
642.118	175.06
642.323	160.06
642.528	172.06
642.733	171.06
642.939	174.06
643.144	134.06
643.349	153.06
643.554	156.06
643.759	140.06
643.964	157.06
644.169	147.06
644.374	141.06
644.579	155.06
644.784	156.06
644.989	137.06
645.194	157.06
645.399	157.06
645.604	156.06
645.809	148.06
646.014	162.06
646.219	156.06
646.423	163.06
646.628	149.06
646.833	155.06
647.038	159.06
647.243	158.06
647.447	159.06
647.652	151.06
647.857	171.06
648.062	143.06
648.266	133.06
648.471	160.06
648.676	161.06
648.88	158.06
649.085	160.06
649.289	159.06
649.494	161.06
649.698	169.06
649.903	170.06
650.107	177.06
650.312	149.06
650.516	154.06
650.721	144.06
650.925	154.06
651.13	144.06
651.334	129.06
651.539	143.06
651.743	135.06
651.947	134.06
652.152	138.06
652.356	141.06
652.56	146.06
652.764	148.06
652.969	146.06
653.173	141.06
653.377	133.06
653.581	119.06
653.785	137.06
653.99	141.06
654.194	135.06
654.398	133.06
654.602	129.06
654.806	124.06
655.01	124.06
655.214	156.06
655.418	135.06
655.622	123.06
655.826	118.06
656.03	127.06
656.234	122.06
656.438	133.06
656.642	135.06
656.846	125.06
657.049	108.06
657.253	117.06
657.457	124.06
657.661	117.06
657.865	122.06
658.068	112.06
658.272	113.06
658.476	108.06
658.68	117.06
658.883	99.06
659.087	97.06
659.291	108.06
659.494	94.06
659.698	92.06
659.901	94.06
660.105	84.06
660.309	100.06
660.512	98.06
660.716	106.06
660.919	88.06
661.123	96.06
661.326	96.06
661.53	104.06
661.733	84.06
661.936	86.06
662.14	106.06
662.343	85.06
662.546	86.06
662.75	92.06
662.953	89.06
663.156	95.06
663.36	87.06
663.563	90.06
663.766	77.06
663.969	89.06
664.173	86.06
664.376	100.06
664.579	80.06
664.782	89.06
664.985	81.06
665.188	81.06
665.391	84.06
665.594	93.06
665.797	80.06
666	78.06
666.203	76.06
666.406	76.06
666.609	87.06
666.812	96.06
667.015	93.06
667.218	89.06
667.421	84.06
667.624	70.06
667.827	80.06
668.03	96.06
668.232	72.06
668.435	88.06
668.638	83.06
668.841	95.06
669.043	91.06
669.246	87.06
669.449	76.06
669.651	76.06
669.854	82.06
670.057	80.06
670.259	79.06
670.462	78.06
670.665	84.06
670.867	78.06
671.07	83.06
671.272	99.06
671.475	92.06
671.677	86.06
671.88	81.06
672.082	97.06
672.284	80.06
672.487	84.06
672.689	88.06
672.892	92.06
