Data from 1972.PennyLincolnUp.Lamp.En5.5.200Scan.071719.P1._HRD10591_15-28-47-844.txt Node
Date: Thu Jul 18 15:28:47 EDT 2019
User: cochatt
Spectrometer: HR+D1059
Trigger mode: 1
Integration Time (sec): 1.000000E-1
Scans to average: 1
Electric dark correction enabled: true
Nonlinearity correction enabled: false
Boxcar width: 0
XAxis mode: Wavelengths
Number of Pixels in Spectrum: 2048
>>>>>Begin Spectral Data<<<<<
223.165	-8.94
223.4	-8.94
223.635	-8.94
223.869	-4.94
224.104	-17.94
224.338	-9.94
224.573	-16.94
224.808	-13.94
225.042	-8.94
225.277	-2.94
225.511	-7.94
225.746	-11.94
225.98	7.06
226.215	11.06
226.449	7.06
226.683	22.06
226.918	21.06
227.152	36.06
227.387	18.06
227.621	31.06
227.856	54.06
228.09	38.06
228.324	42.06
228.559	66.06
228.793	67.06
229.027	98.06
229.262	116.06
229.496	102.06
229.73	141.06
229.964	175.06
230.199	143.06
230.433	113.06
230.667	105.06
230.901	114.06
231.136	105.06
231.37	127.06
231.604	118.06
231.838	110.06
232.072	114.06
232.306	118.06
232.541	117.06
232.775	107.06
233.009	110.06
233.243	115.06
233.477	109.06
233.711	111.06
233.945	118.06
234.179	124.06
234.413	112.06
234.647	116.06
234.881	108.06
235.115	107.06
235.349	120.06
235.583	118.06
235.817	136.06
236.051	139.06
236.285	130.06
236.519	124.06
236.753	129.06
236.987	143.06
237.221	199.06
237.455	266.06
237.689	189.06
237.922	154.06
238.156	137.06
238.39	139.06
238.624	129.06
238.858	131.06
239.091	128.06
239.325	134.06
239.559	141.06
239.793	111.06
240.027	137.06
240.26	139.06
240.494	152.06
240.728	168.06
240.961	150.06
241.195	151.06
241.429	143.06
241.662	138.06
241.896	134.06
242.13	123.06
242.363	135.06
242.597	133.06
242.83	153.06
243.064	127.06
243.298	149.06
243.531	147.06
243.765	149.06
243.998	146.06
244.232	134.06
244.465	159.06
244.699	136.06
244.932	135.06
245.166	156.06
245.399	136.06
245.633	154.06
245.866	158.06
246.099	148.06
246.333	150.06
246.566	158.06
246.8	172.06
247.033	145.06
247.266	166.06
247.5	163.06
247.733	153.06
247.966	160.06
248.2	180.06
248.433	165.06
248.666	170.06
248.899	186.06
249.133	199.06
249.366	226.06
249.599	207.06
249.832	184.06
250.066	190.06
250.299	181.06
250.532	187.06
250.765	208.06
250.998	205.06
251.231	231.06
251.465	216.06
251.698	204.06
251.931	203.06
252.164	195.06
252.397	201.06
252.63	212.06
252.863	217.06
253.096	219.06
253.329	245.06
253.562	218.06
253.795	224.06
254.028	233.06
254.261	222.06
254.494	232.06
254.727	270.06
254.96	298.06
255.193	285.06
255.426	263.06
255.659	239.06
255.892	247.06
256.124	245.06
256.357	244.06
256.59	254.06
256.823	233.06
257.056	225.06
257.289	210.06
257.521	231.06
257.754	216.06
257.987	211.06
258.22	207.06
258.452	204.06
258.685	206.06
258.918	210.06
259.151	195.06
259.383	215.06
259.616	220.06
259.849	221.06
260.081	224.06
260.314	251.06
260.547	272.06
260.779	257.06
261.012	234.06
261.244	248.06
261.477	228.06
261.71	213.06
261.942	223.06
262.175	247.06
262.407	235.06
262.64	200.06
262.872	217.06
263.105	216.06
263.337	215.06
263.57	224.06
263.802	215.06
264.035	205.06
264.267	203.06
264.499	206.06
264.732	217.06
264.964	197.06
265.197	198.06
265.429	213.06
265.661	211.06
265.894	211.06
266.126	215.06
266.358	215.06
266.591	218.06
266.823	233.06
267.055	233.06
267.287	236.06
267.52	211.06
267.752	219.06
267.984	223.06
268.216	199.06
268.448	222.06
268.681	231.06
268.913	235.06
269.145	250.06
269.377	268.06
269.609	260.06
269.841	279.06
270.073	281.06
270.306	292.06
270.538	318.06
270.77	332.06
271.002	326.06
271.234	301.06
271.466	300.06
271.698	332.06
271.93	332.06
272.162	340.06
272.394	323.06
272.626	287.06
272.858	290.06
273.09	275.06
273.322	291.06
273.553	271.06
273.785	278.06
274.017	260.06
274.249	253.06
274.481	266.06
274.713	283.06
274.945	270.06
275.176	247.06
275.408	279.06
275.64	271.06
275.872	255.06
276.104	280.06
276.335	270.06
276.567	301.06
276.799	297.06
277.031	310.06
277.262	316.06
277.494	304.06
277.726	299.06
277.957	312.06
278.189	280.06
278.421	262.06
278.652	286.06
278.884	268.06
279.115	258.06
279.347	258.06
279.579	273.06
279.81	261.06
280.042	258.06
280.273	258.06
280.505	275.06
280.736	262.06
280.968	258.06
281.199	261.06
281.431	252.06
281.662	266.06
281.894	268.06
282.125	270.06
282.356	270.06
282.588	317.06
282.819	312.06
283.051	278.06
283.282	260.06
283.513	262.06
283.745	263.06
283.976	273.06
284.207	262.06
284.439	264.06
284.67	268.06
284.901	263.06
285.132	270.06
285.364	279.06
285.595	270.06
285.826	266.06
286.057	256.06
286.288	264.06
286.52	239.06
286.751	268.06
286.982	268.06
287.213	272.06
287.444	272.06
287.675	268.06
287.906	276.06
288.138	278.06
288.369	293.06
288.6	302.06
288.831	281.06
289.062	277.06
289.293	266.06
289.524	266.06
289.755	248.06
289.986	274.06
290.217	271.06
290.448	251.06
290.679	277.06
290.91	277.06
291.141	261.06
291.371	270.06
291.602	283.06
291.833	274.06
292.064	269.06
292.295	258.06
292.526	263.06
292.757	278.06
292.987	270.06
293.218	284.06
293.449	272.06
293.68	267.06
293.91	271.06
294.141	273.06
294.372	275.06
294.603	283.06
294.833	279.06
295.064	269.06
295.295	277.06
295.525	275.06
295.756	300.06
295.987	302.06
296.217	336.06
296.448	326.06
296.679	291.06
296.909	271.06
297.14	278.06
297.37	279.06
297.601	296.06
297.831	280.06
298.062	299.06
298.292	271.06
298.523	298.06
298.753	276.06
298.984	280.06
299.214	277.06
299.445	276.06
299.675	283.06
299.905	297.06
300.136	288.06
300.366	299.06
300.597	289.06
300.827	306.06
301.057	312.06
301.288	324.06
301.518	286.06
301.748	303.06
301.979	306.06
302.209	304.06
302.439	313.06
302.669	310.06
302.9	311.06
303.13	310.06
303.36	310.06
303.59	298.06
303.82	321.06
304.051	321.06
304.281	308.06
304.511	310.06
304.741	295.06
304.971	296.06
305.201	311.06
305.431	312.06
305.661	302.06
305.891	288.06
306.121	302.06
306.352	323.06
306.582	337.06
306.812	309.06
307.042	315.06
307.272	303.06
307.502	314.06
307.731	328.06
307.961	321.06
308.191	331.06
308.421	310.06
308.651	324.06
308.881	310.06
309.111	326.06
309.341	307.06
309.571	340.06
309.8	361.06
310.03	347.06
310.26	355.06
310.49	366.06
310.72	370.06
310.949	404.06
311.179	389.06
311.409	374.06
311.639	359.06
311.868	353.06
312.098	363.06
312.328	359.06
312.557	399.06
312.787	410.06
313.017	406.06
313.246	410.06
313.476	378.06
313.706	371.06
313.935	374.06
314.165	402.06
314.394	404.06
314.624	374.06
314.853	372.06
315.083	380.06
315.312	359.06
315.542	374.06
315.771	354.06
316.001	345.06
316.23	363.06
316.46	357.06
316.689	350.06
316.919	381.06
317.148	380.06
317.377	373.06
317.607	384.06
317.836	384.06
318.065	351.06
318.295	371.06
318.524	351.06
318.753	359.06
318.983	383.06
319.212	356.06
319.441	370.06
319.67	363.06
319.9	374.06
320.129	361.06
320.358	372.06
320.587	374.06
320.816	353.06
321.046	384.06
321.275	388.06
321.504	387.06
321.733	406.06
321.962	402.06
322.191	419.06
322.42	429.06
322.649	432.06
322.878	462.06
323.108	476.06
323.337	496.06
323.566	557.06
323.795	576.06
324.024	628.06
324.253	800.06
324.482	1133.06
324.71	1814.06
324.939	2670.06
325.168	2311.06
325.397	1160.06
325.626	751.06
325.855	597.06
326.084	571.06
326.313	553.06
326.542	556.06
326.77	595.06
326.999	696.06
327.228	1029.06
327.457	1568.06
327.686	1930.06
327.914	1323.06
328.143	824.06
328.372	724.06
328.6	669.06
328.829	594.06
329.058	642.06
329.287	648.06
329.515	588.06
329.744	541.06
329.972	586.06
330.201	574.06
330.43	602.06
330.658	656.06
330.887	654.06
331.115	639.06
331.344	559.06
331.572	504.06
331.801	487.06
332.03	484.06
332.258	470.06
332.486	441.06
332.715	444.06
332.943	424.06
333.172	425.06
333.4	438.06
333.629	459.06
333.857	436.06
334.085	456.06
334.314	507.06
334.542	557.06
334.771	557.06
334.999	491.06
335.227	470.06
335.455	433.06
335.684	443.06
335.912	433.06
336.14	426.06
336.369	413.06
336.597	431.06
336.825	433.06
337.053	413.06
337.281	424.06
337.51	434.06
337.738	407.06
337.966	434.06
338.194	412.06
338.422	416.06
338.65	401.06
338.878	412.06
339.106	396.06
339.334	412.06
339.562	411.06
339.79	387.06
340.018	406.06
340.246	418.06
340.474	421.06
340.702	391.06
340.93	400.06
341.158	393.06
341.386	415.06
341.614	415.06
341.842	413.06
342.07	418.06
342.298	398.06
342.526	399.06
342.754	387.06
342.981	390.06
343.209	387.06
343.437	370.06
343.665	379.06
343.893	425.06
344.12	402.06
344.348	371.06
344.576	393.06
344.804	392.06
345.031	430.06
345.259	418.06
345.487	409.06
345.714	392.06
345.942	397.06
346.17	398.06
346.397	404.06
346.625	407.06
346.853	402.06
347.08	390.06
347.308	393.06
347.535	414.06
347.763	441.06
347.99	416.06
348.218	416.06
348.445	407.06
348.673	415.06
348.9	407.06
349.128	383.06
349.355	372.06
349.583	378.06
349.81	367.06
350.037	384.06
350.265	382.06
350.492	365.06
350.72	363.06
350.947	380.06
351.174	402.06
351.402	411.06
351.629	387.06
351.856	426.06
352.083	416.06
352.311	432.06
352.538	406.06
352.765	402.06
352.992	413.06
353.22	410.06
353.447	377.06
353.674	367.06
353.901	365.06
354.128	355.06
354.355	359.06
354.583	352.06
354.81	368.06
355.037	351.06
355.264	360.06
355.491	351.06
355.718	360.06
355.945	343.06
356.172	344.06
356.399	362.06
356.626	330.06
356.853	347.06
357.08	350.06
357.307	346.06
357.534	343.06
357.761	357.06
357.988	347.06
358.215	362.06
358.441	352.06
358.668	348.06
358.895	371.06
359.122	374.06
359.349	372.06
359.576	395.06
359.802	434.06
360.029	475.06
360.256	471.06
360.483	443.06
360.709	416.06
360.936	402.06
361.163	386.06
361.39	391.06
361.616	408.06
361.843	379.06
362.07	372.06
362.296	399.06
362.523	418.06
362.749	386.06
362.976	382.06
363.203	384.06
363.429	358.06
363.656	356.06
363.882	371.06
364.109	363.06
364.335	376.06
364.562	368.06
364.788	373.06
365.015	368.06
365.241	366.06
365.468	375.06
365.694	382.06
365.92	376.06
366.147	349.06
366.373	363.06
366.599	349.06
366.826	360.06
367.052	356.06
367.278	352.06
367.505	351.06
367.731	368.06
367.957	362.06
368.184	365.06
368.41	376.06
368.636	370.06
368.862	374.06
369.089	367.06
369.315	354.06
369.541	364.06
369.767	355.06
369.993	348.06
370.219	354.06
370.445	349.06
370.672	333.06
370.898	357.06
371.124	342.06
371.35	358.06
371.576	327.06
371.802	363.06
372.028	345.06
372.254	327.06
372.48	340.06
372.706	341.06
372.932	349.06
373.158	343.06
373.384	342.06
373.61	366.06
373.835	348.06
374.061	356.06
374.287	353.06
374.513	352.06
374.739	350.06
374.965	341.06
375.191	345.06
375.416	325.06
375.642	353.06
375.868	357.06
376.094	352.06
376.319	341.06
376.545	349.06
376.771	337.06
376.997	328.06
377.222	344.06
377.448	323.06
377.674	342.06
377.899	346.06
378.125	346.06
378.35	351.06
378.576	342.06
378.802	318.06
379.027	341.06
379.253	340.06
379.478	346.06
379.704	344.06
379.929	350.06
380.155	335.06
380.38	338.06
380.606	359.06
380.831	344.06
381.057	355.06
381.282	347.06
381.507	343.06
381.733	372.06
381.958	328.06
382.184	341.06
382.409	345.06
382.634	349.06
382.86	337.06
383.085	356.06
383.31	350.06
383.535	359.06
383.761	375.06
383.986	358.06
384.211	374.06
384.436	358.06
384.662	363.06
384.887	352.06
385.112	335.06
385.337	357.06
385.562	377.06
385.787	364.06
386.013	392.06
386.238	370.06
386.463	374.06
386.688	377.06
386.913	365.06
387.138	350.06
387.363	364.06
387.588	362.06
387.813	348.06
388.038	361.06
388.263	379.06
388.488	362.06
388.713	372.06
388.938	348.06
389.163	373.06
389.387	376.06
389.612	355.06
389.837	346.06
390.062	358.06
390.287	372.06
390.512	361.06
390.736	348.06
390.961	362.06
391.186	375.06
391.411	372.06
391.636	365.06
391.86	363.06
392.085	359.06
392.31	365.06
392.534	393.06
392.759	388.06
392.984	373.06
393.208	364.06
393.433	382.06
393.658	378.06
393.882	348.06
394.107	352.06
394.331	355.06
394.556	365.06
394.78	381.06
395.005	358.06
395.229	350.06
395.454	360.06
395.678	394.06
395.903	389.06
396.127	411.06
396.352	418.06
396.576	394.06
396.801	389.06
397.025	377.06
397.249	394.06
397.474	391.06
397.698	384.06
397.922	398.06
398.147	401.06
398.371	416.06
398.595	411.06
398.82	420.06
399.044	413.06
399.268	432.06
399.492	430.06
399.717	445.06
399.941	458.06
400.165	516.06
400.389	526.06
400.613	471.06
400.837	455.06
401.062	425.06
401.286	419.06
401.51	434.06
401.734	400.06
401.958	419.06
402.182	412.06
402.406	446.06
402.63	454.06
402.854	431.06
403.078	444.06
403.302	424.06
403.526	421.06
403.75	425.06
403.974	424.06
404.198	434.06
404.422	434.06
404.645	425.06
404.869	471.06
405.093	487.06
405.317	522.06
405.541	561.06
405.765	511.06
405.988	483.06
406.212	463.06
406.436	519.06
406.66	516.06
406.883	467.06
407.107	532.06
407.331	546.06
407.555	599.06
407.778	607.06
408.002	531.06
408.226	481.06
408.449	468.06
408.673	502.06
408.896	515.06
409.12	559.06
409.344	521.06
409.567	482.06
409.791	429.06
410.014	452.06
410.238	415.06
410.461	438.06
410.685	446.06
410.908	474.06
411.132	487.06
411.355	526.06
411.578	506.06
411.802	458.06
412.025	450.06
412.249	454.06
412.472	463.06
412.695	525.06
412.919	498.06
413.142	464.06
413.365	422.06
413.589	424.06
413.812	442.06
414.035	418.06
414.258	414.06
414.482	420.06
414.705	396.06
414.928	417.06
415.151	404.06
415.374	407.06
415.597	405.06
415.821	406.06
416.044	422.06
416.267	406.06
416.49	405.06
416.713	423.06
416.936	417.06
417.159	396.06
417.382	422.06
417.605	422.06
417.828	436.06
418.051	429.06
418.274	413.06
418.497	403.06
418.72	399.06
418.943	414.06
419.166	406.06
419.389	458.06
419.611	434.06
419.834	432.06
420.057	437.06
420.28	449.06
420.503	447.06
420.726	456.06
420.948	453.06
421.171	498.06
421.394	516.06
421.617	460.06
421.839	442.06
422.062	448.06
422.285	461.06
422.507	515.06
422.73	584.06
422.953	557.06
423.175	508.06
423.398	468.06
423.621	488.06
423.843	468.06
424.066	486.06
424.288	470.06
424.511	485.06
424.733	545.06
424.956	616.06
425.178	610.06
425.401	605.06
425.623	639.06
425.846	534.06
426.068	521.06
426.291	500.06
426.513	499.06
426.735	503.06
426.958	563.06
427.18	638.06
427.402	722.06
427.625	852.06
427.847	771.06
428.069	662.06
428.292	558.06
428.514	522.06
428.736	481.06
428.958	477.06
429.181	447.06
429.403	468.06
429.625	449.06
429.847	480.06
430.069	534.06
430.292	551.06
430.514	485.06
430.736	444.06
430.958	452.06
431.18	436.06
431.402	424.06
431.624	427.06
431.846	418.06
432.068	400.06
432.29	431.06
432.512	436.06
432.734	403.06
432.956	428.06
433.178	443.06
433.4	453.06
433.622	428.06
433.844	410.06
434.066	413.06
434.287	414.06
434.509	422.06
434.731	427.06
434.953	429.06
435.175	453.06
435.397	464.06
435.618	492.06
435.84	550.06
436.062	638.06
436.284	720.06
436.505	599.06
436.727	529.06
436.949	474.06
437.17	457.06
437.392	485.06
437.614	475.06
437.835	500.06
438.057	598.06
438.278	725.06
438.5	717.06
438.721	790.06
438.943	754.06
439.165	594.06
439.386	530.06
439.608	525.06
439.829	532.06
440.05	558.06
440.272	604.06
440.493	584.06
440.715	498.06
440.936	496.06
441.158	458.06
441.379	449.06
441.6	474.06
441.822	499.06
442.043	532.06
442.264	610.06
442.486	674.06
442.707	582.06
442.928	517.06
443.149	537.06
443.371	556.06
443.592	594.06
443.813	686.06
444.034	718.06
444.255	575.06
444.476	521.06
444.698	488.06
444.919	497.06
445.14	585.06
445.361	562.06
445.582	570.06
445.803	621.06
446.024	734.06
446.245	740.06
446.466	670.06
446.687	570.06
446.908	528.06
447.129	478.06
447.35	484.06
447.571	438.06
447.792	463.06
448.013	452.06
448.234	514.06
448.455	548.06
448.675	648.06
448.896	793.06
449.117	638.06
449.338	632.06
449.559	694.06
449.779	814.06
450	638.06
450.221	550.06
450.442	480.06
450.662	445.06
450.883	479.06
451.104	480.06
451.324	470.06
451.545	450.06
451.766	423.06
451.986	412.06
452.207	410.06
452.428	397.06
452.648	411.06
452.869	410.06
453.089	414.06
453.31	434.06
453.53	442.06
453.751	409.06
453.971	405.06
454.192	427.06
454.412	446.06
454.633	431.06
454.853	426.06
455.073	415.06
455.294	445.06
455.514	520.06
455.734	514.06
455.955	422.06
456.175	398.06
456.395	387.06
456.616	365.06
456.836	376.06
457.056	381.06
457.276	360.06
457.497	383.06
457.717	392.06
457.937	386.06
458.157	399.06
458.377	388.06
458.598	426.06
458.818	483.06
459.038	583.06
459.258	582.06
459.478	485.06
459.698	434.06
459.918	422.06
460.138	414.06
460.358	408.06
460.578	416.06
460.798	427.06
461.018	430.06
461.238	415.06
461.458	406.06
461.678	422.06
461.898	413.06
462.118	406.06
462.338	424.06
462.558	420.06
462.777	439.06
462.997	414.06
463.217	407.06
463.437	437.06
463.657	427.06
463.876	457.06
464.096	438.06
464.316	428.06
464.536	450.06
464.755	451.06
464.975	441.06
465.195	482.06
465.414	603.06
465.634	508.06
465.854	482.06
466.073	429.06
466.293	438.06
466.512	411.06
466.732	398.06
466.951	414.06
467.171	401.06
467.391	410.06
467.61	439.06
467.829	428.06
468.049	414.06
468.268	434.06
468.488	450.06
468.707	419.06
468.927	406.06
469.146	386.06
469.365	388.06
469.585	394.06
469.804	413.06
470.023	408.06
470.243	428.06
470.462	437.06
470.681	442.06
470.901	444.06
471.12	450.06
471.339	415.06
471.558	413.06
471.777	435.06
471.997	408.06
472.216	429.06
472.435	475.06
472.654	465.06
472.873	428.06
473.092	419.06
473.311	418.06
473.53	434.06
473.749	427.06
473.968	465.06
474.187	600.06
474.406	631.06
474.625	508.06
474.844	420.06
475.063	416.06
475.282	430.06
475.501	412.06
475.72	408.06
475.939	420.06
476.158	426.06
476.377	438.06
476.596	423.06
476.814	426.06
477.033	427.06
477.252	455.06
477.471	458.06
477.69	440.06
477.908	439.06
478.127	450.06
478.346	446.06
478.564	445.06
478.783	442.06
479.002	480.06
479.22	474.06
479.439	477.06
479.658	506.06
479.876	494.06
480.095	504.06
480.313	535.06
480.532	527.06
480.751	504.06
480.969	539.06
481.188	619.06
481.406	681.06
481.624	548.06
481.843	532.06
482.061	519.06
482.28	512.06
482.498	490.06
482.717	504.06
482.935	482.06
483.153	483.06
483.372	490.06
483.59	500.06
483.808	484.06
484.027	494.06
484.245	491.06
484.463	484.06
484.681	495.06
484.9	496.06
485.118	471.06
485.336	512.06
485.554	519.06
485.772	500.06
485.99	510.06
486.209	488.06
486.427	526.06
486.645	529.06
486.863	522.06
487.081	548.06
487.299	527.06
487.517	533.06
487.735	534.06
487.953	537.06
488.171	532.06
488.389	522.06
488.607	538.06
488.825	540.06
489.043	547.06
489.261	514.06
489.479	546.06
489.696	548.06
489.914	536.06
490.132	564.06
490.35	569.06
490.568	555.06
490.786	552.06
491.003	587.06
491.221	589.06
491.439	600.06
491.657	588.06
491.874	614.06
492.092	586.06
492.31	595.06
492.527	621.06
492.745	611.06
492.963	616.06
493.18	626.06
493.398	630.06
493.615	629.06
493.833	629.06
494.05	637.06
494.268	611.06
494.485	630.06
494.703	632.06
494.92	627.06
495.138	615.06
495.355	626.06
495.573	616.06
495.79	651.06
496.008	662.06
496.225	631.06
496.442	629.06
496.66	639.06
496.877	634.06
497.094	632.06
497.312	645.06
497.529	645.06
497.746	635.06
497.963	659.06
498.181	672.06
498.398	678.06
498.615	669.06
498.832	677.06
499.049	697.06
499.267	678.06
499.484	678.06
499.701	706.06
499.918	694.06
500.135	744.06
500.352	779.06
500.569	753.06
500.786	762.06
501.003	784.06
501.22	764.06
501.437	751.06
501.654	768.06
501.871	760.06
502.088	727.06
502.305	719.06
502.522	692.06
502.739	702.06
502.956	687.06
503.172	690.06
503.389	646.06
503.606	668.06
503.823	657.06
504.04	650.06
504.256	645.06
504.473	623.06
504.69	619.06
504.907	612.06
505.123	612.06
505.34	613.06
505.557	621.06
505.773	622.06
505.99	619.06
506.207	611.06
506.423	606.06
506.64	606.06
506.856	597.06
507.073	621.06
507.289	583.06
507.506	625.06
507.722	604.06
507.939	638.06
508.155	604.06
508.372	601.06
508.588	597.06
508.805	605.06
509.021	620.06
509.238	612.06
509.454	601.06
509.67	607.06
509.887	610.06
510.103	596.06
510.319	608.06
510.536	719.06
510.752	1275.06
510.968	1020.06
511.184	649.06
511.401	579.06
511.617	608.06
511.833	595.06
512.049	582.06
512.265	563.06
512.481	576.06
512.698	562.06
512.914	554.06
513.13	569.06
513.346	558.06
513.562	559.06
513.778	571.06
513.994	603.06
514.21	608.06
514.426	632.06
514.642	687.06
514.858	699.06
515.074	740.06
515.29	933.06
515.506	1467.06
515.721	1142.06
515.937	758.06
516.153	667.06
516.369	623.06
516.585	607.06
516.801	585.06
517.016	593.06
517.232	556.06
517.448	568.06
517.664	614.06
517.879	581.06
518.095	587.06
518.311	552.06
518.527	552.06
518.742	543.06
518.958	578.06
519.173	550.06
519.389	580.06
519.605	581.06
519.82	565.06
520.036	576.06
520.251	640.06
520.467	661.06
520.682	663.06
520.898	670.06
521.113	698.06
521.329	749.06
521.544	882.06
521.76	1127.06
521.975	1982.06
522.19	1950.06
522.406	1022.06
522.621	730.06
522.836	640.06
523.052	586.06
523.267	572.06
523.482	543.06
523.698	528.06
523.913	540.06
524.128	510.06
524.343	522.06
524.559	493.06
524.774	498.06
524.989	520.06
525.204	492.06
525.419	516.06
525.634	489.06
525.849	485.06
526.064	473.06
526.28	482.06
526.495	488.06
526.71	460.06
526.925	468.06
527.14	452.06
527.355	458.06
527.57	432.06
527.785	461.06
527.999	440.06
528.214	463.06
528.429	461.06
528.644	455.06
528.859	465.06
529.074	453.06
529.289	482.06
529.503	580.06
529.718	555.06
529.933	506.06
530.148	484.06
530.363	474.06
530.577	459.06
530.792	470.06
531.007	470.06
531.221	431.06
531.436	423.06
531.651	434.06
531.865	438.06
532.08	415.06
532.295	431.06
532.509	409.06
532.724	419.06
532.938	422.06
533.153	434.06
533.367	420.06
533.582	428.06
533.796	439.06
534.011	426.06
534.225	424.06
534.44	423.06
534.654	422.06
534.868	417.06
535.083	423.06
535.297	414.06
535.511	434.06
535.726	436.06
535.94	440.06
536.154	423.06
536.369	443.06
536.583	418.06
536.797	434.06
537.011	424.06
537.225	405.06
537.44	407.06
537.654	394.06
537.868	413.06
538.082	415.06
538.296	405.06
538.51	408.06
538.724	404.06
538.938	409.06
539.153	414.06
539.367	416.06
539.581	429.06
539.795	413.06
540.009	418.06
540.222	421.06
540.436	424.06
540.65	419.06
540.864	413.06
541.078	435.06
541.292	420.06
541.506	410.06
541.72	416.06
541.934	412.06
542.147	407.06
542.361	406.06
542.575	379.06
542.789	424.06
543.002	428.06
543.216	410.06
543.43	427.06
543.644	397.06
543.857	388.06
544.071	432.06
544.285	396.06
544.498	383.06
544.712	413.06
544.925	407.06
545.139	388.06
545.352	389.06
545.566	414.06
545.779	395.06
545.993	403.06
546.206	394.06
546.42	379.06
546.633	396.06
546.847	384.06
547.06	391.06
547.274	376.06
547.487	380.06
547.7	376.06
547.914	389.06
548.127	387.06
548.34	374.06
548.554	374.06
548.767	380.06
548.98	379.06
549.193	387.06
549.407	389.06
549.62	374.06
549.833	367.06
550.046	376.06
550.259	362.06
550.473	370.06
550.686	378.06
550.899	374.06
551.112	367.06
551.325	384.06
551.538	378.06
551.751	359.06
551.964	364.06
552.177	377.06
552.39	374.06
552.603	372.06
552.816	364.06
553.029	389.06
553.242	382.06
553.455	395.06
553.667	411.06
553.88	398.06
554.093	399.06
554.306	401.06
554.519	389.06
554.732	380.06
554.944	380.06
555.157	351.06
555.37	362.06
555.583	363.06
555.795	363.06
556.008	372.06
556.221	348.06
556.433	367.06
556.646	360.06
556.859	347.06
557.071	376.06
557.284	364.06
557.496	340.06
557.709	355.06
557.921	340.06
558.134	356.06
558.346	360.06
558.559	343.06
558.771	324.06
558.984	330.06
559.196	345.06
559.409	357.06
559.621	340.06
559.833	327.06
560.046	342.06
560.258	366.06
560.47	362.06
560.683	347.06
560.895	352.06
561.107	325.06
561.32	329.06
561.532	314.06
561.744	335.06
561.956	340.06
562.168	346.06
562.381	316.06
562.593	361.06
562.805	336.06
563.017	351.06
563.229	363.06
563.441	347.06
563.653	333.06
563.865	325.06
564.077	329.06
564.289	348.06
564.501	343.06
564.713	340.06
564.925	360.06
565.137	363.06
565.349	370.06
565.561	381.06
565.773	348.06
565.985	355.06
566.197	376.06
566.408	383.06
566.62	371.06
566.832	368.06
567.044	374.06
567.255	374.06
567.467	387.06
567.679	379.06
567.891	390.06
568.102	375.06
568.314	379.06
568.526	361.06
568.737	382.06
568.949	376.06
569.161	339.06
569.372	336.06
569.584	341.06
569.795	344.06
570.007	349.06
570.218	408.06
570.43	402.06
570.641	322.06
570.853	325.06
571.064	324.06
571.276	340.06
571.487	326.06
571.698	317.06
571.91	319.06
572.121	293.06
572.333	310.06
572.544	296.06
572.755	316.06
572.966	319.06
573.178	299.06
573.389	301.06
573.6	298.06
573.811	287.06
574.023	301.06
574.234	311.06
574.445	303.06
574.656	303.06
574.867	307.06
575.078	299.06
575.289	293.06
575.501	285.06
575.712	297.06
575.923	272.06
576.134	297.06
576.345	298.06
576.556	316.06
576.767	290.06
576.978	307.06
577.188	306.06
577.399	295.06
577.61	291.06
577.821	301.06
578.032	291.06
578.243	326.06
578.454	597.06
578.665	431.06
578.875	303.06
579.086	295.06
579.297	293.06
579.508	293.06
579.718	278.06
579.929	300.06
580.14	282.06
580.35	268.06
580.561	288.06
580.772	288.06
580.982	280.06
581.193	286.06
581.403	270.06
581.614	276.06
581.825	260.06
582.035	279.06
582.246	271.06
582.456	264.06
582.667	294.06
582.877	280.06
583.087	270.06
583.298	271.06
583.508	288.06
583.719	288.06
583.929	271.06
584.139	275.06
584.35	278.06
584.56	282.06
584.77	261.06
584.981	280.06
585.191	278.06
585.401	264.06
585.611	261.06
585.821	263.06
586.032	268.06
586.242	266.06
586.452	265.06
586.662	267.06
586.872	262.06
587.082	264.06
587.292	258.06
587.502	261.06
587.713	266.06
587.923	251.06
588.133	266.06
588.343	258.06
588.553	262.06
588.762	260.06
588.972	261.06
589.182	276.06
589.392	272.06
589.602	268.06
589.812	264.06
590.022	250.06
590.232	268.06
590.441	264.06
590.651	242.06
590.861	258.06
591.071	261.06
591.281	249.06
591.49	259.06
591.7	259.06
591.91	243.06
592.119	237.06
592.329	262.06
592.539	276.06
592.748	290.06
592.958	267.06
593.167	269.06
593.377	278.06
593.587	256.06
593.796	242.06
594.006	240.06
594.215	264.06
594.424	270.06
594.634	267.06
594.843	262.06
595.053	258.06
595.262	255.06
595.472	273.06
595.681	237.06
595.89	246.06
596.1	265.06
596.309	254.06
596.518	256.06
596.727	265.06
596.937	248.06
597.146	265.06
597.355	248.06
597.564	237.06
597.774	245.06
597.983	243.06
598.192	257.06
598.401	223.06
598.61	240.06
598.819	239.06
599.028	231.06
599.237	245.06
599.446	230.06
599.655	234.06
599.864	240.06
600.073	214.06
600.282	230.06
600.491	226.06
600.7	228.06
600.909	230.06
601.118	237.06
601.327	220.06
601.536	216.06
601.745	235.06
601.953	217.06
602.162	239.06
602.371	230.06
602.58	228.06
602.789	235.06
602.997	221.06
603.206	229.06
603.415	224.06
603.623	206.06
603.832	223.06
604.041	230.06
604.249	235.06
604.458	236.06
604.666	227.06
604.875	234.06
605.084	208.06
605.292	215.06
605.501	218.06
605.709	222.06
605.918	224.06
606.126	221.06
606.334	217.06
606.543	226.06
606.751	222.06
606.96	202.06
607.168	212.06
607.376	224.06
607.585	211.06
607.793	233.06
608.001	229.06
608.21	234.06
608.418	218.06
608.626	213.06
608.834	226.06
609.043	206.06
609.251	223.06
609.459	207.06
609.667	215.06
609.875	236.06
610.083	229.06
610.291	228.06
610.499	219.06
610.707	207.06
610.916	222.06
611.124	208.06
611.332	214.06
611.54	225.06
611.748	225.06
611.955	229.06
612.163	205.06
612.371	207.06
612.579	217.06
612.787	218.06
612.995	206.06
613.203	208.06
613.411	229.06
613.618	225.06
613.826	210.06
614.034	226.06
614.242	221.06
614.449	222.06
614.657	207.06
614.865	213.06
615.072	221.06
615.28	198.06
615.488	199.06
615.695	205.06
615.903	221.06
616.111	208.06
616.318	197.06
616.526	203.06
616.733	206.06
616.941	216.06
617.148	206.06
617.356	189.06
617.563	221.06
617.771	216.06
617.978	199.06
618.185	186.06
618.393	227.06
618.6	212.06
618.807	215.06
619.015	220.06
619.222	195.06
619.429	199.06
619.637	214.06
619.844	222.06
620.051	196.06
620.258	214.06
620.466	218.06
620.673	208.06
620.88	203.06
621.087	195.06
621.294	200.06
621.501	203.06
621.708	197.06
621.915	196.06
622.122	205.06
622.329	194.06
622.536	208.06
622.743	205.06
622.95	204.06
623.157	207.06
623.364	199.06
623.571	180.06
623.778	198.06
623.985	206.06
624.192	183.06
624.399	198.06
624.606	190.06
624.812	180.06
625.019	188.06
625.226	200.06
625.433	202.06
625.639	175.06
625.846	194.06
626.053	185.06
626.259	196.06
626.466	191.06
626.673	200.06
626.879	193.06
627.086	178.06
627.293	195.06
627.499	190.06
627.706	194.06
627.912	191.06
628.119	180.06
628.325	182.06
628.532	168.06
628.738	179.06
628.945	195.06
629.151	186.06
629.357	184.06
629.564	185.06
629.77	191.06
629.976	176.06
630.183	172.06
630.389	179.06
630.595	178.06
630.802	188.06
631.008	174.06
631.214	186.06
631.42	175.06
631.627	179.06
631.833	174.06
632.039	180.06
632.245	174.06
632.451	165.06
632.657	175.06
632.863	174.06
633.069	170.06
633.275	168.06
633.481	170.06
633.688	162.06
633.893	177.06
634.099	169.06
634.305	162.06
634.511	159.06
634.717	180.06
634.923	171.06
635.129	158.06
635.335	186.06
635.541	165.06
635.747	150.06
635.952	157.06
636.158	151.06
636.364	178.06
636.57	168.06
636.775	190.06
636.981	174.06
637.187	176.06
637.392	165.06
637.598	153.06
637.804	165.06
638.009	176.06
638.215	162.06
638.421	158.06
638.626	164.06
638.832	148.06
639.037	170.06
639.243	171.06
639.448	162.06
639.654	165.06
639.859	168.06
640.065	168.06
640.27	167.06
640.475	157.06
640.681	169.06
640.886	154.06
641.091	162.06
641.297	152.06
641.502	169.06
641.707	180.06
641.913	148.06
642.118	171.06
642.323	154.06
642.528	172.06
642.733	150.06
642.939	150.06
643.144	162.06
643.349	151.06
643.554	151.06
643.759	165.06
643.964	145.06
644.169	152.06
644.374	143.06
644.579	148.06
644.784	156.06
644.989	144.06
645.194	156.06
645.399	152.06
645.604	159.06
645.809	162.06
646.014	142.06
646.219	150.06
646.423	145.06
646.628	162.06
646.833	165.06
647.038	159.06
647.243	146.06
647.447	166.06
647.652	160.06
647.857	157.06
648.062	139.06
648.266	166.06
648.471	162.06
648.676	151.06
648.88	162.06
649.085	158.06
649.289	172.06
649.494	159.06
649.698	160.06
649.903	181.06
650.107	156.06
650.312	138.06
650.516	152.06
650.721	148.06
650.925	134.06
651.13	145.06
651.334	157.06
651.539	134.06
651.743	142.06
651.947	127.06
652.152	146.06
652.356	142.06
652.56	130.06
652.764	153.06
652.969	131.06
653.173	140.06
653.377	134.06
653.581	132.06
653.785	122.06
653.99	137.06
654.194	139.06
654.398	137.06
654.602	128.06
654.806	130.06
655.01	141.06
655.214	144.06
655.418	125.06
655.622	139.06
655.826	117.06
656.03	124.06
656.234	143.06
656.438	126.06
656.642	125.06
656.846	119.06
657.049	132.06
657.253	122.06
657.457	122.06
657.661	115.06
657.865	108.06
658.068	116.06
658.272	107.06
658.476	119.06
658.68	102.06
658.883	110.06
659.087	99.06
659.291	91.06
659.494	86.06
659.698	94.06
659.901	100.06
660.105	93.06
660.309	86.06
660.512	100.06
660.716	92.06
660.919	87.06
661.123	90.06
661.326	89.06
661.53	90.06
661.733	87.06
661.936	90.06
662.14	94.06
662.343	91.06
662.546	81.06
662.75	77.06
662.953	91.06
663.156	85.06
663.36	82.06
663.563	90.06
663.766	97.06
663.969	95.06
664.173	86.06
664.376	87.06
664.579	109.06
664.782	85.06
664.985	70.06
665.188	85.06
665.391	80.06
665.594	78.06
665.797	88.06
666	87.06
666.203	86.06
666.406	89.06
666.609	79.06
666.812	74.06
667.015	78.06
667.218	83.06
667.421	78.06
667.624	77.06
667.827	80.06
668.03	89.06
668.232	84.06
668.435	83.06
668.638	64.06
668.841	75.06
669.043	83.06
669.246	84.06
669.449	74.06
669.651	95.06
669.854	89.06
670.057	82.06
670.259	107.06
670.462	82.06
670.665	85.06
670.867	96.06
671.07	76.06
671.272	88.06
671.475	94.06
671.677	74.06
671.88	82.06
672.082	93.06
672.284	82.06
672.487	91.06
672.689	84.06
672.892	75.06
