Data from 1972.PennyLincolnUp.Lamp.En5.5.200Scan.071719.P1._HRD10591_15-27-39-843.txt Node
Date: Thu Jul 18 15:27:39 EDT 2019
User: cochatt
Spectrometer: HR+D1059
Trigger mode: 1
Integration Time (sec): 1.000000E-1
Scans to average: 1
Electric dark correction enabled: true
Nonlinearity correction enabled: false
Boxcar width: 0
XAxis mode: Wavelengths
Number of Pixels in Spectrum: 2048
>>>>>Begin Spectral Data<<<<<
223.165	-13.12
223.4	-13.12
223.635	-13.12
223.869	-15.12
224.104	-19.12
224.338	-11.12
224.573	-14.12
224.808	-13.12
225.042	-15.12
225.277	-6.12
225.511	-12.12
225.746	-4.12
225.98	1.88
226.215	28.88
226.449	36.88
226.683	10.88
226.918	15.88
227.152	28.88
227.387	32.88
227.621	39.88
227.856	33.88
228.09	39.88
228.324	53.88
228.559	60.88
228.793	71.88
229.027	93.88
229.262	101.88
229.496	128.88
229.73	146.88
229.964	150.88
230.199	132.88
230.433	118.88
230.667	118.88
230.901	95.88
231.136	104.88
231.37	106.88
231.604	108.88
231.838	112.88
232.072	104.88
232.306	115.88
232.541	112.88
232.775	112.88
233.009	102.88
233.243	112.88
233.477	107.88
233.711	110.88
233.945	120.88
234.179	109.88
234.413	116.88
234.647	119.88
234.881	112.88
235.115	117.88
235.349	106.88
235.583	116.88
235.817	128.88
236.051	113.88
236.285	113.88
236.519	127.88
236.753	145.88
236.987	142.88
237.221	174.88
237.455	252.88
237.689	195.88
237.922	135.88
238.156	129.88
238.39	138.88
238.624	116.88
238.858	127.88
239.091	125.88
239.325	119.88
239.559	106.88
239.793	124.88
240.027	138.88
240.26	128.88
240.494	161.88
240.728	147.88
240.961	152.88
241.195	154.88
241.429	130.88
241.662	122.88
241.896	143.88
242.13	128.88
242.363	137.88
242.597	130.88
242.83	148.88
243.064	142.88
243.298	117.88
243.531	138.88
243.765	133.88
243.998	134.88
244.232	136.88
244.465	127.88
244.699	146.88
244.932	138.88
245.166	142.88
245.399	145.88
245.633	137.88
245.866	128.88
246.099	130.88
246.333	157.88
246.566	139.88
246.8	138.88
247.033	158.88
247.266	149.88
247.5	172.88
247.733	141.88
247.966	166.88
248.2	167.88
248.433	161.88
248.666	157.88
248.899	179.88
249.133	194.88
249.366	217.88
249.599	196.88
249.832	176.88
250.066	188.88
250.299	167.88
250.532	190.88
250.765	188.88
250.998	212.88
251.231	233.88
251.465	205.88
251.698	203.88
251.931	194.88
252.164	189.88
252.397	202.88
252.63	194.88
252.863	194.88
253.096	209.88
253.329	245.88
253.562	216.88
253.795	210.88
254.028	223.88
254.261	211.88
254.494	213.88
254.727	253.88
254.96	291.88
255.193	263.88
255.426	252.88
255.659	230.88
255.892	227.88
256.124	223.88
256.357	250.88
256.59	244.88
256.823	224.88
257.056	218.88
257.289	233.88
257.521	213.88
257.754	221.88
257.987	218.88
258.22	214.88
258.452	217.88
258.685	202.88
258.918	218.88
259.151	205.88
259.383	215.88
259.616	210.88
259.849	219.88
260.081	232.88
260.314	243.88
260.547	263.88
260.779	243.88
261.012	250.88
261.244	228.88
261.477	223.88
261.71	202.88
261.942	235.88
262.175	243.88
262.407	230.88
262.64	232.88
262.872	226.88
263.105	196.88
263.337	208.88
263.57	205.88
263.802	217.88
264.035	225.88
264.267	196.88
264.499	226.88
264.732	201.88
264.964	204.88
265.197	189.88
265.429	221.88
265.661	205.88
265.894	218.88
266.126	214.88
266.358	212.88
266.591	205.88
266.823	210.88
267.055	211.88
267.287	222.88
267.52	208.88
267.752	232.88
267.984	216.88
268.216	229.88
268.448	212.88
268.681	240.88
268.913	223.88
269.145	258.88
269.377	258.88
269.609	256.88
269.841	261.88
270.073	269.88
270.306	259.88
270.538	301.88
270.77	282.88
271.002	289.88
271.234	281.88
271.466	290.88
271.698	310.88
271.93	317.88
272.162	309.88
272.394	309.88
272.626	301.88
272.858	284.88
273.09	285.88
273.322	271.88
273.553	287.88
273.785	264.88
274.017	250.88
274.249	276.88
274.481	264.88
274.713	272.88
274.945	250.88
275.176	275.88
275.408	259.88
275.64	256.88
275.872	252.88
276.104	252.88
276.335	237.88
276.567	264.88
276.799	280.88
277.031	306.88
277.262	317.88
277.494	321.88
277.726	291.88
277.957	289.88
278.189	278.88
278.421	270.88
278.652	258.88
278.884	256.88
279.115	249.88
279.347	249.88
279.579	262.88
279.81	246.88
280.042	256.88
280.273	244.88
280.505	256.88
280.736	236.88
280.968	262.88
281.199	260.88
281.431	245.88
281.662	250.88
281.894	260.88
282.125	274.88
282.356	281.88
282.588	293.88
282.819	315.88
283.051	272.88
283.282	264.88
283.513	258.88
283.745	260.88
283.976	266.88
284.207	255.88
284.439	269.88
284.67	261.88
284.901	265.88
285.132	271.88
285.364	262.88
285.595	248.88
285.826	255.88
286.057	267.88
286.288	280.88
286.52	265.88
286.751	258.88
286.982	261.88
287.213	278.88
287.444	270.88
287.675	276.88
287.906	263.88
288.138	269.88
288.369	294.88
288.6	284.88
288.831	264.88
289.062	276.88
289.293	300.88
289.524	267.88
289.755	254.88
289.986	276.88
290.217	282.88
290.448	278.88
290.679	297.88
290.91	269.88
291.141	261.88
291.371	262.88
291.602	260.88
291.833	272.88
292.064	258.88
292.295	271.88
292.526	277.88
292.757	272.88
292.987	264.88
293.218	262.88
293.449	277.88
293.68	271.88
293.91	286.88
294.141	260.88
294.372	253.88
294.603	247.88
294.833	262.88
295.064	262.88
295.295	267.88
295.525	274.88
295.756	281.88
295.987	283.88
296.217	307.88
296.448	341.88
296.679	290.88
296.909	286.88
297.14	285.88
297.37	277.88
297.601	266.88
297.831	280.88
298.062	283.88
298.292	286.88
298.523	273.88
298.753	277.88
298.984	275.88
299.214	283.88
299.445	283.88
299.675	301.88
299.905	279.88
300.136	288.88
300.366	280.88
300.597	286.88
300.827	294.88
301.057	309.88
301.288	301.88
301.518	280.88
301.748	314.88
301.979	293.88
302.209	302.88
302.439	309.88
302.669	317.88
302.9	305.88
303.13	290.88
303.36	305.88
303.59	301.88
303.82	324.88
304.051	317.88
304.281	308.88
304.511	296.88
304.741	297.88
304.971	301.88
305.201	302.88
305.431	299.88
305.661	309.88
305.891	310.88
306.121	300.88
306.352	304.88
306.582	321.88
306.812	301.88
307.042	296.88
307.272	312.88
307.502	316.88
307.731	308.88
307.961	322.88
308.191	321.88
308.421	316.88
308.651	305.88
308.881	318.88
309.111	331.88
309.341	328.88
309.571	318.88
309.8	348.88
310.03	365.88
310.26	353.88
310.49	347.88
310.72	368.88
310.949	382.88
311.179	393.88
311.409	377.88
311.639	334.88
311.868	350.88
312.098	349.88
312.328	357.88
312.557	348.88
312.787	389.88
313.017	410.88
313.246	380.88
313.476	370.88
313.706	358.88
313.935	355.88
314.165	388.88
314.394	385.88
314.624	379.88
314.853	374.88
315.083	364.88
315.312	347.88
315.542	350.88
315.771	357.88
316.001	334.88
316.23	337.88
316.46	358.88
316.689	378.88
316.919	366.88
317.148	381.88
317.377	384.88
317.607	375.88
317.836	367.88
318.065	345.88
318.295	357.88
318.524	354.88
318.753	360.88
318.983	338.88
319.212	354.88
319.441	371.88
319.67	361.88
319.9	349.88
320.129	354.88
320.358	354.88
320.587	362.88
320.816	365.88
321.046	388.88
321.275	392.88
321.504	365.88
321.733	399.88
321.962	394.88
322.191	399.88
322.42	423.88
322.649	441.88
322.878	436.88
323.108	447.88
323.337	460.88
323.566	515.88
323.795	524.88
324.024	603.88
324.253	756.88
324.482	1056.88
324.71	1666.88
324.939	2424.88
325.168	2114.88
325.397	1075.88
325.626	695.88
325.855	569.88
326.084	531.88
326.313	499.88
326.542	509.88
326.77	570.88
326.999	679.88
327.228	934.88
327.457	1457.88
327.686	1812.88
327.914	1223.88
328.143	790.88
328.372	670.88
328.6	602.88
328.829	579.88
329.058	594.88
329.287	609.88
329.515	560.88
329.744	510.88
329.972	525.88
330.201	528.88
330.43	590.88
330.658	597.88
330.887	622.88
331.115	619.88
331.344	525.88
331.572	476.88
331.801	483.88
332.03	483.88
332.258	449.88
332.486	444.88
332.715	446.88
332.943	398.88
333.172	418.88
333.4	421.88
333.629	437.88
333.857	437.88
334.085	466.88
334.314	475.88
334.542	508.88
334.771	547.88
334.999	486.88
335.227	458.88
335.455	416.88
335.684	417.88
335.912	412.88
336.14	407.88
336.369	387.88
336.597	397.88
336.825	407.88
337.053	401.88
337.281	384.88
337.51	396.88
337.738	414.88
337.966	402.88
338.194	400.88
338.422	403.88
338.65	389.88
338.878	400.88
339.106	373.88
339.334	403.88
339.562	393.88
339.79	374.88
340.018	392.88
340.246	376.88
340.474	406.88
340.702	393.88
340.93	382.88
341.158	389.88
341.386	402.88
341.614	397.88
341.842	365.88
342.07	390.88
342.298	386.88
342.526	380.88
342.754	385.88
342.981	376.88
343.209	370.88
343.437	382.88
343.665	384.88
343.893	392.88
344.12	393.88
344.348	402.88
344.576	403.88
344.804	403.88
345.031	407.88
345.259	418.88
345.487	406.88
345.714	399.88
345.942	413.88
346.17	388.88
346.397	384.88
346.625	381.88
346.853	383.88
347.08	376.88
347.308	387.88
347.535	394.88
347.763	410.88
347.99	385.88
348.218	400.88
348.445	419.88
348.673	414.88
348.9	404.88
349.128	375.88
349.355	353.88
349.583	360.88
349.81	390.88
350.037	380.88
350.265	368.88
350.492	375.88
350.72	389.88
350.947	379.88
351.174	390.88
351.402	384.88
351.629	394.88
351.856	389.88
352.083	411.88
352.311	416.88
352.538	407.88
352.765	416.88
352.992	400.88
353.22	367.88
353.447	386.88
353.674	365.88
353.901	373.88
354.128	373.88
354.355	364.88
354.583	360.88
354.81	354.88
355.037	358.88
355.264	372.88
355.491	349.88
355.718	361.88
355.945	351.88
356.172	359.88
356.399	346.88
356.626	355.88
356.853	357.88
357.08	355.88
357.307	331.88
357.534	359.88
357.761	346.88
357.988	360.88
358.215	352.88
358.441	333.88
358.668	365.88
358.895	374.88
359.122	352.88
359.349	366.88
359.576	383.88
359.802	392.88
360.029	429.88
360.256	442.88
360.483	446.88
360.709	382.88
360.936	392.88
361.163	403.88
361.39	391.88
361.616	374.88
361.843	370.88
362.07	395.88
362.296	383.88
362.523	360.88
362.749	369.88
362.976	358.88
363.203	367.88
363.429	370.88
363.656	364.88
363.882	385.88
364.109	360.88
364.335	340.88
364.562	368.88
364.788	363.88
365.015	349.88
365.241	347.88
365.468	340.88
365.694	360.88
365.92	381.88
366.147	364.88
366.373	353.88
366.599	362.88
366.826	345.88
367.052	347.88
367.278	352.88
367.505	348.88
367.731	375.88
367.957	374.88
368.184	355.88
368.41	361.88
368.636	366.88
368.862	375.88
369.089	368.88
369.315	356.88
369.541	342.88
369.767	355.88
369.993	347.88
370.219	350.88
370.445	349.88
370.672	354.88
370.898	357.88
371.124	361.88
371.35	356.88
371.576	340.88
371.802	332.88
372.028	329.88
372.254	344.88
372.48	349.88
372.706	350.88
372.932	350.88
373.158	352.88
373.384	352.88
373.61	354.88
373.835	365.88
374.061	357.88
374.287	352.88
374.513	365.88
374.739	342.88
374.965	350.88
375.191	366.88
375.416	348.88
375.642	355.88
375.868	352.88
376.094	344.88
376.319	339.88
376.545	324.88
376.771	340.88
376.997	343.88
377.222	348.88
377.448	360.88
377.674	360.88
377.899	342.88
378.125	340.88
378.35	344.88
378.576	342.88
378.802	339.88
379.027	349.88
379.253	353.88
379.478	327.88
379.704	369.88
379.929	357.88
380.155	352.88
380.38	348.88
380.606	337.88
380.831	349.88
381.057	364.88
381.282	361.88
381.507	345.88
381.733	359.88
381.958	364.88
382.184	354.88
382.409	365.88
382.634	355.88
382.86	359.88
383.085	341.88
383.31	356.88
383.535	362.88
383.761	363.88
383.986	378.88
384.211	364.88
384.436	352.88
384.662	370.88
384.887	346.88
385.112	376.88
385.337	374.88
385.562	361.88
385.787	356.88
386.013	385.88
386.238	384.88
386.463	381.88
386.688	378.88
386.913	365.88
387.138	359.88
387.363	372.88
387.588	391.88
387.813	365.88
388.038	361.88
388.263	372.88
388.488	365.88
388.713	352.88
388.938	365.88
389.163	378.88
389.387	388.88
389.612	365.88
389.837	389.88
390.062	364.88
390.287	372.88
390.512	349.88
390.736	364.88
390.961	377.88
391.186	357.88
391.411	363.88
391.636	372.88
391.86	376.88
392.085	365.88
392.31	384.88
392.534	386.88
392.759	381.88
392.984	366.88
393.208	386.88
393.433	394.88
393.658	406.88
393.882	374.88
394.107	374.88
394.331	363.88
394.556	359.88
394.78	371.88
395.005	381.88
395.229	374.88
395.454	387.88
395.678	406.88
395.903	406.88
396.127	393.88
396.352	427.88
396.576	393.88
396.801	372.88
397.025	381.88
397.249	388.88
397.474	403.88
397.698	394.88
397.922	399.88
398.147	416.88
398.371	438.88
398.595	408.88
398.82	410.88
399.044	416.88
399.268	437.88
399.492	442.88
399.717	463.88
399.941	485.88
400.165	503.88
400.389	528.88
400.613	475.88
400.837	452.88
401.062	430.88
401.286	453.88
401.51	431.88
401.734	429.88
401.958	414.88
402.182	419.88
402.406	423.88
402.63	438.88
402.854	437.88
403.078	425.88
403.302	424.88
403.526	444.88
403.75	434.88
403.974	428.88
404.198	421.88
404.422	448.88
404.645	471.88
404.869	458.88
405.093	473.88
405.317	529.88
405.541	539.88
405.765	512.88
405.988	490.88
406.212	500.88
406.436	490.88
406.66	503.88
406.883	485.88
407.107	519.88
407.331	536.88
407.555	611.88
407.778	588.88
408.002	525.88
408.226	483.88
408.449	478.88
408.673	497.88
408.896	528.88
409.12	561.88
409.344	523.88
409.567	472.88
409.791	437.88
410.014	442.88
410.238	443.88
410.461	443.88
410.685	450.88
410.908	452.88
411.132	494.88
411.355	532.88
411.578	497.88
411.802	454.88
412.025	448.88
412.249	457.88
412.472	465.88
412.695	518.88
412.919	513.88
413.142	467.88
413.365	428.88
413.589	443.88
413.812	424.88
414.035	418.88
414.258	417.88
414.482	427.88
414.705	391.88
414.928	394.88
415.151	399.88
415.374	422.88
415.597	405.88
415.821	419.88
416.044	421.88
416.267	412.88
416.49	416.88
416.713	423.88
416.936	402.88
417.159	420.88
417.382	429.88
417.605	433.88
417.828	429.88
418.051	461.88
418.274	440.88
418.497	398.88
418.72	426.88
418.943	426.88
419.166	414.88
419.389	440.88
419.611	457.88
419.834	440.88
420.057	450.88
420.28	438.88
420.503	441.88
420.726	433.88
420.948	463.88
421.171	497.88
421.394	526.88
421.617	494.88
421.839	464.88
422.062	452.88
422.285	463.88
422.507	493.88
422.73	622.88
422.953	588.88
423.175	490.88
423.398	455.88
423.621	464.88
423.843	475.88
424.066	488.88
424.288	481.88
424.511	517.88
424.733	564.88
424.956	649.88
425.178	609.88
425.401	594.88
425.623	623.88
425.846	530.88
426.068	489.88
426.291	493.88
426.513	498.88
426.735	508.88
426.958	546.88
427.18	612.88
427.402	736.88
427.625	830.88
427.847	758.88
428.069	637.88
428.292	579.88
428.514	498.88
428.736	484.88
428.958	474.88
429.181	451.88
429.403	467.88
429.625	462.88
429.847	512.88
430.069	560.88
430.292	573.88
430.514	492.88
430.736	468.88
430.958	418.88
431.18	439.88
431.402	437.88
431.624	418.88
431.846	434.88
432.068	410.88
432.29	420.88
432.512	406.88
432.734	416.88
432.956	420.88
433.178	441.88
433.4	429.88
433.622	437.88
433.844	415.88
434.066	397.88
434.287	413.88
434.509	442.88
434.731	426.88
434.953	440.88
435.175	463.88
435.397	469.88
435.618	501.88
435.84	521.88
436.062	617.88
436.284	724.88
436.505	588.88
436.727	527.88
436.949	469.88
437.17	472.88
437.392	461.88
437.614	473.88
437.835	512.88
438.057	600.88
438.278	694.88
438.5	708.88
438.721	770.88
438.943	764.88
439.165	565.88
439.386	514.88
439.608	510.88
439.829	507.88
440.05	544.88
440.272	600.88
440.493	550.88
440.715	485.88
440.936	461.88
441.158	477.88
441.379	447.88
441.6	463.88
441.822	500.88
442.043	541.88
442.264	589.88
442.486	652.88
442.707	564.88
442.928	504.88
443.149	525.88
443.371	544.88
443.592	596.88
443.813	674.88
444.034	710.88
444.255	571.88
444.476	522.88
444.698	491.88
444.919	483.88
445.14	606.88
445.361	562.88
445.582	563.88
445.803	614.88
446.024	703.88
446.245	726.88
446.466	653.88
446.687	554.88
446.908	493.88
447.129	476.88
447.35	488.88
447.571	465.88
447.792	444.88
448.013	457.88
448.234	484.88
448.455	544.88
448.675	627.88
448.896	746.88
449.117	626.88
449.338	599.88
449.559	678.88
449.779	790.88
450	638.88
450.221	516.88
450.442	481.88
450.662	466.88
450.883	479.88
451.104	452.88
451.324	459.88
451.545	439.88
451.766	420.88
451.986	444.88
452.207	407.88
452.428	403.88
452.648	393.88
452.869	418.88
453.089	432.88
453.31	434.88
453.53	434.88
453.751	413.88
453.971	425.88
454.192	445.88
454.412	430.88
454.633	399.88
454.853	409.88
455.073	397.88
455.294	440.88
455.514	500.88
455.734	496.88
455.955	412.88
456.175	400.88
456.395	382.88
456.616	394.88
456.836	393.88
457.056	366.88
457.276	372.88
457.497	383.88
457.717	399.88
457.937	379.88
458.157	384.88
458.377	410.88
458.598	421.88
458.818	469.88
459.038	568.88
459.258	592.88
459.478	490.88
459.698	436.88
459.918	413.88
460.138	416.88
460.358	422.88
460.578	424.88
460.798	433.88
461.018	413.88
461.238	419.88
461.458	411.88
461.678	413.88
461.898	410.88
462.118	410.88
462.338	440.88
462.558	426.88
462.777	442.88
462.997	434.88
463.217	435.88
463.437	457.88
463.657	438.88
463.876	434.88
464.096	426.88
464.316	420.88
464.536	443.88
464.755	449.88
464.975	437.88
465.195	496.88
465.414	594.88
465.634	536.88
465.854	469.88
466.073	455.88
466.293	422.88
466.512	410.88
466.732	410.88
466.951	413.88
467.171	389.88
467.391	417.88
467.61	428.88
467.829	430.88
468.049	423.88
468.268	411.88
468.488	409.88
468.707	393.88
468.927	410.88
469.146	396.88
469.365	395.88
469.585	403.88
469.804	414.88
470.023	423.88
470.243	432.88
470.462	422.88
470.681	438.88
470.901	421.88
471.12	436.88
471.339	430.88
471.558	437.88
471.777	406.88
471.997	417.88
472.216	434.88
472.435	469.88
472.654	446.88
472.873	422.88
473.092	413.88
473.311	428.88
473.53	413.88
473.749	424.88
473.968	480.88
474.187	558.88
474.406	616.88
474.625	508.88
474.844	421.88
475.063	402.88
475.282	397.88
475.501	431.88
475.72	427.88
475.939	426.88
476.158	432.88
476.377	409.88
476.596	428.88
476.814	407.88
477.033	445.88
477.252	444.88
477.471	417.88
477.69	435.88
477.908	454.88
478.127	450.88
478.346	426.88
478.564	457.88
478.783	466.88
479.002	469.88
479.22	468.88
479.439	484.88
479.658	504.88
479.876	484.88
480.095	492.88
480.313	541.88
480.532	530.88
480.751	498.88
480.969	536.88
481.188	593.88
481.406	661.88
481.624	562.88
481.843	517.88
482.061	517.88
482.28	506.88
482.498	508.88
482.717	480.88
482.935	514.88
483.153	498.88
483.372	517.88
483.59	502.88
483.808	498.88
484.027	476.88
484.245	493.88
484.463	501.88
484.681	508.88
484.9	490.88
485.118	502.88
485.336	539.88
485.554	505.88
485.772	506.88
485.99	499.88
486.209	502.88
486.427	516.88
486.645	527.88
486.863	522.88
487.081	554.88
487.299	547.88
487.517	532.88
487.735	539.88
487.953	521.88
488.171	518.88
488.389	521.88
488.607	532.88
488.825	523.88
489.043	538.88
489.261	533.88
489.479	555.88
489.696	532.88
489.914	529.88
490.132	535.88
490.35	537.88
490.568	542.88
490.786	575.88
491.003	553.88
491.221	555.88
491.439	611.88
491.657	576.88
491.874	590.88
492.092	593.88
492.31	605.88
492.527	611.88
492.745	589.88
492.963	636.88
493.18	626.88
493.398	606.88
493.615	628.88
493.833	641.88
494.05	634.88
494.268	609.88
494.485	601.88
494.703	621.88
494.92	634.88
495.138	630.88
495.355	618.88
495.573	616.88
495.79	644.88
496.008	624.88
496.225	617.88
496.442	633.88
496.66	619.88
496.877	615.88
497.094	624.88
497.312	637.88
497.529	649.88
497.746	636.88
497.963	678.88
498.181	659.88
498.398	695.88
498.615	688.88
498.832	669.88
499.049	713.88
499.267	715.88
499.484	729.88
499.701	728.88
499.918	740.88
500.135	780.88
500.352	780.88
500.569	780.88
500.786	800.88
501.003	771.88
501.22	776.88
501.437	758.88
501.654	772.88
501.871	756.88
502.088	739.88
502.305	714.88
502.522	688.88
502.739	694.88
502.956	662.88
503.172	664.88
503.389	658.88
503.606	644.88
503.823	667.88
504.04	636.88
504.256	658.88
504.473	626.88
504.69	602.88
504.907	628.88
505.123	636.88
505.34	618.88
505.557	621.88
505.773	613.88
505.99	620.88
506.207	618.88
506.423	608.88
506.64	604.88
506.856	607.88
507.073	578.88
507.289	574.88
507.506	583.88
507.722	597.88
507.939	637.88
508.155	608.88
508.372	612.88
508.588	582.88
508.805	564.88
509.021	593.88
509.238	608.88
509.454	628.88
509.67	601.88
509.887	586.88
510.103	577.88
510.319	598.88
510.536	717.88
510.752	1258.88
510.968	986.88
511.184	637.88
511.401	588.88
511.617	572.88
511.833	546.88
512.049	552.88
512.265	568.88
512.481	568.88
512.698	563.88
512.914	546.88
513.13	560.88
513.346	572.88
513.562	567.88
513.778	554.88
513.994	594.88
514.21	602.88
514.426	615.88
514.642	661.88
514.858	677.88
515.074	737.88
515.29	908.88
515.506	1352.88
515.721	1104.88
515.937	724.88
516.153	644.88
516.369	610.88
516.585	599.88
516.801	576.88
517.016	595.88
517.232	569.88
517.448	565.88
517.664	575.88
517.879	572.88
518.095	564.88
518.311	571.88
518.527	542.88
518.742	560.88
518.958	552.88
519.173	565.88
519.389	584.88
519.605	571.88
519.82	567.88
520.036	606.88
520.251	613.88
520.467	632.88
520.682	634.88
520.898	640.88
521.113	658.88
521.329	717.88
521.544	834.88
521.76	1120.88
521.975	1810.88
522.19	1806.88
522.406	946.88
522.621	685.88
522.836	614.88
523.052	591.88
523.267	536.88
523.482	525.88
523.698	522.88
523.913	498.88
524.128	526.88
524.343	527.88
524.559	490.88
524.774	482.88
524.989	487.88
525.204	503.88
525.419	516.88
525.634	492.88
525.849	488.88
526.064	483.88
526.28	477.88
526.495	459.88
526.71	461.88
526.925	458.88
527.14	454.88
527.355	455.88
527.57	427.88
527.785	451.88
527.999	462.88
528.214	440.88
528.429	447.88
528.644	444.88
528.859	463.88
529.074	456.88
529.289	478.88
529.503	593.88
529.718	573.88
529.933	483.88
530.148	470.88
530.363	469.88
530.577	447.88
530.792	453.88
531.007	442.88
531.221	441.88
531.436	450.88
531.651	443.88
531.865	434.88
532.08	448.88
532.295	420.88
532.509	435.88
532.724	435.88
532.938	443.88
533.153	428.88
533.367	417.88
533.582	428.88
533.796	437.88
534.011	425.88
534.225	417.88
534.44	435.88
534.654	418.88
534.868	419.88
535.083	412.88
535.297	434.88
535.511	423.88
535.726	432.88
535.94	428.88
536.154	434.88
536.369	444.88
536.583	425.88
536.797	419.88
537.011	416.88
537.225	421.88
537.44	417.88
537.654	430.88
537.868	402.88
538.082	421.88
538.296	421.88
538.51	420.88
538.724	412.88
538.938	416.88
539.153	427.88
539.367	457.88
539.581	430.88
539.795	421.88
540.009	402.88
540.222	403.88
540.436	421.88
540.65	433.88
540.864	411.88
541.078	424.88
541.292	406.88
541.506	432.88
541.72	424.88
541.934	408.88
542.147	394.88
542.361	397.88
542.575	406.88
542.789	413.88
543.002	403.88
543.216	414.88
543.43	412.88
543.644	416.88
543.857	412.88
544.071	421.88
544.285	408.88
544.498	402.88
544.712	392.88
544.925	396.88
545.139	405.88
545.352	388.88
545.566	399.88
545.779	390.88
545.993	404.88
546.206	390.88
546.42	401.88
546.633	413.88
546.847	400.88
547.06	394.88
547.274	375.88
547.487	382.88
547.7	397.88
547.914	404.88
548.127	393.88
548.34	391.88
548.554	385.88
548.767	386.88
548.98	392.88
549.193	404.88
549.407	386.88
549.62	371.88
549.833	379.88
550.046	370.88
550.259	382.88
550.473	382.88
550.686	374.88
550.899	388.88
551.112	365.88
551.325	370.88
551.538	382.88
551.751	391.88
551.964	373.88
552.177	386.88
552.39	378.88
552.603	386.88
552.816	370.88
553.029	365.88
553.242	372.88
553.455	398.88
553.667	404.88
553.88	414.88
554.093	401.88
554.306	406.88
554.519	404.88
554.732	377.88
554.944	379.88
555.157	393.88
555.37	378.88
555.583	364.88
555.795	366.88
556.008	354.88
556.221	355.88
556.433	350.88
556.646	349.88
556.859	352.88
557.071	347.88
557.284	343.88
557.496	361.88
557.709	371.88
557.921	365.88
558.134	353.88
558.346	354.88
558.559	329.88
558.771	346.88
558.984	333.88
559.196	335.88
559.409	338.88
559.621	337.88
559.833	366.88
560.046	334.88
560.258	347.88
560.47	321.88
560.683	353.88
560.895	342.88
561.107	349.88
561.32	354.88
561.532	365.88
561.744	365.88
561.956	361.88
562.168	341.88
562.381	350.88
562.593	348.88
562.805	354.88
563.017	358.88
563.229	345.88
563.441	359.88
563.653	360.88
563.865	358.88
564.077	358.88
564.289	348.88
564.501	338.88
564.713	378.88
564.925	363.88
565.137	362.88
565.349	373.88
565.561	359.88
565.773	361.88
565.985	384.88
566.197	380.88
566.408	384.88
566.62	379.88
566.832	390.88
567.044	378.88
567.255	393.88
567.467	397.88
567.679	396.88
567.891	409.88
568.102	410.88
568.314	377.88
568.526	388.88
568.737	369.88
568.949	375.88
569.161	362.88
569.372	340.88
569.584	373.88
569.795	355.88
570.007	359.88
570.218	394.88
570.43	406.88
570.641	346.88
570.853	354.88
571.064	337.88
571.276	327.88
571.487	335.88
571.698	333.88
571.91	305.88
572.121	322.88
572.333	319.88
572.544	324.88
572.755	301.88
572.966	326.88
573.178	314.88
573.389	307.88
573.6	304.88
573.811	304.88
574.023	315.88
574.234	309.88
574.445	313.88
574.656	314.88
574.867	293.88
575.078	313.88
575.289	305.88
575.501	292.88
575.712	308.88
575.923	289.88
576.134	313.88
576.345	329.88
576.556	284.88
576.767	293.88
576.978	286.88
577.188	284.88
577.399	297.88
577.61	276.88
577.821	288.88
578.032	301.88
578.243	351.88
578.454	585.88
578.665	422.88
578.875	297.88
579.086	295.88
579.297	295.88
579.508	288.88
579.718	305.88
579.929	290.88
580.14	284.88
580.35	284.88
580.561	285.88
580.772	283.88
580.982	270.88
581.193	288.88
581.403	259.88
581.614	285.88
581.825	275.88
582.035	282.88
582.246	260.88
582.456	270.88
582.667	279.88
582.877	265.88
583.087	283.88
583.298	263.88
583.508	282.88
583.719	278.88
583.929	284.88
584.139	267.88
584.35	267.88
584.56	270.88
584.77	269.88
584.981	273.88
585.191	271.88
585.401	285.88
585.611	274.88
585.821	288.88
586.032	283.88
586.242	272.88
586.452	265.88
586.662	250.88
586.872	254.88
587.082	269.88
587.292	277.88
587.502	252.88
587.713	258.88
587.923	273.88
588.133	257.88
588.343	271.88
588.553	250.88
588.762	292.88
588.972	284.88
589.182	276.88
589.392	280.88
589.602	269.88
589.812	260.88
590.022	264.88
590.232	266.88
590.441	274.88
590.651	258.88
590.861	260.88
591.071	256.88
591.281	260.88
591.49	273.88
591.7	250.88
591.91	273.88
592.119	261.88
592.329	268.88
592.539	283.88
592.748	271.88
592.958	280.88
593.167	261.88
593.377	250.88
593.587	278.88
593.796	253.88
594.006	269.88
594.215	258.88
594.424	258.88
594.634	281.88
594.843	283.88
595.053	268.88
595.262	256.88
595.472	264.88
595.681	261.88
595.89	248.88
596.1	235.88
596.309	263.88
596.518	246.88
596.727	246.88
596.937	253.88
597.146	247.88
597.355	277.88
597.564	245.88
597.774	250.88
597.983	258.88
598.192	249.88
598.401	242.88
598.61	217.88
598.819	220.88
599.028	230.88
599.237	248.88
599.446	242.88
599.655	241.88
599.864	235.88
600.073	245.88
600.282	243.88
600.491	253.88
600.7	226.88
600.909	234.88
601.118	246.88
601.327	227.88
601.536	267.88
601.745	225.88
601.953	234.88
602.162	212.88
602.371	218.88
602.58	237.88
602.789	219.88
602.997	228.88
603.206	233.88
603.415	230.88
603.623	221.88
603.832	229.88
604.041	236.88
604.249	231.88
604.458	225.88
604.666	225.88
604.875	219.88
605.084	225.88
605.292	230.88
605.501	233.88
605.709	230.88
605.918	219.88
606.126	225.88
606.334	232.88
606.543	214.88
606.751	223.88
606.96	212.88
607.168	225.88
607.376	230.88
607.585	213.88
607.793	223.88
608.001	218.88
608.21	216.88
608.418	237.88
608.626	204.88
608.834	218.88
609.043	222.88
609.251	222.88
609.459	214.88
609.667	215.88
609.875	213.88
610.083	233.88
610.291	210.88
610.499	218.88
610.707	218.88
610.916	229.88
611.124	228.88
611.332	230.88
611.54	229.88
611.748	227.88
611.955	230.88
612.163	218.88
612.371	214.88
612.579	200.88
612.787	224.88
612.995	212.88
613.203	214.88
613.411	218.88
613.618	206.88
613.826	216.88
614.034	211.88
614.242	215.88
614.449	210.88
614.657	217.88
614.865	221.88
615.072	232.88
615.28	213.88
615.488	199.88
615.695	221.88
615.903	224.88
616.111	219.88
616.318	224.88
616.526	228.88
616.733	221.88
616.941	198.88
617.148	207.88
617.356	232.88
617.563	209.88
617.771	211.88
617.978	221.88
618.185	206.88
618.393	204.88
618.6	210.88
618.807	207.88
619.015	215.88
619.222	207.88
619.429	235.88
619.637	211.88
619.844	196.88
620.051	216.88
620.258	194.88
620.466	202.88
620.673	214.88
620.88	198.88
621.087	197.88
621.294	198.88
621.501	206.88
621.708	210.88
621.915	211.88
622.122	200.88
622.329	201.88
622.536	198.88
622.743	204.88
622.95	193.88
623.157	193.88
623.364	195.88
623.571	207.88
623.778	177.88
623.985	204.88
624.192	184.88
624.399	187.88
624.606	186.88
624.812	192.88
625.019	197.88
625.226	197.88
625.433	205.88
625.639	185.88
625.846	203.88
626.053	179.88
626.259	190.88
626.466	205.88
626.673	192.88
626.879	180.88
627.086	200.88
627.293	196.88
627.499	183.88
627.706	192.88
627.912	181.88
628.119	199.88
628.325	188.88
628.532	197.88
628.738	175.88
628.945	193.88
629.151	188.88
629.357	188.88
629.564	177.88
629.77	176.88
629.976	172.88
630.183	168.88
630.389	187.88
630.595	194.88
630.802	177.88
631.008	170.88
631.214	171.88
631.42	186.88
631.627	189.88
631.833	194.88
632.039	173.88
632.245	173.88
632.451	178.88
632.657	170.88
632.863	178.88
633.069	158.88
633.275	167.88
633.481	170.88
633.688	184.88
633.893	182.88
634.099	163.88
634.305	178.88
634.511	166.88
634.717	183.88
634.923	186.88
635.129	161.88
635.335	186.88
635.541	171.88
635.747	173.88
635.952	170.88
636.158	161.88
636.364	181.88
636.57	171.88
636.775	160.88
636.981	159.88
637.187	155.88
637.392	152.88
637.598	157.88
637.804	167.88
638.009	159.88
638.215	180.88
638.421	172.88
638.626	182.88
638.832	158.88
639.037	167.88
639.243	179.88
639.448	153.88
639.654	163.88
639.859	149.88
640.065	165.88
640.27	186.88
640.475	150.88
640.681	158.88
640.886	158.88
641.091	164.88
641.297	162.88
641.502	156.88
641.707	163.88
641.913	166.88
642.118	157.88
642.323	156.88
642.528	150.88
642.733	166.88
642.939	163.88
643.144	163.88
643.349	147.88
643.554	141.88
643.759	154.88
643.964	156.88
644.169	147.88
644.374	154.88
644.579	156.88
644.784	140.88
644.989	169.88
645.194	150.88
645.399	149.88
645.604	146.88
645.809	174.88
646.014	152.88
646.219	158.88
646.423	149.88
646.628	152.88
646.833	168.88
647.038	150.88
647.243	146.88
647.447	160.88
647.652	161.88
647.857	145.88
648.062	154.88
648.266	160.88
648.471	154.88
648.676	165.88
648.88	145.88
649.085	153.88
649.289	165.88
649.494	159.88
649.698	182.88
649.903	169.88
650.107	169.88
650.312	144.88
650.516	142.88
650.721	158.88
650.925	151.88
651.13	161.88
651.334	130.88
651.539	136.88
651.743	130.88
651.947	133.88
652.152	134.88
652.356	165.88
652.56	145.88
652.764	131.88
652.969	134.88
653.173	131.88
653.377	133.88
653.581	132.88
653.785	123.88
653.99	129.88
654.194	136.88
654.398	132.88
654.602	117.88
654.806	132.88
655.01	131.88
655.214	125.88
655.418	124.88
655.622	123.88
655.826	121.88
656.03	134.88
656.234	118.88
656.438	133.88
656.642	114.88
656.846	133.88
657.049	135.88
657.253	120.88
657.457	120.88
657.661	102.88
657.865	105.88
658.068	103.88
658.272	107.88
658.476	101.88
658.68	107.88
658.883	101.88
659.087	115.88
659.291	110.88
659.494	99.88
659.698	99.88
659.901	100.88
660.105	89.88
660.309	105.88
660.512	92.88
660.716	89.88
660.919	94.88
661.123	96.88
661.326	89.88
661.53	91.88
661.733	89.88
661.936	89.88
662.14	99.88
662.343	90.88
662.546	90.88
662.75	93.88
662.953	89.88
663.156	93.88
663.36	87.88
663.563	92.88
663.766	86.88
663.969	90.88
664.173	73.88
664.376	81.88
664.579	84.88
664.782	86.88
664.985	76.88
665.188	78.88
665.391	76.88
665.594	82.88
665.797	65.88
666	76.88
666.203	92.88
666.406	71.88
666.609	86.88
666.812	78.88
667.015	74.88
667.218	88.88
667.421	79.88
667.624	78.88
667.827	81.88
668.03	87.88
668.232	80.88
668.435	68.88
668.638	83.88
668.841	75.88
669.043	94.88
669.246	91.88
669.449	85.88
669.651	101.88
669.854	69.88
670.057	83.88
670.259	81.88
670.462	59.88
670.665	73.88
670.867	89.88
671.07	81.88
671.272	76.88
671.475	84.88
671.677	88.88
671.88	80.88
672.082	67.88
672.284	82.88
672.487	91.88
672.689	73.88
672.892	75.88
