Data from 1972.PennyLincolnUp.Lamp.En5.5.200Scan.071719.P1._HRD10591_15-30-00-845.txt Node
Date: Thu Jul 18 15:30:00 EDT 2019
User: cochatt
Spectrometer: HR+D1059
Trigger mode: 1
Integration Time (sec): 1.000000E-1
Scans to average: 1
Electric dark correction enabled: true
Nonlinearity correction enabled: false
Boxcar width: 0
XAxis mode: Wavelengths
Number of Pixels in Spectrum: 2048
>>>>>Begin Spectral Data<<<<<
223.165	-11.31
223.4	-11.31
223.635	-11.31
223.869	-19.31
224.104	-13.31
224.338	-21.31
224.573	-20.31
224.808	-4.31
225.042	-4.31
225.277	-11.31
225.511	-1.31
225.746	11.69
225.98	5.69
226.215	20.69
226.449	4.69
226.683	19.69
226.918	25.69
227.152	18.69
227.387	27.69
227.621	44.69
227.856	40.69
228.09	56.69
228.324	56.69
228.559	70.69
228.793	73.69
229.027	110.69
229.262	111.69
229.496	130.69
229.73	132.69
229.964	182.69
230.199	140.69
230.433	112.69
230.667	123.69
230.901	111.69
231.136	114.69
231.37	100.69
231.604	104.69
231.838	115.69
232.072	111.69
232.306	140.69
232.541	129.69
232.775	112.69
233.009	133.69
233.243	116.69
233.477	112.69
233.711	132.69
233.945	122.69
234.179	127.69
234.413	123.69
234.647	113.69
234.881	118.69
235.115	119.69
235.349	129.69
235.583	124.69
235.817	115.69
236.051	117.69
236.285	137.69
236.519	137.69
236.753	131.69
236.987	165.69
237.221	195.69
237.455	279.69
237.689	209.69
237.922	144.69
238.156	150.69
238.39	141.69
238.624	130.69
238.858	119.69
239.091	128.69
239.325	137.69
239.559	138.69
239.793	139.69
240.027	138.69
240.26	157.69
240.494	151.69
240.728	156.69
240.961	160.69
241.195	165.69
241.429	148.69
241.662	140.69
241.896	136.69
242.13	144.69
242.363	130.69
242.597	131.69
242.83	154.69
243.064	158.69
243.298	141.69
243.531	150.69
243.765	148.69
243.998	142.69
244.232	149.69
244.465	148.69
244.699	151.69
244.932	155.69
245.166	157.69
245.399	148.69
245.633	138.69
245.866	147.69
246.099	159.69
246.333	148.69
246.566	160.69
246.8	152.69
247.033	159.69
247.266	170.69
247.5	178.69
247.733	176.69
247.966	186.69
248.2	182.69
248.433	185.69
248.666	190.69
248.899	186.69
249.133	204.69
249.366	217.69
249.599	201.69
249.832	195.69
250.066	206.69
250.299	190.69
250.532	224.69
250.765	211.69
250.998	263.69
251.231	258.69
251.465	240.69
251.698	227.69
251.931	202.69
252.164	200.69
252.397	205.69
252.63	211.69
252.863	217.69
253.096	222.69
253.329	241.69
253.562	232.69
253.795	248.69
254.028	233.69
254.261	246.69
254.494	242.69
254.727	290.69
254.96	320.69
255.193	306.69
255.426	295.69
255.659	272.69
255.892	235.69
256.124	242.69
256.357	254.69
256.59	264.69
256.823	252.69
257.056	248.69
257.289	228.69
257.521	237.69
257.754	238.69
257.987	219.69
258.22	220.69
258.452	231.69
258.685	224.69
258.918	218.69
259.151	222.69
259.383	233.69
259.616	238.69
259.849	262.69
260.081	253.69
260.314	288.69
260.547	274.69
260.779	284.69
261.012	261.69
261.244	259.69
261.477	241.69
261.71	259.69
261.942	247.69
262.175	263.69
262.407	262.69
262.64	250.69
262.872	239.69
263.105	256.69
263.337	226.69
263.57	230.69
263.802	232.69
264.035	234.69
264.267	218.69
264.499	239.69
264.732	237.69
264.964	228.69
265.197	230.69
265.429	220.69
265.661	239.69
265.894	231.69
266.126	242.69
266.358	236.69
266.591	233.69
266.823	237.69
267.055	240.69
267.287	256.69
267.52	238.69
267.752	239.69
267.984	248.69
268.216	242.69
268.448	237.69
268.681	247.69
268.913	254.69
269.145	270.69
269.377	298.69
269.609	288.69
269.841	282.69
270.073	296.69
270.306	301.69
270.538	358.69
270.77	336.69
271.002	342.69
271.234	333.69
271.466	325.69
271.698	355.69
271.93	338.69
272.162	351.69
272.394	378.69
272.626	350.69
272.858	307.69
273.09	315.69
273.322	275.69
273.553	293.69
273.785	297.69
274.017	286.69
274.249	284.69
274.481	295.69
274.713	266.69
274.945	297.69
275.176	280.69
275.408	298.69
275.64	278.69
275.872	293.69
276.104	278.69
276.335	295.69
276.567	286.69
276.799	304.69
277.031	344.69
277.262	356.69
277.494	359.69
277.726	337.69
277.957	327.69
278.189	269.69
278.421	277.69
278.652	312.69
278.884	286.69
279.115	292.69
279.347	285.69
279.579	288.69
279.81	278.69
280.042	272.69
280.273	284.69
280.505	278.69
280.736	287.69
280.968	290.69
281.199	275.69
281.431	285.69
281.662	278.69
281.894	282.69
282.125	293.69
282.356	315.69
282.588	333.69
282.819	349.69
283.051	299.69
283.282	266.69
283.513	278.69
283.745	261.69
283.976	286.69
284.207	313.69
284.439	282.69
284.67	309.69
284.901	316.69
285.132	298.69
285.364	278.69
285.595	275.69
285.826	289.69
286.057	282.69
286.288	296.69
286.52	302.69
286.751	259.69
286.982	294.69
287.213	294.69
287.444	286.69
287.675	282.69
287.906	288.69
288.138	315.69
288.369	319.69
288.6	314.69
288.831	299.69
289.062	291.69
289.293	288.69
289.524	310.69
289.755	320.69
289.986	294.69
290.217	292.69
290.448	284.69
290.679	311.69
290.91	291.69
291.141	301.69
291.371	284.69
291.602	284.69
291.833	271.69
292.064	315.69
292.295	295.69
292.526	279.69
292.757	272.69
292.987	282.69
293.218	300.69
293.449	294.69
293.68	292.69
293.91	290.69
294.141	285.69
294.372	298.69
294.603	299.69
294.833	302.69
295.064	318.69
295.295	310.69
295.525	300.69
295.756	302.69
295.987	316.69
296.217	324.69
296.448	360.69
296.679	325.69
296.909	313.69
297.14	303.69
297.37	296.69
297.601	300.69
297.831	282.69
298.062	311.69
298.292	307.69
298.523	309.69
298.753	316.69
298.984	326.69
299.214	323.69
299.445	298.69
299.675	325.69
299.905	309.69
300.136	316.69
300.366	332.69
300.597	322.69
300.827	302.69
301.057	332.69
301.288	325.69
301.518	338.69
301.748	319.69
301.979	324.69
302.209	347.69
302.439	331.69
302.669	342.69
302.9	323.69
303.13	323.69
303.36	334.69
303.59	337.69
303.82	360.69
304.051	339.69
304.281	322.69
304.511	326.69
304.741	315.69
304.971	334.69
305.201	307.69
305.431	333.69
305.661	330.69
305.891	339.69
306.121	331.69
306.352	360.69
306.582	348.69
306.812	335.69
307.042	357.69
307.272	346.69
307.502	342.69
307.731	335.69
307.961	342.69
308.191	351.69
308.421	342.69
308.651	349.69
308.881	334.69
309.111	344.69
309.341	369.69
309.571	376.69
309.8	377.69
310.03	398.69
310.26	409.69
310.49	408.69
310.72	411.69
310.949	408.69
311.179	443.69
311.409	404.69
311.639	418.69
311.868	413.69
312.098	425.69
312.328	398.69
312.557	426.69
312.787	438.69
313.017	431.69
313.246	409.69
313.476	383.69
313.706	378.69
313.935	408.69
314.165	427.69
314.394	431.69
314.624	418.69
314.853	425.69
315.083	411.69
315.312	394.69
315.542	398.69
315.771	351.69
316.001	369.69
316.23	370.69
316.46	385.69
316.689	387.69
316.919	392.69
317.148	401.69
317.377	386.69
317.607	401.69
317.836	396.69
318.065	403.69
318.295	390.69
318.524	390.69
318.753	399.69
318.983	395.69
319.212	393.69
319.441	400.69
319.67	409.69
319.9	398.69
320.129	390.69
320.358	399.69
320.587	415.69
320.816	418.69
321.046	426.69
321.275	419.69
321.504	416.69
321.733	449.69
321.962	423.69
322.191	456.69
322.42	466.69
322.649	495.69
322.878	492.69
323.108	521.69
323.337	568.69
323.566	592.69
323.795	626.69
324.024	684.69
324.253	860.69
324.482	1264.69
324.71	1990.69
324.939	2968.69
325.168	2612.69
325.397	1308.69
325.626	807.69
325.855	674.69
326.084	611.69
326.313	584.69
326.542	585.69
326.77	665.69
326.999	797.69
327.228	1114.69
327.457	1759.69
327.686	2212.69
327.914	1448.69
328.143	931.69
328.372	770.69
328.6	698.69
328.829	670.69
329.058	687.69
329.287	698.69
329.515	656.69
329.744	596.69
329.972	588.69
330.201	629.69
330.43	679.69
330.658	709.69
330.887	724.69
331.115	712.69
331.344	602.69
331.572	557.69
331.801	548.69
332.03	549.69
332.258	482.69
332.486	491.69
332.715	482.69
332.943	452.69
333.172	464.69
333.4	500.69
333.629	498.69
333.857	494.69
334.085	505.69
334.314	537.69
334.542	600.69
334.771	628.69
334.999	534.69
335.227	514.69
335.455	472.69
335.684	454.69
335.912	481.69
336.14	440.69
336.369	448.69
336.597	476.69
336.825	488.69
337.053	459.69
337.281	447.69
337.51	442.69
337.738	476.69
337.966	454.69
338.194	475.69
338.422	461.69
338.65	443.69
338.878	425.69
339.106	440.69
339.334	450.69
339.562	422.69
339.79	435.69
340.018	463.69
340.246	438.69
340.474	452.69
340.702	426.69
340.93	431.69
341.158	433.69
341.386	438.69
341.614	444.69
341.842	422.69
342.07	432.69
342.298	436.69
342.526	410.69
342.754	434.69
342.981	423.69
343.209	402.69
343.437	408.69
343.665	435.69
343.893	431.69
344.12	426.69
344.348	439.69
344.576	429.69
344.804	445.69
345.031	443.69
345.259	473.69
345.487	458.69
345.714	461.69
345.942	427.69
346.17	427.69
346.397	415.69
346.625	430.69
346.853	424.69
347.08	435.69
347.308	452.69
347.535	443.69
347.763	441.69
347.99	446.69
348.218	438.69
348.445	441.69
348.673	456.69
348.9	436.69
349.128	445.69
349.355	414.69
349.583	405.69
349.81	404.69
350.037	408.69
350.265	415.69
350.492	406.69
350.72	406.69
350.947	416.69
351.174	432.69
351.402	455.69
351.629	460.69
351.856	448.69
352.083	439.69
352.311	456.69
352.538	439.69
352.765	459.69
352.992	463.69
353.22	438.69
353.447	427.69
353.674	420.69
353.901	408.69
354.128	406.69
354.355	387.69
354.583	388.69
354.81	383.69
355.037	390.69
355.264	383.69
355.491	377.69
355.718	381.69
355.945	386.69
356.172	368.69
356.399	378.69
356.626	370.69
356.853	386.69
357.08	381.69
357.307	390.69
357.534	379.69
357.761	366.69
357.988	383.69
358.215	385.69
358.441	389.69
358.668	374.69
358.895	401.69
359.122	400.69
359.349	414.69
359.576	423.69
359.802	469.69
360.029	492.69
360.256	494.69
360.483	479.69
360.709	436.69
360.936	422.69
361.163	426.69
361.39	418.69
361.616	417.69
361.843	448.69
362.07	437.69
362.296	437.69
362.523	427.69
362.749	429.69
362.976	429.69
363.203	395.69
363.429	385.69
363.656	413.69
363.882	406.69
364.109	407.69
364.335	388.69
364.562	379.69
364.788	426.69
365.015	398.69
365.241	396.69
365.468	395.69
365.694	412.69
365.92	420.69
366.147	394.69
366.373	396.69
366.599	379.69
366.826	374.69
367.052	387.69
367.278	380.69
367.505	391.69
367.731	401.69
367.957	396.69
368.184	394.69
368.41	394.69
368.636	404.69
368.862	422.69
369.089	428.69
369.315	376.69
369.541	373.69
369.767	404.69
369.993	387.69
370.219	396.69
370.445	387.69
370.672	389.69
370.898	372.69
371.124	387.69
371.35	374.69
371.576	379.69
371.802	382.69
372.028	373.69
372.254	383.69
372.48	360.69
372.706	380.69
372.932	382.69
373.158	384.69
373.384	378.69
373.61	363.69
373.835	400.69
374.061	382.69
374.287	367.69
374.513	372.69
374.739	392.69
374.965	394.69
375.191	375.69
375.416	367.69
375.642	365.69
375.868	373.69
376.094	377.69
376.319	381.69
376.545	359.69
376.771	350.69
376.997	373.69
377.222	379.69
377.448	377.69
377.674	361.69
377.899	379.69
378.125	373.69
378.35	365.69
378.576	377.69
378.802	376.69
379.027	379.69
379.253	380.69
379.478	364.69
379.704	367.69
379.929	374.69
380.155	378.69
380.38	383.69
380.606	386.69
380.831	386.69
381.057	381.69
381.282	359.69
381.507	359.69
381.733	377.69
381.958	360.69
382.184	382.69
382.409	379.69
382.634	375.69
382.86	400.69
383.085	384.69
383.31	379.69
383.535	383.69
383.761	372.69
383.986	364.69
384.211	389.69
384.436	388.69
384.662	394.69
384.887	392.69
385.112	370.69
385.337	380.69
385.562	381.69
385.787	410.69
386.013	394.69
386.238	415.69
386.463	421.69
386.688	393.69
386.913	419.69
387.138	407.69
387.363	379.69
387.588	389.69
387.813	396.69
388.038	374.69
388.263	382.69
388.488	392.69
388.713	403.69
388.938	404.69
389.163	388.69
389.387	408.69
389.612	406.69
389.837	383.69
390.062	392.69
390.287	404.69
390.512	394.69
390.736	392.69
390.961	385.69
391.186	392.69
391.411	401.69
391.636	407.69
391.86	414.69
392.085	414.69
392.31	426.69
392.534	407.69
392.759	403.69
392.984	396.69
393.208	396.69
393.433	398.69
393.658	407.69
393.882	401.69
394.107	403.69
394.331	401.69
394.556	383.69
394.78	420.69
395.005	384.69
395.229	406.69
395.454	410.69
395.678	420.69
395.903	419.69
396.127	463.69
396.352	446.69
396.576	415.69
396.801	412.69
397.025	424.69
397.249	406.69
397.474	414.69
397.698	450.69
397.922	421.69
398.147	433.69
398.371	459.69
398.595	439.69
398.82	441.69
399.044	429.69
399.268	469.69
399.492	472.69
399.717	486.69
399.941	518.69
400.165	563.69
400.389	566.69
400.613	502.69
400.837	472.69
401.062	471.69
401.286	460.69
401.51	452.69
401.734	467.69
401.958	475.69
402.182	448.69
402.406	470.69
402.63	458.69
402.854	454.69
403.078	480.69
403.302	464.69
403.526	479.69
403.75	473.69
403.974	468.69
404.198	447.69
404.422	475.69
404.645	469.69
404.869	502.69
405.093	533.69
405.317	567.69
405.541	624.69
405.765	547.69
405.988	525.69
406.212	524.69
406.436	533.69
406.66	548.69
406.883	506.69
407.107	531.69
407.331	583.69
407.555	666.69
407.778	655.69
408.002	584.69
408.226	537.69
408.449	533.69
408.673	535.69
408.896	546.69
409.12	621.69
409.344	554.69
409.567	490.69
409.791	487.69
410.014	480.69
410.238	485.69
410.461	459.69
410.685	456.69
410.908	478.69
411.132	549.69
411.355	554.69
411.578	545.69
411.802	498.69
412.025	503.69
412.249	484.69
412.472	494.69
412.695	555.69
412.919	541.69
413.142	500.69
413.365	471.69
413.589	487.69
413.812	463.69
414.035	440.69
414.258	457.69
414.482	431.69
414.705	444.69
414.928	454.69
415.151	442.69
415.374	433.69
415.597	428.69
415.821	458.69
416.044	435.69
416.267	454.69
416.49	453.69
416.713	423.69
416.936	436.69
417.159	426.69
417.382	454.69
417.605	459.69
417.828	477.69
418.051	480.69
418.274	470.69
418.497	454.69
418.72	450.69
418.943	437.69
419.166	464.69
419.389	495.69
419.611	477.69
419.834	482.69
420.057	490.69
420.28	476.69
420.503	476.69
420.726	473.69
420.948	499.69
421.171	530.69
421.394	571.69
421.617	507.69
421.839	460.69
422.062	478.69
422.285	497.69
422.507	572.69
422.73	646.69
422.953	622.69
423.175	527.69
423.398	504.69
423.621	507.69
423.843	548.69
424.066	535.69
424.288	514.69
424.511	538.69
424.733	586.69
424.956	706.69
425.178	671.69
425.401	674.69
425.623	696.69
425.846	598.69
426.068	524.69
426.291	522.69
426.513	521.69
426.735	528.69
426.958	580.69
427.18	656.69
427.402	826.69
427.625	911.69
427.847	797.69
428.069	734.69
428.292	617.69
428.514	549.69
428.736	532.69
428.958	524.69
429.181	486.69
429.403	487.69
429.625	508.69
429.847	558.69
430.069	632.69
430.292	627.69
430.514	521.69
430.736	500.69
430.958	498.69
431.18	464.69
431.402	474.69
431.624	460.69
431.846	438.69
432.068	431.69
432.29	441.69
432.512	461.69
432.734	452.69
432.956	464.69
433.178	469.69
433.4	478.69
433.622	453.69
433.844	438.69
434.066	464.69
434.287	453.69
434.509	455.69
434.731	453.69
434.953	483.69
435.175	485.69
435.397	538.69
435.618	551.69
435.84	587.69
436.062	690.69
436.284	770.69
436.505	615.69
436.727	573.69
436.949	520.69
437.17	514.69
437.392	487.69
437.614	515.69
437.835	565.69
438.057	659.69
438.278	786.69
438.5	783.69
438.721	834.69
438.943	822.69
439.165	630.69
439.386	571.69
439.608	569.69
439.829	566.69
440.05	599.69
440.272	672.69
440.493	607.69
440.715	538.69
440.936	531.69
441.158	486.69
441.379	500.69
441.6	504.69
441.822	549.69
442.043	599.69
442.264	688.69
442.486	757.69
442.707	601.69
442.928	544.69
443.149	566.69
443.371	582.69
443.592	645.69
443.813	756.69
444.034	810.69
444.255	654.69
444.476	569.69
444.698	545.69
444.919	539.69
445.14	613.69
445.361	593.69
445.582	582.69
445.803	664.69
446.024	818.69
446.245	822.69
446.466	741.69
446.687	593.69
446.908	551.69
447.129	522.69
447.35	519.69
447.571	494.69
447.792	498.69
448.013	527.69
448.234	532.69
448.455	589.69
448.675	703.69
448.896	836.69
449.117	727.69
449.338	683.69
449.559	750.69
449.779	875.69
450	717.69
450.221	583.69
450.442	514.69
450.662	533.69
450.883	506.69
451.104	532.69
451.324	519.69
451.545	506.69
451.766	455.69
451.986	444.69
452.207	444.69
452.428	447.69
452.648	447.69
452.869	455.69
453.089	478.69
453.31	481.69
453.53	471.69
453.751	434.69
453.971	436.69
454.192	475.69
454.412	461.69
454.633	450.69
454.853	447.69
455.073	440.69
455.294	479.69
455.514	568.69
455.734	540.69
455.955	452.69
456.175	416.69
456.395	403.69
456.616	410.69
456.836	412.69
457.056	398.69
457.276	386.69
457.497	396.69
457.717	382.69
457.937	413.69
458.157	425.69
458.377	438.69
458.598	488.69
458.818	524.69
459.038	622.69
459.258	649.69
459.478	529.69
459.698	465.69
459.918	462.69
460.138	446.69
460.358	463.69
460.578	434.69
460.798	461.69
461.018	462.69
461.238	445.69
461.458	447.69
461.678	437.69
461.898	443.69
462.118	436.69
462.338	451.69
462.558	435.69
462.777	459.69
462.997	451.69
463.217	458.69
463.437	447.69
463.657	454.69
463.876	466.69
464.096	447.69
464.316	461.69
464.536	466.69
464.755	473.69
464.975	485.69
465.195	559.69
465.414	662.69
465.634	563.69
465.854	506.69
466.073	480.69
466.293	451.69
466.512	444.69
466.732	435.69
466.951	460.69
467.171	427.69
467.391	431.69
467.61	470.69
467.829	467.69
468.049	471.69
468.268	477.69
468.488	448.69
468.707	445.69
468.927	419.69
469.146	454.69
469.365	422.69
469.585	439.69
469.804	444.69
470.023	471.69
470.243	454.69
470.462	469.69
470.681	475.69
470.901	482.69
471.12	437.69
471.339	457.69
471.558	446.69
471.777	444.69
471.997	446.69
472.216	467.69
472.435	528.69
472.654	521.69
472.873	463.69
473.092	459.69
473.311	440.69
473.53	438.69
473.749	449.69
473.968	502.69
474.187	648.69
474.406	671.69
474.625	518.69
474.844	471.69
475.063	458.69
475.282	482.69
475.501	447.69
475.72	474.69
475.939	460.69
476.158	452.69
476.377	473.69
476.596	456.69
476.814	494.69
477.033	469.69
477.252	466.69
477.471	475.69
477.69	476.69
477.908	489.69
478.127	482.69
478.346	472.69
478.564	494.69
478.783	507.69
479.002	523.69
479.22	516.69
479.439	508.69
479.658	555.69
479.876	539.69
480.095	532.69
480.313	574.69
480.532	566.69
480.751	566.69
480.969	575.69
481.188	658.69
481.406	736.69
481.624	632.69
481.843	577.69
482.061	570.69
482.28	531.69
482.498	536.69
482.717	549.69
482.935	541.69
483.153	533.69
483.372	520.69
483.59	523.69
483.808	521.69
484.027	524.69
484.245	537.69
484.463	548.69
484.681	558.69
484.9	539.69
485.118	542.69
485.336	534.69
485.554	548.69
485.772	562.69
485.99	550.69
486.209	542.69
486.427	556.69
486.645	571.69
486.863	618.69
487.081	598.69
487.299	574.69
487.517	592.69
487.735	569.69
487.953	569.69
488.171	595.69
488.389	567.69
488.607	583.69
488.825	557.69
489.043	589.69
489.261	592.69
489.479	601.69
489.696	576.69
489.914	592.69
490.132	586.69
490.35	597.69
490.568	608.69
490.786	606.69
491.003	636.69
491.221	630.69
491.439	656.69
491.657	650.69
491.874	676.69
492.092	684.69
492.31	693.69
492.527	650.69
492.745	678.69
492.963	671.69
493.18	677.69
493.398	674.69
493.615	696.69
493.833	704.69
494.05	685.69
494.268	710.69
494.485	699.69
494.703	693.69
494.92	675.69
495.138	687.69
495.355	684.69
495.573	701.69
495.79	687.69
496.008	690.69
496.225	696.69
496.442	687.69
496.66	696.69
496.877	671.69
497.094	671.69
497.312	682.69
497.529	704.69
497.746	694.69
497.963	715.69
498.181	718.69
498.398	734.69
498.615	731.69
498.832	748.69
499.049	728.69
499.267	755.69
499.484	754.69
499.701	770.69
499.918	781.69
500.135	824.69
500.352	851.69
500.569	838.69
500.786	859.69
501.003	850.69
501.22	837.69
501.437	814.69
501.654	811.69
501.871	850.69
502.088	806.69
502.305	744.69
502.522	722.69
502.739	747.69
502.956	735.69
503.172	741.69
503.389	710.69
503.606	715.69
503.823	723.69
504.04	679.69
504.256	679.69
504.473	680.69
504.69	682.69
504.907	681.69
505.123	671.69
505.34	660.69
505.557	656.69
505.773	657.69
505.99	674.69
506.207	680.69
506.423	665.69
506.64	659.69
506.856	663.69
507.073	638.69
507.289	667.69
507.506	656.69
507.722	674.69
507.939	702.69
508.155	681.69
508.372	629.69
508.588	662.69
508.805	626.69
509.021	654.69
509.238	655.69
509.454	655.69
509.67	656.69
509.887	667.69
510.103	643.69
510.319	659.69
510.536	757.69
510.752	1401.69
510.968	1138.69
511.184	693.69
511.401	646.69
511.617	622.69
511.833	616.69
512.049	630.69
512.265	624.69
512.481	628.69
512.698	624.69
512.914	622.69
513.13	615.69
513.346	611.69
513.562	628.69
513.778	626.69
513.994	612.69
514.21	616.69
514.426	676.69
514.642	735.69
514.858	778.69
515.074	808.69
515.29	1023.69
515.506	1548.69
515.721	1262.69
515.937	783.69
516.153	700.69
516.369	654.69
516.585	647.69
516.801	643.69
517.016	633.69
517.232	617.69
517.448	615.69
517.664	611.69
517.879	614.69
518.095	588.69
518.311	602.69
518.527	619.69
518.742	624.69
518.958	613.69
519.173	614.69
519.389	624.69
519.605	614.69
519.82	633.69
520.036	641.69
520.251	678.69
520.467	683.69
520.682	692.69
520.898	718.69
521.113	720.69
521.329	800.69
521.544	922.69
521.76	1226.69
521.975	2116.69
522.19	2087.69
522.406	1068.69
522.621	804.69
522.836	702.69
523.052	640.69
523.267	599.69
523.482	580.69
523.698	589.69
523.913	583.69
524.128	569.69
524.343	560.69
524.559	536.69
524.774	525.69
524.989	548.69
525.204	552.69
525.419	527.69
525.634	525.69
525.849	516.69
526.064	515.69
526.28	512.69
526.495	514.69
526.71	498.69
526.925	488.69
527.14	507.69
527.355	488.69
527.57	484.69
527.785	477.69
527.999	490.69
528.214	498.69
528.429	493.69
528.644	507.69
528.859	485.69
529.074	506.69
529.289	526.69
529.503	626.69
529.718	641.69
529.933	549.69
530.148	515.69
530.363	518.69
530.577	514.69
530.792	485.69
531.007	482.69
531.221	479.69
531.436	478.69
531.651	472.69
531.865	467.69
532.08	463.69
532.295	449.69
532.509	452.69
532.724	468.69
532.938	443.69
533.153	438.69
533.367	460.69
533.582	456.69
533.796	457.69
534.011	472.69
534.225	436.69
534.44	447.69
534.654	452.69
534.868	438.69
535.083	443.69
535.297	456.69
535.511	475.69
535.726	477.69
535.94	471.69
536.154	469.69
536.369	461.69
536.583	457.69
536.797	432.69
537.011	440.69
537.225	423.69
537.44	455.69
537.654	441.69
537.868	427.69
538.082	452.69
538.296	441.69
538.51	459.69
538.724	454.69
538.938	438.69
539.153	453.69
539.367	469.69
539.581	445.69
539.795	446.69
540.009	451.69
540.222	445.69
540.436	431.69
540.65	429.69
540.864	456.69
541.078	447.69
541.292	446.69
541.506	459.69
541.72	436.69
541.934	439.69
542.147	450.69
542.361	452.69
542.575	438.69
542.789	428.69
543.002	428.69
543.216	444.69
543.43	458.69
543.644	443.69
543.857	427.69
544.071	429.69
544.285	443.69
544.498	428.69
544.712	436.69
544.925	453.69
545.139	417.69
545.352	423.69
545.566	438.69
545.779	438.69
545.993	410.69
546.206	423.69
546.42	427.69
546.633	425.69
546.847	419.69
547.06	408.69
547.274	423.69
547.487	409.69
547.7	416.69
547.914	422.69
548.127	398.69
548.34	411.69
548.554	395.69
548.767	409.69
548.98	395.69
549.193	397.69
549.407	418.69
549.62	402.69
549.833	414.69
550.046	417.69
550.259	406.69
550.473	399.69
550.686	399.69
550.899	407.69
551.112	416.69
551.325	389.69
551.538	387.69
551.751	404.69
551.964	392.69
552.177	418.69
552.39	401.69
552.603	401.69
552.816	401.69
553.029	393.69
553.242	399.69
553.455	412.69
553.667	404.69
553.88	436.69
554.093	411.69
554.306	422.69
554.519	415.69
554.732	394.69
554.944	402.69
555.157	404.69
555.37	415.69
555.583	381.69
555.795	395.69
556.008	391.69
556.221	390.69
556.433	382.69
556.646	400.69
556.859	396.69
557.071	400.69
557.284	370.69
557.496	377.69
557.709	371.69
557.921	404.69
558.134	384.69
558.346	398.69
558.559	347.69
558.771	370.69
558.984	368.69
559.196	363.69
559.409	361.69
559.621	376.69
559.833	374.69
560.046	367.69
560.258	368.69
560.47	367.69
560.683	358.69
560.895	343.69
561.107	361.69
561.32	366.69
561.532	378.69
561.744	366.69
561.956	373.69
562.168	375.69
562.381	345.69
562.593	370.69
562.805	363.69
563.017	366.69
563.229	375.69
563.441	354.69
563.653	365.69
563.865	347.69
564.077	368.69
564.289	373.69
564.501	359.69
564.713	374.69
564.925	378.69
565.137	386.69
565.349	404.69
565.561	368.69
565.773	394.69
565.985	413.69
566.197	384.69
566.408	399.69
566.62	384.69
566.832	396.69
567.044	391.69
567.255	422.69
567.467	416.69
567.679	414.69
567.891	421.69
568.102	431.69
568.314	420.69
568.526	396.69
568.737	411.69
568.949	371.69
569.161	373.69
569.372	367.69
569.584	360.69
569.795	360.69
570.007	395.69
570.218	404.69
570.43	395.69
570.641	366.69
570.853	342.69
571.064	354.69
571.276	366.69
571.487	342.69
571.698	338.69
571.91	337.69
572.121	370.69
572.333	346.69
572.544	337.69
572.755	319.69
572.966	332.69
573.178	315.69
573.389	342.69
573.6	322.69
573.811	331.69
574.023	310.69
574.234	333.69
574.445	314.69
574.656	314.69
574.867	310.69
575.078	313.69
575.289	313.69
575.501	308.69
575.712	293.69
575.923	339.69
576.134	328.69
576.345	315.69
576.556	330.69
576.767	315.69
576.978	324.69
577.188	331.69
577.399	319.69
577.61	311.69
577.821	327.69
578.032	312.69
578.243	339.69
578.454	651.69
578.665	486.69
578.875	343.69
579.086	316.69
579.297	327.69
579.508	309.69
579.718	299.69
579.929	294.69
580.14	320.69
580.35	308.69
580.561	282.69
580.772	292.69
580.982	301.69
581.193	298.69
581.403	310.69
581.614	288.69
581.825	292.69
582.035	277.69
582.246	289.69
582.456	262.69
582.667	307.69
582.877	283.69
583.087	291.69
583.298	295.69
583.508	281.69
583.719	282.69
583.929	289.69
584.139	297.69
584.35	298.69
584.56	295.69
584.77	290.69
584.981	301.69
585.191	287.69
585.401	295.69
585.611	293.69
585.821	272.69
586.032	286.69
586.242	287.69
586.452	294.69
586.662	297.69
586.872	275.69
587.082	287.69
587.292	292.69
587.502	280.69
587.713	265.69
587.923	273.69
588.133	274.69
588.343	270.69
588.553	276.69
588.762	264.69
588.972	272.69
589.182	266.69
589.392	276.69
589.602	272.69
589.812	278.69
590.022	280.69
590.232	288.69
590.441	267.69
590.651	272.69
590.861	251.69
591.071	280.69
591.281	267.69
591.49	265.69
591.7	296.69
591.91	290.69
592.119	272.69
592.329	279.69
592.539	291.69
592.748	297.69
592.958	284.69
593.167	282.69
593.377	265.69
593.587	277.69
593.796	282.69
594.006	297.69
594.215	296.69
594.424	285.69
594.634	256.69
594.843	268.69
595.053	281.69
595.262	280.69
595.472	265.69
595.681	243.69
595.89	260.69
596.1	270.69
596.309	268.69
596.518	262.69
596.727	258.69
596.937	260.69
597.146	271.69
597.355	260.69
597.564	249.69
597.774	267.69
597.983	241.69
598.192	247.69
598.401	254.69
598.61	270.69
598.819	273.69
599.028	266.69
599.237	248.69
599.446	232.69
599.655	260.69
599.864	258.69
600.073	268.69
600.282	227.69
600.491	240.69
600.7	267.69
600.909	258.69
601.118	250.69
601.327	237.69
601.536	239.69
601.745	249.69
601.953	256.69
602.162	247.69
602.371	244.69
602.58	234.69
602.789	242.69
602.997	236.69
603.206	245.69
603.415	226.69
603.623	244.69
603.832	250.69
604.041	246.69
604.249	242.69
604.458	243.69
604.666	237.69
604.875	229.69
605.084	233.69
605.292	233.69
605.501	248.69
605.709	247.69
605.918	220.69
606.126	228.69
606.334	250.69
606.543	236.69
606.751	239.69
606.96	226.69
607.168	214.69
607.376	228.69
607.585	230.69
607.793	241.69
608.001	236.69
608.21	235.69
608.418	244.69
608.626	217.69
608.834	228.69
609.043	218.69
609.251	228.69
609.459	219.69
609.667	227.69
609.875	239.69
610.083	219.69
610.291	209.69
610.499	230.69
610.707	264.69
610.916	252.69
611.124	243.69
611.332	229.69
611.54	242.69
611.748	225.69
611.955	227.69
612.163	222.69
612.371	229.69
612.579	227.69
612.787	229.69
612.995	224.69
613.203	219.69
613.411	224.69
613.618	223.69
613.826	232.69
614.034	227.69
614.242	236.69
614.449	231.69
614.657	231.69
614.865	230.69
615.072	230.69
615.28	222.69
615.488	211.69
615.695	226.69
615.903	227.69
616.111	227.69
616.318	228.69
616.526	222.69
616.733	220.69
616.941	226.69
617.148	225.69
617.356	218.69
617.563	225.69
617.771	207.69
617.978	228.69
618.185	206.69
618.393	208.69
618.6	216.69
618.807	229.69
619.015	214.69
619.222	207.69
619.429	226.69
619.637	204.69
619.844	206.69
620.051	209.69
620.258	213.69
620.466	198.69
620.673	204.69
620.88	211.69
621.087	202.69
621.294	224.69
621.501	209.69
621.708	223.69
621.915	206.69
622.122	207.69
622.329	205.69
622.536	205.69
622.743	217.69
622.95	224.69
623.157	200.69
623.364	213.69
623.571	212.69
623.778	215.69
623.985	213.69
624.192	200.69
624.399	198.69
624.606	213.69
624.812	194.69
625.019	215.69
625.226	203.69
625.433	196.69
625.639	213.69
625.846	203.69
626.053	185.69
626.259	205.69
626.466	205.69
626.673	205.69
626.879	185.69
627.086	199.69
627.293	179.69
627.499	197.69
627.706	201.69
627.912	186.69
628.119	214.69
628.325	206.69
628.532	186.69
628.738	196.69
628.945	202.69
629.151	205.69
629.357	195.69
629.564	182.69
629.77	182.69
629.976	199.69
630.183	197.69
630.389	213.69
630.595	210.69
630.802	196.69
631.008	184.69
631.214	198.69
631.42	178.69
631.627	194.69
631.833	179.69
632.039	195.69
632.245	188.69
632.451	183.69
632.657	186.69
632.863	206.69
633.069	188.69
633.275	186.69
633.481	173.69
633.688	191.69
633.893	175.69
634.099	190.69
634.305	171.69
634.511	188.69
634.717	184.69
634.923	172.69
635.129	176.69
635.335	185.69
635.541	201.69
635.747	185.69
635.952	180.69
636.158	175.69
636.364	183.69
636.57	174.69
636.775	184.69
636.981	181.69
637.187	182.69
637.392	184.69
637.598	178.69
637.804	184.69
638.009	188.69
638.215	171.69
638.421	182.69
638.626	188.69
638.832	161.69
639.037	166.69
639.243	182.69
639.448	167.69
639.654	162.69
639.859	164.69
640.065	182.69
640.27	170.69
640.475	178.69
640.681	178.69
640.886	164.69
641.091	178.69
641.297	174.69
641.502	153.69
641.707	180.69
641.913	164.69
642.118	154.69
642.323	178.69
642.528	159.69
642.733	183.69
642.939	180.69
643.144	167.69
643.349	172.69
643.554	169.69
643.759	178.69
643.964	159.69
644.169	162.69
644.374	159.69
644.579	182.69
644.784	173.69
644.989	171.69
645.194	151.69
645.399	164.69
645.604	159.69
645.809	160.69
646.014	146.69
646.219	159.69
646.423	157.69
646.628	175.69
646.833	158.69
647.038	161.69
647.243	172.69
647.447	166.69
647.652	169.69
647.857	174.69
648.062	162.69
648.266	167.69
648.471	163.69
648.676	158.69
648.88	166.69
649.085	161.69
649.289	167.69
649.494	175.69
649.698	204.69
649.903	195.69
650.107	168.69
650.312	170.69
650.516	167.69
650.721	136.69
650.925	158.69
651.13	157.69
651.334	145.69
651.539	140.69
651.743	128.69
651.947	137.69
652.152	151.69
652.356	140.69
652.56	148.69
652.764	140.69
652.969	131.69
653.173	132.69
653.377	138.69
653.581	135.69
653.785	135.69
653.99	144.69
654.194	149.69
654.398	128.69
654.602	130.69
654.806	135.69
655.01	144.69
655.214	156.69
655.418	147.69
655.622	132.69
655.826	135.69
656.03	129.69
656.234	118.69
656.438	134.69
656.642	128.69
656.846	125.69
657.049	126.69
657.253	113.69
657.457	127.69
657.661	131.69
657.865	117.69
658.068	134.69
658.272	117.69
658.476	110.69
658.68	103.69
658.883	110.69
659.087	110.69
659.291	103.69
659.494	101.69
659.698	111.69
659.901	90.69
660.105	92.69
660.309	97.69
660.512	94.69
660.716	93.69
660.919	102.69
661.123	96.69
661.326	86.69
661.53	88.69
661.733	84.69
661.936	84.69
662.14	94.69
662.343	95.69
662.546	88.69
662.75	87.69
662.953	93.69
663.156	80.69
663.36	89.69
663.563	94.69
663.766	81.69
663.969	76.69
664.173	69.69
664.376	82.69
664.579	80.69
664.782	73.69
664.985	92.69
665.188	88.69
665.391	81.69
665.594	75.69
665.797	74.69
666	81.69
666.203	79.69
666.406	82.69
666.609	69.69
666.812	79.69
667.015	79.69
667.218	81.69
667.421	86.69
667.624	87.69
667.827	91.69
668.03	80.69
668.232	81.69
668.435	81.69
668.638	80.69
668.841	92.69
669.043	75.69
669.246	82.69
669.449	93.69
669.651	94.69
669.854	86.69
670.057	78.69
670.259	76.69
670.462	84.69
670.665	85.69
670.867	91.69
671.07	87.69
671.272	81.69
671.475	87.69
671.677	85.69
671.88	95.69
672.082	86.69
672.284	79.69
672.487	87.69
672.689	85.69
672.892	69.69
