Data from 1972.PennyLincolnUp.Lamp.En5.5.200Scan.071719.P1._HRD10591_15-29-28-844.txt Node
Date: Thu Jul 18 15:29:28 EDT 2019
User: cochatt
Spectrometer: HR+D1059
Trigger mode: 1
Integration Time (sec): 1.000000E-1
Scans to average: 1
Electric dark correction enabled: true
Nonlinearity correction enabled: false
Boxcar width: 0
XAxis mode: Wavelengths
Number of Pixels in Spectrum: 2048
>>>>>Begin Spectral Data<<<<<
223.165	-9.12
223.4	-9.12
223.635	-9.12
223.869	-10.12
224.104	-20.12
224.338	-20.12
224.573	-16.12
224.808	-18.12
225.042	-4.12
225.277	-3.12
225.511	-6.12
225.746	0.88
225.98	1.88
226.215	16.88
226.449	15.88
226.683	16.88
226.918	20.88
227.152	33.88
227.387	31.88
227.621	47.88
227.856	49.88
228.09	38.88
228.324	36.88
228.559	58.88
228.793	86.88
229.027	110.88
229.262	114.88
229.496	138.88
229.73	154.88
229.964	196.88
230.199	149.88
230.433	123.88
230.667	123.88
230.901	120.88
231.136	104.88
231.37	106.88
231.604	120.88
231.838	104.88
232.072	124.88
232.306	122.88
232.541	128.88
232.775	110.88
233.009	108.88
233.243	121.88
233.477	106.88
233.711	119.88
233.945	127.88
234.179	126.88
234.413	134.88
234.647	119.88
234.881	111.88
235.115	122.88
235.349	144.88
235.583	132.88
235.817	129.88
236.051	132.88
236.285	127.88
236.519	126.88
236.753	134.88
236.987	132.88
237.221	212.88
237.455	257.88
237.689	224.88
237.922	140.88
238.156	127.88
238.39	125.88
238.624	144.88
238.858	137.88
239.091	126.88
239.325	124.88
239.559	136.88
239.793	153.88
240.027	111.88
240.26	127.88
240.494	168.88
240.728	159.88
240.961	174.88
241.195	147.88
241.429	127.88
241.662	151.88
241.896	130.88
242.13	132.88
242.363	116.88
242.597	147.88
242.83	132.88
243.064	142.88
243.298	154.88
243.531	146.88
243.765	140.88
243.998	144.88
244.232	138.88
244.465	148.88
244.699	140.88
244.932	139.88
245.166	148.88
245.399	150.88
245.633	167.88
245.866	159.88
246.099	163.88
246.333	152.88
246.566	164.88
246.8	156.88
247.033	152.88
247.266	166.88
247.5	153.88
247.733	170.88
247.966	184.88
248.2	184.88
248.433	181.88
248.666	182.88
248.899	195.88
249.133	214.88
249.366	216.88
249.599	214.88
249.832	205.88
250.066	196.88
250.299	202.88
250.532	210.88
250.765	212.88
250.998	229.88
251.231	230.88
251.465	236.88
251.698	210.88
251.931	212.88
252.164	197.88
252.397	205.88
252.63	210.88
252.863	217.88
253.096	235.88
253.329	243.88
253.562	254.88
253.795	241.88
254.028	235.88
254.261	229.88
254.494	249.88
254.727	286.88
254.96	322.88
255.193	298.88
255.426	274.88
255.659	283.88
255.892	251.88
256.124	263.88
256.357	244.88
256.59	247.88
256.823	242.88
257.056	223.88
257.289	231.88
257.521	226.88
257.754	237.88
257.987	237.88
258.22	237.88
258.452	215.88
258.685	232.88
258.918	198.88
259.151	215.88
259.383	237.88
259.616	259.88
259.849	264.88
260.081	237.88
260.314	268.88
260.547	274.88
260.779	268.88
261.012	251.88
261.244	232.88
261.477	238.88
261.71	240.88
261.942	249.88
262.175	260.88
262.407	256.88
262.64	238.88
262.872	224.88
263.105	234.88
263.337	245.88
263.57	222.88
263.802	223.88
264.035	219.88
264.267	228.88
264.499	235.88
264.732	228.88
264.964	218.88
265.197	242.88
265.429	211.88
265.661	238.88
265.894	215.88
266.126	211.88
266.358	214.88
266.591	219.88
266.823	234.88
267.055	235.88
267.287	223.88
267.52	226.88
267.752	247.88
267.984	235.88
268.216	235.88
268.448	259.88
268.681	234.88
268.913	272.88
269.145	290.88
269.377	295.88
269.609	282.88
269.841	288.88
270.073	292.88
270.306	310.88
270.538	348.88
270.77	336.88
271.002	330.88
271.234	318.88
271.466	334.88
271.698	350.88
271.93	362.88
272.162	354.88
272.394	352.88
272.626	328.88
272.858	338.88
273.09	318.88
273.322	302.88
273.553	287.88
273.785	291.88
274.017	268.88
274.249	277.88
274.481	295.88
274.713	281.88
274.945	279.88
275.176	286.88
275.408	293.88
275.64	282.88
275.872	270.88
276.104	276.88
276.335	272.88
276.567	276.88
276.799	314.88
277.031	329.88
277.262	351.88
277.494	335.88
277.726	336.88
277.957	311.88
278.189	286.88
278.421	300.88
278.652	300.88
278.884	275.88
279.115	296.88
279.347	302.88
279.579	267.88
279.81	277.88
280.042	275.88
280.273	289.88
280.505	293.88
280.736	279.88
280.968	280.88
281.199	271.88
281.431	282.88
281.662	262.88
281.894	280.88
282.125	287.88
282.356	316.88
282.588	330.88
282.819	329.88
283.051	293.88
283.282	266.88
283.513	281.88
283.745	286.88
283.976	278.88
284.207	294.88
284.439	283.88
284.67	278.88
284.901	279.88
285.132	279.88
285.364	288.88
285.595	282.88
285.826	309.88
286.057	290.88
286.288	291.88
286.52	292.88
286.751	301.88
286.982	277.88
287.213	298.88
287.444	309.88
287.675	306.88
287.906	298.88
288.138	298.88
288.369	314.88
288.6	325.88
288.831	328.88
289.062	290.88
289.293	297.88
289.524	294.88
289.755	280.88
289.986	293.88
290.217	302.88
290.448	272.88
290.679	279.88
290.91	286.88
291.141	289.88
291.371	288.88
291.602	284.88
291.833	294.88
292.064	285.88
292.295	281.88
292.526	284.88
292.757	300.88
292.987	286.88
293.218	294.88
293.449	302.88
293.68	305.88
293.91	292.88
294.141	279.88
294.372	272.88
294.603	309.88
294.833	315.88
295.064	282.88
295.295	291.88
295.525	306.88
295.756	302.88
295.987	336.88
296.217	336.88
296.448	335.88
296.679	319.88
296.909	301.88
297.14	300.88
297.37	308.88
297.601	286.88
297.831	313.88
298.062	304.88
298.292	318.88
298.523	328.88
298.753	322.88
298.984	310.88
299.214	296.88
299.445	294.88
299.675	296.88
299.905	327.88
300.136	307.88
300.366	316.88
300.597	312.88
300.827	326.88
301.057	330.88
301.288	333.88
301.518	329.88
301.748	316.88
301.979	330.88
302.209	315.88
302.439	325.88
302.669	325.88
302.9	335.88
303.13	325.88
303.36	319.88
303.59	336.88
303.82	348.88
304.051	351.88
304.281	343.88
304.511	328.88
304.741	324.88
304.971	321.88
305.201	325.88
305.431	336.88
305.661	324.88
305.891	344.88
306.121	318.88
306.352	325.88
306.582	356.88
306.812	340.88
307.042	323.88
307.272	326.88
307.502	328.88
307.731	332.88
307.961	339.88
308.191	343.88
308.421	339.88
308.651	341.88
308.881	348.88
309.111	358.88
309.341	334.88
309.571	371.88
309.8	372.88
310.03	399.88
310.26	404.88
310.49	388.88
310.72	398.88
310.949	429.88
311.179	444.88
311.409	408.88
311.639	400.88
311.868	425.88
312.098	420.88
312.328	411.88
312.557	438.88
312.787	434.88
313.017	426.88
313.246	424.88
313.476	367.88
313.706	398.88
313.935	416.88
314.165	410.88
314.394	426.88
314.624	420.88
314.853	400.88
315.083	409.88
315.312	402.88
315.542	410.88
315.771	371.88
316.001	381.88
316.23	371.88
316.46	391.88
316.689	388.88
316.919	408.88
317.148	381.88
317.377	414.88
317.607	414.88
317.836	396.88
318.065	397.88
318.295	396.88
318.524	378.88
318.753	377.88
318.983	402.88
319.212	392.88
319.441	432.88
319.67	388.88
319.9	391.88
320.129	389.88
320.358	385.88
320.587	410.88
320.816	405.88
321.046	425.88
321.275	424.88
321.504	430.88
321.733	423.88
321.962	449.88
322.191	458.88
322.42	467.88
322.649	485.88
322.878	512.88
323.108	503.88
323.337	542.88
323.566	575.88
323.795	605.88
324.024	692.88
324.253	832.88
324.482	1239.88
324.71	1974.88
324.939	2949.88
325.168	2519.88
325.397	1269.88
325.626	826.88
325.855	650.88
326.084	604.88
326.313	579.88
326.542	586.88
326.77	660.88
326.999	772.88
327.228	1116.88
327.457	1737.88
327.686	2182.88
327.914	1420.88
328.143	895.88
328.372	771.88
328.6	697.88
328.829	655.88
329.058	667.88
329.287	684.88
329.515	656.88
329.744	601.88
329.972	581.88
330.201	610.88
330.43	670.88
330.658	695.88
330.887	732.88
331.115	709.88
331.344	618.88
331.572	540.88
331.801	531.88
332.03	538.88
332.258	508.88
332.486	487.88
332.715	486.88
332.943	484.88
333.172	456.88
333.4	497.88
333.629	491.88
333.857	495.88
334.085	516.88
334.314	547.88
334.542	583.88
334.771	599.88
334.999	528.88
335.227	502.88
335.455	483.88
335.684	474.88
335.912	438.88
336.14	444.88
336.369	447.88
336.597	459.88
336.825	463.88
337.053	472.88
337.281	423.88
337.51	438.88
337.738	450.88
337.966	456.88
338.194	452.88
338.422	441.88
338.65	448.88
338.878	418.88
339.106	442.88
339.334	431.88
339.562	441.88
339.79	437.88
340.018	427.88
340.246	457.88
340.474	418.88
340.702	439.88
340.93	405.88
341.158	428.88
341.386	426.88
341.614	431.88
341.842	430.88
342.07	426.88
342.298	412.88
342.526	442.88
342.754	407.88
342.981	396.88
343.209	429.88
343.437	399.88
343.665	412.88
343.893	423.88
344.12	416.88
344.348	441.88
344.576	438.88
344.804	457.88
345.031	445.88
345.259	452.88
345.487	431.88
345.714	455.88
345.942	458.88
346.17	427.88
346.397	418.88
346.625	427.88
346.853	426.88
347.08	427.88
347.308	427.88
347.535	420.88
347.763	452.88
347.99	438.88
348.218	432.88
348.445	456.88
348.673	443.88
348.9	435.88
349.128	428.88
349.355	410.88
349.583	414.88
349.81	383.88
350.037	388.88
350.265	411.88
350.492	421.88
350.72	421.88
350.947	422.88
351.174	419.88
351.402	445.88
351.629	416.88
351.856	424.88
352.083	432.88
352.311	451.88
352.538	450.88
352.765	446.88
352.992	451.88
353.22	424.88
353.447	426.88
353.674	427.88
353.901	388.88
354.128	389.88
354.355	388.88
354.583	384.88
354.81	372.88
355.037	392.88
355.264	395.88
355.491	363.88
355.718	388.88
355.945	372.88
356.172	385.88
356.399	370.88
356.626	371.88
356.853	377.88
357.08	383.88
357.307	355.88
357.534	386.88
357.761	378.88
357.988	378.88
358.215	394.88
358.441	380.88
358.668	377.88
358.895	394.88
359.122	391.88
359.349	406.88
359.576	418.88
359.802	468.88
360.029	508.88
360.256	504.88
360.483	486.88
360.709	447.88
360.936	422.88
361.163	425.88
361.39	426.88
361.616	413.88
361.843	403.88
362.07	412.88
362.296	432.88
362.523	419.88
362.749	381.88
362.976	412.88
363.203	408.88
363.429	398.88
363.656	410.88
363.882	405.88
364.109	389.88
364.335	408.88
364.562	396.88
364.788	389.88
365.015	400.88
365.241	383.88
365.468	387.88
365.694	395.88
365.92	399.88
366.147	380.88
366.373	392.88
366.599	377.88
366.826	395.88
367.052	378.88
367.278	380.88
367.505	384.88
367.731	405.88
367.957	425.88
368.184	384.88
368.41	395.88
368.636	418.88
368.862	424.88
369.089	406.88
369.315	370.88
369.541	389.88
369.767	392.88
369.993	380.88
370.219	380.88
370.445	381.88
370.672	368.88
370.898	356.88
371.124	399.88
371.35	370.88
371.576	354.88
371.802	388.88
372.028	376.88
372.254	375.88
372.48	384.88
372.706	380.88
372.932	378.88
373.158	385.88
373.384	364.88
373.61	381.88
373.835	376.88
374.061	372.88
374.287	396.88
374.513	389.88
374.739	371.88
374.965	375.88
375.191	380.88
375.416	401.88
375.642	384.88
375.868	375.88
376.094	393.88
376.319	380.88
376.545	368.88
376.771	376.88
376.997	362.88
377.222	376.88
377.448	372.88
377.674	352.88
377.899	374.88
378.125	380.88
378.35	384.88
378.576	362.88
378.802	364.88
379.027	358.88
379.253	380.88
379.478	366.88
379.704	368.88
379.929	373.88
380.155	371.88
380.38	378.88
380.606	379.88
380.831	386.88
381.057	367.88
381.282	375.88
381.507	379.88
381.733	371.88
381.958	379.88
382.184	370.88
382.409	380.88
382.634	393.88
382.86	394.88
383.085	370.88
383.31	395.88
383.535	373.88
383.761	372.88
383.986	380.88
384.211	379.88
384.436	398.88
384.662	377.88
384.887	390.88
385.112	389.88
385.337	385.88
385.562	380.88
385.787	380.88
386.013	398.88
386.238	418.88
386.463	410.88
386.688	409.88
386.913	376.88
387.138	378.88
387.363	392.88
387.588	401.88
387.813	402.88
388.038	396.88
388.263	393.88
388.488	412.88
388.713	396.88
388.938	389.88
389.163	420.88
389.387	404.88
389.612	409.88
389.837	409.88
390.062	396.88
390.287	383.88
390.512	364.88
390.736	384.88
390.961	388.88
391.186	391.88
391.411	397.88
391.636	421.88
391.86	399.88
392.085	419.88
392.31	392.88
392.534	391.88
392.759	399.88
392.984	400.88
393.208	395.88
393.433	402.88
393.658	411.88
393.882	382.88
394.107	380.88
394.331	386.88
394.556	380.88
394.78	398.88
395.005	405.88
395.229	400.88
395.454	414.88
395.678	411.88
395.903	440.88
396.127	440.88
396.352	440.88
396.576	428.88
396.801	424.88
397.025	399.88
397.249	419.88
397.474	425.88
397.698	433.88
397.922	450.88
398.147	427.88
398.371	451.88
398.595	421.88
398.82	425.88
399.044	449.88
399.268	456.88
399.492	485.88
399.717	483.88
399.941	511.88
400.165	539.88
400.389	557.88
400.613	533.88
400.837	472.88
401.062	458.88
401.286	449.88
401.51	447.88
401.734	456.88
401.958	445.88
402.182	454.88
402.406	478.88
402.63	462.88
402.854	462.88
403.078	482.88
403.302	462.88
403.526	486.88
403.75	487.88
403.974	475.88
404.198	465.88
404.422	463.88
404.645	470.88
404.869	477.88
405.093	533.88
405.317	607.88
405.541	590.88
405.765	551.88
405.988	518.88
406.212	516.88
406.436	544.88
406.66	566.88
406.883	527.88
407.107	551.88
407.331	580.88
407.555	661.88
407.778	660.88
408.002	596.88
408.226	550.88
408.449	533.88
408.673	557.88
408.896	560.88
409.12	621.88
409.344	585.88
409.567	505.88
409.791	491.88
410.014	481.88
410.238	468.88
410.461	468.88
410.685	491.88
410.908	494.88
411.132	542.88
411.355	557.88
411.578	564.88
411.802	493.88
412.025	467.88
412.249	468.88
412.472	522.88
412.695	566.88
412.919	561.88
413.142	495.88
413.365	505.88
413.589	456.88
413.812	460.88
414.035	476.88
414.258	454.88
414.482	421.88
414.705	423.88
414.928	446.88
415.151	452.88
415.374	454.88
415.597	444.88
415.821	445.88
416.044	434.88
416.267	444.88
416.49	463.88
416.713	441.88
416.936	447.88
417.159	442.88
417.382	458.88
417.605	447.88
417.828	473.88
418.051	488.88
418.274	468.88
418.497	435.88
418.72	439.88
418.943	431.88
419.166	467.88
419.389	482.88
419.611	456.88
419.834	483.88
420.057	491.88
420.28	478.88
420.503	485.88
420.726	463.88
420.948	488.88
421.171	559.88
421.394	583.88
421.617	513.88
421.839	480.88
422.062	486.88
422.285	514.88
422.507	544.88
422.73	639.88
422.953	615.88
423.175	520.88
423.398	508.88
423.621	502.88
423.843	535.88
424.066	524.88
424.288	528.88
424.511	554.88
424.733	624.88
424.956	692.88
425.178	664.88
425.401	657.88
425.623	687.88
425.846	589.88
426.068	573.88
426.291	559.88
426.513	534.88
426.735	543.88
426.958	588.88
427.18	667.88
427.402	822.88
427.625	938.88
427.847	832.88
428.069	701.88
428.292	618.88
428.514	551.88
428.736	524.88
428.958	506.88
429.181	499.88
429.403	493.88
429.625	493.88
429.847	533.88
430.069	596.88
430.292	604.88
430.514	519.88
430.736	479.88
430.958	483.88
431.18	454.88
431.402	459.88
431.624	422.88
431.846	452.88
432.068	454.88
432.29	443.88
432.512	474.88
432.734	456.88
432.956	464.88
433.178	461.88
433.4	493.88
433.622	480.88
433.844	458.88
434.066	452.88
434.287	431.88
434.509	464.88
434.731	470.88
434.953	462.88
435.175	492.88
435.397	514.88
435.618	547.88
435.84	574.88
436.062	690.88
436.284	765.88
436.505	633.88
436.727	583.88
436.949	514.88
437.17	483.88
437.392	485.88
437.614	549.88
437.835	571.88
438.057	687.88
438.278	784.88
438.5	774.88
438.721	858.88
438.943	803.88
439.165	627.88
439.386	559.88
439.608	558.88
439.829	551.88
440.05	601.88
440.272	660.88
440.493	623.88
440.715	546.88
440.936	517.88
441.158	494.88
441.379	500.88
441.6	490.88
441.822	556.88
442.043	595.88
442.264	684.88
442.486	731.88
442.707	630.88
442.928	585.88
443.149	578.88
443.371	598.88
443.592	623.88
443.813	733.88
444.034	808.88
444.255	661.88
444.476	574.88
444.698	524.88
444.919	522.88
445.14	620.88
445.361	599.88
445.582	582.88
445.803	647.88
446.024	812.88
446.245	838.88
446.466	740.88
446.687	628.88
446.908	572.88
447.129	522.88
447.35	499.88
447.571	487.88
447.792	492.88
448.013	498.88
448.234	545.88
448.455	591.88
448.675	730.88
448.896	851.88
449.117	726.88
449.338	657.88
449.559	771.88
449.779	886.88
450	718.88
450.221	579.88
450.442	525.88
450.662	510.88
450.883	493.88
451.104	544.88
451.324	508.88
451.545	503.88
451.766	490.88
451.986	453.88
452.207	436.88
452.428	445.88
452.648	440.88
452.869	448.88
453.089	464.88
453.31	461.88
453.53	459.88
453.751	452.88
453.971	465.88
454.192	486.88
454.412	458.88
454.633	446.88
454.853	431.88
455.073	446.88
455.294	497.88
455.514	565.88
455.734	540.88
455.955	454.88
456.175	422.88
456.395	410.88
456.616	412.88
456.836	416.88
457.056	389.88
457.276	402.88
457.497	444.88
457.717	416.88
457.937	416.88
458.157	442.88
458.377	452.88
458.598	447.88
458.818	512.88
459.038	639.88
459.258	646.88
459.478	519.88
459.698	472.88
459.918	439.88
460.138	444.88
460.358	459.88
460.578	436.88
460.798	437.88
461.018	453.88
461.238	456.88
461.458	430.88
461.678	441.88
461.898	460.88
462.118	451.88
462.338	443.88
462.558	441.88
462.777	451.88
462.997	442.88
463.217	474.88
463.437	490.88
463.657	467.88
463.876	477.88
464.096	465.88
464.316	474.88
464.536	469.88
464.755	468.88
464.975	484.88
465.195	556.88
465.414	640.88
465.634	554.88
465.854	512.88
466.073	474.88
466.293	472.88
466.512	473.88
466.732	446.88
466.951	454.88
467.171	432.88
467.391	446.88
467.61	443.88
467.829	487.88
468.049	456.88
468.268	470.88
468.488	436.88
468.707	415.88
468.927	443.88
469.146	426.88
469.365	418.88
469.585	442.88
469.804	451.88
470.023	446.88
470.243	450.88
470.462	465.88
470.681	477.88
470.901	469.88
471.12	435.88
471.339	469.88
471.558	468.88
471.777	448.88
471.997	443.88
472.216	479.88
472.435	504.88
472.654	502.88
472.873	460.88
473.092	460.88
473.311	470.88
473.53	451.88
473.749	464.88
473.968	510.88
474.187	641.88
474.406	674.88
474.625	524.88
474.844	479.88
475.063	444.88
475.282	446.88
475.501	449.88
475.72	462.88
475.939	476.88
476.158	468.88
476.377	464.88
476.596	473.88
476.814	475.88
477.033	488.88
477.252	479.88
477.471	474.88
477.69	488.88
477.908	495.88
478.127	478.88
478.346	475.88
478.564	479.88
478.783	502.88
479.002	517.88
479.22	508.88
479.439	522.88
479.658	531.88
479.876	550.88
480.095	564.88
480.313	586.88
480.532	583.88
480.751	556.88
480.969	561.88
481.188	658.88
481.406	709.88
481.624	626.88
481.843	570.88
482.061	558.88
482.28	534.88
482.498	546.88
482.717	545.88
482.935	529.88
483.153	524.88
483.372	518.88
483.59	533.88
483.808	516.88
484.027	530.88
484.245	554.88
484.463	528.88
484.681	555.88
484.9	538.88
485.118	550.88
485.336	526.88
485.554	550.88
485.772	546.88
485.99	553.88
486.209	541.88
486.427	547.88
486.645	576.88
486.863	607.88
487.081	598.88
487.299	551.88
487.517	544.88
487.735	549.88
487.953	558.88
488.171	566.88
488.389	570.88
488.607	583.88
488.825	572.88
489.043	574.88
489.261	568.88
489.479	575.88
489.696	586.88
489.914	566.88
490.132	603.88
490.35	588.88
490.568	601.88
490.786	607.88
491.003	614.88
491.221	619.88
491.439	632.88
491.657	630.88
491.874	669.88
492.092	686.88
492.31	654.88
492.527	645.88
492.745	668.88
492.963	655.88
493.18	681.88
493.398	669.88
493.615	703.88
493.833	678.88
494.05	694.88
494.268	671.88
494.485	676.88
494.703	654.88
494.92	679.88
495.138	701.88
495.355	706.88
495.573	686.88
495.79	676.88
496.008	692.88
496.225	685.88
496.442	690.88
496.66	690.88
496.877	684.88
497.094	658.88
497.312	681.88
497.529	711.88
497.746	726.88
497.963	716.88
498.181	746.88
498.398	716.88
498.615	755.88
498.832	733.88
499.049	743.88
499.267	725.88
499.484	777.88
499.701	788.88
499.918	777.88
500.135	788.88
500.352	823.88
500.569	827.88
500.786	841.88
501.003	837.88
501.22	831.88
501.437	845.88
501.654	822.88
501.871	824.88
502.088	798.88
502.305	762.88
502.522	763.88
502.739	742.88
502.956	728.88
503.172	719.88
503.389	715.88
503.606	703.88
503.823	731.88
504.04	699.88
504.256	700.88
504.473	703.88
504.69	674.88
504.907	683.88
505.123	678.88
505.34	676.88
505.557	641.88
505.773	671.88
505.99	680.88
506.207	652.88
506.423	678.88
506.64	657.88
506.856	652.88
507.073	637.88
507.289	650.88
507.506	662.88
507.722	654.88
507.939	697.88
508.155	671.88
508.372	625.88
508.588	640.88
508.805	643.88
509.021	655.88
509.238	660.88
509.454	656.88
509.67	653.88
509.887	647.88
510.103	638.88
510.319	646.88
510.536	756.88
510.752	1417.88
510.968	1082.88
511.184	684.88
511.401	657.88
511.617	615.88
511.833	628.88
512.049	618.88
512.265	594.88
512.481	616.88
512.698	620.88
512.914	623.88
513.13	608.88
513.346	630.88
513.562	617.88
513.778	627.88
513.994	628.88
514.21	642.88
514.426	669.88
514.642	712.88
514.858	771.88
515.074	831.88
515.29	992.88
515.506	1524.88
515.721	1199.88
515.937	802.88
516.153	715.88
516.369	680.88
516.585	642.88
516.801	636.88
517.016	630.88
517.232	633.88
517.448	639.88
517.664	598.88
517.879	630.88
518.095	608.88
518.311	619.88
518.527	606.88
518.742	599.88
518.958	600.88
519.173	607.88
519.389	584.88
519.605	601.88
519.82	617.88
520.036	638.88
520.251	696.88
520.467	701.88
520.682	711.88
520.898	725.88
521.113	762.88
521.329	843.88
521.544	934.88
521.76	1235.88
521.975	2132.88
522.19	1992.88
522.406	1074.88
522.621	799.88
522.836	682.88
523.052	628.88
523.267	607.88
523.482	574.88
523.698	579.88
523.913	582.88
524.128	559.88
524.343	544.88
524.559	547.88
524.774	538.88
524.989	552.88
525.204	544.88
525.419	533.88
525.634	538.88
525.849	525.88
526.064	509.88
526.28	510.88
526.495	493.88
526.71	506.88
526.925	491.88
527.14	476.88
527.355	495.88
527.57	475.88
527.785	474.88
527.999	494.88
528.214	481.88
528.429	482.88
528.644	501.88
528.859	468.88
529.074	490.88
529.289	532.88
529.503	642.88
529.718	610.88
529.933	566.88
530.148	507.88
530.363	518.88
530.577	493.88
530.792	490.88
531.007	473.88
531.221	478.88
531.436	457.88
531.651	462.88
531.865	468.88
532.08	454.88
532.295	461.88
532.509	442.88
532.724	461.88
532.938	483.88
533.153	463.88
533.367	461.88
533.582	477.88
533.796	464.88
534.011	428.88
534.225	440.88
534.44	447.88
534.654	452.88
534.868	461.88
535.083	453.88
535.297	447.88
535.511	471.88
535.726	462.88
535.94	459.88
536.154	476.88
536.369	455.88
536.583	431.88
536.797	443.88
537.011	466.88
537.225	415.88
537.44	425.88
537.654	440.88
537.868	452.88
538.082	431.88
538.296	475.88
538.51	464.88
538.724	443.88
538.938	446.88
539.153	432.88
539.367	455.88
539.581	461.88
539.795	445.88
540.009	456.88
540.222	427.88
540.436	447.88
540.65	444.88
540.864	445.88
541.078	454.88
541.292	473.88
541.506	468.88
541.72	428.88
541.934	445.88
542.147	412.88
542.361	434.88
542.575	429.88
542.789	403.88
543.002	443.88
543.216	429.88
543.43	455.88
543.644	452.88
543.857	439.88
544.071	441.88
544.285	431.88
544.498	438.88
544.712	430.88
544.925	420.88
545.139	425.88
545.352	434.88
545.566	423.88
545.779	418.88
545.993	430.88
546.206	411.88
546.42	427.88
546.633	435.88
546.847	429.88
547.06	431.88
547.274	397.88
547.487	407.88
547.7	394.88
547.914	437.88
548.127	412.88
548.34	408.88
548.554	406.88
548.767	404.88
548.98	425.88
549.193	417.88
549.407	403.88
549.62	392.88
549.833	384.88
550.046	401.88
550.259	390.88
550.473	401.88
550.686	390.88
550.899	428.88
551.112	401.88
551.325	406.88
551.538	405.88
551.751	390.88
551.964	383.88
552.177	422.88
552.39	407.88
552.603	407.88
552.816	394.88
553.029	406.88
553.242	391.88
553.455	403.88
553.667	413.88
553.88	449.88
554.093	416.88
554.306	409.88
554.519	431.88
554.732	415.88
554.944	400.88
555.157	412.88
555.37	404.88
555.583	394.88
555.795	409.88
556.008	394.88
556.221	388.88
556.433	382.88
556.646	381.88
556.859	391.88
557.071	367.88
557.284	356.88
557.496	380.88
557.709	365.88
557.921	378.88
558.134	374.88
558.346	370.88
558.559	374.88
558.771	378.88
558.984	374.88
559.196	375.88
559.409	355.88
559.621	346.88
559.833	349.88
560.046	366.88
560.258	357.88
560.47	375.88
560.683	374.88
560.895	363.88
561.107	372.88
561.32	364.88
561.532	354.88
561.744	363.88
561.956	374.88
562.168	374.88
562.381	365.88
562.593	332.88
562.805	372.88
563.017	364.88
563.229	357.88
563.441	377.88
563.653	365.88
563.865	361.88
564.077	368.88
564.289	380.88
564.501	355.88
564.713	373.88
564.925	368.88
565.137	382.88
565.349	376.88
565.561	373.88
565.773	409.88
565.985	408.88
566.197	398.88
566.408	410.88
566.62	400.88
566.832	426.88
567.044	405.88
567.255	428.88
567.467	410.88
567.679	415.88
567.891	418.88
568.102	410.88
568.314	392.88
568.526	390.88
568.737	401.88
568.949	389.88
569.161	382.88
569.372	388.88
569.584	349.88
569.795	388.88
570.007	384.88
570.218	419.88
570.43	384.88
570.641	368.88
570.853	353.88
571.064	356.88
571.276	348.88
571.487	348.88
571.698	343.88
571.91	346.88
572.121	365.88
572.333	316.88
572.544	326.88
572.755	341.88
572.966	357.88
573.178	312.88
573.389	324.88
573.6	332.88
573.811	323.88
574.023	307.88
574.234	305.88
574.445	330.88
574.656	318.88
574.867	308.88
575.078	316.88
575.289	339.88
575.501	328.88
575.712	313.88
575.923	294.88
576.134	323.88
576.345	332.88
576.556	316.88
576.767	311.88
576.978	314.88
577.188	318.88
577.399	315.88
577.61	318.88
577.821	317.88
578.032	295.88
578.243	358.88
578.454	632.88
578.665	447.88
578.875	341.88
579.086	320.88
579.297	301.88
579.508	302.88
579.718	307.88
579.929	292.88
580.14	288.88
580.35	294.88
580.561	302.88
580.772	292.88
580.982	290.88
581.193	291.88
581.403	295.88
581.614	290.88
581.825	306.88
582.035	282.88
582.246	283.88
582.456	290.88
582.667	298.88
582.877	295.88
583.087	302.88
583.298	285.88
583.508	292.88
583.719	294.88
583.929	262.88
584.139	286.88
584.35	290.88
584.56	294.88
584.77	295.88
584.981	290.88
585.191	287.88
585.401	281.88
585.611	297.88
585.821	288.88
586.032	272.88
586.242	293.88
586.452	286.88
586.662	282.88
586.872	277.88
587.082	286.88
587.292	276.88
587.502	278.88
587.713	294.88
587.923	271.88
588.133	269.88
588.343	276.88
588.553	269.88
588.762	266.88
588.972	274.88
589.182	294.88
589.392	286.88
589.602	266.88
589.812	282.88
590.022	284.88
590.232	282.88
590.441	272.88
590.651	279.88
590.861	299.88
591.071	287.88
591.281	284.88
591.49	297.88
591.7	282.88
591.91	271.88
592.119	280.88
592.329	278.88
592.539	281.88
592.748	292.88
592.958	277.88
593.167	279.88
593.377	282.88
593.587	309.88
593.796	299.88
594.006	290.88
594.215	276.88
594.424	279.88
594.634	276.88
594.843	270.88
595.053	259.88
595.262	270.88
595.472	270.88
595.681	283.88
595.89	277.88
596.1	283.88
596.309	289.88
596.518	280.88
596.727	265.88
596.937	268.88
597.146	272.88
597.355	259.88
597.564	256.88
597.774	240.88
597.983	262.88
598.192	246.88
598.401	245.88
598.61	261.88
598.819	264.88
599.028	240.88
599.237	258.88
599.446	250.88
599.655	249.88
599.864	249.88
600.073	234.88
600.282	240.88
600.491	233.88
600.7	229.88
600.909	247.88
601.118	256.88
601.327	239.88
601.536	240.88
601.745	235.88
601.953	237.88
602.162	242.88
602.371	250.88
602.58	234.88
602.789	245.88
602.997	237.88
603.206	234.88
603.415	250.88
603.623	228.88
603.832	229.88
604.041	223.88
604.249	259.88
604.458	236.88
604.666	251.88
604.875	222.88
605.084	226.88
605.292	223.88
605.501	234.88
605.709	221.88
605.918	237.88
606.126	231.88
606.334	236.88
606.543	238.88
606.751	233.88
606.96	244.88
607.168	223.88
607.376	239.88
607.585	222.88
607.793	242.88
608.001	236.88
608.21	234.88
608.418	242.88
608.626	228.88
608.834	224.88
609.043	235.88
609.251	244.88
609.459	222.88
609.667	231.88
609.875	226.88
610.083	212.88
610.291	223.88
610.499	226.88
610.707	221.88
610.916	226.88
611.124	253.88
611.332	242.88
611.54	240.88
611.748	226.88
611.955	215.88
612.163	246.88
612.371	217.88
612.579	226.88
612.787	219.88
612.995	242.88
613.203	237.88
613.411	223.88
613.618	222.88
613.826	225.88
614.034	232.88
614.242	218.88
614.449	225.88
614.657	230.88
614.865	214.88
615.072	215.88
615.28	222.88
615.488	225.88
615.695	209.88
615.903	238.88
616.111	232.88
616.318	219.88
616.526	214.88
616.733	230.88
616.941	221.88
617.148	227.88
617.356	228.88
617.563	221.88
617.771	224.88
617.978	223.88
618.185	223.88
618.393	232.88
618.6	223.88
618.807	213.88
619.015	227.88
619.222	231.88
619.429	213.88
619.637	217.88
619.844	216.88
620.051	219.88
620.258	206.88
620.466	205.88
620.673	224.88
620.88	212.88
621.087	187.88
621.294	207.88
621.501	204.88
621.708	219.88
621.915	227.88
622.122	223.88
622.329	227.88
622.536	222.88
622.743	206.88
622.95	210.88
623.157	203.88
623.364	204.88
623.571	190.88
623.778	221.88
623.985	222.88
624.192	198.88
624.399	212.88
624.606	210.88
624.812	197.88
625.019	216.88
625.226	215.88
625.433	208.88
625.639	213.88
625.846	202.88
626.053	187.88
626.259	202.88
626.466	188.88
626.673	192.88
626.879	179.88
627.086	200.88
627.293	208.88
627.499	206.88
627.706	189.88
627.912	208.88
628.119	197.88
628.325	190.88
628.532	191.88
628.738	196.88
628.945	186.88
629.151	198.88
629.357	180.88
629.564	196.88
629.77	192.88
629.976	186.88
630.183	184.88
630.389	194.88
630.595	179.88
630.802	174.88
631.008	194.88
631.214	200.88
631.42	199.88
631.627	195.88
631.833	191.88
632.039	192.88
632.245	183.88
632.451	183.88
632.657	182.88
632.863	192.88
633.069	194.88
633.275	202.88
633.481	186.88
633.688	175.88
633.893	188.88
634.099	182.88
634.305	185.88
634.511	184.88
634.717	176.88
634.923	168.88
635.129	167.88
635.335	174.88
635.541	160.88
635.747	193.88
635.952	172.88
636.158	182.88
636.364	210.88
636.57	210.88
636.775	198.88
636.981	181.88
637.187	184.88
637.392	162.88
637.598	170.88
637.804	187.88
638.009	172.88
638.215	180.88
638.421	171.88
638.626	164.88
638.832	181.88
639.037	178.88
639.243	167.88
639.448	172.88
639.654	166.88
639.859	159.88
640.065	158.88
640.27	171.88
640.475	148.88
640.681	168.88
640.886	178.88
641.091	174.88
641.297	170.88
641.502	151.88
641.707	165.88
641.913	158.88
642.118	177.88
642.323	164.88
642.528	172.88
642.733	168.88
642.939	170.88
643.144	154.88
643.349	159.88
643.554	150.88
643.759	156.88
643.964	154.88
644.169	156.88
644.374	160.88
644.579	160.88
644.784	157.88
644.989	159.88
645.194	148.88
645.399	169.88
645.604	161.88
645.809	162.88
646.014	144.88
646.219	151.88
646.423	157.88
646.628	158.88
646.833	156.88
647.038	148.88
647.243	156.88
647.447	176.88
647.652	151.88
647.857	149.88
648.062	171.88
648.266	161.88
648.471	165.88
648.676	163.88
648.88	149.88
649.085	160.88
649.289	160.88
649.494	155.88
649.698	199.88
649.903	197.88
650.107	156.88
650.312	159.88
650.516	157.88
650.721	160.88
650.925	171.88
651.13	157.88
651.334	142.88
651.539	143.88
651.743	143.88
651.947	147.88
652.152	154.88
652.356	128.88
652.56	133.88
652.764	138.88
652.969	139.88
653.173	151.88
653.377	126.88
653.581	140.88
653.785	126.88
653.99	145.88
654.194	145.88
654.398	154.88
654.602	150.88
654.806	127.88
655.01	148.88
655.214	149.88
655.418	121.88
655.622	134.88
655.826	137.88
656.03	136.88
656.234	131.88
656.438	140.88
656.642	141.88
656.846	121.88
657.049	129.88
657.253	130.88
657.457	124.88
657.661	109.88
657.865	120.88
658.068	101.88
658.272	105.88
658.476	95.88
658.68	107.88
658.883	90.88
659.087	107.88
659.291	100.88
659.494	97.88
659.698	97.88
659.901	94.88
660.105	86.88
660.309	90.88
660.512	99.88
660.716	106.88
660.919	100.88
661.123	91.88
661.326	86.88
661.53	95.88
661.733	94.88
661.936	85.88
662.14	76.88
662.343	80.88
662.546	81.88
662.75	73.88
662.953	79.88
663.156	93.88
663.36	94.88
663.563	91.88
663.766	100.88
663.969	79.88
664.173	90.88
664.376	90.88
664.579	102.88
664.782	99.88
664.985	91.88
665.188	85.88
665.391	80.88
665.594	89.88
665.797	80.88
666	95.88
666.203	88.88
666.406	88.88
666.609	92.88
666.812	79.88
667.015	88.88
667.218	86.88
667.421	90.88
667.624	68.88
667.827	81.88
668.03	83.88
668.232	94.88
668.435	82.88
668.638	81.88
668.841	108.88
669.043	75.88
669.246	78.88
669.449	84.88
669.651	92.88
669.854	87.88
670.057	98.88
670.259	77.88
670.462	71.88
670.665	74.88
670.867	85.88
671.07	78.88
671.272	84.88
671.475	78.88
671.677	86.88
671.88	79.88
672.082	73.88
672.284	83.88
672.487	88.88
672.689	80.88
672.892	78.88
