Data from 1972.PennyLincolnUp.Lamp.En5.5.200Scan.071719.P1._HRD10591_15-29-34-846.txt Node
Date: Thu Jul 18 15:29:34 EDT 2019
User: cochatt
Spectrometer: HR+D1059
Trigger mode: 1
Integration Time (sec): 1.000000E-1
Scans to average: 1
Electric dark correction enabled: true
Nonlinearity correction enabled: false
Boxcar width: 0
XAxis mode: Wavelengths
Number of Pixels in Spectrum: 2048
>>>>>Begin Spectral Data<<<<<
223.165	-28.94
223.4	-28.94
223.635	-28.94
223.869	-7.94
224.104	-14.94
224.338	-15.94
224.573	-16.94
224.808	-8.94
225.042	-4.94
225.277	1.06
225.511	7.06
225.746	8.06
225.98	-4.94
226.215	7.06
226.449	5.06
226.683	20.06
226.918	26.06
227.152	29.06
227.387	30.06
227.621	49.06
227.856	25.06
228.09	44.06
228.324	65.06
228.559	58.06
228.793	67.06
229.027	102.06
229.262	112.06
229.496	135.06
229.73	152.06
229.964	184.06
230.199	148.06
230.433	121.06
230.667	135.06
230.901	118.06
231.136	117.06
231.37	125.06
231.604	121.06
231.838	138.06
232.072	101.06
232.306	121.06
232.541	121.06
232.775	133.06
233.009	113.06
233.243	106.06
233.477	123.06
233.711	129.06
233.945	132.06
234.179	121.06
234.413	135.06
234.647	121.06
234.881	118.06
235.115	123.06
235.349	114.06
235.583	121.06
235.817	120.06
236.051	135.06
236.285	121.06
236.519	122.06
236.753	137.06
236.987	162.06
237.221	191.06
237.455	263.06
237.689	205.06
237.922	162.06
238.156	140.06
238.39	131.06
238.624	123.06
238.858	132.06
239.091	130.06
239.325	134.06
239.559	128.06
239.793	135.06
240.027	131.06
240.26	167.06
240.494	169.06
240.728	155.06
240.961	169.06
241.195	147.06
241.429	136.06
241.662	141.06
241.896	129.06
242.13	137.06
242.363	133.06
242.597	145.06
242.83	138.06
243.064	136.06
243.298	138.06
243.531	150.06
243.765	142.06
243.998	142.06
244.232	143.06
244.465	152.06
244.699	136.06
244.932	156.06
245.166	143.06
245.399	151.06
245.633	140.06
245.866	159.06
246.099	145.06
246.333	166.06
246.566	157.06
246.8	155.06
247.033	151.06
247.266	153.06
247.5	160.06
247.733	198.06
247.966	185.06
248.2	191.06
248.433	185.06
248.666	173.06
248.899	209.06
249.133	217.06
249.366	212.06
249.599	216.06
249.832	194.06
250.066	195.06
250.299	181.06
250.532	211.06
250.765	214.06
250.998	222.06
251.231	242.06
251.465	247.06
251.698	223.06
251.931	203.06
252.164	190.06
252.397	216.06
252.63	225.06
252.863	222.06
253.096	236.06
253.329	261.06
253.562	234.06
253.795	216.06
254.028	232.06
254.261	234.06
254.494	261.06
254.727	277.06
254.96	319.06
255.193	304.06
255.426	289.06
255.659	256.06
255.892	253.06
256.124	242.06
256.357	247.06
256.59	233.06
256.823	235.06
257.056	239.06
257.289	221.06
257.521	236.06
257.754	229.06
257.987	211.06
258.22	221.06
258.452	206.06
258.685	215.06
258.918	225.06
259.151	221.06
259.383	229.06
259.616	227.06
259.849	231.06
260.081	248.06
260.314	273.06
260.547	281.06
260.779	270.06
261.012	260.06
261.244	238.06
261.477	239.06
261.71	235.06
261.942	248.06
262.175	261.06
262.407	266.06
262.64	231.06
262.872	229.06
263.105	219.06
263.337	214.06
263.57	225.06
263.802	204.06
264.035	213.06
264.267	227.06
264.499	231.06
264.732	230.06
264.964	227.06
265.197	218.06
265.429	230.06
265.661	234.06
265.894	209.06
266.126	218.06
266.358	235.06
266.591	224.06
266.823	237.06
267.055	241.06
267.287	249.06
267.52	227.06
267.752	234.06
267.984	215.06
268.216	238.06
268.448	254.06
268.681	237.06
268.913	256.06
269.145	288.06
269.377	290.06
269.609	295.06
269.841	287.06
270.073	289.06
270.306	307.06
270.538	334.06
270.77	353.06
271.002	322.06
271.234	319.06
271.466	325.06
271.698	319.06
271.93	326.06
272.162	339.06
272.394	342.06
272.626	320.06
272.858	329.06
273.09	307.06
273.322	298.06
273.553	284.06
273.785	291.06
274.017	287.06
274.249	285.06
274.481	283.06
274.713	288.06
274.945	291.06
275.176	281.06
275.408	274.06
275.64	275.06
275.872	278.06
276.104	276.06
276.335	273.06
276.567	274.06
276.799	302.06
277.031	330.06
277.262	332.06
277.494	341.06
277.726	315.06
277.957	306.06
278.189	305.06
278.421	293.06
278.652	285.06
278.884	264.06
279.115	269.06
279.347	275.06
279.579	262.06
279.81	265.06
280.042	285.06
280.273	285.06
280.505	290.06
280.736	284.06
280.968	278.06
281.199	258.06
281.431	253.06
281.662	275.06
281.894	279.06
282.125	282.06
282.356	306.06
282.588	313.06
282.819	330.06
283.051	286.06
283.282	269.06
283.513	273.06
283.745	282.06
283.976	272.06
284.207	274.06
284.439	291.06
284.67	283.06
284.901	292.06
285.132	289.06
285.364	273.06
285.595	293.06
285.826	295.06
286.057	265.06
286.288	288.06
286.52	276.06
286.751	278.06
286.982	273.06
287.213	287.06
287.444	283.06
287.675	303.06
287.906	299.06
288.138	312.06
288.369	310.06
288.6	324.06
288.831	315.06
289.062	307.06
289.293	295.06
289.524	284.06
289.755	305.06
289.986	283.06
290.217	298.06
290.448	286.06
290.679	273.06
290.91	307.06
291.141	298.06
291.371	292.06
291.602	282.06
291.833	297.06
292.064	297.06
292.295	299.06
292.526	275.06
292.757	293.06
292.987	296.06
293.218	279.06
293.449	283.06
293.68	271.06
293.91	283.06
294.141	275.06
294.372	298.06
294.603	291.06
294.833	309.06
295.064	293.06
295.295	280.06
295.525	304.06
295.756	305.06
295.987	319.06
296.217	330.06
296.448	345.06
296.679	306.06
296.909	300.06
297.14	278.06
297.37	289.06
297.601	298.06
297.831	291.06
298.062	291.06
298.292	293.06
298.523	291.06
298.753	297.06
298.984	309.06
299.214	293.06
299.445	312.06
299.675	297.06
299.905	301.06
300.136	340.06
300.366	327.06
300.597	290.06
300.827	309.06
301.057	328.06
301.288	333.06
301.518	316.06
301.748	312.06
301.979	320.06
302.209	316.06
302.439	335.06
302.669	319.06
302.9	317.06
303.13	335.06
303.36	336.06
303.59	344.06
303.82	353.06
304.051	323.06
304.281	318.06
304.511	298.06
304.741	331.06
304.971	318.06
305.201	319.06
305.431	332.06
305.661	337.06
305.891	315.06
306.121	331.06
306.352	338.06
306.582	355.06
306.812	338.06
307.042	318.06
307.272	339.06
307.502	333.06
307.731	326.06
307.961	328.06
308.191	327.06
308.421	343.06
308.651	354.06
308.881	346.06
309.111	341.06
309.341	340.06
309.571	376.06
309.8	373.06
310.03	378.06
310.26	376.06
310.49	374.06
310.72	391.06
310.949	419.06
311.179	401.06
311.409	384.06
311.639	390.06
311.868	379.06
312.098	401.06
312.328	399.06
312.557	414.06
312.787	442.06
313.017	419.06
313.246	405.06
313.476	384.06
313.706	409.06
313.935	397.06
314.165	378.06
314.394	434.06
314.624	411.06
314.853	388.06
315.083	414.06
315.312	368.06
315.542	364.06
315.771	376.06
316.001	377.06
316.23	375.06
316.46	384.06
316.689	394.06
316.919	396.06
317.148	385.06
317.377	400.06
317.607	410.06
317.836	391.06
318.065	375.06
318.295	365.06
318.524	373.06
318.753	371.06
318.983	369.06
319.212	382.06
319.441	401.06
319.67	411.06
319.9	397.06
320.129	389.06
320.358	396.06
320.587	412.06
320.816	418.06
321.046	397.06
321.275	417.06
321.504	398.06
321.733	408.06
321.962	433.06
322.191	429.06
322.42	437.06
322.649	464.06
322.878	477.06
323.108	518.06
323.337	543.06
323.566	568.06
323.795	591.06
324.024	685.06
324.253	838.06
324.482	1223.06
324.71	1936.06
324.939	2896.06
325.168	2476.06
325.397	1216.06
325.626	791.06
325.855	641.06
326.084	594.06
326.313	553.06
326.542	571.06
326.77	640.06
326.999	746.06
327.228	1102.06
327.457	1662.06
327.686	2154.06
327.914	1389.06
328.143	849.06
328.372	742.06
328.6	711.06
328.829	641.06
329.058	679.06
329.287	677.06
329.515	639.06
329.744	583.06
329.972	579.06
330.201	592.06
330.43	657.06
330.658	692.06
330.887	709.06
331.115	694.06
331.344	556.06
331.572	543.06
331.801	541.06
332.03	530.06
332.258	495.06
332.486	443.06
332.715	457.06
332.943	465.06
333.172	478.06
333.4	472.06
333.629	454.06
333.857	492.06
334.085	499.06
334.314	525.06
334.542	581.06
334.771	593.06
334.999	544.06
335.227	500.06
335.455	465.06
335.684	448.06
335.912	453.06
336.14	452.06
336.369	456.06
336.597	442.06
336.825	457.06
337.053	422.06
337.281	432.06
337.51	438.06
337.738	449.06
337.966	426.06
338.194	444.06
338.422	435.06
338.65	440.06
338.878	438.06
339.106	407.06
339.334	422.06
339.562	419.06
339.79	414.06
340.018	419.06
340.246	439.06
340.474	422.06
340.702	448.06
340.93	432.06
341.158	422.06
341.386	432.06
341.614	429.06
341.842	414.06
342.07	419.06
342.298	400.06
342.526	428.06
342.754	412.06
342.981	420.06
343.209	389.06
343.437	409.06
343.665	421.06
343.893	406.06
344.12	417.06
344.348	421.06
344.576	449.06
344.804	431.06
345.031	459.06
345.259	449.06
345.487	458.06
345.714	431.06
345.942	421.06
346.17	421.06
346.397	411.06
346.625	418.06
346.853	423.06
347.08	399.06
347.308	386.06
347.535	417.06
347.763	430.06
347.99	441.06
348.218	446.06
348.445	453.06
348.673	439.06
348.9	423.06
349.128	414.06
349.355	412.06
349.583	396.06
349.81	399.06
350.037	395.06
350.265	401.06
350.492	390.06
350.72	400.06
350.947	415.06
351.174	407.06
351.402	427.06
351.629	434.06
351.856	429.06
352.083	443.06
352.311	418.06
352.538	437.06
352.765	434.06
352.992	455.06
353.22	434.06
353.447	435.06
353.674	407.06
353.901	403.06
354.128	361.06
354.355	392.06
354.583	395.06
354.81	375.06
355.037	392.06
355.264	376.06
355.491	380.06
355.718	391.06
355.945	375.06
356.172	386.06
356.399	360.06
356.626	387.06
356.853	373.06
357.08	377.06
357.307	351.06
357.534	370.06
357.761	383.06
357.988	383.06
358.215	364.06
358.441	383.06
358.668	385.06
358.895	401.06
359.122	378.06
359.349	396.06
359.576	404.06
359.802	428.06
360.029	479.06
360.256	479.06
360.483	477.06
360.709	413.06
360.936	442.06
361.163	413.06
361.39	422.06
361.616	415.06
361.843	401.06
362.07	423.06
362.296	421.06
362.523	418.06
362.749	410.06
362.976	394.06
363.203	385.06
363.429	379.06
363.656	380.06
363.882	391.06
364.109	376.06
364.335	393.06
364.562	380.06
364.788	390.06
365.015	392.06
365.241	382.06
365.468	391.06
365.694	397.06
365.92	395.06
366.147	387.06
366.373	374.06
366.599	370.06
366.826	387.06
367.052	377.06
367.278	394.06
367.505	384.06
367.731	399.06
367.957	376.06
368.184	383.06
368.41	387.06
368.636	398.06
368.862	385.06
369.089	396.06
369.315	377.06
369.541	387.06
369.767	365.06
369.993	393.06
370.219	373.06
370.445	383.06
370.672	378.06
370.898	371.06
371.124	361.06
371.35	361.06
371.576	379.06
371.802	368.06
372.028	360.06
372.254	379.06
372.48	366.06
372.706	363.06
372.932	374.06
373.158	364.06
373.384	386.06
373.61	370.06
373.835	373.06
374.061	371.06
374.287	377.06
374.513	378.06
374.739	351.06
374.965	360.06
375.191	379.06
375.416	367.06
375.642	381.06
375.868	376.06
376.094	370.06
376.319	367.06
376.545	383.06
376.771	355.06
376.997	360.06
377.222	368.06
377.448	349.06
377.674	375.06
377.899	369.06
378.125	361.06
378.35	369.06
378.576	359.06
378.802	383.06
379.027	370.06
379.253	374.06
379.478	364.06
379.704	377.06
379.929	365.06
380.155	362.06
380.38	378.06
380.606	378.06
380.831	370.06
381.057	381.06
381.282	377.06
381.507	354.06
381.733	393.06
381.958	341.06
382.184	364.06
382.409	383.06
382.634	375.06
382.86	351.06
383.085	363.06
383.31	377.06
383.535	369.06
383.761	384.06
383.986	369.06
384.211	378.06
384.436	381.06
384.662	392.06
384.887	377.06
385.112	366.06
385.337	371.06
385.562	377.06
385.787	404.06
386.013	389.06
386.238	405.06
386.463	403.06
386.688	413.06
386.913	399.06
387.138	387.06
387.363	369.06
387.588	416.06
387.813	380.06
388.038	388.06
388.263	392.06
388.488	386.06
388.713	375.06
388.938	406.06
389.163	411.06
389.387	406.06
389.612	386.06
389.837	391.06
390.062	389.06
390.287	391.06
390.512	381.06
390.736	395.06
390.961	392.06
391.186	378.06
391.411	393.06
391.636	398.06
391.86	389.06
392.085	402.06
392.31	403.06
392.534	391.06
392.759	395.06
392.984	382.06
393.208	396.06
393.433	365.06
393.658	396.06
393.882	386.06
394.107	387.06
394.331	407.06
394.556	402.06
394.78	390.06
395.005	413.06
395.229	395.06
395.454	384.06
395.678	401.06
395.903	417.06
396.127	431.06
396.352	431.06
396.576	413.06
396.801	418.06
397.025	412.06
397.249	408.06
397.474	408.06
397.698	416.06
397.922	425.06
398.147	443.06
398.371	448.06
398.595	426.06
398.82	438.06
399.044	456.06
399.268	449.06
399.492	441.06
399.717	479.06
399.941	511.06
400.165	562.06
400.389	546.06
400.613	504.06
400.837	473.06
401.062	451.06
401.286	450.06
401.51	431.06
401.734	438.06
401.958	466.06
402.182	456.06
402.406	462.06
402.63	462.06
402.854	448.06
403.078	441.06
403.302	439.06
403.526	475.06
403.75	464.06
403.974	468.06
404.198	457.06
404.422	460.06
404.645	475.06
404.869	473.06
405.093	512.06
405.317	561.06
405.541	589.06
405.765	548.06
405.988	526.06
406.212	513.06
406.436	525.06
406.66	559.06
406.883	486.06
407.107	546.06
407.331	586.06
407.555	665.06
407.778	636.06
408.002	573.06
408.226	534.06
408.449	505.06
408.673	517.06
408.896	553.06
409.12	578.06
409.344	546.06
409.567	477.06
409.791	477.06
410.014	451.06
410.238	473.06
410.461	471.06
410.685	435.06
410.908	472.06
411.132	527.06
411.355	571.06
411.578	541.06
411.802	466.06
412.025	449.06
412.249	473.06
412.472	486.06
412.695	539.06
412.919	527.06
413.142	482.06
413.365	464.06
413.589	472.06
413.812	455.06
414.035	446.06
414.258	423.06
414.482	432.06
414.705	417.06
414.928	438.06
415.151	421.06
415.374	418.06
415.597	438.06
415.821	430.06
416.044	441.06
416.267	472.06
416.49	443.06
416.713	422.06
416.936	409.06
417.159	435.06
417.382	458.06
417.605	447.06
417.828	455.06
418.051	481.06
418.274	455.06
418.497	433.06
418.72	431.06
418.943	440.06
419.166	463.06
419.389	478.06
419.611	463.06
419.834	454.06
420.057	458.06
420.28	473.06
420.503	471.06
420.726	464.06
420.948	493.06
421.171	525.06
421.394	579.06
421.617	485.06
421.839	479.06
422.062	470.06
422.285	471.06
422.507	550.06
422.73	645.06
422.953	614.06
423.175	515.06
423.398	509.06
423.621	488.06
423.843	506.06
424.066	518.06
424.288	483.06
424.511	533.06
424.733	603.06
424.956	688.06
425.178	657.06
425.401	655.06
425.623	687.06
425.846	553.06
426.068	514.06
426.291	513.06
426.513	507.06
426.735	537.06
426.958	589.06
427.18	698.06
427.402	811.06
427.625	919.06
427.847	795.06
428.069	680.06
428.292	599.06
428.514	547.06
428.736	506.06
428.958	479.06
429.181	491.06
429.403	461.06
429.625	482.06
429.847	523.06
430.069	592.06
430.292	569.06
430.514	494.06
430.736	480.06
430.958	459.06
431.18	449.06
431.402	455.06
431.624	449.06
431.846	439.06
432.068	458.06
432.29	450.06
432.512	454.06
432.734	460.06
432.956	461.06
433.178	465.06
433.4	493.06
433.622	459.06
433.844	432.06
434.066	440.06
434.287	438.06
434.509	443.06
434.731	463.06
434.953	460.06
435.175	478.06
435.397	514.06
435.618	552.06
435.84	564.06
436.062	687.06
436.284	749.06
436.505	595.06
436.727	537.06
436.949	521.06
437.17	477.06
437.392	465.06
437.614	519.06
437.835	549.06
438.057	667.06
438.278	787.06
438.5	754.06
438.721	815.06
438.943	773.06
439.165	633.06
439.386	563.06
439.608	553.06
439.829	537.06
440.05	596.06
440.272	648.06
440.493	615.06
440.715	539.06
440.936	494.06
441.158	476.06
441.379	472.06
441.6	530.06
441.822	523.06
442.043	583.06
442.264	668.06
442.486	713.06
442.707	584.06
442.928	544.06
443.149	562.06
443.371	568.06
443.592	609.06
443.813	729.06
444.034	768.06
444.255	627.06
444.476	555.06
444.698	516.06
444.919	504.06
445.14	613.06
445.361	562.06
445.582	571.06
445.803	639.06
446.024	785.06
446.245	781.06
446.466	720.06
446.687	594.06
446.908	552.06
447.129	508.06
447.35	507.06
447.571	503.06
447.792	487.06
448.013	495.06
448.234	497.06
448.455	583.06
448.675	708.06
448.896	794.06
449.117	670.06
449.338	667.06
449.559	780.06
449.779	854.06
450	673.06
450.221	546.06
450.442	505.06
450.662	499.06
450.883	511.06
451.104	537.06
451.324	497.06
451.545	478.06
451.766	437.06
451.986	446.06
452.207	425.06
452.428	449.06
452.648	437.06
452.869	448.06
453.089	447.06
453.31	462.06
453.53	470.06
453.751	442.06
453.971	431.06
454.192	465.06
454.412	467.06
454.633	450.06
454.853	429.06
455.073	448.06
455.294	447.06
455.514	532.06
455.734	538.06
455.955	471.06
456.175	429.06
456.395	422.06
456.616	404.06
456.836	406.06
457.056	419.06
457.276	381.06
457.497	373.06
457.717	401.06
457.937	390.06
458.157	400.06
458.377	431.06
458.598	449.06
458.818	519.06
459.038	595.06
459.258	644.06
459.478	527.06
459.698	473.06
459.918	446.06
460.138	437.06
460.358	433.06
460.578	438.06
460.798	441.06
461.018	448.06
461.238	426.06
461.458	419.06
461.678	434.06
461.898	436.06
462.118	435.06
462.338	441.06
462.558	429.06
462.777	431.06
462.997	460.06
463.217	459.06
463.437	453.06
463.657	453.06
463.876	454.06
464.096	447.06
464.316	462.06
464.536	491.06
464.755	460.06
464.975	471.06
465.195	521.06
465.414	641.06
465.634	550.06
465.854	499.06
466.073	471.06
466.293	463.06
466.512	468.06
466.732	445.06
466.951	418.06
467.171	394.06
467.391	417.06
467.61	435.06
467.829	478.06
468.049	447.06
468.268	463.06
468.488	454.06
468.707	409.06
468.927	422.06
469.146	399.06
469.365	439.06
469.585	441.06
469.804	425.06
470.023	435.06
470.243	421.06
470.462	437.06
470.681	470.06
470.901	458.06
471.12	459.06
471.339	454.06
471.558	441.06
471.777	443.06
471.997	443.06
472.216	460.06
472.435	501.06
472.654	486.06
472.873	454.06
473.092	447.06
473.311	456.06
473.53	455.06
473.749	458.06
473.968	479.06
474.187	624.06
474.406	657.06
474.625	530.06
474.844	488.06
475.063	470.06
475.282	447.06
475.501	457.06
475.72	460.06
475.939	449.06
476.158	464.06
476.377	471.06
476.596	462.06
476.814	469.06
477.033	488.06
477.252	483.06
477.471	465.06
477.69	462.06
477.908	476.06
478.127	471.06
478.346	483.06
478.564	460.06
478.783	486.06
479.002	494.06
479.22	498.06
479.439	504.06
479.658	535.06
479.876	540.06
480.095	538.06
480.313	527.06
480.532	566.06
480.751	559.06
480.969	567.06
481.188	631.06
481.406	684.06
481.624	599.06
481.843	545.06
482.061	522.06
482.28	523.06
482.498	536.06
482.717	531.06
482.935	550.06
483.153	522.06
483.372	524.06
483.59	517.06
483.808	504.06
484.027	519.06
484.245	526.06
484.463	524.06
484.681	537.06
484.9	534.06
485.118	553.06
485.336	535.06
485.554	525.06
485.772	538.06
485.99	548.06
486.209	529.06
486.427	553.06
486.645	558.06
486.863	594.06
487.081	585.06
487.299	552.06
487.517	569.06
487.735	545.06
487.953	569.06
488.171	559.06
488.389	541.06
488.607	570.06
488.825	566.06
489.043	544.06
489.261	549.06
489.479	584.06
489.696	583.06
489.914	575.06
490.132	583.06
490.35	580.06
490.568	586.06
490.786	581.06
491.003	610.06
491.221	619.06
491.439	622.06
491.657	633.06
491.874	655.06
492.092	660.06
492.31	651.06
492.527	646.06
492.745	646.06
492.963	631.06
493.18	660.06
493.398	653.06
493.615	666.06
493.833	673.06
494.05	643.06
494.268	642.06
494.485	679.06
494.703	665.06
494.92	644.06
495.138	664.06
495.355	664.06
495.573	653.06
495.79	665.06
496.008	667.06
496.225	681.06
496.442	659.06
496.66	695.06
496.877	655.06
497.094	661.06
497.312	671.06
497.529	693.06
497.746	673.06
497.963	685.06
498.181	738.06
498.398	696.06
498.615	716.06
498.832	736.06
499.049	741.06
499.267	725.06
499.484	752.06
499.701	759.06
499.918	795.06
500.135	777.06
500.352	807.06
500.569	806.06
500.786	812.06
501.003	810.06
501.22	801.06
501.437	811.06
501.654	778.06
501.871	792.06
502.088	778.06
502.305	745.06
502.522	727.06
502.739	717.06
502.956	681.06
503.172	674.06
503.389	683.06
503.606	683.06
503.823	683.06
504.04	675.06
504.256	665.06
504.473	672.06
504.69	668.06
504.907	685.06
505.123	662.06
505.34	631.06
505.557	650.06
505.773	659.06
505.99	652.06
506.207	653.06
506.423	626.06
506.64	645.06
506.856	627.06
507.073	643.06
507.289	652.06
507.506	617.06
507.722	644.06
507.939	673.06
508.155	661.06
508.372	622.06
508.588	619.06
508.805	610.06
509.021	647.06
509.238	645.06
509.454	671.06
509.67	653.06
509.887	621.06
510.103	629.06
510.319	627.06
510.536	769.06
510.752	1349.06
510.968	1089.06
511.184	687.06
511.401	627.06
511.617	624.06
511.833	623.06
512.049	617.06
512.265	608.06
512.481	599.06
512.698	603.06
512.914	622.06
513.13	605.06
513.346	587.06
513.562	607.06
513.778	604.06
513.994	616.06
514.21	630.06
514.426	661.06
514.642	706.06
514.858	743.06
515.074	791.06
515.29	961.06
515.506	1479.06
515.721	1186.06
515.937	797.06
516.153	680.06
516.369	668.06
516.585	638.06
516.801	623.06
517.016	621.06
517.232	621.06
517.448	617.06
517.664	590.06
517.879	616.06
518.095	606.06
518.311	580.06
518.527	611.06
518.742	565.06
518.958	584.06
519.173	603.06
519.389	612.06
519.605	589.06
519.82	605.06
520.036	623.06
520.251	662.06
520.467	690.06
520.682	693.06
520.898	723.06
521.113	726.06
521.329	792.06
521.544	935.06
521.76	1198.06
521.975	2041.06
522.19	1979.06
522.406	1043.06
522.621	748.06
522.836	646.06
523.052	619.06
523.267	589.06
523.482	562.06
523.698	587.06
523.913	554.06
524.128	591.06
524.343	549.06
524.559	538.06
524.774	531.06
524.989	532.06
525.204	557.06
525.419	533.06
525.634	494.06
525.849	526.06
526.064	497.06
526.28	503.06
526.495	489.06
526.71	496.06
526.925	490.06
527.14	472.06
527.355	476.06
527.57	488.06
527.785	491.06
527.999	471.06
528.214	493.06
528.429	466.06
528.644	475.06
528.859	503.06
529.074	493.06
529.289	527.06
529.503	642.06
529.718	587.06
529.933	530.06
530.148	493.06
530.363	490.06
530.577	489.06
530.792	488.06
531.007	486.06
531.221	447.06
531.436	465.06
531.651	449.06
531.865	448.06
532.08	442.06
532.295	463.06
532.509	451.06
532.724	450.06
532.938	457.06
533.153	448.06
533.367	471.06
533.582	457.06
533.796	466.06
534.011	454.06
534.225	439.06
534.44	438.06
534.654	450.06
534.868	416.06
535.083	435.06
535.297	434.06
535.511	452.06
535.726	471.06
535.94	462.06
536.154	435.06
536.369	456.06
536.583	469.06
536.797	455.06
537.011	424.06
537.225	442.06
537.44	439.06
537.654	448.06
537.868	451.06
538.082	439.06
538.296	439.06
538.51	442.06
538.724	450.06
538.938	426.06
539.153	428.06
539.367	477.06
539.581	473.06
539.795	439.06
540.009	437.06
540.222	451.06
540.436	458.06
540.65	452.06
540.864	441.06
541.078	431.06
541.292	442.06
541.506	437.06
541.72	459.06
541.934	417.06
542.147	434.06
542.361	441.06
542.575	431.06
542.789	439.06
543.002	441.06
543.216	437.06
543.43	445.06
543.644	433.06
543.857	426.06
544.071	421.06
544.285	432.06
544.498	433.06
544.712	419.06
544.925	399.06
545.139	415.06
545.352	430.06
545.566	411.06
545.779	417.06
545.993	411.06
546.206	421.06
546.42	418.06
546.633	431.06
546.847	402.06
547.06	424.06
547.274	426.06
547.487	420.06
547.7	402.06
547.914	415.06
548.127	412.06
548.34	376.06
548.554	398.06
548.767	402.06
548.98	426.06
549.193	388.06
549.407	399.06
549.62	390.06
549.833	378.06
550.046	397.06
550.259	391.06
550.473	384.06
550.686	413.06
550.899	380.06
551.112	399.06
551.325	393.06
551.538	383.06
551.751	390.06
551.964	380.06
552.177	412.06
552.39	408.06
552.603	405.06
552.816	403.06
553.029	394.06
553.242	405.06
553.455	410.06
553.667	422.06
553.88	415.06
554.093	428.06
554.306	413.06
554.519	432.06
554.732	399.06
554.944	410.06
555.157	401.06
555.37	400.06
555.583	393.06
555.795	398.06
556.008	409.06
556.221	386.06
556.433	373.06
556.646	377.06
556.859	369.06
557.071	358.06
557.284	376.06
557.496	367.06
557.709	368.06
557.921	365.06
558.134	358.06
558.346	371.06
558.559	372.06
558.771	363.06
558.984	359.06
559.196	365.06
559.409	358.06
559.621	377.06
559.833	356.06
560.046	351.06
560.258	365.06
560.47	355.06
560.683	367.06
560.895	376.06
561.107	364.06
561.32	357.06
561.532	374.06
561.744	357.06
561.956	368.06
562.168	339.06
562.381	368.06
562.593	370.06
562.805	359.06
563.017	375.06
563.229	373.06
563.441	371.06
563.653	370.06
563.865	371.06
564.077	374.06
564.289	346.06
564.501	352.06
564.713	367.06
564.925	383.06
565.137	380.06
565.349	395.06
565.561	373.06
565.773	383.06
565.985	384.06
566.197	384.06
566.408	402.06
566.62	415.06
566.832	395.06
567.044	409.06
567.255	411.06
567.467	401.06
567.679	437.06
567.891	410.06
568.102	393.06
568.314	396.06
568.526	377.06
568.737	385.06
568.949	367.06
569.161	373.06
569.372	389.06
569.584	365.06
569.795	364.06
570.007	374.06
570.218	423.06
570.43	413.06
570.641	379.06
570.853	352.06
571.064	339.06
571.276	350.06
571.487	342.06
571.698	331.06
571.91	298.06
572.121	333.06
572.333	340.06
572.544	321.06
572.755	339.06
572.966	316.06
573.178	341.06
573.389	332.06
573.6	316.06
573.811	326.06
574.023	295.06
574.234	319.06
574.445	302.06
574.656	335.06
574.867	307.06
575.078	328.06
575.289	330.06
575.501	318.06
575.712	334.06
575.923	324.06
576.134	325.06
576.345	326.06
576.556	318.06
576.767	320.06
576.978	307.06
577.188	322.06
577.399	314.06
577.61	285.06
577.821	318.06
578.032	306.06
578.243	362.06
578.454	656.06
578.665	455.06
578.875	314.06
579.086	294.06
579.297	302.06
579.508	306.06
579.718	305.06
579.929	288.06
580.14	306.06
580.35	291.06
580.561	303.06
580.772	277.06
580.982	305.06
581.193	288.06
581.403	297.06
581.614	287.06
581.825	305.06
582.035	279.06
582.246	290.06
582.456	304.06
582.667	281.06
582.877	285.06
583.087	275.06
583.298	280.06
583.508	288.06
583.719	296.06
583.929	291.06
584.139	290.06
584.35	278.06
584.56	283.06
584.77	294.06
584.981	277.06
585.191	290.06
585.401	291.06
585.611	304.06
585.821	290.06
586.032	277.06
586.242	265.06
586.452	291.06
586.662	282.06
586.872	291.06
587.082	304.06
587.292	286.06
587.502	276.06
587.713	278.06
587.923	269.06
588.133	268.06
588.343	287.06
588.553	261.06
588.762	273.06
588.972	284.06
589.182	273.06
589.392	264.06
589.602	273.06
589.812	281.06
590.022	288.06
590.232	277.06
590.441	293.06
590.651	267.06
590.861	261.06
591.071	287.06
591.281	289.06
591.49	263.06
591.7	279.06
591.91	278.06
592.119	284.06
592.329	273.06
592.539	287.06
592.748	291.06
592.958	272.06
593.167	279.06
593.377	278.06
593.587	290.06
593.796	282.06
594.006	286.06
594.215	292.06
594.424	280.06
594.634	288.06
594.843	283.06
595.053	270.06
595.262	271.06
595.472	284.06
595.681	258.06
595.89	255.06
596.1	272.06
596.309	265.06
596.518	245.06
596.727	242.06
596.937	270.06
597.146	256.06
597.355	258.06
597.564	261.06
597.774	255.06
597.983	245.06
598.192	270.06
598.401	239.06
598.61	261.06
598.819	245.06
599.028	243.06
599.237	253.06
599.446	259.06
599.655	265.06
599.864	254.06
600.073	236.06
600.282	264.06
600.491	246.06
600.7	237.06
600.909	238.06
601.118	252.06
601.327	233.06
601.536	247.06
601.745	240.06
601.953	249.06
602.162	250.06
602.371	240.06
602.58	238.06
602.789	231.06
602.997	261.06
603.206	254.06
603.415	235.06
603.623	241.06
603.832	244.06
604.041	249.06
604.249	250.06
604.458	243.06
604.666	228.06
604.875	223.06
605.084	241.06
605.292	240.06
605.501	233.06
605.709	226.06
605.918	226.06
606.126	237.06
606.334	214.06
606.543	234.06
606.751	231.06
606.96	231.06
607.168	238.06
607.376	230.06
607.585	236.06
607.793	228.06
608.001	234.06
608.21	244.06
608.418	247.06
608.626	221.06
608.834	232.06
609.043	216.06
609.251	237.06
609.459	217.06
609.667	247.06
609.875	242.06
610.083	239.06
610.291	229.06
610.499	224.06
610.707	228.06
610.916	227.06
611.124	227.06
611.332	227.06
611.54	243.06
611.748	230.06
611.955	224.06
612.163	237.06
612.371	233.06
612.579	225.06
612.787	226.06
612.995	230.06
613.203	233.06
613.411	223.06
613.618	223.06
613.826	223.06
614.034	236.06
614.242	221.06
614.449	234.06
614.657	231.06
614.865	219.06
615.072	224.06
615.28	226.06
615.488	221.06
615.695	228.06
615.903	215.06
616.111	212.06
616.318	230.06
616.526	220.06
616.733	216.06
616.941	222.06
617.148	235.06
617.356	212.06
617.563	210.06
617.771	224.06
617.978	221.06
618.185	232.06
618.393	235.06
618.6	210.06
618.807	220.06
619.015	205.06
619.222	211.06
619.429	217.06
619.637	214.06
619.844	210.06
620.051	220.06
620.258	211.06
620.466	203.06
620.673	210.06
620.88	211.06
621.087	223.06
621.294	217.06
621.501	214.06
621.708	210.06
621.915	193.06
622.122	210.06
622.329	224.06
622.536	221.06
622.743	220.06
622.95	196.06
623.157	193.06
623.364	222.06
623.571	225.06
623.778	210.06
623.985	224.06
624.192	223.06
624.399	202.06
624.606	220.06
624.812	198.06
625.019	211.06
625.226	210.06
625.433	211.06
625.639	191.06
625.846	189.06
626.053	193.06
626.259	190.06
626.466	217.06
626.673	202.06
626.879	218.06
627.086	196.06
627.293	211.06
627.499	193.06
627.706	192.06
627.912	209.06
628.119	210.06
628.325	190.06
628.532	210.06
628.738	207.06
628.945	172.06
629.151	197.06
629.357	202.06
629.564	189.06
629.77	195.06
629.976	211.06
630.183	188.06
630.389	177.06
630.595	183.06
630.802	202.06
631.008	191.06
631.214	188.06
631.42	189.06
631.627	186.06
631.833	178.06
632.039	182.06
632.245	194.06
632.451	187.06
632.657	188.06
632.863	180.06
633.069	182.06
633.275	183.06
633.481	168.06
633.688	173.06
633.893	192.06
634.099	184.06
634.305	178.06
634.511	172.06
634.717	191.06
634.923	165.06
635.129	190.06
635.335	182.06
635.541	175.06
635.747	183.06
635.952	179.06
636.158	183.06
636.364	199.06
636.57	182.06
636.775	189.06
636.981	200.06
637.187	197.06
637.392	172.06
637.598	181.06
637.804	187.06
638.009	178.06
638.215	179.06
638.421	183.06
638.626	170.06
638.832	197.06
639.037	185.06
639.243	179.06
639.448	174.06
639.654	170.06
639.859	176.06
640.065	172.06
640.27	171.06
640.475	166.06
640.681	172.06
640.886	162.06
641.091	157.06
641.297	163.06
641.502	165.06
641.707	178.06
641.913	167.06
642.118	155.06
642.323	173.06
642.528	171.06
642.733	170.06
642.939	169.06
643.144	160.06
643.349	166.06
643.554	175.06
643.759	161.06
643.964	173.06
644.169	159.06
644.374	161.06
644.579	158.06
644.784	170.06
644.989	185.06
645.194	176.06
645.399	162.06
645.604	165.06
645.809	178.06
646.014	163.06
646.219	175.06
646.423	158.06
646.628	166.06
646.833	151.06
647.038	175.06
647.243	171.06
647.447	170.06
647.652	159.06
647.857	159.06
648.062	148.06
648.266	151.06
648.471	167.06
648.676	176.06
648.88	165.06
649.085	162.06
649.289	170.06
649.494	185.06
649.698	176.06
649.903	198.06
650.107	169.06
650.312	155.06
650.516	155.06
650.721	158.06
650.925	142.06
651.13	155.06
651.334	157.06
651.539	140.06
651.743	153.06
651.947	135.06
652.152	146.06
652.356	147.06
652.56	148.06
652.764	133.06
652.969	131.06
653.173	135.06
653.377	155.06
653.581	151.06
653.785	144.06
653.99	124.06
654.194	136.06
654.398	140.06
654.602	137.06
654.806	133.06
655.01	130.06
655.214	138.06
655.418	142.06
655.622	135.06
655.826	123.06
656.03	127.06
656.234	129.06
656.438	128.06
656.642	115.06
656.846	121.06
657.049	121.06
657.253	137.06
657.457	117.06
657.661	123.06
657.865	121.06
658.068	107.06
658.272	108.06
658.476	107.06
658.68	106.06
658.883	113.06
659.087	105.06
659.291	94.06
659.494	104.06
659.698	96.06
659.901	109.06
660.105	98.06
660.309	90.06
660.512	94.06
660.716	96.06
660.919	90.06
661.123	117.06
661.326	98.06
661.53	99.06
661.733	100.06
661.936	90.06
662.14	90.06
662.343	94.06
662.546	99.06
662.75	98.06
662.953	90.06
663.156	82.06
663.36	86.06
663.563	82.06
663.766	83.06
663.969	90.06
664.173	87.06
664.376	72.06
664.579	69.06
664.782	80.06
664.985	95.06
665.188	74.06
665.391	99.06
665.594	87.06
665.797	78.06
666	88.06
666.203	89.06
666.406	93.06
666.609	89.06
666.812	94.06
667.015	82.06
667.218	82.06
667.421	101.06
667.624	85.06
667.827	85.06
668.03	100.06
668.232	80.06
668.435	87.06
668.638	81.06
668.841	81.06
669.043	86.06
669.246	71.06
669.449	92.06
669.651	90.06
669.854	94.06
670.057	76.06
670.259	87.06
670.462	88.06
670.665	84.06
670.867	80.06
671.07	90.06
671.272	91.06
671.475	84.06
671.677	86.06
671.88	96.06
672.082	86.06
672.284	86.06
672.487	94.06
672.689	83.06
672.892	83.06
