Data from 1972.PennyLincolnUp.Lamp.En5.5.200Scan.071719.P1._HRD10591_15-26-45-843.txt Node
Date: Thu Jul 18 15:26:45 EDT 2019
User: cochatt
Spectrometer: HR+D1059
Trigger mode: 1
Integration Time (sec): 1.000000E-1
Scans to average: 1
Electric dark correction enabled: true
Nonlinearity correction enabled: false
Boxcar width: 0
XAxis mode: Wavelengths
Number of Pixels in Spectrum: 2048
>>>>>Begin Spectral Data<<<<<
223.165	-13.31
223.4	-13.31
223.635	-13.31
223.869	-8.31
224.104	-21.31
224.338	-17.31
224.573	-12.31
224.808	-14.31
225.042	-1.31
225.277	-7.31
225.511	-19.31
225.746	8.69
225.98	12.69
226.215	4.69
226.449	13.69
226.683	18.69
226.918	29.69
227.152	26.69
227.387	21.69
227.621	44.69
227.856	45.69
228.09	51.69
228.324	46.69
228.559	57.69
228.793	66.69
229.027	85.69
229.262	89.69
229.496	104.69
229.73	114.69
229.964	126.69
230.199	104.69
230.433	101.69
230.667	108.69
230.901	109.69
231.136	89.69
231.37	104.69
231.604	99.69
231.838	99.69
232.072	103.69
232.306	108.69
232.541	104.69
232.775	99.69
233.009	94.69
233.243	101.69
233.477	99.69
233.711	96.69
233.945	107.69
234.179	114.69
234.413	109.69
234.647	108.69
234.881	92.69
235.115	102.69
235.349	111.69
235.583	120.69
235.817	111.69
236.051	105.69
236.285	96.69
236.519	104.69
236.753	115.69
236.987	114.69
237.221	148.69
237.455	202.69
237.689	151.69
237.922	122.69
238.156	111.69
238.39	105.69
238.624	114.69
238.858	114.69
239.091	120.69
239.325	90.69
239.559	101.69
239.793	123.69
240.027	111.69
240.26	117.69
240.494	132.69
240.728	126.69
240.961	107.69
241.195	97.69
241.429	95.69
241.662	123.69
241.896	108.69
242.13	120.69
242.363	110.69
242.597	111.69
242.83	134.69
243.064	106.69
243.298	130.69
243.531	124.69
243.765	127.69
243.998	130.69
244.232	130.69
244.465	111.69
244.699	124.69
244.932	120.69
245.166	127.69
245.399	124.69
245.633	134.69
245.866	136.69
246.099	129.69
246.333	128.69
246.566	119.69
246.8	138.69
247.033	138.69
247.266	132.69
247.5	135.69
247.733	133.69
247.966	146.69
248.2	149.69
248.433	154.69
248.666	156.69
248.899	152.69
249.133	155.69
249.366	172.69
249.599	176.69
249.832	143.69
250.066	171.69
250.299	150.69
250.532	143.69
250.765	173.69
250.998	191.69
251.231	194.69
251.465	179.69
251.698	168.69
251.931	156.69
252.164	163.69
252.397	165.69
252.63	164.69
252.863	169.69
253.096	186.69
253.329	197.69
253.562	169.69
253.795	174.69
254.028	179.69
254.261	193.69
254.494	192.69
254.727	199.69
254.96	222.69
255.193	212.69
255.426	194.69
255.659	187.69
255.892	194.69
256.124	190.69
256.357	178.69
256.59	184.69
256.823	193.69
257.056	172.69
257.289	180.69
257.521	182.69
257.754	158.69
257.987	152.69
258.22	168.69
258.452	163.69
258.685	181.69
258.918	176.69
259.151	172.69
259.383	185.69
259.616	190.69
259.849	197.69
260.081	191.69
260.314	189.69
260.547	200.69
260.779	208.69
261.012	185.69
261.244	182.69
261.477	187.69
261.71	180.69
261.942	176.69
262.175	178.69
262.407	201.69
262.64	167.69
262.872	166.69
263.105	177.69
263.337	166.69
263.57	186.69
263.802	169.69
264.035	184.69
264.267	174.69
264.499	172.69
264.732	165.69
264.964	162.69
265.197	178.69
265.429	173.69
265.661	174.69
265.894	175.69
266.126	159.69
266.358	176.69
266.591	178.69
266.823	182.69
267.055	190.69
267.287	191.69
267.52	179.69
267.752	188.69
267.984	189.69
268.216	190.69
268.448	185.69
268.681	183.69
268.913	194.69
269.145	188.69
269.377	218.69
269.609	214.69
269.841	201.69
270.073	204.69
270.306	227.69
270.538	227.69
270.77	228.69
271.002	230.69
271.234	224.69
271.466	219.69
271.698	231.69
271.93	248.69
272.162	230.69
272.394	235.69
272.626	207.69
272.858	218.69
273.09	209.69
273.322	211.69
273.553	205.69
273.785	220.69
274.017	190.69
274.249	194.69
274.481	212.69
274.713	205.69
274.945	220.69
275.176	202.69
275.408	196.69
275.64	211.69
275.872	191.69
276.104	194.69
276.335	199.69
276.567	204.69
276.799	202.69
277.031	219.69
277.262	224.69
277.494	229.69
277.726	226.69
277.957	217.69
278.189	215.69
278.421	207.69
278.652	207.69
278.884	222.69
279.115	208.69
279.347	208.69
279.579	192.69
279.81	222.69
280.042	218.69
280.273	220.69
280.505	221.69
280.736	201.69
280.968	194.69
281.199	212.69
281.431	211.69
281.662	210.69
281.894	189.69
282.125	222.69
282.356	220.69
282.588	226.69
282.819	224.69
283.051	222.69
283.282	219.69
283.513	220.69
283.745	243.69
283.976	218.69
284.207	208.69
284.439	214.69
284.67	223.69
284.901	208.69
285.132	219.69
285.364	214.69
285.595	226.69
285.826	204.69
286.057	218.69
286.288	204.69
286.52	212.69
286.751	227.69
286.982	219.69
287.213	205.69
287.444	206.69
287.675	218.69
287.906	222.69
288.138	214.69
288.369	237.69
288.6	227.69
288.831	228.69
289.062	219.69
289.293	217.69
289.524	211.69
289.755	223.69
289.986	226.69
290.217	239.69
290.448	237.69
290.679	208.69
290.91	215.69
291.141	227.69
291.371	228.69
291.602	217.69
291.833	223.69
292.064	221.69
292.295	209.69
292.526	215.69
292.757	220.69
292.987	226.69
293.218	234.69
293.449	223.69
293.68	220.69
293.91	210.69
294.141	222.69
294.372	218.69
294.603	237.69
294.833	224.69
295.064	219.69
295.295	226.69
295.525	206.69
295.756	214.69
295.987	238.69
296.217	252.69
296.448	256.69
296.679	239.69
296.909	220.69
297.14	234.69
297.37	223.69
297.601	227.69
297.831	207.69
298.062	232.69
298.292	234.69
298.523	241.69
298.753	234.69
298.984	228.69
299.214	237.69
299.445	234.69
299.675	238.69
299.905	221.69
300.136	234.69
300.366	246.69
300.597	227.69
300.827	232.69
301.057	244.69
301.288	254.69
301.518	263.69
301.748	247.69
301.979	255.69
302.209	236.69
302.439	259.69
302.669	247.69
302.9	242.69
303.13	251.69
303.36	242.69
303.59	230.69
303.82	250.69
304.051	243.69
304.281	253.69
304.511	242.69
304.741	250.69
304.971	236.69
305.201	234.69
305.431	222.69
305.661	233.69
305.891	232.69
306.121	226.69
306.352	252.69
306.582	254.69
306.812	249.69
307.042	254.69
307.272	230.69
307.502	238.69
307.731	240.69
307.961	271.69
308.191	249.69
308.421	234.69
308.651	258.69
308.881	241.69
309.111	261.69
309.341	260.69
309.571	257.69
309.8	272.69
310.03	276.69
310.26	290.69
310.49	277.69
310.72	295.69
310.949	294.69
311.179	292.69
311.409	278.69
311.639	282.69
311.868	271.69
312.098	265.69
312.328	286.69
312.557	291.69
312.787	298.69
313.017	300.69
313.246	301.69
313.476	271.69
313.706	280.69
313.935	257.69
314.165	286.69
314.394	285.69
314.624	281.69
314.853	273.69
315.083	290.69
315.312	287.69
315.542	275.69
315.771	279.69
316.001	276.69
316.23	298.69
316.46	286.69
316.689	285.69
316.919	282.69
317.148	290.69
317.377	289.69
317.607	274.69
317.836	310.69
318.065	299.69
318.295	300.69
318.524	294.69
318.753	287.69
318.983	279.69
319.212	278.69
319.441	290.69
319.67	288.69
319.9	292.69
320.129	273.69
320.358	308.69
320.587	287.69
320.816	300.69
321.046	306.69
321.275	297.69
321.504	298.69
321.733	298.69
321.962	297.69
322.191	304.69
322.42	321.69
322.649	308.69
322.878	314.69
323.108	332.69
323.337	344.69
323.566	350.69
323.795	367.69
324.024	387.69
324.253	454.69
324.482	633.69
324.71	976.69
324.939	1414.69
325.168	1251.69
325.397	664.69
325.626	434.69
325.855	384.69
326.084	359.69
326.313	353.69
326.542	351.69
326.77	371.69
326.999	432.69
327.228	581.69
327.457	873.69
327.686	1067.69
327.914	723.69
328.143	467.69
328.372	421.69
328.6	365.69
328.829	368.69
329.058	397.69
329.287	390.69
329.515	385.69
329.744	354.69
329.972	362.69
330.201	358.69
330.43	381.69
330.658	404.69
330.887	421.69
331.115	396.69
331.344	350.69
331.572	342.69
331.801	333.69
332.03	344.69
332.258	327.69
332.486	334.69
332.715	327.69
332.943	323.69
333.172	319.69
333.4	309.69
333.629	336.69
333.857	336.69
334.085	326.69
334.314	344.69
334.542	358.69
334.771	367.69
334.999	370.69
335.227	327.69
335.455	330.69
335.684	321.69
335.912	329.69
336.14	317.69
336.369	322.69
336.597	322.69
336.825	326.69
337.053	332.69
337.281	305.69
337.51	317.69
337.738	312.69
337.966	326.69
338.194	303.69
338.422	312.69
338.65	304.69
338.878	317.69
339.106	306.69
339.334	312.69
339.562	314.69
339.79	303.69
340.018	304.69
340.246	318.69
340.474	314.69
340.702	300.69
340.93	319.69
341.158	311.69
341.386	312.69
341.614	311.69
341.842	320.69
342.07	300.69
342.298	306.69
342.526	304.69
342.754	299.69
342.981	302.69
343.209	297.69
343.437	304.69
343.665	319.69
343.893	298.69
344.12	312.69
344.348	325.69
344.576	314.69
344.804	318.69
345.031	314.69
345.259	313.69
345.487	319.69
345.714	312.69
345.942	311.69
346.17	317.69
346.397	299.69
346.625	311.69
346.853	313.69
347.08	296.69
347.308	295.69
347.535	307.69
347.763	327.69
347.99	308.69
348.218	302.69
348.445	310.69
348.673	307.69
348.9	306.69
349.128	311.69
349.355	300.69
349.583	318.69
349.81	315.69
350.037	300.69
350.265	284.69
350.492	292.69
350.72	306.69
350.947	304.69
351.174	288.69
351.402	315.69
351.629	299.69
351.856	308.69
352.083	309.69
352.311	302.69
352.538	314.69
352.765	318.69
352.992	308.69
353.22	308.69
353.447	307.69
353.674	307.69
353.901	308.69
354.128	274.69
354.355	278.69
354.583	306.69
354.81	304.69
355.037	312.69
355.264	285.69
355.491	296.69
355.718	284.69
355.945	293.69
356.172	296.69
356.399	286.69
356.626	288.69
356.853	279.69
357.08	293.69
357.307	276.69
357.534	282.69
357.761	280.69
357.988	295.69
358.215	294.69
358.441	304.69
358.668	297.69
358.895	294.69
359.122	291.69
359.349	285.69
359.576	310.69
359.802	326.69
360.029	334.69
360.256	338.69
360.483	332.69
360.709	298.69
360.936	309.69
361.163	315.69
361.39	291.69
361.616	299.69
361.843	311.69
362.07	310.69
362.296	291.69
362.523	309.69
362.749	283.69
362.976	291.69
363.203	286.69
363.429	301.69
363.656	302.69
363.882	295.69
364.109	292.69
364.335	284.69
364.562	296.69
364.788	295.69
365.015	289.69
365.241	291.69
365.468	299.69
365.694	297.69
365.92	288.69
366.147	292.69
366.373	297.69
366.599	282.69
366.826	302.69
367.052	306.69
367.278	296.69
367.505	291.69
367.731	290.69
367.957	280.69
368.184	295.69
368.41	293.69
368.636	295.69
368.862	299.69
369.089	307.69
369.315	285.69
369.541	295.69
369.767	294.69
369.993	277.69
370.219	295.69
370.445	288.69
370.672	306.69
370.898	303.69
371.124	302.69
371.35	291.69
371.576	290.69
371.802	305.69
372.028	302.69
372.254	278.69
372.48	271.69
372.706	293.69
372.932	316.69
373.158	301.69
373.384	310.69
373.61	280.69
373.835	303.69
374.061	292.69
374.287	297.69
374.513	307.69
374.739	327.69
374.965	302.69
375.191	298.69
375.416	310.69
375.642	306.69
375.868	299.69
376.094	301.69
376.319	307.69
376.545	312.69
376.771	292.69
376.997	294.69
377.222	286.69
377.448	307.69
377.674	310.69
377.899	302.69
378.125	306.69
378.35	300.69
378.576	291.69
378.802	307.69
379.027	293.69
379.253	296.69
379.478	292.69
379.704	295.69
379.929	292.69
380.155	312.69
380.38	306.69
380.606	308.69
380.831	300.69
381.057	320.69
381.282	301.69
381.507	288.69
381.733	304.69
381.958	309.69
382.184	308.69
382.409	298.69
382.634	315.69
382.86	296.69
383.085	306.69
383.31	320.69
383.535	316.69
383.761	321.69
383.986	328.69
384.211	303.69
384.436	313.69
384.662	328.69
384.887	326.69
385.112	323.69
385.337	327.69
385.562	332.69
385.787	313.69
386.013	331.69
386.238	345.69
386.463	344.69
386.688	327.69
386.913	313.69
387.138	320.69
387.363	317.69
387.588	320.69
387.813	320.69
388.038	321.69
388.263	326.69
388.488	343.69
388.713	316.69
388.938	324.69
389.163	322.69
389.387	318.69
389.612	329.69
389.837	324.69
390.062	313.69
390.287	326.69
390.512	300.69
390.736	308.69
390.961	303.69
391.186	325.69
391.411	318.69
391.636	322.69
391.86	319.69
392.085	330.69
392.31	330.69
392.534	338.69
392.759	323.69
392.984	344.69
393.208	377.69
393.433	450.69
393.658	488.69
393.882	373.69
394.107	316.69
394.331	318.69
394.556	330.69
394.78	312.69
395.005	341.69
395.229	323.69
395.454	330.69
395.678	342.69
395.903	327.69
396.127	367.69
396.352	372.69
396.576	342.69
396.801	374.69
397.025	414.69
397.249	412.69
397.474	364.69
397.698	338.69
397.922	365.69
398.147	370.69
398.371	357.69
398.595	354.69
398.82	358.69
399.044	362.69
399.268	377.69
399.492	364.69
399.717	388.69
399.941	396.69
400.165	415.69
400.389	451.69
400.613	404.69
400.837	367.69
401.062	374.69
401.286	356.69
401.51	358.69
401.734	356.69
401.958	352.69
402.182	354.69
402.406	389.69
402.63	368.69
402.854	366.69
403.078	344.69
403.302	362.69
403.526	357.69
403.75	371.69
403.974	372.69
404.198	360.69
404.422	383.69
404.645	380.69
404.869	370.69
405.093	399.69
405.317	396.69
405.541	447.69
405.765	416.69
405.988	396.69
406.212	384.69
406.436	388.69
406.66	399.69
406.883	399.69
407.107	418.69
407.331	414.69
407.555	496.69
407.778	500.69
408.002	450.69
408.226	416.69
408.449	406.69
408.673	407.69
408.896	436.69
409.12	450.69
409.344	444.69
409.567	411.69
409.791	390.69
410.014	378.69
410.238	377.69
410.461	365.69
410.685	390.69
410.908	397.69
411.132	412.69
411.355	446.69
411.578	418.69
411.802	380.69
412.025	379.69
412.249	371.69
412.472	391.69
412.695	399.69
412.919	401.69
413.142	393.69
413.365	365.69
413.589	366.69
413.812	356.69
414.035	381.69
414.258	349.69
414.482	347.69
414.705	343.69
414.928	350.69
415.151	323.69
415.374	334.69
415.597	347.69
415.821	344.69
416.044	362.69
416.267	366.69
416.49	342.69
416.713	349.69
416.936	348.69
417.159	359.69
417.382	380.69
417.605	366.69
417.828	356.69
418.051	359.69
418.274	365.69
418.497	353.69
418.72	358.69
418.943	356.69
419.166	377.69
419.389	369.69
419.611	362.69
419.834	370.69
420.057	370.69
420.28	368.69
420.503	364.69
420.726	372.69
420.948	371.69
421.171	396.69
421.394	413.69
421.617	399.69
421.839	363.69
422.062	362.69
422.285	374.69
422.507	438.69
422.73	467.69
422.953	453.69
423.175	400.69
423.398	382.69
423.621	392.69
423.843	374.69
424.066	387.69
424.288	386.69
424.511	393.69
424.733	460.69
424.956	504.69
425.178	478.69
425.401	499.69
425.623	506.69
425.846	420.69
426.068	408.69
426.291	386.69
426.513	392.69
426.735	413.69
426.958	416.69
427.18	501.69
427.402	594.69
427.625	587.69
427.847	542.69
428.069	474.69
428.292	434.69
428.514	389.69
428.736	384.69
428.958	394.69
429.181	349.69
429.403	380.69
429.625	381.69
429.847	409.69
430.069	457.69
430.292	447.69
430.514	371.69
430.736	366.69
430.958	346.69
431.18	359.69
431.402	361.69
431.624	352.69
431.846	334.69
432.068	343.69
432.29	348.69
432.512	359.69
432.734	359.69
432.956	371.69
433.178	369.69
433.4	354.69
433.622	349.69
433.844	357.69
434.066	352.69
434.287	361.69
434.509	365.69
434.731	367.69
434.953	364.69
435.175	388.69
435.397	397.69
435.618	382.69
435.84	438.69
436.062	482.69
436.284	541.69
436.505	453.69
436.727	411.69
436.949	392.69
437.17	371.69
437.392	377.69
437.614	396.69
437.835	390.69
438.057	452.69
438.278	530.69
438.5	549.69
438.721	600.69
438.943	581.69
439.165	463.69
439.386	423.69
439.608	394.69
439.829	416.69
440.05	420.69
440.272	453.69
440.493	422.69
440.715	397.69
440.936	382.69
441.158	374.69
441.379	358.69
441.6	367.69
441.822	358.69
442.043	415.69
442.264	474.69
442.486	515.69
442.707	446.69
442.928	409.69
443.149	411.69
443.371	414.69
443.592	464.69
443.813	527.69
444.034	585.69
444.255	468.69
444.476	428.69
444.698	402.69
444.919	403.69
445.14	472.69
445.361	448.69
445.582	429.69
445.803	484.69
446.024	547.69
446.245	569.69
446.466	511.69
446.687	418.69
446.908	412.69
447.129	403.69
447.35	382.69
447.571	357.69
447.792	386.69
448.013	364.69
448.234	377.69
448.455	409.69
448.675	517.69
448.896	604.69
449.117	516.69
449.338	480.69
449.559	520.69
449.779	637.69
450	514.69
450.221	434.69
450.442	383.69
450.662	404.69
450.883	366.69
451.104	364.69
451.324	366.69
451.545	344.69
451.766	347.69
451.986	326.69
452.207	340.69
452.428	321.69
452.648	322.69
452.869	316.69
453.089	332.69
453.31	346.69
453.53	327.69
453.751	333.69
453.971	327.69
454.192	335.69
454.412	351.69
454.633	317.69
454.853	323.69
455.073	320.69
455.294	350.69
455.514	403.69
455.734	394.69
455.955	343.69
456.175	328.69
456.395	323.69
456.616	316.69
456.836	336.69
457.056	326.69
457.276	298.69
457.497	318.69
457.717	310.69
457.937	330.69
458.157	335.69
458.377	320.69
458.598	342.69
458.818	363.69
459.038	406.69
459.258	432.69
459.478	376.69
459.698	363.69
459.918	351.69
460.138	349.69
460.358	348.69
460.578	346.69
460.798	348.69
461.018	349.69
461.238	351.69
461.458	344.69
461.678	378.69
461.898	358.69
462.118	346.69
462.338	368.69
462.558	344.69
462.777	383.69
462.997	367.69
463.217	364.69
463.437	383.69
463.657	386.69
463.876	382.69
464.096	388.69
464.316	385.69
464.536	363.69
464.755	368.69
464.975	377.69
465.195	384.69
465.414	430.69
465.634	388.69
465.854	367.69
466.073	366.69
466.293	350.69
466.512	353.69
466.732	352.69
466.951	353.69
467.171	328.69
467.391	354.69
467.61	342.69
467.829	345.69
468.049	342.69
468.268	317.69
468.488	351.69
468.707	338.69
468.927	349.69
469.146	332.69
469.365	338.69
469.585	330.69
469.804	327.69
470.023	344.69
470.243	334.69
470.462	349.69
470.681	356.69
470.901	365.69
471.12	331.69
471.339	356.69
471.558	335.69
471.777	362.69
471.997	345.69
472.216	356.69
472.435	368.69
472.654	360.69
472.873	350.69
473.092	366.69
473.311	348.69
473.53	335.69
473.749	362.69
473.968	378.69
474.187	435.69
474.406	468.69
474.625	371.69
474.844	373.69
475.063	343.69
475.282	366.69
475.501	355.69
475.72	363.69
475.939	351.69
476.158	368.69
476.377	377.69
476.596	366.69
476.814	367.69
477.033	357.69
477.252	359.69
477.471	375.69
477.69	364.69
477.908	366.69
478.127	372.69
478.346	363.69
478.564	388.69
478.783	370.69
479.002	370.69
479.22	392.69
479.439	416.69
479.658	411.69
479.876	406.69
480.095	423.69
480.313	418.69
480.532	423.69
480.751	405.69
480.969	433.69
481.188	438.69
481.406	460.69
481.624	446.69
481.843	421.69
482.061	418.69
482.28	403.69
482.498	393.69
482.717	415.69
482.935	392.69
483.153	406.69
483.372	407.69
483.59	397.69
483.808	406.69
484.027	412.69
484.245	407.69
484.463	413.69
484.681	418.69
484.9	418.69
485.118	427.69
485.336	429.69
485.554	426.69
485.772	439.69
485.99	434.69
486.209	400.69
486.427	439.69
486.645	428.69
486.863	421.69
487.081	431.69
487.299	445.69
487.517	440.69
487.735	429.69
487.953	429.69
488.171	453.69
488.389	446.69
488.607	438.69
488.825	417.69
489.043	440.69
489.261	434.69
489.479	473.69
489.696	440.69
489.914	426.69
490.132	460.69
490.35	446.69
490.568	461.69
490.786	478.69
491.003	478.69
491.221	473.69
491.439	488.69
491.657	482.69
491.874	472.69
492.092	489.69
492.31	492.69
492.527	491.69
492.745	489.69
492.963	510.69
493.18	510.69
493.398	496.69
493.615	484.69
493.833	502.69
494.05	514.69
494.268	497.69
494.485	486.69
494.703	486.69
494.92	484.69
495.138	495.69
495.355	499.69
495.573	491.69
495.79	529.69
496.008	532.69
496.225	511.69
496.442	514.69
496.66	531.69
496.877	502.69
497.094	506.69
497.312	491.69
497.529	522.69
497.746	546.69
497.963	547.69
498.181	565.69
498.398	572.69
498.615	555.69
498.832	583.69
499.049	578.69
499.267	602.69
499.484	606.69
499.701	587.69
499.918	650.69
500.135	660.69
500.352	667.69
500.569	660.69
500.786	680.69
501.003	662.69
501.22	690.69
501.437	619.69
501.654	638.69
501.871	621.69
502.088	606.69
502.305	607.69
502.522	591.69
502.739	562.69
502.956	556.69
503.172	534.69
503.389	551.69
503.606	540.69
503.823	538.69
504.04	528.69
504.256	534.69
504.473	534.69
504.69	515.69
504.907	503.69
505.123	505.69
505.34	504.69
505.557	516.69
505.773	495.69
505.99	494.69
506.207	490.69
506.423	488.69
506.64	486.69
506.856	477.69
507.073	510.69
507.289	498.69
507.506	477.69
507.722	492.69
507.939	480.69
508.155	501.69
508.372	482.69
508.588	478.69
508.805	467.69
509.021	470.69
509.238	477.69
509.454	470.69
509.67	485.69
509.887	471.69
510.103	463.69
510.319	480.69
510.536	534.69
510.752	776.69
510.968	653.69
511.184	495.69
511.401	462.69
511.617	456.69
511.833	453.69
512.049	460.69
512.265	438.69
512.481	448.69
512.698	475.69
512.914	442.69
513.13	446.69
513.346	434.69
513.562	448.69
513.778	453.69
513.994	470.69
514.21	473.69
514.426	461.69
514.642	474.69
514.858	496.69
515.074	510.69
515.29	597.69
515.506	835.69
515.721	697.69
515.937	505.69
516.153	485.69
516.369	475.69
516.585	445.69
516.801	443.69
517.016	455.69
517.232	459.69
517.448	447.69
517.664	461.69
517.879	460.69
518.095	444.69
518.311	456.69
518.527	455.69
518.742	447.69
518.958	463.69
519.173	432.69
519.389	471.69
519.605	475.69
519.82	434.69
520.036	468.69
520.251	461.69
520.467	479.69
520.682	463.69
520.898	478.69
521.113	474.69
521.329	495.69
521.544	559.69
521.76	643.69
521.975	1024.69
522.19	1004.69
522.406	607.69
522.621	479.69
522.836	439.69
523.052	416.69
523.267	424.69
523.482	411.69
523.698	421.69
523.913	409.69
524.128	409.69
524.343	397.69
524.559	393.69
524.774	402.69
524.989	405.69
525.204	414.69
525.419	395.69
525.634	386.69
525.849	382.69
526.064	382.69
526.28	383.69
526.495	383.69
526.71	377.69
526.925	384.69
527.14	378.69
527.355	364.69
527.57	375.69
527.785	357.69
527.999	362.69
528.214	382.69
528.429	386.69
528.644	364.69
528.859	379.69
529.074	378.69
529.289	382.69
529.503	430.69
529.718	435.69
529.933	374.69
530.148	388.69
530.363	377.69
530.577	380.69
530.792	350.69
531.007	375.69
531.221	370.69
531.436	378.69
531.651	371.69
531.865	354.69
532.08	356.69
532.295	363.69
532.509	356.69
532.724	363.69
532.938	351.69
533.153	373.69
533.367	340.69
533.582	360.69
533.796	352.69
534.011	362.69
534.225	359.69
534.44	361.69
534.654	359.69
534.868	349.69
535.083	346.69
535.297	365.69
535.511	366.69
535.726	363.69
535.94	357.69
536.154	379.69
536.369	353.69
536.583	356.69
536.797	364.69
537.011	354.69
537.225	351.69
537.44	339.69
537.654	346.69
537.868	340.69
538.082	335.69
538.296	360.69
538.51	355.69
538.724	363.69
538.938	355.69
539.153	355.69
539.367	357.69
539.581	351.69
539.795	342.69
540.009	355.69
540.222	333.69
540.436	348.69
540.65	346.69
540.864	379.69
541.078	355.69
541.292	364.69
541.506	354.69
541.72	354.69
541.934	349.69
542.147	369.69
542.361	342.69
542.575	347.69
542.789	354.69
543.002	364.69
543.216	355.69
543.43	359.69
543.644	322.69
543.857	357.69
544.071	354.69
544.285	362.69
544.498	346.69
544.712	340.69
544.925	351.69
545.139	363.69
545.352	351.69
545.566	333.69
545.779	346.69
545.993	345.69
546.206	344.69
546.42	336.69
546.633	346.69
546.847	326.69
547.06	335.69
547.274	342.69
547.487	326.69
547.7	330.69
547.914	340.69
548.127	341.69
548.34	341.69
548.554	312.69
548.767	331.69
548.98	332.69
549.193	339.69
549.407	352.69
549.62	332.69
549.833	339.69
550.046	333.69
550.259	342.69
550.473	329.69
550.686	335.69
550.899	324.69
551.112	358.69
551.325	338.69
551.538	322.69
551.751	322.69
551.964	331.69
552.177	338.69
552.39	340.69
552.603	338.69
552.816	329.69
553.029	345.69
553.242	334.69
553.455	327.69
553.667	345.69
553.88	327.69
554.093	349.69
554.306	340.69
554.519	320.69
554.732	323.69
554.944	317.69
555.157	325.69
555.37	331.69
555.583	312.69
555.795	328.69
556.008	324.69
556.221	325.69
556.433	318.69
556.646	294.69
556.859	314.69
557.071	316.69
557.284	324.69
557.496	327.69
557.709	310.69
557.921	319.69
558.134	319.69
558.346	298.69
558.559	309.69
558.771	334.69
558.984	301.69
559.196	294.69
559.409	308.69
559.621	319.69
559.833	303.69
560.046	314.69
560.258	308.69
560.47	318.69
560.683	300.69
560.895	303.69
561.107	301.69
561.32	291.69
561.532	312.69
561.744	316.69
561.956	299.69
562.168	287.69
562.381	304.69
562.593	296.69
562.805	297.69
563.017	296.69
563.229	307.69
563.441	291.69
563.653	310.69
563.865	314.69
564.077	310.69
564.289	301.69
564.501	316.69
564.713	312.69
564.925	308.69
565.137	330.69
565.349	325.69
565.561	300.69
565.773	325.69
565.985	344.69
566.197	329.69
566.408	342.69
566.62	356.69
566.832	347.69
567.044	359.69
567.255	334.69
567.467	371.69
567.679	356.69
567.891	362.69
568.102	356.69
568.314	359.69
568.526	372.69
568.737	338.69
568.949	343.69
569.161	335.69
569.372	310.69
569.584	319.69
569.795	305.69
570.007	305.69
570.218	333.69
570.43	319.69
570.641	303.69
570.853	299.69
571.064	304.69
571.276	288.69
571.487	286.69
571.698	294.69
571.91	275.69
572.121	295.69
572.333	288.69
572.544	291.69
572.755	306.69
572.966	272.69
573.178	282.69
573.389	266.69
573.6	268.69
573.811	288.69
574.023	275.69
574.234	275.69
574.445	277.69
574.656	266.69
574.867	268.69
575.078	267.69
575.289	264.69
575.501	296.69
575.712	274.69
575.923	268.69
576.134	257.69
576.345	254.69
576.556	274.69
576.767	272.69
576.978	271.69
577.188	265.69
577.399	260.69
577.61	254.69
577.821	262.69
578.032	249.69
578.243	290.69
578.454	395.69
578.665	313.69
578.875	269.69
579.086	250.69
579.297	247.69
579.508	247.69
579.718	259.69
579.929	245.69
580.14	259.69
580.35	248.69
580.561	256.69
580.772	255.69
580.982	239.69
581.193	251.69
581.403	270.69
581.614	252.69
581.825	255.69
582.035	235.69
582.246	237.69
582.456	255.69
582.667	259.69
582.877	243.69
583.087	249.69
583.298	250.69
583.508	264.69
583.719	249.69
583.929	236.69
584.139	266.69
584.35	235.69
584.56	215.69
584.77	242.69
584.981	252.69
585.191	243.69
585.401	231.69
585.611	250.69
585.821	232.69
586.032	242.69
586.242	238.69
586.452	228.69
586.662	250.69
586.872	247.69
587.082	239.69
587.292	260.69
587.502	246.69
587.713	244.69
587.923	248.69
588.133	251.69
588.343	229.69
588.553	228.69
588.762	246.69
588.972	235.69
589.182	276.69
589.392	275.69
589.602	236.69
589.812	255.69
590.022	250.69
590.232	234.69
590.441	230.69
590.651	217.69
590.861	223.69
591.071	231.69
591.281	223.69
591.49	238.69
591.7	239.69
591.91	239.69
592.119	242.69
592.329	251.69
592.539	252.69
592.748	233.69
592.958	254.69
593.167	222.69
593.377	238.69
593.587	239.69
593.796	248.69
594.006	235.69
594.215	246.69
594.424	234.69
594.634	238.69
594.843	233.69
595.053	229.69
595.262	255.69
595.472	237.69
595.681	228.69
595.89	233.69
596.1	231.69
596.309	219.69
596.518	228.69
596.727	232.69
596.937	213.69
597.146	229.69
597.355	246.69
597.564	223.69
597.774	206.69
597.983	224.69
598.192	211.69
598.401	208.69
598.61	218.69
598.819	215.69
599.028	221.69
599.237	225.69
599.446	235.69
599.655	203.69
599.864	215.69
600.073	213.69
600.282	202.69
600.491	219.69
600.7	216.69
600.909	228.69
601.118	201.69
601.327	212.69
601.536	209.69
601.745	219.69
601.953	222.69
602.162	225.69
602.371	200.69
602.58	219.69
602.789	213.69
602.997	214.69
603.206	223.69
603.415	207.69
603.623	217.69
603.832	196.69
604.041	206.69
604.249	210.69
604.458	219.69
604.666	210.69
604.875	206.69
605.084	194.69
605.292	219.69
605.501	211.69
605.709	203.69
605.918	207.69
606.126	202.69
606.334	206.69
606.543	213.69
606.751	206.69
606.96	220.69
607.168	198.69
607.376	188.69
607.585	206.69
607.793	210.69
608.001	200.69
608.21	203.69
608.418	189.69
608.626	208.69
608.834	207.69
609.043	205.69
609.251	212.69
609.459	208.69
609.667	212.69
609.875	207.69
610.083	201.69
610.291	195.69
610.499	208.69
610.707	199.69
610.916	202.69
611.124	215.69
611.332	207.69
611.54	194.69
611.748	209.69
611.955	194.69
612.163	206.69
612.371	208.69
612.579	205.69
612.787	199.69
612.995	186.69
613.203	192.69
613.411	194.69
613.618	187.69
613.826	188.69
614.034	203.69
614.242	214.69
614.449	199.69
614.657	190.69
614.865	184.69
615.072	207.69
615.28	189.69
615.488	198.69
615.695	207.69
615.903	196.69
616.111	205.69
616.318	216.69
616.526	200.69
616.733	196.69
616.941	206.69
617.148	178.69
617.356	203.69
617.563	194.69
617.771	198.69
617.978	213.69
618.185	192.69
618.393	184.69
618.6	192.69
618.807	202.69
619.015	187.69
619.222	206.69
619.429	175.69
619.637	201.69
619.844	197.69
620.051	193.69
620.258	194.69
620.466	170.69
620.673	166.69
620.88	192.69
621.087	180.69
621.294	190.69
621.501	179.69
621.708	186.69
621.915	189.69
622.122	183.69
622.329	187.69
622.536	194.69
622.743	189.69
622.95	183.69
623.157	179.69
623.364	191.69
623.571	189.69
623.778	168.69
623.985	183.69
624.192	189.69
624.399	179.69
624.606	173.69
624.812	184.69
625.019	178.69
625.226	166.69
625.433	181.69
625.639	164.69
625.846	168.69
626.053	168.69
626.259	183.69
626.466	180.69
626.673	184.69
626.879	193.69
627.086	167.69
627.293	170.69
627.499	153.69
627.706	161.69
627.912	173.69
628.119	180.69
628.325	178.69
628.532	179.69
628.738	178.69
628.945	176.69
629.151	159.69
629.357	168.69
629.564	152.69
629.77	170.69
629.976	161.69
630.183	178.69
630.389	176.69
630.595	159.69
630.802	176.69
631.008	167.69
631.214	172.69
631.42	182.69
631.627	179.69
631.833	154.69
632.039	158.69
632.245	163.69
632.451	180.69
632.657	166.69
632.863	164.69
633.069	167.69
633.275	147.69
633.481	164.69
633.688	194.69
633.893	171.69
634.099	159.69
634.305	164.69
634.511	154.69
634.717	161.69
634.923	157.69
635.129	164.69
635.335	158.69
635.541	146.69
635.747	170.69
635.952	160.69
636.158	163.69
636.364	167.69
636.57	156.69
636.775	155.69
636.981	152.69
637.187	170.69
637.392	154.69
637.598	161.69
637.804	165.69
638.009	142.69
638.215	154.69
638.421	149.69
638.626	152.69
638.832	158.69
639.037	160.69
639.243	144.69
639.448	157.69
639.654	139.69
639.859	159.69
640.065	152.69
640.27	171.69
640.475	154.69
640.681	144.69
640.886	150.69
641.091	162.69
641.297	161.69
641.502	151.69
641.707	141.69
641.913	138.69
642.118	139.69
642.323	142.69
642.528	156.69
642.733	156.69
642.939	155.69
643.144	150.69
643.349	130.69
643.554	139.69
643.759	158.69
643.964	135.69
644.169	150.69
644.374	156.69
644.579	157.69
644.784	156.69
644.989	148.69
645.194	138.69
645.399	142.69
645.604	142.69
645.809	152.69
646.014	160.69
646.219	148.69
646.423	139.69
646.628	150.69
646.833	135.69
647.038	151.69
647.243	150.69
647.447	149.69
647.652	135.69
647.857	150.69
648.062	168.69
648.266	148.69
648.471	158.69
648.676	150.69
648.88	150.69
649.085	144.69
649.289	141.69
649.494	165.69
649.698	164.69
649.903	162.69
650.107	155.69
650.312	153.69
650.516	156.69
650.721	154.69
650.925	136.69
651.13	134.69
651.334	157.69
651.539	132.69
651.743	128.69
651.947	150.69
652.152	133.69
652.356	126.69
652.56	126.69
652.764	132.69
652.969	133.69
653.173	125.69
653.377	123.69
653.581	133.69
653.785	125.69
653.99	112.69
654.194	130.69
654.398	116.69
654.602	127.69
654.806	133.69
655.01	145.69
655.214	134.69
655.418	139.69
655.622	119.69
655.826	116.69
656.03	130.69
656.234	125.69
656.438	132.69
656.642	142.69
656.846	127.69
657.049	126.69
657.253	127.69
657.457	125.69
657.661	121.69
657.865	121.69
658.068	94.69
658.272	112.69
658.476	98.69
658.68	95.69
658.883	89.69
659.087	101.69
659.291	110.69
659.494	91.69
659.698	92.69
659.901	105.69
660.105	107.69
660.309	73.69
660.512	87.69
660.716	101.69
660.919	76.69
661.123	93.69
661.326	88.69
661.53	84.69
661.733	89.69
661.936	87.69
662.14	84.69
662.343	76.69
662.546	83.69
662.75	80.69
662.953	96.69
663.156	93.69
663.36	80.69
663.563	79.69
663.766	86.69
663.969	81.69
664.173	80.69
664.376	77.69
664.579	85.69
664.782	74.69
664.985	72.69
665.188	84.69
665.391	87.69
665.594	75.69
665.797	85.69
666	94.69
666.203	66.69
666.406	72.69
666.609	102.69
666.812	86.69
667.015	93.69
667.218	88.69
667.421	82.69
667.624	80.69
667.827	71.69
668.03	90.69
668.232	81.69
668.435	90.69
668.638	99.69
668.841	70.69
669.043	85.69
669.246	79.69
669.449	94.69
669.651	76.69
669.854	83.69
670.057	97.69
670.259	101.69
670.462	92.69
670.665	82.69
670.867	95.69
671.07	77.69
671.272	83.69
671.475	91.69
671.677	85.69
671.88	89.69
672.082	84.69
672.284	95.69
672.487	78.69
672.689	76.69
672.892	78.69
