Data from 1972.PennyLincolnUp.Lamp.En5.5.200Scan.071719.P1._HRD10591_15-27-10-844.txt Node
Date: Thu Jul 18 15:27:10 EDT 2019
User: cochatt
Spectrometer: HR+D1059
Trigger mode: 1
Integration Time (sec): 1.000000E-1
Scans to average: 1
Electric dark correction enabled: true
Nonlinearity correction enabled: false
Boxcar width: 0
XAxis mode: Wavelengths
Number of Pixels in Spectrum: 2048
>>>>>Begin Spectral Data<<<<<
223.165	-16.31
223.4	-16.31
223.635	-16.31
223.869	-8.31
224.104	-16.31
224.338	-14.31
224.573	-1.31
224.808	-27.31
225.042	-4.31
225.277	-13.31
225.511	-13.31
225.746	2.69
225.98	14.69
226.215	8.69
226.449	12.69
226.683	23.69
226.918	25.69
227.152	26.69
227.387	31.69
227.621	31.69
227.856	44.69
228.09	41.69
228.324	56.69
228.559	58.69
228.793	72.69
229.027	93.69
229.262	101.69
229.496	115.69
229.73	118.69
229.964	138.69
230.199	121.69
230.433	109.69
230.667	111.69
230.901	122.69
231.136	112.69
231.37	101.69
231.604	101.69
231.838	115.69
232.072	111.69
232.306	117.69
232.541	108.69
232.775	107.69
233.009	110.69
233.243	99.69
233.477	103.69
233.711	109.69
233.945	108.69
234.179	116.69
234.413	116.69
234.647	109.69
234.881	97.69
235.115	107.69
235.349	104.69
235.583	113.69
235.817	111.69
236.051	123.69
236.285	121.69
236.519	118.69
236.753	125.69
236.987	115.69
237.221	157.69
237.455	208.69
237.689	185.69
237.922	150.69
238.156	131.69
238.39	123.69
238.624	134.69
238.858	109.69
239.091	121.69
239.325	115.69
239.559	120.69
239.793	105.69
240.027	115.69
240.26	129.69
240.494	155.69
240.728	141.69
240.961	140.69
241.195	145.69
241.429	137.69
241.662	125.69
241.896	125.69
242.13	126.69
242.363	126.69
242.597	111.69
242.83	107.69
243.064	143.69
243.298	137.69
243.531	131.69
243.765	124.69
243.998	148.69
244.232	149.69
244.465	149.69
244.699	126.69
244.932	127.69
245.166	143.69
245.399	161.69
245.633	137.69
245.866	143.69
246.099	136.69
246.333	137.69
246.566	164.69
246.8	139.69
247.033	147.69
247.266	156.69
247.5	159.69
247.733	157.69
247.966	155.69
248.2	156.69
248.433	157.69
248.666	149.69
248.899	167.69
249.133	185.69
249.366	201.69
249.599	199.69
249.832	161.69
250.066	167.69
250.299	182.69
250.532	171.69
250.765	191.69
250.998	210.69
251.231	227.69
251.465	206.69
251.698	202.69
251.931	181.69
252.164	205.69
252.397	183.69
252.63	187.69
252.863	198.69
253.096	200.69
253.329	201.69
253.562	215.69
253.795	196.69
254.028	203.69
254.261	194.69
254.494	209.69
254.727	226.69
254.96	244.69
255.193	241.69
255.426	220.69
255.659	219.69
255.892	215.69
256.124	230.69
256.357	215.69
256.59	213.69
256.823	215.69
257.056	205.69
257.289	202.69
257.521	206.69
257.754	190.69
257.987	205.69
258.22	198.69
258.452	193.69
258.685	191.69
258.918	189.69
259.151	188.69
259.383	198.69
259.616	199.69
259.849	215.69
260.081	220.69
260.314	232.69
260.547	244.69
260.779	233.69
261.012	214.69
261.244	224.69
261.477	208.69
261.71	207.69
261.942	224.69
262.175	217.69
262.407	207.69
262.64	202.69
262.872	210.69
263.105	188.69
263.337	188.69
263.57	213.69
263.802	217.69
264.035	210.69
264.267	195.69
264.499	198.69
264.732	188.69
264.964	190.69
265.197	185.69
265.429	190.69
265.661	195.69
265.894	201.69
266.126	177.69
266.358	199.69
266.591	195.69
266.823	191.69
267.055	203.69
267.287	218.69
267.52	202.69
267.752	221.69
267.984	203.69
268.216	205.69
268.448	219.69
268.681	230.69
268.913	223.69
269.145	225.69
269.377	243.69
269.609	262.69
269.841	261.69
270.073	239.69
270.306	262.69
270.538	283.69
270.77	294.69
271.002	275.69
271.234	260.69
271.466	273.69
271.698	294.69
271.93	278.69
272.162	296.69
272.394	275.69
272.626	286.69
272.858	262.69
273.09	263.69
273.322	264.69
273.553	242.69
273.785	248.69
274.017	226.69
274.249	231.69
274.481	244.69
274.713	238.69
274.945	247.69
275.176	232.69
275.408	231.69
275.64	246.69
275.872	237.69
276.104	239.69
276.335	232.69
276.567	273.69
276.799	251.69
277.031	269.69
277.262	293.69
277.494	290.69
277.726	271.69
277.957	259.69
278.189	263.69
278.421	252.69
278.652	227.69
278.884	243.69
279.115	250.69
279.347	243.69
279.579	248.69
279.81	221.69
280.042	256.69
280.273	246.69
280.505	242.69
280.736	245.69
280.968	238.69
281.199	245.69
281.431	237.69
281.662	246.69
281.894	234.69
282.125	244.69
282.356	256.69
282.588	272.69
282.819	268.69
283.051	258.69
283.282	239.69
283.513	257.69
283.745	244.69
283.976	270.69
284.207	250.69
284.439	252.69
284.67	263.69
284.901	275.69
285.132	259.69
285.364	250.69
285.595	242.69
285.826	230.69
286.057	266.69
286.288	252.69
286.52	247.69
286.751	252.69
286.982	263.69
287.213	267.69
287.444	265.69
287.675	257.69
287.906	266.69
288.138	270.69
288.369	264.69
288.6	241.69
288.831	261.69
289.062	263.69
289.293	249.69
289.524	265.69
289.755	258.69
289.986	269.69
290.217	262.69
290.448	271.69
290.679	254.69
290.91	261.69
291.141	277.69
291.371	273.69
291.602	277.69
291.833	247.69
292.064	261.69
292.295	248.69
292.526	264.69
292.757	243.69
292.987	249.69
293.218	259.69
293.449	253.69
293.68	254.69
293.91	264.69
294.141	252.69
294.372	260.69
294.603	250.69
294.833	246.69
295.064	261.69
295.295	270.69
295.525	275.69
295.756	254.69
295.987	278.69
296.217	276.69
296.448	316.69
296.679	270.69
296.909	252.69
297.14	248.69
297.37	274.69
297.601	270.69
297.831	259.69
298.062	275.69
298.292	266.69
298.523	270.69
298.753	252.69
298.984	268.69
299.214	250.69
299.445	261.69
299.675	285.69
299.905	291.69
300.136	273.69
300.366	271.69
300.597	283.69
300.827	279.69
301.057	288.69
301.288	278.69
301.518	282.69
301.748	289.69
301.979	295.69
302.209	261.69
302.439	290.69
302.669	302.69
302.9	289.69
303.13	262.69
303.36	285.69
303.59	302.69
303.82	314.69
304.051	313.69
304.281	292.69
304.511	270.69
304.741	271.69
304.971	270.69
305.201	292.69
305.431	268.69
305.661	283.69
305.891	303.69
306.121	286.69
306.352	310.69
306.582	306.69
306.812	301.69
307.042	279.69
307.272	301.69
307.502	305.69
307.731	303.69
307.961	301.69
308.191	284.69
308.421	306.69
308.651	297.69
308.881	311.69
309.111	297.69
309.341	293.69
309.571	318.69
309.8	318.69
310.03	337.69
310.26	330.69
310.49	315.69
310.72	338.69
310.949	352.69
311.179	348.69
311.409	345.69
311.639	331.69
311.868	346.69
312.098	326.69
312.328	335.69
312.557	365.69
312.787	359.69
313.017	370.69
313.246	372.69
313.476	324.69
313.706	350.69
313.935	343.69
314.165	354.69
314.394	352.69
314.624	353.69
314.853	346.69
315.083	334.69
315.312	339.69
315.542	318.69
315.771	314.69
316.001	337.69
316.23	329.69
316.46	318.69
316.689	346.69
316.919	322.69
317.148	335.69
317.377	341.69
317.607	339.69
317.836	335.69
318.065	329.69
318.295	358.69
318.524	338.69
318.753	321.69
318.983	334.69
319.212	349.69
319.441	347.69
319.67	360.69
319.9	347.69
320.129	341.69
320.358	347.69
320.587	351.69
320.816	341.69
321.046	361.69
321.275	343.69
321.504	369.69
321.733	366.69
321.962	363.69
322.191	356.69
322.42	376.69
322.649	399.69
322.878	404.69
323.108	417.69
323.337	443.69
323.566	460.69
323.795	474.69
324.024	516.69
324.253	635.69
324.482	905.69
324.71	1381.69
324.939	2051.69
325.168	1802.69
325.397	917.69
325.626	604.69
325.855	488.69
326.084	459.69
326.313	446.69
326.542	465.69
326.77	501.69
326.999	607.69
327.228	804.69
327.457	1243.69
327.686	1535.69
327.914	987.69
328.143	652.69
328.372	565.69
328.6	533.69
328.829	501.69
329.058	527.69
329.287	549.69
329.515	492.69
329.744	445.69
329.972	456.69
330.201	487.69
330.43	496.69
330.658	516.69
330.887	543.69
331.115	534.69
331.344	472.69
331.572	439.69
331.801	437.69
332.03	421.69
332.258	417.69
332.486	403.69
332.715	402.69
332.943	404.69
333.172	396.69
333.4	393.69
333.629	398.69
333.857	426.69
334.085	434.69
334.314	445.69
334.542	468.69
334.771	473.69
334.999	452.69
335.227	416.69
335.455	380.69
335.684	376.69
335.912	388.69
336.14	394.69
336.369	378.69
336.597	392.69
336.825	395.69
337.053	379.69
337.281	377.69
337.51	383.69
337.738	379.69
337.966	383.69
338.194	407.69
338.422	381.69
338.65	380.69
338.878	393.69
339.106	382.69
339.334	375.69
339.562	370.69
339.79	386.69
340.018	380.69
340.246	387.69
340.474	381.69
340.702	377.69
340.93	371.69
341.158	377.69
341.386	375.69
341.614	381.69
341.842	385.69
342.07	372.69
342.298	369.69
342.526	377.69
342.754	350.69
342.981	364.69
343.209	337.69
343.437	339.69
343.665	379.69
343.893	354.69
344.12	374.69
344.348	376.69
344.576	372.69
344.804	383.69
345.031	402.69
345.259	410.69
345.487	393.69
345.714	365.69
345.942	380.69
346.17	365.69
346.397	356.69
346.625	357.69
346.853	371.69
347.08	369.69
347.308	378.69
347.535	366.69
347.763	407.69
347.99	379.69
348.218	366.69
348.445	399.69
348.673	373.69
348.9	358.69
349.128	363.69
349.355	347.69
349.583	356.69
349.81	363.69
350.037	353.69
350.265	356.69
350.492	340.69
350.72	345.69
350.947	345.69
351.174	345.69
351.402	379.69
351.629	361.69
351.856	365.69
352.083	370.69
352.311	359.69
352.538	379.69
352.765	373.69
352.992	369.69
353.22	365.69
353.447	360.69
353.674	355.69
353.901	327.69
354.128	346.69
354.355	358.69
354.583	332.69
354.81	342.69
355.037	329.69
355.264	324.69
355.491	346.69
355.718	335.69
355.945	328.69
356.172	329.69
356.399	340.69
356.626	330.69
356.853	326.69
357.08	345.69
357.307	330.69
357.534	313.69
357.761	328.69
357.988	333.69
358.215	339.69
358.441	323.69
358.668	340.69
358.895	353.69
359.122	355.69
359.349	344.69
359.576	354.69
359.802	395.69
360.029	409.69
360.256	417.69
360.483	389.69
360.709	358.69
360.936	377.69
361.163	361.69
361.39	367.69
361.616	365.69
361.843	369.69
362.07	369.69
362.296	378.69
362.523	375.69
362.749	350.69
362.976	355.69
363.203	356.69
363.429	349.69
363.656	335.69
363.882	344.69
364.109	347.69
364.335	348.69
364.562	339.69
364.788	351.69
365.015	358.69
365.241	353.69
365.468	353.69
365.694	364.69
365.92	366.69
366.147	340.69
366.373	343.69
366.599	344.69
366.826	338.69
367.052	314.69
367.278	350.69
367.505	338.69
367.731	358.69
367.957	364.69
368.184	348.69
368.41	341.69
368.636	340.69
368.862	363.69
369.089	353.69
369.315	345.69
369.541	346.69
369.767	352.69
369.993	343.69
370.219	355.69
370.445	345.69
370.672	348.69
370.898	341.69
371.124	337.69
371.35	363.69
371.576	331.69
371.802	332.69
372.028	335.69
372.254	327.69
372.48	349.69
372.706	327.69
372.932	343.69
373.158	352.69
373.384	329.69
373.61	340.69
373.835	362.69
374.061	358.69
374.287	340.69
374.513	329.69
374.739	354.69
374.965	343.69
375.191	356.69
375.416	351.69
375.642	342.69
375.868	354.69
376.094	327.69
376.319	356.69
376.545	345.69
376.771	345.69
376.997	309.69
377.222	335.69
377.448	328.69
377.674	351.69
377.899	330.69
378.125	348.69
378.35	329.69
378.576	337.69
378.802	329.69
379.027	341.69
379.253	327.69
379.478	339.69
379.704	332.69
379.929	326.69
380.155	329.69
380.38	338.69
380.606	319.69
380.831	347.69
381.057	334.69
381.282	350.69
381.507	322.69
381.733	323.69
381.958	351.69
382.184	349.69
382.409	342.69
382.634	331.69
382.86	337.69
383.085	349.69
383.31	358.69
383.535	343.69
383.761	350.69
383.986	344.69
384.211	356.69
384.436	363.69
384.662	368.69
384.887	361.69
385.112	347.69
385.337	348.69
385.562	346.69
385.787	355.69
386.013	350.69
386.238	378.69
386.463	349.69
386.688	358.69
386.913	345.69
387.138	350.69
387.363	371.69
387.588	377.69
387.813	367.69
388.038	374.69
388.263	358.69
388.488	365.69
388.713	363.69
388.938	367.69
389.163	358.69
389.387	373.69
389.612	354.69
389.837	366.69
390.062	360.69
390.287	373.69
390.512	369.69
390.736	371.69
390.961	370.69
391.186	355.69
391.411	382.69
391.636	364.69
391.86	369.69
392.085	364.69
392.31	367.69
392.534	380.69
392.759	361.69
392.984	353.69
393.208	364.69
393.433	393.69
393.658	407.69
393.882	356.69
394.107	371.69
394.331	367.69
394.556	356.69
394.78	361.69
395.005	364.69
395.229	350.69
395.454	362.69
395.678	375.69
395.903	378.69
396.127	403.69
396.352	398.69
396.576	386.69
396.801	385.69
397.025	399.69
397.249	399.69
397.474	381.69
397.698	393.69
397.922	396.69
398.147	406.69
398.371	408.69
398.595	403.69
398.82	402.69
399.044	417.69
399.268	398.69
399.492	422.69
399.717	445.69
399.941	482.69
400.165	497.69
400.389	509.69
400.613	449.69
400.837	421.69
401.062	415.69
401.286	413.69
401.51	427.69
401.734	397.69
401.958	399.69
402.182	403.69
402.406	423.69
402.63	402.69
402.854	417.69
403.078	393.69
403.302	407.69
403.526	442.69
403.75	418.69
403.974	418.69
404.198	428.69
404.422	418.69
404.645	405.69
404.869	409.69
405.093	462.69
405.317	497.69
405.541	543.69
405.765	523.69
405.988	462.69
406.212	475.69
406.436	460.69
406.66	489.69
406.883	475.69
407.107	472.69
407.331	516.69
407.555	577.69
407.778	565.69
408.002	493.69
408.226	477.69
408.449	444.69
408.673	478.69
408.896	507.69
409.12	529.69
409.344	476.69
409.567	439.69
409.791	435.69
410.014	404.69
410.238	424.69
410.461	426.69
410.685	457.69
410.908	433.69
411.132	457.69
411.355	501.69
411.578	478.69
411.802	450.69
412.025	414.69
412.249	417.69
412.472	443.69
412.695	497.69
412.919	491.69
413.142	445.69
413.365	430.69
413.589	408.69
413.812	399.69
414.035	402.69
414.258	381.69
414.482	417.69
414.705	399.69
414.928	406.69
415.151	396.69
415.374	405.69
415.597	398.69
415.821	401.69
416.044	387.69
416.267	405.69
416.49	426.69
416.713	413.69
416.936	404.69
417.159	400.69
417.382	402.69
417.605	402.69
417.828	415.69
418.051	438.69
418.274	409.69
418.497	403.69
418.72	413.69
418.943	409.69
419.166	402.69
419.389	426.69
419.611	439.69
419.834	437.69
420.057	417.69
420.28	419.69
420.503	399.69
420.726	416.69
420.948	435.69
421.171	474.69
421.394	502.69
421.617	454.69
421.839	437.69
422.062	418.69
422.285	430.69
422.507	462.69
422.73	571.69
422.953	550.69
423.175	466.69
423.398	454.69
423.621	445.69
423.843	471.69
424.066	479.69
424.288	450.69
424.511	483.69
424.733	526.69
424.956	597.69
425.178	586.69
425.401	569.69
425.623	587.69
425.846	502.69
426.068	475.69
426.291	458.69
426.513	461.69
426.735	465.69
426.958	511.69
427.18	583.69
427.402	685.69
427.625	780.69
427.847	718.69
428.069	580.69
428.292	516.69
428.514	463.69
428.736	440.69
428.958	455.69
429.181	427.69
429.403	435.69
429.625	447.69
429.847	468.69
430.069	550.69
430.292	517.69
430.514	458.69
430.736	445.69
430.958	429.69
431.18	414.69
431.402	389.69
431.624	400.69
431.846	403.69
432.068	399.69
432.29	401.69
432.512	405.69
432.734	392.69
432.956	409.69
433.178	409.69
433.4	408.69
433.622	413.69
433.844	396.69
434.066	394.69
434.287	412.69
434.509	393.69
434.731	423.69
434.953	432.69
435.175	459.69
435.397	447.69
435.618	464.69
435.84	499.69
436.062	595.69
436.284	669.69
436.505	549.69
436.727	494.69
436.949	439.69
437.17	433.69
437.392	435.69
437.614	464.69
437.835	469.69
438.057	559.69
438.278	643.69
438.5	640.69
438.721	716.69
438.943	675.69
439.165	533.69
439.386	497.69
439.608	478.69
439.829	483.69
440.05	530.69
440.272	512.69
440.493	523.69
440.715	439.69
440.936	454.69
441.158	440.69
441.379	441.69
441.6	454.69
441.822	464.69
442.043	493.69
442.264	578.69
442.486	606.69
442.707	511.69
442.928	502.69
443.149	499.69
443.371	501.69
443.592	528.69
443.813	616.69
444.034	683.69
444.255	562.69
444.476	485.69
444.698	476.69
444.919	461.69
445.14	547.69
445.361	515.69
445.582	527.69
445.803	559.69
446.024	667.69
446.245	678.69
446.466	603.69
446.687	517.69
446.908	471.69
447.129	460.69
447.35	455.69
447.571	422.69
447.792	425.69
448.013	424.69
448.234	473.69
448.455	499.69
448.675	599.69
448.896	728.69
449.117	571.69
449.338	561.69
449.559	666.69
449.779	743.69
450	597.69
450.221	485.69
450.442	455.69
450.662	439.69
450.883	433.69
451.104	450.69
451.324	448.69
451.545	433.69
451.766	410.69
451.986	381.69
452.207	390.69
452.428	380.69
452.648	393.69
452.869	388.69
453.089	407.69
453.31	398.69
453.53	392.69
453.751	409.69
453.971	387.69
454.192	391.69
454.412	409.69
454.633	399.69
454.853	385.69
455.073	383.69
455.294	423.69
455.514	475.69
455.734	459.69
455.955	390.69
456.175	386.69
456.395	371.69
456.616	363.69
456.836	345.69
457.056	362.69
457.276	360.69
457.497	361.69
457.717	345.69
457.937	375.69
458.157	385.69
458.377	375.69
458.598	398.69
458.818	463.69
459.038	544.69
459.258	534.69
459.478	443.69
459.698	405.69
459.918	407.69
460.138	422.69
460.358	414.69
460.578	403.69
460.798	405.69
461.018	413.69
461.238	426.69
461.458	408.69
461.678	386.69
461.898	397.69
462.118	410.69
462.338	418.69
462.558	419.69
462.777	417.69
462.997	404.69
463.217	413.69
463.437	426.69
463.657	431.69
463.876	419.69
464.096	422.69
464.316	407.69
464.536	426.69
464.755	441.69
464.975	433.69
465.195	464.69
465.414	552.69
465.634	486.69
465.854	442.69
466.073	420.69
466.293	399.69
466.512	392.69
466.732	393.69
466.951	378.69
467.171	384.69
467.391	386.69
467.61	399.69
467.829	401.69
468.049	385.69
468.268	414.69
468.488	397.69
468.707	376.69
468.927	379.69
469.146	392.69
469.365	382.69
469.585	369.69
469.804	387.69
470.023	389.69
470.243	401.69
470.462	415.69
470.681	412.69
470.901	422.69
471.12	415.69
471.339	398.69
471.558	410.69
471.777	397.69
471.997	375.69
472.216	396.69
472.435	454.69
472.654	427.69
472.873	403.69
473.092	396.69
473.311	389.69
473.53	425.69
473.749	420.69
473.968	448.69
474.187	538.69
474.406	559.69
474.625	462.69
474.844	406.69
475.063	407.69
475.282	410.69
475.501	398.69
475.72	393.69
475.939	415.69
476.158	409.69
476.377	399.69
476.596	413.69
476.814	419.69
477.033	424.69
477.252	440.69
477.471	440.69
477.69	428.69
477.908	419.69
478.127	433.69
478.346	435.69
478.564	421.69
478.783	445.69
479.002	445.69
479.22	423.69
479.439	433.69
479.658	465.69
479.876	486.69
480.095	482.69
480.313	490.69
480.532	480.69
480.751	476.69
480.969	492.69
481.188	543.69
481.406	577.69
481.624	507.69
481.843	495.69
482.061	474.69
482.28	486.69
482.498	483.69
482.717	477.69
482.935	480.69
483.153	469.69
483.372	457.69
483.59	460.69
483.808	486.69
484.027	476.69
484.245	475.69
484.463	473.69
484.681	478.69
484.9	450.69
485.118	469.69
485.336	495.69
485.554	482.69
485.772	478.69
485.99	483.69
486.209	471.69
486.427	504.69
486.645	493.69
486.863	489.69
487.081	515.69
487.299	515.69
487.517	484.69
487.735	500.69
487.953	484.69
488.171	502.69
488.389	505.69
488.607	502.69
488.825	506.69
489.043	502.69
489.261	515.69
489.479	504.69
489.696	515.69
489.914	519.69
490.132	509.69
490.35	531.69
490.568	524.69
490.786	533.69
491.003	517.69
491.221	552.69
491.439	553.69
491.657	565.69
491.874	582.69
492.092	568.69
492.31	561.69
492.527	585.69
492.745	570.69
492.963	574.69
493.18	586.69
493.398	568.69
493.615	577.69
493.833	571.69
494.05	581.69
494.268	596.69
494.485	594.69
494.703	594.69
494.92	600.69
495.138	597.69
495.355	627.69
495.573	623.69
495.79	610.69
496.008	595.69
496.225	590.69
496.442	605.69
496.66	595.69
496.877	586.69
497.094	607.69
497.312	624.69
497.529	616.69
497.746	600.69
497.963	621.69
498.181	664.69
498.398	667.69
498.615	652.69
498.832	656.69
499.049	667.69
499.267	675.69
499.484	710.69
499.701	684.69
499.918	718.69
500.135	715.69
500.352	755.69
500.569	755.69
500.786	755.69
501.003	760.69
501.22	742.69
501.437	735.69
501.654	743.69
501.871	745.69
502.088	729.69
502.305	693.69
502.522	685.69
502.739	654.69
502.956	644.69
503.172	632.69
503.389	599.69
503.606	622.69
503.823	618.69
504.04	613.69
504.256	597.69
504.473	584.69
504.69	603.69
504.907	618.69
505.123	583.69
505.34	597.69
505.557	583.69
505.773	567.69
505.99	567.69
506.207	581.69
506.423	582.69
506.64	583.69
506.856	575.69
507.073	569.69
507.289	553.69
507.506	553.69
507.722	589.69
507.939	602.69
508.155	557.69
508.372	546.69
508.588	535.69
508.805	568.69
509.021	544.69
509.238	579.69
509.454	596.69
509.67	556.69
509.887	554.69
510.103	552.69
510.319	596.69
510.536	632.69
510.752	1067.69
510.968	871.69
511.184	581.69
511.401	555.69
511.617	550.69
511.833	526.69
512.049	537.69
512.265	523.69
512.481	513.69
512.698	532.69
512.914	531.69
513.13	523.69
513.346	512.69
513.562	521.69
513.778	538.69
513.994	521.69
514.21	531.69
514.426	561.69
514.642	579.69
514.858	644.69
515.074	645.69
515.29	770.69
515.506	1153.69
515.721	925.69
515.937	652.69
516.153	598.69
516.369	575.69
516.585	558.69
516.801	527.69
517.016	541.69
517.232	535.69
517.448	530.69
517.664	533.69
517.879	524.69
518.095	508.69
518.311	499.69
518.527	509.69
518.742	521.69
518.958	530.69
519.173	546.69
519.389	534.69
519.605	516.69
519.82	533.69
520.036	566.69
520.251	562.69
520.467	587.69
520.682	599.69
520.898	604.69
521.113	574.69
521.329	626.69
521.544	718.69
521.76	935.69
521.975	1510.69
522.19	1459.69
522.406	796.69
522.621	637.69
522.836	553.69
523.052	520.69
523.267	513.69
523.482	500.69
523.698	475.69
523.913	507.69
524.128	491.69
524.343	476.69
524.559	476.69
524.774	460.69
524.989	469.69
525.204	494.69
525.419	463.69
525.634	468.69
525.849	461.69
526.064	460.69
526.28	437.69
526.495	450.69
526.71	412.69
526.925	417.69
527.14	431.69
527.355	465.69
527.57	427.69
527.785	421.69
527.999	448.69
528.214	442.69
528.429	455.69
528.644	435.69
528.859	445.69
529.074	453.69
529.289	460.69
529.503	540.69
529.718	533.69
529.933	461.69
530.148	447.69
530.363	453.69
530.577	419.69
530.792	420.69
531.007	419.69
531.221	405.69
531.436	434.69
531.651	407.69
531.865	428.69
532.08	411.69
532.295	413.69
532.509	421.69
532.724	414.69
532.938	417.69
533.153	417.69
533.367	404.69
533.582	392.69
533.796	426.69
534.011	405.69
534.225	406.69
534.44	409.69
534.654	410.69
534.868	422.69
535.083	411.69
535.297	424.69
535.511	404.69
535.726	418.69
535.94	402.69
536.154	422.69
536.369	397.69
536.583	410.69
536.797	406.69
537.011	405.69
537.225	414.69
537.44	394.69
537.654	399.69
537.868	396.69
538.082	407.69
538.296	375.69
538.51	397.69
538.724	410.69
538.938	391.69
539.153	385.69
539.367	410.69
539.581	422.69
539.795	404.69
540.009	383.69
540.222	385.69
540.436	404.69
540.65	414.69
540.864	417.69
541.078	403.69
541.292	406.69
541.506	417.69
541.72	412.69
541.934	401.69
542.147	380.69
542.361	398.69
542.575	382.69
542.789	390.69
543.002	404.69
543.216	376.69
543.43	389.69
543.644	414.69
543.857	415.69
544.071	394.69
544.285	432.69
544.498	401.69
544.712	395.69
544.925	371.69
545.139	396.69
545.352	375.69
545.566	407.69
545.779	405.69
545.993	386.69
546.206	397.69
546.42	374.69
546.633	388.69
546.847	403.69
547.06	386.69
547.274	388.69
547.487	379.69
547.7	366.69
547.914	383.69
548.127	369.69
548.34	370.69
548.554	361.69
548.767	383.69
548.98	380.69
549.193	365.69
549.407	379.69
549.62	368.69
549.833	374.69
550.046	375.69
550.259	355.69
550.473	364.69
550.686	382.69
550.899	366.69
551.112	380.69
551.325	369.69
551.538	366.69
551.751	372.69
551.964	393.69
552.177	390.69
552.39	368.69
552.603	361.69
552.816	375.69
553.029	389.69
553.242	380.69
553.455	390.69
553.667	384.69
553.88	386.69
554.093	394.69
554.306	390.69
554.519	381.69
554.732	356.69
554.944	353.69
555.157	358.69
555.37	361.69
555.583	375.69
555.795	381.69
556.008	370.69
556.221	349.69
556.433	362.69
556.646	346.69
556.859	364.69
557.071	365.69
557.284	352.69
557.496	335.69
557.709	351.69
557.921	335.69
558.134	349.69
558.346	343.69
558.559	351.69
558.771	330.69
558.984	325.69
559.196	338.69
559.409	355.69
559.621	329.69
559.833	341.69
560.046	335.69
560.258	335.69
560.47	347.69
560.683	339.69
560.895	338.69
561.107	347.69
561.32	325.69
561.532	347.69
561.744	346.69
561.956	328.69
562.168	324.69
562.381	331.69
562.593	337.69
562.805	351.69
563.017	337.69
563.229	347.69
563.441	347.69
563.653	355.69
563.865	342.69
564.077	358.69
564.289	335.69
564.501	351.69
564.713	344.69
564.925	347.69
565.137	356.69
565.349	371.69
565.561	354.69
565.773	379.69
565.985	384.69
566.197	371.69
566.408	387.69
566.62	398.69
566.832	387.69
567.044	415.69
567.255	390.69
567.467	378.69
567.679	397.69
567.891	393.69
568.102	409.69
568.314	390.69
568.526	380.69
568.737	381.69
568.949	368.69
569.161	354.69
569.372	355.69
569.584	352.69
569.795	341.69
570.007	332.69
570.218	386.69
570.43	383.69
570.641	356.69
570.853	331.69
571.064	331.69
571.276	335.69
571.487	329.69
571.698	321.69
571.91	320.69
572.121	311.69
572.333	320.69
572.544	292.69
572.755	307.69
572.966	306.69
573.178	303.69
573.389	325.69
573.6	300.69
573.811	290.69
574.023	295.69
574.234	306.69
574.445	292.69
574.656	307.69
574.867	289.69
575.078	317.69
575.289	299.69
575.501	279.69
575.712	287.69
575.923	294.69
576.134	273.69
576.345	293.69
576.556	295.69
576.767	295.69
576.978	300.69
577.188	292.69
577.399	294.69
577.61	287.69
577.821	283.69
578.032	297.69
578.243	320.69
578.454	526.69
578.665	374.69
578.875	307.69
579.086	289.69
579.297	245.69
579.508	263.69
579.718	273.69
579.929	289.69
580.14	262.69
580.35	274.69
580.561	271.69
580.772	285.69
580.982	283.69
581.193	275.69
581.403	262.69
581.614	265.69
581.825	277.69
582.035	281.69
582.246	286.69
582.456	266.69
582.667	281.69
582.877	266.69
583.087	267.69
583.298	277.69
583.508	266.69
583.719	278.69
583.929	274.69
584.139	255.69
584.35	270.69
584.56	266.69
584.77	269.69
584.981	284.69
585.191	275.69
585.401	262.69
585.611	268.69
585.821	248.69
586.032	269.69
586.242	253.69
586.452	276.69
586.662	266.69
586.872	281.69
587.082	276.69
587.292	277.69
587.502	273.69
587.713	255.69
587.923	257.69
588.133	257.69
588.343	270.69
588.553	263.69
588.762	246.69
588.972	243.69
589.182	270.69
589.392	256.69
589.602	270.69
589.812	271.69
590.022	265.69
590.232	271.69
590.441	241.69
590.651	254.69
590.861	258.69
591.071	269.69
591.281	266.69
591.49	250.69
591.7	263.69
591.91	263.69
592.119	271.69
592.329	266.69
592.539	267.69
592.748	259.69
592.958	270.69
593.167	272.69
593.377	265.69
593.587	269.69
593.796	267.69
594.006	261.69
594.215	253.69
594.424	268.69
594.634	267.69
594.843	259.69
595.053	255.69
595.262	254.69
595.472	253.69
595.681	253.69
595.89	256.69
596.1	248.69
596.309	243.69
596.518	259.69
596.727	236.69
596.937	243.69
597.146	254.69
597.355	232.69
597.564	252.69
597.774	261.69
597.983	230.69
598.192	229.69
598.401	224.69
598.61	247.69
598.819	249.69
599.028	242.69
599.237	250.69
599.446	222.69
599.655	225.69
599.864	253.69
600.073	216.69
600.282	227.69
600.491	232.69
600.7	236.69
600.909	229.69
601.118	222.69
601.327	232.69
601.536	239.69
601.745	231.69
601.953	226.69
602.162	212.69
602.371	221.69
602.58	226.69
602.789	244.69
602.997	239.69
603.206	226.69
603.415	236.69
603.623	229.69
603.832	228.69
604.041	239.69
604.249	234.69
604.458	218.69
604.666	233.69
604.875	226.69
605.084	214.69
605.292	222.69
605.501	222.69
605.709	218.69
605.918	221.69
606.126	213.69
606.334	192.69
606.543	226.69
606.751	218.69
606.96	211.69
607.168	221.69
607.376	214.69
607.585	236.69
607.793	228.69
608.001	226.69
608.21	224.69
608.418	236.69
608.626	216.69
608.834	215.69
609.043	217.69
609.251	230.69
609.459	219.69
609.667	218.69
609.875	199.69
610.083	210.69
610.291	215.69
610.499	209.69
610.707	225.69
610.916	230.69
611.124	219.69
611.332	197.69
611.54	216.69
611.748	220.69
611.955	216.69
612.163	210.69
612.371	220.69
612.579	212.69
612.787	206.69
612.995	227.69
613.203	212.69
613.411	222.69
613.618	211.69
613.826	196.69
614.034	199.69
614.242	200.69
614.449	207.69
614.657	217.69
614.865	238.69
615.072	206.69
615.28	195.69
615.488	215.69
615.695	206.69
615.903	206.69
616.111	215.69
616.318	225.69
616.526	197.69
616.733	221.69
616.941	207.69
617.148	196.69
617.356	199.69
617.563	221.69
617.771	215.69
617.978	196.69
618.185	209.69
618.393	197.69
618.6	207.69
618.807	208.69
619.015	213.69
619.222	222.69
619.429	212.69
619.637	205.69
619.844	199.69
620.051	208.69
620.258	200.69
620.466	204.69
620.673	191.69
620.88	201.69
621.087	193.69
621.294	198.69
621.501	218.69
621.708	199.69
621.915	206.69
622.122	205.69
622.329	192.69
622.536	191.69
622.743	194.69
622.95	202.69
623.157	185.69
623.364	186.69
623.571	190.69
623.778	174.69
623.985	207.69
624.192	181.69
624.399	183.69
624.606	202.69
624.812	189.69
625.019	199.69
625.226	167.69
625.433	205.69
625.639	185.69
625.846	173.69
626.053	181.69
626.259	182.69
626.466	174.69
626.673	201.69
626.879	190.69
627.086	195.69
627.293	204.69
627.499	181.69
627.706	179.69
627.912	191.69
628.119	190.69
628.325	194.69
628.532	182.69
628.738	173.69
628.945	181.69
629.151	188.69
629.357	190.69
629.564	185.69
629.77	181.69
629.976	180.69
630.183	182.69
630.389	158.69
630.595	180.69
630.802	174.69
631.008	185.69
631.214	174.69
631.42	176.69
631.627	161.69
631.833	164.69
632.039	168.69
632.245	175.69
632.451	181.69
632.657	159.69
632.863	181.69
633.069	181.69
633.275	172.69
633.481	165.69
633.688	168.69
633.893	171.69
634.099	161.69
634.305	181.69
634.511	181.69
634.717	158.69
634.923	169.69
635.129	166.69
635.335	157.69
635.541	185.69
635.747	191.69
635.952	178.69
636.158	163.69
636.364	165.69
636.57	160.69
636.775	156.69
636.981	178.69
637.187	164.69
637.392	147.69
637.598	164.69
637.804	177.69
638.009	165.69
638.215	172.69
638.421	148.69
638.626	170.69
638.832	160.69
639.037	164.69
639.243	170.69
639.448	153.69
639.654	151.69
639.859	149.69
640.065	163.69
640.27	161.69
640.475	163.69
640.681	168.69
640.886	163.69
641.091	166.69
641.297	162.69
641.502	156.69
641.707	169.69
641.913	168.69
642.118	149.69
642.323	170.69
642.528	165.69
642.733	161.69
642.939	154.69
643.144	156.69
643.349	165.69
643.554	166.69
643.759	165.69
643.964	142.69
644.169	166.69
644.374	164.69
644.579	158.69
644.784	155.69
644.989	157.69
645.194	162.69
645.399	151.69
645.604	159.69
645.809	159.69
646.014	167.69
646.219	149.69
646.423	156.69
646.628	139.69
646.833	157.69
647.038	145.69
647.243	143.69
647.447	157.69
647.652	153.69
647.857	155.69
648.062	160.69
648.266	164.69
648.471	161.69
648.676	150.69
648.88	163.69
649.085	166.69
649.289	147.69
649.494	146.69
649.698	174.69
649.903	166.69
650.107	173.69
650.312	172.69
650.516	141.69
650.721	151.69
650.925	148.69
651.13	145.69
651.334	133.69
651.539	153.69
651.743	151.69
651.947	134.69
652.152	136.69
652.356	143.69
652.56	131.69
652.764	142.69
652.969	140.69
653.173	128.69
653.377	125.69
653.581	130.69
653.785	137.69
653.99	123.69
654.194	122.69
654.398	122.69
654.602	127.69
654.806	129.69
655.01	137.69
655.214	148.69
655.418	137.69
655.622	129.69
655.826	136.69
656.03	123.69
656.234	138.69
656.438	139.69
656.642	125.69
656.846	111.69
657.049	116.69
657.253	119.69
657.457	109.69
657.661	121.69
657.865	109.69
658.068	125.69
658.272	119.69
658.476	115.69
658.68	110.69
658.883	108.69
659.087	104.69
659.291	95.69
659.494	84.69
659.698	120.69
659.901	113.69
660.105	94.69
660.309	87.69
660.512	95.69
660.716	95.69
660.919	93.69
661.123	90.69
661.326	75.69
661.53	93.69
661.733	87.69
661.936	91.69
662.14	89.69
662.343	86.69
662.546	63.69
662.75	92.69
662.953	80.69
663.156	74.69
663.36	84.69
663.563	71.69
663.766	84.69
663.969	87.69
664.173	90.69
664.376	82.69
664.579	81.69
664.782	78.69
664.985	92.69
665.188	83.69
665.391	78.69
665.594	75.69
665.797	83.69
666	76.69
666.203	84.69
666.406	87.69
666.609	83.69
666.812	80.69
667.015	85.69
667.218	82.69
667.421	85.69
667.624	77.69
667.827	79.69
668.03	81.69
668.232	70.69
668.435	86.69
668.638	91.69
668.841	92.69
669.043	79.69
669.246	89.69
669.449	77.69
669.651	93.69
669.854	70.69
670.057	88.69
670.259	79.69
670.462	76.69
670.665	89.69
670.867	92.69
671.07	69.69
671.272	69.69
671.475	94.69
671.677	77.69
671.88	90.69
672.082	80.69
672.284	86.69
672.487	98.69
672.689	83.69
672.892	81.69
