Data from 1972.PennyLincolnUp.Lamp.En5.5.200Scan.071719.P1._HRD10591_15-28-43-844.txt Node
Date: Thu Jul 18 15:28:43 EDT 2019
User: cochatt
Spectrometer: HR+D1059
Trigger mode: 1
Integration Time (sec): 1.000000E-1
Scans to average: 1
Electric dark correction enabled: true
Nonlinearity correction enabled: false
Boxcar width: 0
XAxis mode: Wavelengths
Number of Pixels in Spectrum: 2048
>>>>>Begin Spectral Data<<<<<
223.165	-14.94
223.4	-14.94
223.635	-14.94
223.869	-12.94
224.104	-22.94
224.338	-25.94
224.573	-9.94
224.808	-15.94
225.042	7.06
225.277	5.06
225.511	4.06
225.746	9.06
225.98	1.06
226.215	17.06
226.449	6.06
226.683	23.06
226.918	11.06
227.152	19.06
227.387	14.06
227.621	30.06
227.856	40.06
228.09	41.06
228.324	49.06
228.559	48.06
228.793	64.06
229.027	95.06
229.262	123.06
229.496	118.06
229.73	123.06
229.964	153.06
230.199	137.06
230.433	129.06
230.667	126.06
230.901	113.06
231.136	109.06
231.37	127.06
231.604	115.06
231.838	116.06
232.072	109.06
232.306	109.06
232.541	110.06
232.775	123.06
233.009	115.06
233.243	120.06
233.477	113.06
233.711	123.06
233.945	137.06
234.179	113.06
234.413	117.06
234.647	116.06
234.881	121.06
235.115	110.06
235.349	127.06
235.583	127.06
235.817	128.06
236.051	140.06
236.285	139.06
236.519	128.06
236.753	144.06
236.987	133.06
237.221	204.06
237.455	251.06
237.689	219.06
237.922	163.06
238.156	139.06
238.39	135.06
238.624	139.06
238.858	128.06
239.091	129.06
239.325	125.06
239.559	127.06
239.793	124.06
240.027	137.06
240.26	149.06
240.494	165.06
240.728	166.06
240.961	164.06
241.195	161.06
241.429	135.06
241.662	135.06
241.896	149.06
242.13	149.06
242.363	136.06
242.597	132.06
242.83	147.06
243.064	152.06
243.298	147.06
243.531	135.06
243.765	148.06
243.998	137.06
244.232	138.06
244.465	141.06
244.699	148.06
244.932	147.06
245.166	141.06
245.399	146.06
245.633	133.06
245.866	159.06
246.099	143.06
246.333	158.06
246.566	140.06
246.8	158.06
247.033	170.06
247.266	164.06
247.5	168.06
247.733	176.06
247.966	168.06
248.2	169.06
248.433	185.06
248.666	191.06
248.899	206.06
249.133	221.06
249.366	235.06
249.599	220.06
249.832	185.06
250.066	192.06
250.299	191.06
250.532	186.06
250.765	212.06
250.998	215.06
251.231	259.06
251.465	224.06
251.698	227.06
251.931	222.06
252.164	222.06
252.397	201.06
252.63	221.06
252.863	226.06
253.096	221.06
253.329	252.06
253.562	251.06
253.795	238.06
254.028	256.06
254.261	240.06
254.494	236.06
254.727	268.06
254.96	297.06
255.193	309.06
255.426	268.06
255.659	243.06
255.892	245.06
256.124	236.06
256.357	274.06
256.59	262.06
256.823	240.06
257.056	242.06
257.289	220.06
257.521	233.06
257.754	227.06
257.987	207.06
258.22	228.06
258.452	223.06
258.685	210.06
258.918	234.06
259.151	235.06
259.383	215.06
259.616	247.06
259.849	234.06
260.081	243.06
260.314	269.06
260.547	268.06
260.779	263.06
261.012	244.06
261.244	245.06
261.477	232.06
261.71	248.06
261.942	246.06
262.175	256.06
262.407	235.06
262.64	233.06
262.872	235.06
263.105	212.06
263.337	224.06
263.57	226.06
263.802	217.06
264.035	227.06
264.267	224.06
264.499	228.06
264.732	229.06
264.964	223.06
265.197	222.06
265.429	222.06
265.661	216.06
265.894	223.06
266.126	215.06
266.358	217.06
266.591	220.06
266.823	226.06
267.055	232.06
267.287	234.06
267.52	259.06
267.752	233.06
267.984	226.06
268.216	217.06
268.448	250.06
268.681	262.06
268.913	257.06
269.145	263.06
269.377	277.06
269.609	281.06
269.841	284.06
270.073	289.06
270.306	300.06
270.538	345.06
270.77	338.06
271.002	318.06
271.234	315.06
271.466	327.06
271.698	322.06
271.93	332.06
272.162	341.06
272.394	335.06
272.626	308.06
272.858	327.06
273.09	280.06
273.322	285.06
273.553	288.06
273.785	277.06
274.017	287.06
274.249	293.06
274.481	243.06
274.713	273.06
274.945	293.06
275.176	284.06
275.408	286.06
275.64	284.06
275.872	283.06
276.104	271.06
276.335	276.06
276.567	299.06
276.799	311.06
277.031	318.06
277.262	332.06
277.494	336.06
277.726	322.06
277.957	308.06
278.189	292.06
278.421	289.06
278.652	278.06
278.884	265.06
279.115	284.06
279.347	269.06
279.579	270.06
279.81	266.06
280.042	281.06
280.273	267.06
280.505	259.06
280.736	275.06
280.968	268.06
281.199	282.06
281.431	288.06
281.662	276.06
281.894	291.06
282.125	282.06
282.356	315.06
282.588	332.06
282.819	323.06
283.051	296.06
283.282	274.06
283.513	297.06
283.745	277.06
283.976	286.06
284.207	277.06
284.439	281.06
284.67	296.06
284.901	289.06
285.132	299.06
285.364	285.06
285.595	256.06
285.826	269.06
286.057	285.06
286.288	297.06
286.52	296.06
286.751	282.06
286.982	299.06
287.213	276.06
287.444	288.06
287.675	299.06
287.906	304.06
288.138	308.06
288.369	308.06
288.6	308.06
288.831	307.06
289.062	314.06
289.293	294.06
289.524	308.06
289.755	320.06
289.986	297.06
290.217	296.06
290.448	291.06
290.679	307.06
290.91	301.06
291.141	287.06
291.371	299.06
291.602	282.06
291.833	291.06
292.064	283.06
292.295	299.06
292.526	289.06
292.757	297.06
292.987	277.06
293.218	286.06
293.449	291.06
293.68	279.06
293.91	296.06
294.141	313.06
294.372	294.06
294.603	277.06
294.833	302.06
295.064	297.06
295.295	291.06
295.525	299.06
295.756	263.06
295.987	302.06
296.217	336.06
296.448	337.06
296.679	323.06
296.909	309.06
297.14	291.06
297.37	305.06
297.601	283.06
297.831	303.06
298.062	304.06
298.292	294.06
298.523	311.06
298.753	313.06
298.984	316.06
299.214	308.06
299.445	318.06
299.675	298.06
299.905	312.06
300.136	331.06
300.366	311.06
300.597	324.06
300.827	329.06
301.057	327.06
301.288	333.06
301.518	325.06
301.748	311.06
301.979	340.06
302.209	333.06
302.439	335.06
302.669	340.06
302.9	334.06
303.13	333.06
303.36	316.06
303.59	330.06
303.82	331.06
304.051	331.06
304.281	312.06
304.511	326.06
304.741	327.06
304.971	323.06
305.201	316.06
305.431	335.06
305.661	325.06
305.891	315.06
306.121	347.06
306.352	329.06
306.582	355.06
306.812	336.06
307.042	319.06
307.272	313.06
307.502	332.06
307.731	335.06
307.961	335.06
308.191	341.06
308.421	332.06
308.651	337.06
308.881	337.06
309.111	343.06
309.341	356.06
309.571	359.06
309.8	369.06
310.03	390.06
310.26	383.06
310.49	388.06
310.72	398.06
310.949	413.06
311.179	429.06
311.409	405.06
311.639	392.06
311.868	395.06
312.098	394.06
312.328	401.06
312.557	429.06
312.787	450.06
313.017	414.06
313.246	398.06
313.476	391.06
313.706	391.06
313.935	396.06
314.165	417.06
314.394	428.06
314.624	411.06
314.853	398.06
315.083	415.06
315.312	387.06
315.542	367.06
315.771	373.06
316.001	369.06
316.23	389.06
316.46	376.06
316.689	382.06
316.919	405.06
317.148	407.06
317.377	407.06
317.607	410.06
317.836	388.06
318.065	397.06
318.295	401.06
318.524	384.06
318.753	384.06
318.983	379.06
319.212	381.06
319.441	405.06
319.67	392.06
319.9	404.06
320.129	379.06
320.358	399.06
320.587	398.06
320.816	404.06
321.046	418.06
321.275	434.06
321.504	419.06
321.733	410.06
321.962	428.06
322.191	435.06
322.42	461.06
322.649	488.06
322.878	493.06
323.108	514.06
323.337	557.06
323.566	563.06
323.795	596.06
324.024	675.06
324.253	866.06
324.482	1231.06
324.71	1955.06
324.939	2854.06
325.168	2521.06
325.397	1272.06
325.626	793.06
325.855	640.06
326.084	564.06
326.313	578.06
326.542	599.06
326.77	660.06
326.999	769.06
327.228	1096.06
327.457	1697.06
327.686	2169.06
327.914	1411.06
328.143	899.06
328.372	750.06
328.6	688.06
328.829	655.06
329.058	688.06
329.287	699.06
329.515	636.06
329.744	564.06
329.972	567.06
330.201	607.06
330.43	656.06
330.658	688.06
330.887	731.06
331.115	716.06
331.344	587.06
331.572	537.06
331.801	555.06
332.03	527.06
332.258	492.06
332.486	470.06
332.715	463.06
332.943	465.06
333.172	460.06
333.4	471.06
333.629	468.06
333.857	504.06
334.085	521.06
334.314	540.06
334.542	582.06
334.771	596.06
334.999	535.06
335.227	471.06
335.455	461.06
335.684	452.06
335.912	457.06
336.14	454.06
336.369	450.06
336.597	465.06
336.825	464.06
337.053	445.06
337.281	460.06
337.51	416.06
337.738	423.06
337.966	435.06
338.194	436.06
338.422	444.06
338.65	445.06
338.878	436.06
339.106	417.06
339.334	410.06
339.562	409.06
339.79	418.06
340.018	443.06
340.246	432.06
340.474	416.06
340.702	433.06
340.93	415.06
341.158	455.06
341.386	431.06
341.614	439.06
341.842	427.06
342.07	439.06
342.298	433.06
342.526	425.06
342.754	402.06
342.981	415.06
343.209	421.06
343.437	405.06
343.665	397.06
343.893	416.06
344.12	412.06
344.348	427.06
344.576	432.06
344.804	448.06
345.031	448.06
345.259	458.06
345.487	453.06
345.714	443.06
345.942	419.06
346.17	421.06
346.397	430.06
346.625	408.06
346.853	413.06
347.08	419.06
347.308	435.06
347.535	440.06
347.763	429.06
347.99	455.06
348.218	433.06
348.445	442.06
348.673	451.06
348.9	414.06
349.128	417.06
349.355	412.06
349.583	397.06
349.81	411.06
350.037	413.06
350.265	415.06
350.492	400.06
350.72	393.06
350.947	413.06
351.174	426.06
351.402	439.06
351.629	449.06
351.856	439.06
352.083	447.06
352.311	452.06
352.538	456.06
352.765	452.06
352.992	417.06
353.22	439.06
353.447	418.06
353.674	411.06
353.901	400.06
354.128	377.06
354.355	385.06
354.583	390.06
354.81	371.06
355.037	377.06
355.264	382.06
355.491	355.06
355.718	363.06
355.945	387.06
356.172	361.06
356.399	364.06
356.626	369.06
356.853	384.06
357.08	371.06
357.307	389.06
357.534	377.06
357.761	368.06
357.988	385.06
358.215	373.06
358.441	384.06
358.668	365.06
358.895	401.06
359.122	400.06
359.349	414.06
359.576	432.06
359.802	454.06
360.029	489.06
360.256	485.06
360.483	476.06
360.709	419.06
360.936	410.06
361.163	420.06
361.39	418.06
361.616	413.06
361.843	405.06
362.07	422.06
362.296	435.06
362.523	421.06
362.749	413.06
362.976	419.06
363.203	387.06
363.429	400.06
363.656	401.06
363.882	365.06
364.109	405.06
364.335	387.06
364.562	377.06
364.788	378.06
365.015	381.06
365.241	391.06
365.468	393.06
365.694	407.06
365.92	399.06
366.147	388.06
366.373	391.06
366.599	397.06
366.826	388.06
367.052	379.06
367.278	395.06
367.505	391.06
367.731	374.06
367.957	372.06
368.184	381.06
368.41	389.06
368.636	416.06
368.862	399.06
369.089	406.06
369.315	389.06
369.541	389.06
369.767	390.06
369.993	375.06
370.219	394.06
370.445	366.06
370.672	373.06
370.898	377.06
371.124	386.06
371.35	393.06
371.576	378.06
371.802	375.06
372.028	370.06
372.254	377.06
372.48	378.06
372.706	381.06
372.932	388.06
373.158	387.06
373.384	378.06
373.61	381.06
373.835	366.06
374.061	388.06
374.287	364.06
374.513	399.06
374.739	374.06
374.965	371.06
375.191	374.06
375.416	378.06
375.642	381.06
375.868	364.06
376.094	372.06
376.319	375.06
376.545	358.06
376.771	383.06
376.997	377.06
377.222	363.06
377.448	385.06
377.674	371.06
377.899	359.06
378.125	359.06
378.35	363.06
378.576	360.06
378.802	350.06
379.027	376.06
379.253	375.06
379.478	384.06
379.704	383.06
379.929	368.06
380.155	363.06
380.38	362.06
380.606	382.06
380.831	366.06
381.057	368.06
381.282	400.06
381.507	388.06
381.733	362.06
381.958	374.06
382.184	385.06
382.409	387.06
382.634	391.06
382.86	353.06
383.085	377.06
383.31	373.06
383.535	369.06
383.761	371.06
383.986	365.06
384.211	397.06
384.436	380.06
384.662	361.06
384.887	379.06
385.112	385.06
385.337	386.06
385.562	386.06
385.787	382.06
386.013	419.06
386.238	405.06
386.463	407.06
386.688	405.06
386.913	416.06
387.138	397.06
387.363	391.06
387.588	390.06
387.813	406.06
388.038	375.06
388.263	394.06
388.488	405.06
388.713	428.06
388.938	390.06
389.163	407.06
389.387	390.06
389.612	378.06
389.837	389.06
390.062	385.06
390.287	416.06
390.512	379.06
390.736	399.06
390.961	396.06
391.186	392.06
391.411	394.06
391.636	389.06
391.86	408.06
392.085	387.06
392.31	400.06
392.534	407.06
392.759	406.06
392.984	415.06
393.208	376.06
393.433	404.06
393.658	419.06
393.882	406.06
394.107	398.06
394.331	395.06
394.556	389.06
394.78	390.06
395.005	408.06
395.229	405.06
395.454	410.06
395.678	414.06
395.903	395.06
396.127	443.06
396.352	469.06
396.576	424.06
396.801	425.06
397.025	407.06
397.249	421.06
397.474	411.06
397.698	410.06
397.922	429.06
398.147	445.06
398.371	459.06
398.595	424.06
398.82	435.06
399.044	454.06
399.268	462.06
399.492	490.06
399.717	493.06
399.941	512.06
400.165	537.06
400.389	561.06
400.613	519.06
400.837	476.06
401.062	469.06
401.286	453.06
401.51	439.06
401.734	447.06
401.958	466.06
402.182	448.06
402.406	450.06
402.63	471.06
402.854	441.06
403.078	455.06
403.302	469.06
403.526	451.06
403.75	467.06
403.974	449.06
404.198	441.06
404.422	490.06
404.645	477.06
404.869	476.06
405.093	528.06
405.317	551.06
405.541	596.06
405.765	551.06
405.988	506.06
406.212	519.06
406.436	543.06
406.66	577.06
406.883	537.06
407.107	553.06
407.331	597.06
407.555	670.06
407.778	683.06
408.002	613.06
408.226	538.06
408.449	515.06
408.673	543.06
408.896	561.06
409.12	599.06
409.344	558.06
409.567	520.06
409.791	475.06
410.014	459.06
410.238	480.06
410.461	477.06
410.685	483.06
410.908	484.06
411.132	557.06
411.355	594.06
411.578	548.06
411.802	488.06
412.025	462.06
412.249	483.06
412.472	522.06
412.695	557.06
412.919	554.06
413.142	492.06
413.365	462.06
413.589	464.06
413.812	464.06
414.035	460.06
414.258	448.06
414.482	463.06
414.705	456.06
414.928	451.06
415.151	438.06
415.374	440.06
415.597	436.06
415.821	437.06
416.044	453.06
416.267	444.06
416.49	446.06
416.713	461.06
416.936	441.06
417.159	441.06
417.382	460.06
417.605	455.06
417.828	476.06
418.051	465.06
418.274	469.06
418.497	430.06
418.72	450.06
418.943	455.06
419.166	448.06
419.389	477.06
419.611	463.06
419.834	462.06
420.057	487.06
420.28	471.06
420.503	464.06
420.726	480.06
420.948	489.06
421.171	525.06
421.394	575.06
421.617	512.06
421.839	457.06
422.062	486.06
422.285	486.06
422.507	555.06
422.73	627.06
422.953	624.06
423.175	525.06
423.398	489.06
423.621	503.06
423.843	534.06
424.066	544.06
424.288	537.06
424.511	539.06
424.733	641.06
424.956	705.06
425.178	669.06
425.401	643.06
425.623	699.06
425.846	571.06
426.068	538.06
426.291	528.06
426.513	550.06
426.735	527.06
426.958	573.06
427.18	696.06
427.402	806.06
427.625	901.06
427.847	841.06
428.069	707.06
428.292	597.06
428.514	522.06
428.736	507.06
428.958	509.06
429.181	491.06
429.403	489.06
429.625	509.06
429.847	545.06
430.069	639.06
430.292	609.06
430.514	527.06
430.736	488.06
430.958	468.06
431.18	468.06
431.402	465.06
431.624	455.06
431.846	441.06
432.068	459.06
432.29	458.06
432.512	451.06
432.734	466.06
432.956	455.06
433.178	470.06
433.4	461.06
433.622	462.06
433.844	449.06
434.066	455.06
434.287	447.06
434.509	445.06
434.731	468.06
434.953	460.06
435.175	471.06
435.397	521.06
435.618	511.06
435.84	565.06
436.062	679.06
436.284	752.06
436.505	614.06
436.727	574.06
436.949	536.06
437.17	483.06
437.392	480.06
437.614	527.06
437.835	543.06
438.057	673.06
438.278	773.06
438.5	763.06
438.721	831.06
438.943	800.06
439.165	640.06
439.386	564.06
439.608	551.06
439.829	534.06
440.05	593.06
440.272	653.06
440.493	596.06
440.715	543.06
440.936	491.06
441.158	506.06
441.379	499.06
441.6	508.06
441.822	551.06
442.043	574.06
442.264	688.06
442.486	712.06
442.707	589.06
442.928	557.06
443.149	574.06
443.371	570.06
443.592	629.06
443.813	741.06
444.034	771.06
444.255	650.06
444.476	574.06
444.698	513.06
444.919	512.06
445.14	592.06
445.361	581.06
445.582	616.06
445.803	689.06
446.024	775.06
446.245	809.06
446.466	751.06
446.687	620.06
446.908	543.06
447.129	507.06
447.35	527.06
447.571	496.06
447.792	502.06
448.013	508.06
448.234	525.06
448.455	589.06
448.675	711.06
448.896	814.06
449.117	696.06
449.338	683.06
449.559	756.06
449.779	857.06
450	683.06
450.221	585.06
450.442	531.06
450.662	512.06
450.883	511.06
451.104	540.06
451.324	521.06
451.545	474.06
451.766	464.06
451.986	465.06
452.207	447.06
452.428	448.06
452.648	419.06
452.869	444.06
453.089	462.06
453.31	476.06
453.53	475.06
453.751	436.06
453.971	458.06
454.192	488.06
454.412	470.06
454.633	455.06
454.853	435.06
455.073	434.06
455.294	447.06
455.514	555.06
455.734	555.06
455.955	471.06
456.175	421.06
456.395	422.06
456.616	441.06
456.836	431.06
457.056	421.06
457.276	380.06
457.497	408.06
457.717	411.06
457.937	399.06
458.157	412.06
458.377	435.06
458.598	436.06
458.818	537.06
459.038	638.06
459.258	647.06
459.478	542.06
459.698	475.06
459.918	471.06
460.138	454.06
460.358	451.06
460.578	456.06
460.798	455.06
461.018	457.06
461.238	439.06
461.458	457.06
461.678	435.06
461.898	441.06
462.118	427.06
462.338	448.06
462.558	469.06
462.777	447.06
462.997	469.06
463.217	478.06
463.437	476.06
463.657	455.06
463.876	458.06
464.096	443.06
464.316	469.06
464.536	464.06
464.755	478.06
464.975	471.06
465.195	546.06
465.414	663.06
465.634	570.06
465.854	505.06
466.073	469.06
466.293	466.06
466.512	441.06
466.732	449.06
466.951	451.06
467.171	458.06
467.391	457.06
467.61	449.06
467.829	474.06
468.049	446.06
468.268	455.06
468.488	453.06
468.707	434.06
468.927	438.06
469.146	400.06
469.365	424.06
469.585	437.06
469.804	451.06
470.023	448.06
470.243	463.06
470.462	446.06
470.681	487.06
470.901	458.06
471.12	452.06
471.339	461.06
471.558	472.06
471.777	473.06
471.997	451.06
472.216	471.06
472.435	506.06
472.654	482.06
472.873	476.06
473.092	464.06
473.311	456.06
473.53	441.06
473.749	449.06
473.968	494.06
474.187	636.06
474.406	665.06
474.625	537.06
474.844	487.06
475.063	464.06
475.282	461.06
475.501	464.06
475.72	460.06
475.939	464.06
476.158	460.06
476.377	455.06
476.596	470.06
476.814	463.06
477.033	475.06
477.252	468.06
477.471	470.06
477.69	483.06
477.908	470.06
478.127	465.06
478.346	497.06
478.564	503.06
478.783	501.06
479.002	492.06
479.22	494.06
479.439	533.06
479.658	535.06
479.876	552.06
480.095	550.06
480.313	579.06
480.532	557.06
480.751	543.06
480.969	579.06
481.188	663.06
481.406	691.06
481.624	592.06
481.843	541.06
482.061	547.06
482.28	549.06
482.498	544.06
482.717	548.06
482.935	526.06
483.153	531.06
483.372	525.06
483.59	525.06
483.808	533.06
484.027	524.06
484.245	515.06
484.463	535.06
484.681	542.06
484.9	544.06
485.118	560.06
485.336	535.06
485.554	556.06
485.772	535.06
485.99	537.06
486.209	551.06
486.427	560.06
486.645	572.06
486.863	587.06
487.081	593.06
487.299	593.06
487.517	587.06
487.735	568.06
487.953	570.06
488.171	571.06
488.389	571.06
488.607	565.06
488.825	564.06
489.043	567.06
489.261	594.06
489.479	589.06
489.696	582.06
489.914	559.06
490.132	576.06
490.35	576.06
490.568	598.06
490.786	617.06
491.003	627.06
491.221	647.06
491.439	644.06
491.657	663.06
491.874	663.06
492.092	649.06
492.31	673.06
492.527	667.06
492.745	677.06
492.963	678.06
493.18	659.06
493.398	672.06
493.615	669.06
493.833	680.06
494.05	672.06
494.268	654.06
494.485	676.06
494.703	707.06
494.92	683.06
495.138	656.06
495.355	678.06
495.573	672.06
495.79	657.06
496.008	669.06
496.225	678.06
496.442	668.06
496.66	680.06
496.877	671.06
497.094	669.06
497.312	679.06
497.529	697.06
497.746	702.06
497.963	710.06
498.181	715.06
498.398	744.06
498.615	729.06
498.832	752.06
499.049	744.06
499.267	770.06
499.484	749.06
499.701	777.06
499.918	803.06
500.135	800.06
500.352	842.06
500.569	831.06
500.786	836.06
501.003	847.06
501.22	847.06
501.437	835.06
501.654	822.06
501.871	832.06
502.088	796.06
502.305	782.06
502.522	752.06
502.739	718.06
502.956	712.06
503.172	717.06
503.389	702.06
503.606	743.06
503.823	730.06
504.04	675.06
504.256	672.06
504.473	677.06
504.69	693.06
504.907	686.06
505.123	648.06
505.34	677.06
505.557	651.06
505.773	645.06
505.99	668.06
506.207	650.06
506.423	657.06
506.64	648.06
506.856	640.06
507.073	650.06
507.289	625.06
507.506	651.06
507.722	673.06
507.939	687.06
508.155	656.06
508.372	629.06
508.588	633.06
508.805	638.06
509.021	654.06
509.238	657.06
509.454	668.06
509.67	649.06
509.887	665.06
510.103	635.06
510.319	655.06
510.536	789.06
510.752	1387.06
510.968	1127.06
511.184	686.06
511.401	629.06
511.617	631.06
511.833	643.06
512.049	627.06
512.265	609.06
512.481	616.06
512.698	623.06
512.914	615.06
513.13	611.06
513.346	630.06
513.562	605.06
513.778	629.06
513.994	630.06
514.21	626.06
514.426	671.06
514.642	740.06
514.858	757.06
515.074	797.06
515.29	995.06
515.506	1606.06
515.721	1257.06
515.937	798.06
516.153	717.06
516.369	665.06
516.585	652.06
516.801	627.06
517.016	611.06
517.232	624.06
517.448	612.06
517.664	625.06
517.879	629.06
518.095	608.06
518.311	600.06
518.527	609.06
518.742	605.06
518.958	590.06
519.173	601.06
519.389	620.06
519.605	605.06
519.82	599.06
520.036	624.06
520.251	655.06
520.467	684.06
520.682	685.06
520.898	690.06
521.113	730.06
521.329	811.06
521.544	943.06
521.76	1242.06
521.975	2135.06
522.19	2073.06
522.406	1052.06
522.621	760.06
522.836	677.06
523.052	639.06
523.267	620.06
523.482	602.06
523.698	575.06
523.913	567.06
524.128	566.06
524.343	569.06
524.559	540.06
524.774	541.06
524.989	536.06
525.204	574.06
525.419	554.06
525.634	533.06
525.849	537.06
526.064	514.06
526.28	520.06
526.495	473.06
526.71	487.06
526.925	472.06
527.14	509.06
527.355	485.06
527.57	499.06
527.785	494.06
527.999	488.06
528.214	494.06
528.429	493.06
528.644	469.06
528.859	482.06
529.074	475.06
529.289	517.06
529.503	631.06
529.718	622.06
529.933	559.06
530.148	516.06
530.363	488.06
530.577	480.06
530.792	494.06
531.007	481.06
531.221	478.06
531.436	462.06
531.651	472.06
531.865	487.06
532.08	452.06
532.295	453.06
532.509	458.06
532.724	461.06
532.938	473.06
533.153	458.06
533.367	458.06
533.582	451.06
533.796	462.06
534.011	453.06
534.225	456.06
534.44	452.06
534.654	453.06
534.868	440.06
535.083	424.06
535.297	449.06
535.511	455.06
535.726	469.06
535.94	451.06
536.154	456.06
536.369	461.06
536.583	461.06
536.797	453.06
537.011	448.06
537.225	430.06
537.44	452.06
537.654	445.06
537.868	443.06
538.082	446.06
538.296	441.06
538.51	425.06
538.724	450.06
538.938	445.06
539.153	468.06
539.367	453.06
539.581	479.06
539.795	439.06
540.009	445.06
540.222	431.06
540.436	452.06
540.65	439.06
540.864	464.06
541.078	459.06
541.292	472.06
541.506	461.06
541.72	456.06
541.934	428.06
542.147	441.06
542.361	425.06
542.575	436.06
542.789	430.06
543.002	444.06
543.216	440.06
543.43	434.06
543.644	451.06
543.857	452.06
544.071	437.06
544.285	436.06
544.498	428.06
544.712	421.06
544.925	413.06
545.139	408.06
545.352	420.06
545.566	448.06
545.779	423.06
545.993	425.06
546.206	429.06
546.42	426.06
546.633	419.06
546.847	430.06
547.06	428.06
547.274	424.06
547.487	426.06
547.7	428.06
547.914	419.06
548.127	421.06
548.34	427.06
548.554	404.06
548.767	406.06
548.98	405.06
549.193	409.06
549.407	395.06
549.62	425.06
549.833	402.06
550.046	405.06
550.259	399.06
550.473	395.06
550.686	401.06
550.899	411.06
551.112	387.06
551.325	394.06
551.538	411.06
551.751	379.06
551.964	413.06
552.177	391.06
552.39	402.06
552.603	411.06
552.816	394.06
553.029	416.06
553.242	415.06
553.455	410.06
553.667	417.06
553.88	445.06
554.093	415.06
554.306	416.06
554.519	395.06
554.732	387.06
554.944	394.06
555.157	412.06
555.37	400.06
555.583	407.06
555.795	404.06
556.008	387.06
556.221	391.06
556.433	381.06
556.646	372.06
556.859	375.06
557.071	381.06
557.284	378.06
557.496	366.06
557.709	365.06
557.921	381.06
558.134	371.06
558.346	360.06
558.559	375.06
558.771	376.06
558.984	360.06
559.196	360.06
559.409	363.06
559.621	355.06
559.833	341.06
560.046	372.06
560.258	372.06
560.47	356.06
560.683	369.06
560.895	358.06
561.107	361.06
561.32	367.06
561.532	359.06
561.744	353.06
561.956	351.06
562.168	363.06
562.381	359.06
562.593	351.06
562.805	368.06
563.017	361.06
563.229	357.06
563.441	381.06
563.653	370.06
563.865	352.06
564.077	375.06
564.289	360.06
564.501	377.06
564.713	358.06
564.925	377.06
565.137	400.06
565.349	412.06
565.561	400.06
565.773	397.06
565.985	391.06
566.197	396.06
566.408	395.06
566.62	403.06
566.832	419.06
567.044	399.06
567.255	405.06
567.467	420.06
567.679	415.06
567.891	421.06
568.102	424.06
568.314	410.06
568.526	395.06
568.737	393.06
568.949	411.06
569.161	343.06
569.372	373.06
569.584	359.06
569.795	379.06
570.007	368.06
570.218	439.06
570.43	410.06
570.641	357.06
570.853	345.06
571.064	343.06
571.276	349.06
571.487	356.06
571.698	340.06
571.91	361.06
572.121	340.06
572.333	348.06
572.544	320.06
572.755	332.06
572.966	329.06
573.178	329.06
573.389	345.06
573.6	331.06
573.811	329.06
574.023	322.06
574.234	309.06
574.445	316.06
574.656	312.06
574.867	326.06
575.078	302.06
575.289	317.06
575.501	335.06
575.712	313.06
575.923	303.06
576.134	323.06
576.345	305.06
576.556	323.06
576.767	320.06
576.978	309.06
577.188	331.06
577.399	316.06
577.61	328.06
577.821	313.06
578.032	325.06
578.243	362.06
578.454	663.06
578.665	468.06
578.875	305.06
579.086	315.06
579.297	303.06
579.508	309.06
579.718	309.06
579.929	298.06
580.14	299.06
580.35	295.06
580.561	299.06
580.772	312.06
580.982	303.06
581.193	279.06
581.403	293.06
581.614	285.06
581.825	278.06
582.035	287.06
582.246	294.06
582.456	300.06
582.667	300.06
582.877	302.06
583.087	279.06
583.298	292.06
583.508	297.06
583.719	291.06
583.929	301.06
584.139	276.06
584.35	300.06
584.56	282.06
584.77	289.06
584.981	289.06
585.191	282.06
585.401	294.06
585.611	294.06
585.821	300.06
586.032	304.06
586.242	288.06
586.452	292.06
586.662	274.06
586.872	286.06
587.082	292.06
587.292	282.06
587.502	278.06
587.713	284.06
587.923	267.06
588.133	285.06
588.343	269.06
588.553	291.06
588.762	264.06
588.972	284.06
589.182	281.06
589.392	270.06
589.602	270.06
589.812	274.06
590.022	279.06
590.232	262.06
590.441	278.06
590.651	284.06
590.861	282.06
591.071	272.06
591.281	280.06
591.49	272.06
591.7	275.06
591.91	285.06
592.119	284.06
592.329	272.06
592.539	292.06
592.748	287.06
592.958	302.06
593.167	300.06
593.377	273.06
593.587	290.06
593.796	265.06
594.006	267.06
594.215	286.06
594.424	281.06
594.634	281.06
594.843	293.06
595.053	287.06
595.262	263.06
595.472	275.06
595.681	253.06
595.89	271.06
596.1	271.06
596.309	283.06
596.518	276.06
596.727	266.06
596.937	249.06
597.146	261.06
597.355	259.06
597.564	267.06
597.774	252.06
597.983	244.06
598.192	259.06
598.401	255.06
598.61	248.06
598.819	247.06
599.028	253.06
599.237	247.06
599.446	248.06
599.655	248.06
599.864	244.06
600.073	251.06
600.282	260.06
600.491	234.06
600.7	238.06
600.909	253.06
601.118	255.06
601.327	245.06
601.536	237.06
601.745	251.06
601.953	238.06
602.162	242.06
602.371	245.06
602.58	254.06
602.789	256.06
602.997	233.06
603.206	235.06
603.415	240.06
603.623	225.06
603.832	237.06
604.041	234.06
604.249	246.06
604.458	221.06
604.666	233.06
604.875	243.06
605.084	218.06
605.292	242.06
605.501	240.06
605.709	227.06
605.918	233.06
606.126	223.06
606.334	225.06
606.543	229.06
606.751	235.06
606.96	236.06
607.168	229.06
607.376	240.06
607.585	216.06
607.793	233.06
608.001	223.06
608.21	222.06
608.418	237.06
608.626	228.06
608.834	238.06
609.043	219.06
609.251	239.06
609.459	232.06
609.667	240.06
609.875	215.06
610.083	243.06
610.291	235.06
610.499	233.06
610.707	217.06
610.916	232.06
611.124	215.06
611.332	220.06
611.54	239.06
611.748	245.06
611.955	245.06
612.163	240.06
612.371	223.06
612.579	236.06
612.787	228.06
612.995	233.06
613.203	220.06
613.411	228.06
613.618	224.06
613.826	243.06
614.034	228.06
614.242	239.06
614.449	248.06
614.657	222.06
614.865	217.06
615.072	224.06
615.28	237.06
615.488	219.06
615.695	228.06
615.903	216.06
616.111	225.06
616.318	225.06
616.526	219.06
616.733	235.06
616.941	206.06
617.148	216.06
617.356	221.06
617.563	224.06
617.771	218.06
617.978	214.06
618.185	205.06
618.393	208.06
618.6	215.06
618.807	213.06
619.015	229.06
619.222	207.06
619.429	221.06
619.637	213.06
619.844	215.06
620.051	241.06
620.258	201.06
620.466	212.06
620.673	207.06
620.88	200.06
621.087	211.06
621.294	216.06
621.501	230.06
621.708	210.06
621.915	213.06
622.122	214.06
622.329	215.06
622.536	227.06
622.743	215.06
622.95	219.06
623.157	201.06
623.364	232.06
623.571	220.06
623.778	213.06
623.985	216.06
624.192	212.06
624.399	176.06
624.606	211.06
624.812	187.06
625.019	211.06
625.226	214.06
625.433	206.06
625.639	212.06
625.846	197.06
626.053	191.06
626.259	187.06
626.466	216.06
626.673	191.06
626.879	200.06
627.086	189.06
627.293	201.06
627.499	202.06
627.706	195.06
627.912	190.06
628.119	195.06
628.325	202.06
628.532	165.06
628.738	185.06
628.945	187.06
629.151	185.06
629.357	194.06
629.564	198.06
629.77	196.06
629.976	192.06
630.183	196.06
630.389	207.06
630.595	181.06
630.802	189.06
631.008	185.06
631.214	188.06
631.42	171.06
631.627	174.06
631.833	192.06
632.039	184.06
632.245	170.06
632.451	181.06
632.657	189.06
632.863	180.06
633.069	187.06
633.275	184.06
633.481	189.06
633.688	182.06
633.893	185.06
634.099	179.06
634.305	183.06
634.511	176.06
634.717	196.06
634.923	176.06
635.129	179.06
635.335	189.06
635.541	180.06
635.747	165.06
635.952	190.06
636.158	176.06
636.364	184.06
636.57	182.06
636.775	177.06
636.981	183.06
637.187	183.06
637.392	166.06
637.598	176.06
637.804	178.06
638.009	171.06
638.215	167.06
638.421	183.06
638.626	180.06
638.832	159.06
639.037	185.06
639.243	171.06
639.448	181.06
639.654	155.06
639.859	149.06
640.065	156.06
640.27	183.06
640.475	175.06
640.681	169.06
640.886	171.06
641.091	181.06
641.297	174.06
641.502	179.06
641.707	165.06
641.913	168.06
642.118	160.06
642.323	145.06
642.528	167.06
642.733	170.06
642.939	175.06
643.144	158.06
643.349	161.06
643.554	179.06
643.759	156.06
643.964	151.06
644.169	170.06
644.374	155.06
644.579	165.06
644.784	158.06
644.989	159.06
645.194	177.06
645.399	166.06
645.604	162.06
645.809	146.06
646.014	145.06
646.219	153.06
646.423	180.06
646.628	164.06
646.833	173.06
647.038	172.06
647.243	156.06
647.447	166.06
647.652	172.06
647.857	161.06
648.062	142.06
648.266	167.06
648.471	161.06
648.676	165.06
648.88	171.06
649.085	164.06
649.289	152.06
649.494	161.06
649.698	183.06
649.903	189.06
650.107	179.06
650.312	166.06
650.516	161.06
650.721	153.06
650.925	156.06
651.13	148.06
651.334	158.06
651.539	144.06
651.743	153.06
651.947	149.06
652.152	145.06
652.356	143.06
652.56	146.06
652.764	126.06
652.969	128.06
653.173	147.06
653.377	140.06
653.581	133.06
653.785	141.06
653.99	130.06
654.194	139.06
654.398	134.06
654.602	142.06
654.806	127.06
655.01	147.06
655.214	149.06
655.418	136.06
655.622	123.06
655.826	127.06
656.03	139.06
656.234	126.06
656.438	123.06
656.642	132.06
656.846	119.06
657.049	151.06
657.253	120.06
657.457	127.06
657.661	123.06
657.865	118.06
658.068	125.06
658.272	95.06
658.476	99.06
658.68	117.06
658.883	103.06
659.087	116.06
659.291	100.06
659.494	117.06
659.698	109.06
659.901	109.06
660.105	105.06
660.309	105.06
660.512	97.06
660.716	96.06
660.919	94.06
661.123	94.06
661.326	84.06
661.53	94.06
661.733	92.06
661.936	103.06
662.14	95.06
662.343	102.06
662.546	100.06
662.75	100.06
662.953	94.06
663.156	86.06
663.36	84.06
663.563	89.06
663.766	91.06
663.969	81.06
664.173	90.06
664.376	81.06
664.579	98.06
664.782	93.06
664.985	80.06
665.188	93.06
665.391	87.06
665.594	66.06
665.797	80.06
666	99.06
666.203	86.06
666.406	77.06
666.609	86.06
666.812	87.06
667.015	84.06
667.218	86.06
667.421	97.06
667.624	84.06
667.827	78.06
668.03	89.06
668.232	75.06
668.435	89.06
668.638	99.06
668.841	84.06
669.043	72.06
669.246	95.06
669.449	99.06
669.651	82.06
669.854	80.06
670.057	79.06
670.259	77.06
670.462	86.06
670.665	90.06
670.867	83.06
671.07	96.06
671.272	83.06
671.475	87.06
671.677	70.06
671.88	80.06
672.082	70.06
672.284	96.06
672.487	78.06
672.689	86.06
672.892	74.06
