Data from 1972.PennyLincolnUp.Lamp.En5.5.200Scan.071719.P1._HRD10591_15-27-58-844.txt Node
Date: Thu Jul 18 15:27:58 EDT 2019
User: cochatt
Spectrometer: HR+D1059
Trigger mode: 1
Integration Time (sec): 1.000000E-1
Scans to average: 1
Electric dark correction enabled: true
Nonlinearity correction enabled: false
Boxcar width: 0
XAxis mode: Wavelengths
Number of Pixels in Spectrum: 2048
>>>>>Begin Spectral Data<<<<<
223.165	-21.62
223.4	-21.62
223.635	-21.62
223.869	-20.62
224.104	-5.62
224.338	-23.62
224.573	-22.62
224.808	-12.62
225.042	-15.62
225.277	11.38
225.511	1.38
225.746	4.38
225.98	15.38
226.215	10.38
226.449	3.38
226.683	27.38
226.918	21.38
227.152	27.38
227.387	24.38
227.621	30.38
227.856	45.38
228.09	32.38
228.324	55.38
228.559	58.38
228.793	68.38
229.027	106.38
229.262	113.38
229.496	118.38
229.73	139.38
229.964	169.38
230.199	134.38
230.433	119.38
230.667	115.38
230.901	113.38
231.136	107.38
231.37	103.38
231.604	100.38
231.838	119.38
232.072	101.38
232.306	101.38
232.541	102.38
232.775	119.38
233.009	107.38
233.243	114.38
233.477	116.38
233.711	111.38
233.945	113.38
234.179	134.38
234.413	111.38
234.647	123.38
234.881	127.38
235.115	121.38
235.349	135.38
235.583	129.38
235.817	119.38
236.051	125.38
236.285	129.38
236.519	124.38
236.753	139.38
236.987	152.38
237.221	190.38
237.455	256.38
237.689	197.38
237.922	143.38
238.156	123.38
238.39	145.38
238.624	153.38
238.858	130.38
239.091	119.38
239.325	123.38
239.559	117.38
239.793	141.38
240.027	133.38
240.26	144.38
240.494	168.38
240.728	151.38
240.961	145.38
241.195	154.38
241.429	141.38
241.662	125.38
241.896	136.38
242.13	131.38
242.363	131.38
242.597	146.38
242.83	131.38
243.064	149.38
243.298	138.38
243.531	134.38
243.765	153.38
243.998	141.38
244.232	137.38
244.465	128.38
244.699	151.38
244.932	139.38
245.166	156.38
245.399	158.38
245.633	134.38
245.866	144.38
246.099	144.38
246.333	147.38
246.566	151.38
246.8	168.38
247.033	140.38
247.266	158.38
247.5	174.38
247.733	156.38
247.966	175.38
248.2	167.38
248.433	181.38
248.666	186.38
248.899	190.38
249.133	190.38
249.366	223.38
249.599	186.38
249.832	183.38
250.066	183.38
250.299	185.38
250.532	187.38
250.765	193.38
250.998	232.38
251.231	219.38
251.465	205.38
251.698	213.38
251.931	198.38
252.164	195.38
252.397	189.38
252.63	205.38
252.863	208.38
253.096	220.38
253.329	243.38
253.562	222.38
253.795	215.38
254.028	211.38
254.261	205.38
254.494	220.38
254.727	248.38
254.96	283.38
255.193	285.38
255.426	252.38
255.659	248.38
255.892	220.38
256.124	252.38
256.357	231.38
256.59	220.38
256.823	228.38
257.056	215.38
257.289	198.38
257.521	208.38
257.754	213.38
257.987	220.38
258.22	214.38
258.452	207.38
258.685	208.38
258.918	200.38
259.151	228.38
259.383	218.38
259.616	236.38
259.849	228.38
260.081	237.38
260.314	251.38
260.547	244.38
260.779	252.38
261.012	239.38
261.244	233.38
261.477	243.38
261.71	208.38
261.942	229.38
262.175	245.38
262.407	245.38
262.64	207.38
262.872	204.38
263.105	224.38
263.337	220.38
263.57	216.38
263.802	216.38
264.035	217.38
264.267	205.38
264.499	212.38
264.732	213.38
264.964	214.38
265.197	224.38
265.429	204.38
265.661	196.38
265.894	210.38
266.126	211.38
266.358	220.38
266.591	233.38
266.823	233.38
267.055	218.38
267.287	223.38
267.52	224.38
267.752	222.38
267.984	215.38
268.216	219.38
268.448	231.38
268.681	233.38
268.913	236.38
269.145	274.38
269.377	272.38
269.609	264.38
269.841	235.38
270.073	267.38
270.306	275.38
270.538	307.38
270.77	315.38
271.002	302.38
271.234	287.38
271.466	286.38
271.698	307.38
271.93	325.38
272.162	316.38
272.394	283.38
272.626	298.38
272.858	285.38
273.09	291.38
273.322	267.38
273.553	273.38
273.785	269.38
274.017	270.38
274.249	247.38
274.481	264.38
274.713	255.38
274.945	252.38
275.176	270.38
275.408	278.38
275.64	252.38
275.872	265.38
276.104	265.38
276.335	265.38
276.567	261.38
276.799	261.38
277.031	295.38
277.262	313.38
277.494	311.38
277.726	312.38
277.957	298.38
278.189	263.38
278.421	266.38
278.652	279.38
278.884	263.38
279.115	239.38
279.347	272.38
279.579	280.38
279.81	277.38
280.042	251.38
280.273	265.38
280.505	242.38
280.736	267.38
280.968	262.38
281.199	239.38
281.431	257.38
281.662	249.38
281.894	263.38
282.125	272.38
282.356	294.38
282.588	313.38
282.819	315.38
283.051	262.38
283.282	266.38
283.513	264.38
283.745	267.38
283.976	254.38
284.207	266.38
284.439	267.38
284.67	278.38
284.901	255.38
285.132	262.38
285.364	248.38
285.595	258.38
285.826	259.38
286.057	273.38
286.288	254.38
286.52	259.38
286.751	279.38
286.982	272.38
287.213	278.38
287.444	267.38
287.675	261.38
287.906	281.38
288.138	274.38
288.369	287.38
288.6	290.38
288.831	277.38
289.062	293.38
289.293	275.38
289.524	278.38
289.755	283.38
289.986	269.38
290.217	264.38
290.448	259.38
290.679	263.38
290.91	277.38
291.141	256.38
291.371	248.38
291.602	280.38
291.833	247.38
292.064	278.38
292.295	253.38
292.526	273.38
292.757	268.38
292.987	282.38
293.218	268.38
293.449	282.38
293.68	279.38
293.91	289.38
294.141	273.38
294.372	264.38
294.603	291.38
294.833	268.38
295.064	273.38
295.295	284.38
295.525	271.38
295.756	287.38
295.987	279.38
296.217	315.38
296.448	324.38
296.679	319.38
296.909	268.38
297.14	291.38
297.37	301.38
297.601	283.38
297.831	279.38
298.062	273.38
298.292	269.38
298.523	279.38
298.753	285.38
298.984	272.38
299.214	291.38
299.445	287.38
299.675	294.38
299.905	295.38
300.136	287.38
300.366	283.38
300.597	283.38
300.827	307.38
301.057	297.38
301.288	323.38
301.518	310.38
301.748	298.38
301.979	310.38
302.209	309.38
302.439	290.38
302.669	324.38
302.9	309.38
303.13	317.38
303.36	309.38
303.59	314.38
303.82	316.38
304.051	309.38
304.281	311.38
304.511	292.38
304.741	312.38
304.971	295.38
305.201	311.38
305.431	304.38
305.661	301.38
305.891	311.38
306.121	304.38
306.352	329.38
306.582	332.38
306.812	297.38
307.042	326.38
307.272	305.38
307.502	320.38
307.731	328.38
307.961	291.38
308.191	304.38
308.421	316.38
308.651	335.38
308.881	317.38
309.111	320.38
309.341	323.38
309.571	333.38
309.8	349.38
310.03	364.38
310.26	357.38
310.49	366.38
310.72	366.38
310.949	378.38
311.179	391.38
311.409	379.38
311.639	352.38
311.868	358.38
312.098	366.38
312.328	380.38
312.557	387.38
312.787	415.38
313.017	387.38
313.246	370.38
313.476	349.38
313.706	343.38
313.935	389.38
314.165	379.38
314.394	394.38
314.624	388.38
314.853	379.38
315.083	362.38
315.312	366.38
315.542	348.38
315.771	341.38
316.001	336.38
316.23	360.38
316.46	355.38
316.689	359.38
316.919	345.38
317.148	390.38
317.377	362.38
317.607	379.38
317.836	352.38
318.065	356.38
318.295	374.38
318.524	372.38
318.753	351.38
318.983	358.38
319.212	349.38
319.441	368.38
319.67	389.38
319.9	396.38
320.129	369.38
320.358	357.38
320.587	387.38
320.816	375.38
321.046	382.38
321.275	381.38
321.504	392.38
321.733	396.38
321.962	388.38
322.191	410.38
322.42	425.38
322.649	453.38
322.878	465.38
323.108	472.38
323.337	495.38
323.566	507.38
323.795	536.38
324.024	630.38
324.253	743.38
324.482	1093.38
324.71	1677.38
324.939	2473.38
325.168	2191.38
325.397	1095.38
325.626	721.38
325.855	585.38
326.084	533.38
326.313	537.38
326.542	515.38
326.77	576.38
326.999	687.38
327.228	977.38
327.457	1492.38
327.686	1886.38
327.914	1234.38
328.143	797.38
328.372	671.38
328.6	640.38
328.829	569.38
329.058	614.38
329.287	604.38
329.515	579.38
329.744	523.38
329.972	530.38
330.201	555.38
330.43	614.38
330.658	612.38
330.887	640.38
331.115	629.38
331.344	529.38
331.572	502.38
331.801	461.38
332.03	451.38
332.258	457.38
332.486	426.38
332.715	413.38
332.943	450.38
333.172	421.38
333.4	431.38
333.629	454.38
333.857	470.38
334.085	465.38
334.314	485.38
334.542	539.38
334.771	575.38
334.999	483.38
335.227	455.38
335.455	433.38
335.684	425.38
335.912	416.38
336.14	413.38
336.369	406.38
336.597	445.38
336.825	398.38
337.053	411.38
337.281	404.38
337.51	403.38
337.738	395.38
337.966	394.38
338.194	410.38
338.422	417.38
338.65	402.38
338.878	409.38
339.106	395.38
339.334	393.38
339.562	406.38
339.79	407.38
340.018	401.38
340.246	410.38
340.474	409.38
340.702	389.38
340.93	389.38
341.158	390.38
341.386	387.38
341.614	412.38
341.842	422.38
342.07	367.38
342.298	393.38
342.526	399.38
342.754	374.38
342.981	383.38
343.209	381.38
343.437	383.38
343.665	381.38
343.893	388.38
344.12	403.38
344.348	408.38
344.576	393.38
344.804	390.38
345.031	409.38
345.259	439.38
345.487	412.38
345.714	405.38
345.942	406.38
346.17	383.38
346.397	392.38
346.625	367.38
346.853	365.38
347.08	388.38
347.308	411.38
347.535	408.38
347.763	407.38
347.99	383.38
348.218	407.38
348.445	427.38
348.673	406.38
348.9	387.38
349.128	373.38
349.355	356.38
349.583	378.38
349.81	369.38
350.037	371.38
350.265	379.38
350.492	378.38
350.72	389.38
350.947	393.38
351.174	399.38
351.402	411.38
351.629	382.38
351.856	389.38
352.083	404.38
352.311	415.38
352.538	413.38
352.765	413.38
352.992	396.38
353.22	380.38
353.447	393.38
353.674	414.38
353.901	366.38
354.128	373.38
354.355	379.38
354.583	373.38
354.81	364.38
355.037	357.38
355.264	365.38
355.491	357.38
355.718	354.38
355.945	340.38
356.172	345.38
356.399	338.38
356.626	339.38
356.853	327.38
357.08	343.38
357.307	356.38
357.534	345.38
357.761	345.38
357.988	350.38
358.215	364.38
358.441	340.38
358.668	364.38
358.895	371.38
359.122	373.38
359.349	357.38
359.576	403.38
359.802	413.38
360.029	441.38
360.256	460.38
360.483	447.38
360.709	411.38
360.936	400.38
361.163	371.38
361.39	401.38
361.616	391.38
361.843	371.38
362.07	391.38
362.296	400.38
362.523	385.38
362.749	383.38
362.976	398.38
363.203	368.38
363.429	372.38
363.656	370.38
363.882	378.38
364.109	349.38
364.335	350.38
364.562	364.38
364.788	358.38
365.015	365.38
365.241	371.38
365.468	351.38
365.694	377.38
365.92	359.38
366.147	373.38
366.373	345.38
366.599	370.38
366.826	356.38
367.052	364.38
367.278	382.38
367.505	361.38
367.731	349.38
367.957	382.38
368.184	359.38
368.41	361.38
368.636	385.38
368.862	381.38
369.089	358.38
369.315	370.38
369.541	332.38
369.767	363.38
369.993	375.38
370.219	355.38
370.445	369.38
370.672	364.38
370.898	363.38
371.124	337.38
371.35	363.38
371.576	351.38
371.802	356.38
372.028	362.38
372.254	353.38
372.48	354.38
372.706	355.38
372.932	364.38
373.158	355.38
373.384	364.38
373.61	365.38
373.835	352.38
374.061	343.38
374.287	364.38
374.513	358.38
374.739	365.38
374.965	349.38
375.191	334.38
375.416	365.38
375.642	345.38
375.868	379.38
376.094	361.38
376.319	366.38
376.545	332.38
376.771	350.38
376.997	350.38
377.222	337.38
377.448	365.38
377.674	338.38
377.899	349.38
378.125	348.38
378.35	351.38
378.576	347.38
378.802	340.38
379.027	357.38
379.253	351.38
379.478	331.38
379.704	349.38
379.929	345.38
380.155	369.38
380.38	339.38
380.606	353.38
380.831	355.38
381.057	355.38
381.282	347.38
381.507	362.38
381.733	357.38
381.958	360.38
382.184	365.38
382.409	362.38
382.634	375.38
382.86	361.38
383.085	351.38
383.31	344.38
383.535	378.38
383.761	365.38
383.986	373.38
384.211	350.38
384.436	372.38
384.662	364.38
384.887	367.38
385.112	356.38
385.337	359.38
385.562	367.38
385.787	367.38
386.013	382.38
386.238	377.38
386.463	368.38
386.688	383.38
386.913	355.38
387.138	376.38
387.363	375.38
387.588	364.38
387.813	366.38
388.038	378.38
388.263	381.38
388.488	374.38
388.713	363.38
388.938	399.38
389.163	391.38
389.387	374.38
389.612	384.38
389.837	355.38
390.062	359.38
390.287	358.38
390.512	375.38
390.736	367.38
390.961	371.38
391.186	356.38
391.411	371.38
391.636	355.38
391.86	371.38
392.085	362.38
392.31	371.38
392.534	370.38
392.759	371.38
392.984	383.38
393.208	387.38
393.433	395.38
393.658	387.38
393.882	380.38
394.107	380.38
394.331	372.38
394.556	365.38
394.78	383.38
395.005	383.38
395.229	382.38
395.454	380.38
395.678	376.38
395.903	398.38
396.127	411.38
396.352	424.38
396.576	401.38
396.801	391.38
397.025	396.38
397.249	392.38
397.474	412.38
397.698	393.38
397.922	399.38
398.147	421.38
398.371	427.38
398.595	398.38
398.82	418.38
399.044	421.38
399.268	443.38
399.492	447.38
399.717	461.38
399.941	463.38
400.165	522.38
400.389	528.38
400.613	499.38
400.837	443.38
401.062	449.38
401.286	428.38
401.51	422.38
401.734	420.38
401.958	426.38
402.182	426.38
402.406	453.38
402.63	445.38
402.854	441.38
403.078	429.38
403.302	433.38
403.526	443.38
403.75	432.38
403.974	427.38
404.198	448.38
404.422	449.38
404.645	437.38
404.869	457.38
405.093	490.38
405.317	515.38
405.541	556.38
405.765	483.38
405.988	467.38
406.212	483.38
406.436	523.38
406.66	522.38
406.883	465.38
407.107	508.38
407.331	557.38
407.555	604.38
407.778	585.38
408.002	537.38
408.226	490.38
408.449	484.38
408.673	493.38
408.896	521.38
409.12	568.38
409.344	529.38
409.567	477.38
409.791	468.38
410.014	436.38
410.238	440.38
410.461	444.38
410.685	461.38
410.908	446.38
411.132	505.38
411.355	540.38
411.578	502.38
411.802	463.38
412.025	463.38
412.249	467.38
412.472	478.38
412.695	505.38
412.919	528.38
413.142	449.38
413.365	439.38
413.589	446.38
413.812	422.38
414.035	403.38
414.258	429.38
414.482	431.38
414.705	422.38
414.928	422.38
415.151	397.38
415.374	406.38
415.597	425.38
415.821	408.38
416.044	420.38
416.267	415.38
416.49	411.38
416.713	417.38
416.936	414.38
417.159	404.38
417.382	423.38
417.605	432.38
417.828	431.38
418.051	453.38
418.274	465.38
418.497	436.38
418.72	414.38
418.943	414.38
419.166	427.38
419.389	451.38
419.611	446.38
419.834	445.38
420.057	441.38
420.28	457.38
420.503	430.38
420.726	451.38
420.948	464.38
421.171	500.38
421.394	535.38
421.617	502.38
421.839	466.38
422.062	475.38
422.285	464.38
422.507	519.38
422.73	585.38
422.953	577.38
423.175	494.38
423.398	485.38
423.621	491.38
423.843	488.38
424.066	508.38
424.288	485.38
424.511	490.38
424.733	553.38
424.956	629.38
425.178	604.38
425.401	606.38
425.623	619.38
425.846	525.38
426.068	503.38
426.291	494.38
426.513	489.38
426.735	501.38
426.958	543.38
427.18	629.38
427.402	732.38
427.625	846.38
427.847	737.38
428.069	620.38
428.292	571.38
428.514	499.38
428.736	458.38
428.958	488.38
429.181	468.38
429.403	470.38
429.625	462.38
429.847	492.38
430.069	565.38
430.292	563.38
430.514	493.38
430.736	454.38
430.958	447.38
431.18	443.38
431.402	440.38
431.624	417.38
431.846	387.38
432.068	420.38
432.29	423.38
432.512	447.38
432.734	427.38
432.956	431.38
433.178	440.38
433.4	441.38
433.622	444.38
433.844	436.38
434.066	416.38
434.287	398.38
434.509	417.38
434.731	453.38
434.953	423.38
435.175	444.38
435.397	471.38
435.618	472.38
435.84	544.38
436.062	631.38
436.284	686.38
436.505	575.38
436.727	531.38
436.949	480.38
437.17	467.38
437.392	474.38
437.614	454.38
437.835	488.38
438.057	639.38
438.278	690.38
438.5	712.38
438.721	770.38
438.943	750.38
439.165	609.38
439.386	560.38
439.608	512.38
439.829	517.38
440.05	558.38
440.272	608.38
440.493	554.38
440.715	518.38
440.936	478.38
441.158	463.38
441.379	464.38
441.6	483.38
441.822	496.38
442.043	512.38
442.264	630.38
442.486	661.38
442.707	536.38
442.928	513.38
443.149	510.38
443.371	567.38
443.592	584.38
443.813	683.38
444.034	709.38
444.255	591.38
444.476	525.38
444.698	490.38
444.919	479.38
445.14	592.38
445.361	547.38
445.582	539.38
445.803	623.38
446.024	734.38
446.245	734.38
446.466	656.38
446.687	562.38
446.908	489.38
447.129	477.38
447.35	483.38
447.571	475.38
447.792	440.38
448.013	460.38
448.234	505.38
448.455	569.38
448.675	655.38
448.896	758.38
449.117	659.38
449.338	634.38
449.559	715.38
449.779	817.38
450	631.38
450.221	532.38
450.442	486.38
450.662	462.38
450.883	468.38
451.104	481.38
451.324	456.38
451.545	431.38
451.766	419.38
451.986	407.38
452.207	409.38
452.428	401.38
452.648	433.38
452.869	405.38
453.089	442.38
453.31	447.38
453.53	414.38
453.751	421.38
453.971	439.38
454.192	437.38
454.412	441.38
454.633	411.38
454.853	402.38
455.073	411.38
455.294	453.38
455.514	533.38
455.734	525.38
455.955	423.38
456.175	395.38
456.395	369.38
456.616	373.38
456.836	379.38
457.056	402.38
457.276	392.38
457.497	383.38
457.717	390.38
457.937	386.38
458.157	400.38
458.377	399.38
458.598	419.38
458.818	492.38
459.038	579.38
459.258	601.38
459.478	499.38
459.698	464.38
459.918	423.38
460.138	406.38
460.358	404.38
460.578	405.38
460.798	424.38
461.018	438.38
461.238	433.38
461.458	430.38
461.678	412.38
461.898	416.38
462.118	413.38
462.338	439.38
462.558	407.38
462.777	427.38
462.997	437.38
463.217	441.38
463.437	443.38
463.657	435.38
463.876	425.38
464.096	431.38
464.316	443.38
464.536	451.38
464.755	469.38
464.975	462.38
465.195	500.38
465.414	597.38
465.634	502.38
465.854	446.38
466.073	442.38
466.293	415.38
466.512	408.38
466.732	409.38
466.951	431.38
467.171	420.38
467.391	423.38
467.61	416.38
467.829	435.38
468.049	423.38
468.268	419.38
468.488	415.38
468.707	399.38
468.927	394.38
469.146	384.38
469.365	379.38
469.585	393.38
469.804	394.38
470.023	429.38
470.243	433.38
470.462	416.38
470.681	442.38
470.901	433.38
471.12	420.38
471.339	415.38
471.558	432.38
471.777	430.38
471.997	424.38
472.216	427.38
472.435	484.38
472.654	468.38
472.873	431.38
473.092	424.38
473.311	420.38
473.53	444.38
473.749	457.38
473.968	490.38
474.187	616.38
474.406	610.38
474.625	483.38
474.844	437.38
475.063	423.38
475.282	438.38
475.501	443.38
475.72	431.38
475.939	428.38
476.158	430.38
476.377	427.38
476.596	448.38
476.814	437.38
477.033	448.38
477.252	470.38
477.471	461.38
477.69	425.38
477.908	460.38
478.127	462.38
478.346	462.38
478.564	461.38
478.783	480.38
479.002	480.38
479.22	496.38
479.439	491.38
479.658	491.38
479.876	501.38
480.095	505.38
480.313	541.38
480.532	520.38
480.751	495.38
480.969	533.38
481.188	592.38
481.406	649.38
481.624	579.38
481.843	521.38
482.061	500.38
482.28	495.38
482.498	500.38
482.717	491.38
482.935	489.38
483.153	489.38
483.372	501.38
483.59	494.38
483.808	505.38
484.027	507.38
484.245	501.38
484.463	491.38
484.681	485.38
484.9	483.38
485.118	506.38
485.336	505.38
485.554	512.38
485.772	526.38
485.99	509.38
486.209	519.38
486.427	499.38
486.645	521.38
486.863	545.38
487.081	557.38
487.299	537.38
487.517	546.38
487.735	533.38
487.953	528.38
488.171	521.38
488.389	522.38
488.607	553.38
488.825	544.38
489.043	554.38
489.261	533.38
489.479	521.38
489.696	537.38
489.914	547.38
490.132	543.38
490.35	547.38
490.568	553.38
490.786	557.38
491.003	561.38
491.221	598.38
491.439	597.38
491.657	586.38
491.874	611.38
492.092	601.38
492.31	617.38
492.527	629.38
492.745	611.38
492.963	629.38
493.18	589.38
493.398	624.38
493.615	613.38
493.833	637.38
494.05	618.38
494.268	608.38
494.485	611.38
494.703	606.38
494.92	643.38
495.138	625.38
495.355	606.38
495.573	618.38
495.79	611.38
496.008	630.38
496.225	643.38
496.442	629.38
496.66	621.38
496.877	629.38
497.094	631.38
497.312	630.38
497.529	641.38
497.746	650.38
497.963	648.38
498.181	674.38
498.398	683.38
498.615	677.38
498.832	680.38
499.049	666.38
499.267	709.38
499.484	697.38
499.701	741.38
499.918	735.38
500.135	717.38
500.352	748.38
500.569	796.38
500.786	790.38
501.003	822.38
501.22	781.38
501.437	757.38
501.654	774.38
501.871	773.38
502.088	751.38
502.305	722.38
502.522	688.38
502.739	675.38
502.956	665.38
503.172	665.38
503.389	655.38
503.606	667.38
503.823	633.38
504.04	639.38
504.256	650.38
504.473	632.38
504.69	620.38
504.907	616.38
505.123	619.38
505.34	615.38
505.557	627.38
505.773	615.38
505.99	591.38
506.207	608.38
506.423	597.38
506.64	604.38
506.856	609.38
507.073	599.38
507.289	586.38
507.506	603.38
507.722	610.38
507.939	639.38
508.155	603.38
508.372	599.38
508.588	593.38
508.805	591.38
509.021	598.38
509.238	594.38
509.454	598.38
509.67	615.38
509.887	602.38
510.103	614.38
510.319	604.38
510.536	752.38
510.752	1219.38
510.968	1025.38
511.184	615.38
511.401	605.38
511.617	591.38
511.833	595.38
512.049	564.38
512.265	565.38
512.481	574.38
512.698	581.38
512.914	555.38
513.13	567.38
513.346	567.38
513.562	575.38
513.778	585.38
513.994	582.38
514.21	593.38
514.426	612.38
514.642	654.38
514.858	709.38
515.074	749.38
515.29	897.38
515.506	1386.38
515.721	1118.38
515.937	734.38
516.153	652.38
516.369	618.38
516.585	632.38
516.801	590.38
517.016	591.38
517.232	582.38
517.448	544.38
517.664	582.38
517.879	556.38
518.095	563.38
518.311	554.38
518.527	557.38
518.742	577.38
518.958	569.38
519.173	568.38
519.389	575.38
519.605	554.38
519.82	560.38
520.036	580.38
520.251	611.38
520.467	660.38
520.682	655.38
520.898	651.38
521.113	679.38
521.329	732.38
521.544	857.38
521.76	1094.38
521.975	1875.38
522.19	1820.38
522.406	964.38
522.621	695.38
522.836	610.38
523.052	590.38
523.267	559.38
523.482	530.38
523.698	543.38
523.913	543.38
524.128	527.38
524.343	490.38
524.559	493.38
524.774	500.38
524.989	489.38
525.204	481.38
525.419	518.38
525.634	486.38
525.849	475.38
526.064	464.38
526.28	456.38
526.495	457.38
526.71	467.38
526.925	465.38
527.14	451.38
527.355	456.38
527.57	473.38
527.785	468.38
527.999	463.38
528.214	457.38
528.429	472.38
528.644	473.38
528.859	490.38
529.074	488.38
529.289	480.38
529.503	612.38
529.718	563.38
529.933	497.38
530.148	475.38
530.363	472.38
530.577	463.38
530.792	459.38
531.007	458.38
531.221	463.38
531.436	438.38
531.651	430.38
531.865	439.38
532.08	433.38
532.295	431.38
532.509	438.38
532.724	429.38
532.938	440.38
533.153	440.38
533.367	434.38
533.582	458.38
533.796	432.38
534.011	424.38
534.225	435.38
534.44	423.38
534.654	421.38
534.868	415.38
535.083	431.38
535.297	392.38
535.511	461.38
535.726	412.38
535.94	423.38
536.154	448.38
536.369	419.38
536.583	411.38
536.797	421.38
537.011	401.38
537.225	417.38
537.44	421.38
537.654	417.38
537.868	420.38
538.082	420.38
538.296	429.38
538.51	406.38
538.724	417.38
538.938	404.38
539.153	435.38
539.367	407.38
539.581	439.38
539.795	421.38
540.009	398.38
540.222	407.38
540.436	419.38
540.65	415.38
540.864	423.38
541.078	426.38
541.292	442.38
541.506	414.38
541.72	425.38
541.934	420.38
542.147	422.38
542.361	418.38
542.575	419.38
542.789	404.38
543.002	400.38
543.216	431.38
543.43	453.38
543.644	423.38
543.857	425.38
544.071	400.38
544.285	417.38
544.498	424.38
544.712	409.38
544.925	400.38
545.139	399.38
545.352	403.38
545.566	412.38
545.779	396.38
545.993	393.38
546.206	411.38
546.42	394.38
546.633	405.38
546.847	402.38
547.06	411.38
547.274	406.38
547.487	381.38
547.7	414.38
547.914	379.38
548.127	415.38
548.34	401.38
548.554	391.38
548.767	394.38
548.98	393.38
549.193	382.38
549.407	383.38
549.62	384.38
549.833	389.38
550.046	372.38
550.259	387.38
550.473	391.38
550.686	392.38
550.899	397.38
551.112	378.38
551.325	378.38
551.538	388.38
551.751	376.38
551.964	382.38
552.177	373.38
552.39	381.38
552.603	383.38
552.816	381.38
553.029	400.38
553.242	385.38
553.455	397.38
553.667	407.38
553.88	424.38
554.093	417.38
554.306	392.38
554.519	378.38
554.732	392.38
554.944	387.38
555.157	352.38
555.37	364.38
555.583	369.38
555.795	373.38
556.008	357.38
556.221	364.38
556.433	369.38
556.646	359.38
556.859	348.38
557.071	352.38
557.284	365.38
557.496	354.38
557.709	347.38
557.921	367.38
558.134	354.38
558.346	346.38
558.559	357.38
558.771	358.38
558.984	342.38
559.196	345.38
559.409	361.38
559.621	355.38
559.833	341.38
560.046	349.38
560.258	324.38
560.47	346.38
560.683	340.38
560.895	351.38
561.107	336.38
561.32	322.38
561.532	347.38
561.744	352.38
561.956	334.38
562.168	362.38
562.381	332.38
562.593	372.38
562.805	346.38
563.017	342.38
563.229	351.38
563.441	332.38
563.653	349.38
563.865	327.38
564.077	346.38
564.289	355.38
564.501	362.38
564.713	341.38
564.925	346.38
565.137	359.38
565.349	376.38
565.561	356.38
565.773	375.38
565.985	368.38
566.197	376.38
566.408	383.38
566.62	391.38
566.832	371.38
567.044	410.38
567.255	399.38
567.467	390.38
567.679	395.38
567.891	404.38
568.102	407.38
568.314	412.38
568.526	381.38
568.737	384.38
568.949	395.38
569.161	360.38
569.372	351.38
569.584	343.38
569.795	356.38
570.007	349.38
570.218	402.38
570.43	377.38
570.641	332.38
570.853	331.38
571.064	353.38
571.276	333.38
571.487	315.38
571.698	318.38
571.91	335.38
572.121	307.38
572.333	327.38
572.544	326.38
572.755	314.38
572.966	321.38
573.178	305.38
573.389	329.38
573.6	318.38
573.811	312.38
574.023	321.38
574.234	302.38
574.445	294.38
574.656	296.38
574.867	303.38
575.078	301.38
575.289	305.38
575.501	287.38
575.712	289.38
575.923	292.38
576.134	297.38
576.345	296.38
576.556	294.38
576.767	303.38
576.978	296.38
577.188	287.38
577.399	291.38
577.61	299.38
577.821	298.38
578.032	297.38
578.243	344.38
578.454	588.38
578.665	420.38
578.875	312.38
579.086	291.38
579.297	307.38
579.508	279.38
579.718	293.38
579.929	280.38
580.14	301.38
580.35	262.38
580.561	287.38
580.772	285.38
580.982	284.38
581.193	286.38
581.403	285.38
581.614	285.38
581.825	292.38
582.035	279.38
582.246	263.38
582.456	291.38
582.667	296.38
582.877	277.38
583.087	274.38
583.298	271.38
583.508	298.38
583.719	266.38
583.929	275.38
584.139	271.38
584.35	273.38
584.56	281.38
584.77	283.38
584.981	279.38
585.191	281.38
585.401	283.38
585.611	283.38
585.821	272.38
586.032	289.38
586.242	286.38
586.452	253.38
586.662	273.38
586.872	268.38
587.082	281.38
587.292	276.38
587.502	277.38
587.713	269.38
587.923	254.38
588.133	267.38
588.343	259.38
588.553	247.38
588.762	281.38
588.972	268.38
589.182	278.38
589.392	261.38
589.602	281.38
589.812	256.38
590.022	276.38
590.232	262.38
590.441	249.38
590.651	277.38
590.861	268.38
591.071	247.38
591.281	271.38
591.49	277.38
591.7	271.38
591.91	272.38
592.119	263.38
592.329	264.38
592.539	271.38
592.748	267.38
592.958	254.38
593.167	267.38
593.377	259.38
593.587	271.38
593.796	277.38
594.006	278.38
594.215	273.38
594.424	262.38
594.634	266.38
594.843	256.38
595.053	281.38
595.262	271.38
595.472	253.38
595.681	252.38
595.89	267.38
596.1	253.38
596.309	254.38
596.518	260.38
596.727	254.38
596.937	251.38
597.146	250.38
597.355	233.38
597.564	261.38
597.774	231.38
597.983	245.38
598.192	251.38
598.401	248.38
598.61	264.38
598.819	239.38
599.028	243.38
599.237	233.38
599.446	224.38
599.655	234.38
599.864	244.38
600.073	245.38
600.282	218.38
600.491	245.38
600.7	243.38
600.909	234.38
601.118	230.38
601.327	232.38
601.536	245.38
601.745	240.38
601.953	227.38
602.162	241.38
602.371	243.38
602.58	251.38
602.789	224.38
602.997	229.38
603.206	224.38
603.415	223.38
603.623	230.38
603.832	224.38
604.041	227.38
604.249	215.38
604.458	240.38
604.666	232.38
604.875	218.38
605.084	224.38
605.292	236.38
605.501	237.38
605.709	213.38
605.918	246.38
606.126	236.38
606.334	224.38
606.543	226.38
606.751	219.38
606.96	215.38
607.168	223.38
607.376	199.38
607.585	236.38
607.793	219.38
608.001	233.38
608.21	224.38
608.418	215.38
608.626	228.38
608.834	224.38
609.043	225.38
609.251	199.38
609.459	221.38
609.667	224.38
609.875	231.38
610.083	225.38
610.291	218.38
610.499	208.38
610.707	227.38
610.916	212.38
611.124	234.38
611.332	235.38
611.54	225.38
611.748	227.38
611.955	230.38
612.163	220.38
612.371	243.38
612.579	210.38
612.787	217.38
612.995	225.38
613.203	235.38
613.411	228.38
613.618	204.38
613.826	212.38
614.034	218.38
614.242	207.38
614.449	226.38
614.657	224.38
614.865	227.38
615.072	225.38
615.28	231.38
615.488	218.38
615.695	215.38
615.903	222.38
616.111	219.38
616.318	209.38
616.526	215.38
616.733	209.38
616.941	227.38
617.148	221.38
617.356	231.38
617.563	209.38
617.771	222.38
617.978	211.38
618.185	213.38
618.393	220.38
618.6	203.38
618.807	215.38
619.015	221.38
619.222	213.38
619.429	208.38
619.637	213.38
619.844	204.38
620.051	196.38
620.258	211.38
620.466	211.38
620.673	208.38
620.88	196.38
621.087	214.38
621.294	210.38
621.501	209.38
621.708	206.38
621.915	198.38
622.122	195.38
622.329	212.38
622.536	223.38
622.743	215.38
622.95	201.38
623.157	206.38
623.364	215.38
623.571	207.38
623.778	203.38
623.985	205.38
624.192	206.38
624.399	213.38
624.606	203.38
624.812	193.38
625.019	228.38
625.226	188.38
625.433	202.38
625.639	198.38
625.846	204.38
626.053	201.38
626.259	193.38
626.466	197.38
626.673	197.38
626.879	185.38
627.086	199.38
627.293	193.38
627.499	184.38
627.706	186.38
627.912	208.38
628.119	180.38
628.325	202.38
628.532	196.38
628.738	191.38
628.945	180.38
629.151	179.38
629.357	181.38
629.564	184.38
629.77	203.38
629.976	165.38
630.183	180.38
630.389	173.38
630.595	177.38
630.802	188.38
631.008	191.38
631.214	208.38
631.42	206.38
631.627	182.38
631.833	171.38
632.039	186.38
632.245	169.38
632.451	170.38
632.657	180.38
632.863	172.38
633.069	195.38
633.275	170.38
633.481	172.38
633.688	166.38
633.893	189.38
634.099	178.38
634.305	173.38
634.511	167.38
634.717	184.38
634.923	168.38
635.129	184.38
635.335	171.38
635.541	170.38
635.747	168.38
635.952	165.38
636.158	159.38
636.364	180.38
636.57	187.38
636.775	170.38
636.981	177.38
637.187	185.38
637.392	178.38
637.598	163.38
637.804	168.38
638.009	169.38
638.215	169.38
638.421	161.38
638.626	195.38
638.832	175.38
639.037	171.38
639.243	169.38
639.448	165.38
639.654	172.38
639.859	176.38
640.065	152.38
640.27	172.38
640.475	150.38
640.681	172.38
640.886	168.38
641.091	173.38
641.297	176.38
641.502	166.38
641.707	173.38
641.913	174.38
642.118	171.38
642.323	161.38
642.528	168.38
642.733	160.38
642.939	183.38
643.144	164.38
643.349	173.38
643.554	158.38
643.759	169.38
643.964	170.38
644.169	160.38
644.374	163.38
644.579	167.38
644.784	153.38
644.989	150.38
645.194	159.38
645.399	175.38
645.604	161.38
645.809	175.38
646.014	128.38
646.219	155.38
646.423	152.38
646.628	151.38
646.833	163.38
647.038	166.38
647.243	167.38
647.447	162.38
647.652	155.38
647.857	155.38
648.062	166.38
648.266	151.38
648.471	156.38
648.676	157.38
648.88	154.38
649.085	152.38
649.289	158.38
649.494	156.38
649.698	173.38
649.903	170.38
650.107	156.38
650.312	151.38
650.516	169.38
650.721	156.38
650.925	145.38
651.13	146.38
651.334	160.38
651.539	159.38
651.743	146.38
651.947	140.38
652.152	155.38
652.356	146.38
652.56	139.38
652.764	134.38
652.969	144.38
653.173	137.38
653.377	135.38
653.581	144.38
653.785	131.38
653.99	121.38
654.194	129.38
654.398	131.38
654.602	116.38
654.806	139.38
655.01	145.38
655.214	130.38
655.418	147.38
655.622	131.38
655.826	132.38
656.03	127.38
656.234	133.38
656.438	139.38
656.642	123.38
656.846	117.38
657.049	117.38
657.253	136.38
657.457	104.38
657.661	104.38
657.865	109.38
658.068	123.38
658.272	103.38
658.476	105.38
658.68	105.38
658.883	106.38
659.087	94.38
659.291	106.38
659.494	96.38
659.698	104.38
659.901	96.38
660.105	89.38
660.309	94.38
660.512	93.38
660.716	103.38
660.919	96.38
661.123	92.38
661.326	105.38
661.53	99.38
661.733	100.38
661.936	85.38
662.14	94.38
662.343	82.38
662.546	102.38
662.75	93.38
662.953	94.38
663.156	92.38
663.36	100.38
663.563	87.38
663.766	94.38
663.969	83.38
664.173	78.38
664.376	87.38
664.579	100.38
664.782	99.38
664.985	91.38
665.188	89.38
665.391	89.38
665.594	102.38
665.797	74.38
666	88.38
666.203	77.38
666.406	79.38
666.609	80.38
666.812	87.38
667.015	82.38
667.218	87.38
667.421	81.38
667.624	79.38
667.827	90.38
668.03	89.38
668.232	83.38
668.435	85.38
668.638	89.38
668.841	92.38
669.043	84.38
669.246	84.38
669.449	85.38
669.651	78.38
669.854	88.38
670.057	67.38
670.259	81.38
670.462	84.38
670.665	77.38
670.867	77.38
671.07	91.38
671.272	90.38
671.475	92.38
671.677	80.38
671.88	79.38
672.082	84.38
672.284	73.38
672.487	88.38
672.689	88.38
672.892	93.38
