Data from 1972.PennyLincolnUp.Lamp.En5.5.200Scan.071719.P1._HRD10591_15-27-42-843.txt Node
Date: Thu Jul 18 15:27:42 EDT 2019
User: cochatt
Spectrometer: HR+D1059
Trigger mode: 1
Integration Time (sec): 1.000000E-1
Scans to average: 1
Electric dark correction enabled: true
Nonlinearity correction enabled: false
Boxcar width: 0
XAxis mode: Wavelengths
Number of Pixels in Spectrum: 2048
>>>>>Begin Spectral Data<<<<<
223.165	-7.12
223.4	-7.12
223.635	-7.12
223.869	-8.12
224.104	-24.12
224.338	-7.12
224.573	-6.12
224.808	2.88
225.042	-17.12
225.277	-11.12
225.511	-5.12
225.746	5.88
225.98	5.88
226.215	2.88
226.449	13.88
226.683	12.88
226.918	22.88
227.152	18.88
227.387	47.88
227.621	35.88
227.856	37.88
228.09	46.88
228.324	56.88
228.559	56.88
228.793	73.88
229.027	99.88
229.262	96.88
229.496	112.88
229.73	130.88
229.964	170.88
230.199	127.88
230.433	109.88
230.667	119.88
230.901	128.88
231.136	110.88
231.37	126.88
231.604	129.88
231.838	101.88
232.072	110.88
232.306	110.88
232.541	113.88
232.775	116.88
233.009	110.88
233.243	112.88
233.477	108.88
233.711	101.88
233.945	107.88
234.179	121.88
234.413	108.88
234.647	111.88
234.881	113.88
235.115	119.88
235.349	115.88
235.583	101.88
235.817	111.88
236.051	122.88
236.285	118.88
236.519	113.88
236.753	126.88
236.987	135.88
237.221	193.88
237.455	248.88
237.689	182.88
237.922	139.88
238.156	133.88
238.39	137.88
238.624	129.88
238.858	134.88
239.091	121.88
239.325	121.88
239.559	132.88
239.793	111.88
240.027	127.88
240.26	135.88
240.494	170.88
240.728	143.88
240.961	155.88
241.195	150.88
241.429	143.88
241.662	132.88
241.896	134.88
242.13	143.88
242.363	134.88
242.597	136.88
242.83	130.88
243.064	144.88
243.298	150.88
243.531	152.88
243.765	154.88
243.998	129.88
244.232	140.88
244.465	145.88
244.699	146.88
244.932	140.88
245.166	143.88
245.399	140.88
245.633	144.88
245.866	127.88
246.099	147.88
246.333	135.88
246.566	153.88
246.8	156.88
247.033	150.88
247.266	160.88
247.5	179.88
247.733	172.88
247.966	164.88
248.2	159.88
248.433	176.88
248.666	184.88
248.899	171.88
249.133	202.88
249.366	194.88
249.599	199.88
249.832	175.88
250.066	190.88
250.299	205.88
250.532	186.88
250.765	202.88
250.998	233.88
251.231	226.88
251.465	209.88
251.698	203.88
251.931	198.88
252.164	202.88
252.397	176.88
252.63	196.88
252.863	210.88
253.096	216.88
253.329	246.88
253.562	233.88
253.795	219.88
254.028	208.88
254.261	207.88
254.494	241.88
254.727	252.88
254.96	272.88
255.193	272.88
255.426	247.88
255.659	228.88
255.892	241.88
256.124	222.88
256.357	227.88
256.59	239.88
256.823	218.88
257.056	221.88
257.289	229.88
257.521	205.88
257.754	209.88
257.987	227.88
258.22	223.88
258.452	201.88
258.685	202.88
258.918	219.88
259.151	221.88
259.383	224.88
259.616	207.88
259.849	214.88
260.081	238.88
260.314	262.88
260.547	274.88
260.779	255.88
261.012	250.88
261.244	234.88
261.477	217.88
261.71	220.88
261.942	231.88
262.175	248.88
262.407	244.88
262.64	222.88
262.872	223.88
263.105	202.88
263.337	213.88
263.57	200.88
263.802	198.88
264.035	211.88
264.267	211.88
264.499	209.88
264.732	228.88
264.964	215.88
265.197	217.88
265.429	223.88
265.661	215.88
265.894	209.88
266.126	212.88
266.358	224.88
266.591	204.88
266.823	213.88
267.055	204.88
267.287	214.88
267.52	210.88
267.752	225.88
267.984	234.88
268.216	223.88
268.448	246.88
268.681	229.88
268.913	229.88
269.145	249.88
269.377	272.88
269.609	266.88
269.841	258.88
270.073	281.88
270.306	284.88
270.538	300.88
270.77	305.88
271.002	293.88
271.234	290.88
271.466	291.88
271.698	305.88
271.93	315.88
272.162	292.88
272.394	318.88
272.626	286.88
272.858	285.88
273.09	289.88
273.322	291.88
273.553	284.88
273.785	276.88
274.017	265.88
274.249	266.88
274.481	246.88
274.713	266.88
274.945	274.88
275.176	268.88
275.408	247.88
275.64	255.88
275.872	250.88
276.104	247.88
276.335	264.88
276.567	271.88
276.799	272.88
277.031	294.88
277.262	301.88
277.494	316.88
277.726	301.88
277.957	289.88
278.189	274.88
278.421	274.88
278.652	275.88
278.884	270.88
279.115	257.88
279.347	262.88
279.579	245.88
279.81	270.88
280.042	256.88
280.273	281.88
280.505	247.88
280.736	260.88
280.968	258.88
281.199	255.88
281.431	272.88
281.662	257.88
281.894	251.88
282.125	255.88
282.356	296.88
282.588	302.88
282.819	307.88
283.051	262.88
283.282	259.88
283.513	267.88
283.745	268.88
283.976	247.88
284.207	271.88
284.439	280.88
284.67	268.88
284.901	265.88
285.132	272.88
285.364	272.88
285.595	269.88
285.826	275.88
286.057	269.88
286.288	272.88
286.52	271.88
286.751	274.88
286.982	270.88
287.213	253.88
287.444	278.88
287.675	264.88
287.906	294.88
288.138	265.88
288.369	281.88
288.6	292.88
288.831	274.88
289.062	284.88
289.293	281.88
289.524	292.88
289.755	278.88
289.986	255.88
290.217	260.88
290.448	284.88
290.679	265.88
290.91	267.88
291.141	266.88
291.371	251.88
291.602	287.88
291.833	269.88
292.064	275.88
292.295	278.88
292.526	277.88
292.757	271.88
292.987	272.88
293.218	280.88
293.449	288.88
293.68	267.88
293.91	272.88
294.141	263.88
294.372	264.88
294.603	279.88
294.833	289.88
295.064	262.88
295.295	294.88
295.525	284.88
295.756	311.88
295.987	325.88
296.217	317.88
296.448	317.88
296.679	294.88
296.909	272.88
297.14	249.88
297.37	266.88
297.601	276.88
297.831	278.88
298.062	275.88
298.292	277.88
298.523	292.88
298.753	289.88
298.984	280.88
299.214	278.88
299.445	281.88
299.675	304.88
299.905	303.88
300.136	290.88
300.366	288.88
300.597	265.88
300.827	312.88
301.057	312.88
301.288	289.88
301.518	300.88
301.748	297.88
301.979	301.88
302.209	305.88
302.439	321.88
302.669	312.88
302.9	302.88
303.13	308.88
303.36	313.88
303.59	327.88
303.82	310.88
304.051	319.88
304.281	317.88
304.511	314.88
304.741	306.88
304.971	288.88
305.201	314.88
305.431	303.88
305.661	319.88
305.891	301.88
306.121	341.88
306.352	300.88
306.582	318.88
306.812	305.88
307.042	293.88
307.272	339.88
307.502	325.88
307.731	294.88
307.961	303.88
308.191	315.88
308.421	325.88
308.651	316.88
308.881	300.88
309.111	307.88
309.341	324.88
309.571	338.88
309.8	345.88
310.03	364.88
310.26	349.88
310.49	353.88
310.72	378.88
310.949	382.88
311.179	408.88
311.409	377.88
311.639	364.88
311.868	356.88
312.098	372.88
312.328	364.88
312.557	382.88
312.787	420.88
313.017	402.88
313.246	390.88
313.476	356.88
313.706	372.88
313.935	374.88
314.165	394.88
314.394	381.88
314.624	360.88
314.853	384.88
315.083	361.88
315.312	356.88
315.542	344.88
315.771	353.88
316.001	361.88
316.23	368.88
316.46	360.88
316.689	358.88
316.919	365.88
317.148	376.88
317.377	366.88
317.607	357.88
317.836	364.88
318.065	355.88
318.295	373.88
318.524	337.88
318.753	354.88
318.983	364.88
319.212	361.88
319.441	359.88
319.67	375.88
319.9	366.88
320.129	362.88
320.358	367.88
320.587	353.88
320.816	374.88
321.046	380.88
321.275	359.88
321.504	375.88
321.733	379.88
321.962	385.88
322.191	412.88
322.42	406.88
322.649	458.88
322.878	448.88
323.108	445.88
323.337	508.88
323.566	524.88
323.795	534.88
324.024	599.88
324.253	735.88
324.482	1046.88
324.71	1637.88
324.939	2370.88
325.168	2083.88
325.397	1080.88
325.626	685.88
325.855	582.88
326.084	516.88
326.313	507.88
326.542	512.88
326.77	554.88
326.999	680.88
327.228	912.88
327.457	1429.88
327.686	1782.88
327.914	1186.88
328.143	769.88
328.372	651.88
328.6	619.88
328.829	569.88
329.058	579.88
329.287	602.88
329.515	568.88
329.744	494.88
329.972	510.88
330.201	525.88
330.43	554.88
330.658	591.88
330.887	628.88
331.115	597.88
331.344	526.88
331.572	488.88
331.801	479.88
332.03	476.88
332.258	455.88
332.486	440.88
332.715	417.88
332.943	425.88
333.172	432.88
333.4	439.88
333.629	432.88
333.857	454.88
334.085	463.88
334.314	472.88
334.542	522.88
334.771	541.88
334.999	488.88
335.227	463.88
335.455	422.88
335.684	417.88
335.912	437.88
336.14	427.88
336.369	408.88
336.597	438.88
336.825	444.88
337.053	433.88
337.281	397.88
337.51	405.88
337.738	414.88
337.966	406.88
338.194	401.88
338.422	420.88
338.65	410.88
338.878	418.88
339.106	422.88
339.334	406.88
339.562	397.88
339.79	385.88
340.018	393.88
340.246	397.88
340.474	413.88
340.702	408.88
340.93	417.88
341.158	414.88
341.386	407.88
341.614	400.88
341.842	412.88
342.07	390.88
342.298	397.88
342.526	386.88
342.754	381.88
342.981	364.88
343.209	388.88
343.437	383.88
343.665	394.88
343.893	379.88
344.12	394.88
344.348	394.88
344.576	409.88
344.804	384.88
345.031	391.88
345.259	417.88
345.487	388.88
345.714	398.88
345.942	392.88
346.17	399.88
346.397	396.88
346.625	398.88
346.853	401.88
347.08	381.88
347.308	375.88
347.535	390.88
347.763	406.88
347.99	397.88
348.218	413.88
348.445	421.88
348.673	403.88
348.9	386.88
349.128	405.88
349.355	382.88
349.583	372.88
349.81	388.88
350.037	373.88
350.265	369.88
350.492	369.88
350.72	389.88
350.947	375.88
351.174	399.88
351.402	398.88
351.629	379.88
351.856	394.88
352.083	412.88
352.311	408.88
352.538	401.88
352.765	414.88
352.992	398.88
353.22	395.88
353.447	392.88
353.674	380.88
353.901	366.88
354.128	374.88
354.355	375.88
354.583	358.88
354.81	352.88
355.037	361.88
355.264	360.88
355.491	353.88
355.718	361.88
355.945	333.88
356.172	350.88
356.399	342.88
356.626	356.88
356.853	363.88
357.08	326.88
357.307	365.88
357.534	341.88
357.761	358.88
357.988	367.88
358.215	352.88
358.441	373.88
358.668	350.88
358.895	369.88
359.122	360.88
359.349	378.88
359.576	379.88
359.802	406.88
360.029	425.88
360.256	440.88
360.483	428.88
360.709	390.88
360.936	384.88
361.163	380.88
361.39	386.88
361.616	400.88
361.843	373.88
362.07	382.88
362.296	366.88
362.523	370.88
362.749	375.88
362.976	375.88
363.203	375.88
363.429	363.88
363.656	366.88
363.882	377.88
364.109	380.88
364.335	355.88
364.562	380.88
364.788	375.88
365.015	374.88
365.241	381.88
365.468	355.88
365.694	358.88
365.92	358.88
366.147	366.88
366.373	356.88
366.599	363.88
366.826	368.88
367.052	351.88
367.278	363.88
367.505	358.88
367.731	368.88
367.957	374.88
368.184	342.88
368.41	357.88
368.636	377.88
368.862	369.88
369.089	374.88
369.315	363.88
369.541	372.88
369.767	374.88
369.993	360.88
370.219	369.88
370.445	363.88
370.672	344.88
370.898	357.88
371.124	361.88
371.35	376.88
371.576	360.88
371.802	363.88
372.028	338.88
372.254	347.88
372.48	357.88
372.706	360.88
372.932	342.88
373.158	364.88
373.384	358.88
373.61	354.88
373.835	365.88
374.061	356.88
374.287	362.88
374.513	372.88
374.739	350.88
374.965	341.88
375.191	358.88
375.416	359.88
375.642	357.88
375.868	359.88
376.094	350.88
376.319	365.88
376.545	360.88
376.771	341.88
376.997	350.88
377.222	356.88
377.448	343.88
377.674	339.88
377.899	334.88
378.125	346.88
378.35	338.88
378.576	342.88
378.802	322.88
379.027	356.88
379.253	353.88
379.478	370.88
379.704	349.88
379.929	340.88
380.155	363.88
380.38	342.88
380.606	367.88
380.831	356.88
381.057	359.88
381.282	347.88
381.507	333.88
381.733	344.88
381.958	349.88
382.184	356.88
382.409	353.88
382.634	361.88
382.86	351.88
383.085	360.88
383.31	365.88
383.535	354.88
383.761	368.88
383.986	362.88
384.211	358.88
384.436	345.88
384.662	364.88
384.887	357.88
385.112	365.88
385.337	373.88
385.562	370.88
385.787	404.88
386.013	375.88
386.238	390.88
386.463	383.88
386.688	378.88
386.913	370.88
387.138	376.88
387.363	375.88
387.588	379.88
387.813	385.88
388.038	358.88
388.263	369.88
388.488	362.88
388.713	376.88
388.938	378.88
389.163	395.88
389.387	384.88
389.612	372.88
389.837	364.88
390.062	385.88
390.287	382.88
390.512	377.88
390.736	361.88
390.961	397.88
391.186	380.88
391.411	382.88
391.636	375.88
391.86	393.88
392.085	384.88
392.31	386.88
392.534	386.88
392.759	377.88
392.984	365.88
393.208	390.88
393.433	400.88
393.658	402.88
393.882	388.88
394.107	378.88
394.331	373.88
394.556	392.88
394.78	389.88
395.005	388.88
395.229	375.88
395.454	381.88
395.678	402.88
395.903	403.88
396.127	398.88
396.352	445.88
396.576	408.88
396.801	392.88
397.025	398.88
397.249	392.88
397.474	386.88
397.698	408.88
397.922	412.88
398.147	403.88
398.371	429.88
398.595	413.88
398.82	427.88
399.044	426.88
399.268	442.88
399.492	454.88
399.717	455.88
399.941	494.88
400.165	529.88
400.389	536.88
400.613	465.88
400.837	446.88
401.062	416.88
401.286	424.88
401.51	415.88
401.734	421.88
401.958	398.88
402.182	425.88
402.406	434.88
402.63	439.88
402.854	436.88
403.078	438.88
403.302	444.88
403.526	442.88
403.75	459.88
403.974	436.88
404.198	440.88
404.422	439.88
404.645	458.88
404.869	452.88
405.093	478.88
405.317	532.88
405.541	552.88
405.765	488.88
405.988	487.88
406.212	490.88
406.436	498.88
406.66	531.88
406.883	488.88
407.107	491.88
407.331	568.88
407.555	591.88
407.778	605.88
408.002	557.88
408.226	528.88
408.449	485.88
408.673	511.88
408.896	536.88
409.12	563.88
409.344	514.88
409.567	472.88
409.791	461.88
410.014	464.88
410.238	442.88
410.461	449.88
410.685	430.88
410.908	462.88
411.132	502.88
411.355	537.88
411.578	508.88
411.802	454.88
412.025	444.88
412.249	453.88
412.472	465.88
412.695	508.88
412.919	506.88
413.142	472.88
413.365	433.88
413.589	430.88
413.812	431.88
414.035	420.88
414.258	438.88
414.482	410.88
414.705	402.88
414.928	429.88
415.151	406.88
415.374	417.88
415.597	414.88
415.821	407.88
416.044	400.88
416.267	408.88
416.49	412.88
416.713	414.88
416.936	428.88
417.159	432.88
417.382	423.88
417.605	418.88
417.828	430.88
418.051	453.88
418.274	444.88
418.497	422.88
418.72	429.88
418.943	418.88
419.166	434.88
419.389	452.88
419.611	452.88
419.834	444.88
420.057	454.88
420.28	450.88
420.503	462.88
420.726	461.88
420.948	456.88
421.171	494.88
421.394	537.88
421.617	473.88
421.839	453.88
422.062	458.88
422.285	462.88
422.507	509.88
422.73	573.88
422.953	601.88
423.175	490.88
423.398	477.88
423.621	462.88
423.843	480.88
424.066	478.88
424.288	489.88
424.511	509.88
424.733	546.88
424.956	646.88
425.178	615.88
425.401	609.88
425.623	634.88
425.846	533.88
426.068	500.88
426.291	506.88
426.513	489.88
426.735	490.88
426.958	557.88
427.18	608.88
427.402	757.88
427.625	841.88
427.847	738.88
428.069	649.88
428.292	565.88
428.514	489.88
428.736	477.88
428.958	468.88
429.181	458.88
429.403	452.88
429.625	464.88
429.847	495.88
430.069	566.88
430.292	546.88
430.514	465.88
430.736	463.88
430.958	450.88
431.18	432.88
431.402	428.88
431.624	405.88
431.846	406.88
432.068	403.88
432.29	417.88
432.512	413.88
432.734	430.88
432.956	423.88
433.178	450.88
433.4	452.88
433.622	435.88
433.844	408.88
434.066	429.88
434.287	434.88
434.509	431.88
434.731	438.88
434.953	426.88
435.175	444.88
435.397	463.88
435.618	484.88
435.84	527.88
436.062	628.88
436.284	711.88
436.505	592.88
436.727	507.88
436.949	487.88
437.17	484.88
437.392	467.88
437.614	444.88
437.835	501.88
438.057	600.88
438.278	724.88
438.5	712.88
438.721	746.88
438.943	733.88
439.165	593.88
439.386	528.88
439.608	500.88
439.829	497.88
440.05	540.88
440.272	572.88
440.493	557.88
440.715	500.88
440.936	470.88
441.158	470.88
441.379	472.88
441.6	482.88
441.822	456.88
442.043	522.88
442.264	623.88
442.486	690.88
442.707	576.88
442.928	526.88
443.149	520.88
443.371	552.88
443.592	553.88
443.813	670.88
444.034	706.88
444.255	565.88
444.476	529.88
444.698	512.88
444.919	497.88
445.14	598.88
445.361	543.88
445.582	538.88
445.803	632.88
446.024	708.88
446.245	740.88
446.466	649.88
446.687	550.88
446.908	515.88
447.129	464.88
447.35	484.88
447.571	456.88
447.792	455.88
448.013	456.88
448.234	480.88
448.455	556.88
448.675	646.88
448.896	756.88
449.117	629.88
449.338	604.88
449.559	716.88
449.779	776.88
450	640.88
450.221	538.88
450.442	475.88
450.662	478.88
450.883	458.88
451.104	479.88
451.324	471.88
451.545	453.88
451.766	418.88
451.986	429.88
452.207	424.88
452.428	411.88
452.648	418.88
452.869	402.88
453.089	418.88
453.31	433.88
453.53	420.88
453.751	404.88
453.971	413.88
454.192	433.88
454.412	444.88
454.633	408.88
454.853	398.88
455.073	417.88
455.294	429.88
455.514	500.88
455.734	486.88
455.955	411.88
456.175	387.88
456.395	380.88
456.616	376.88
456.836	382.88
457.056	378.88
457.276	377.88
457.497	380.88
457.717	392.88
457.937	365.88
458.157	403.88
458.377	413.88
458.598	430.88
458.818	476.88
459.038	566.88
459.258	592.88
459.478	482.88
459.698	444.88
459.918	427.88
460.138	423.88
460.358	412.88
460.578	407.88
460.798	409.88
461.018	433.88
461.238	428.88
461.458	409.88
461.678	424.88
461.898	411.88
462.118	420.88
462.338	410.88
462.558	437.88
462.777	430.88
462.997	450.88
463.217	461.88
463.437	441.88
463.657	416.88
463.876	426.88
464.096	422.88
464.316	439.88
464.536	432.88
464.755	460.88
464.975	466.88
465.195	488.88
465.414	585.88
465.634	509.88
465.854	468.88
466.073	456.88
466.293	424.88
466.512	429.88
466.732	427.88
466.951	413.88
467.171	398.88
467.391	423.88
467.61	434.88
467.829	421.88
468.049	434.88
468.268	431.88
468.488	400.88
468.707	394.88
468.927	422.88
469.146	383.88
469.365	398.88
469.585	394.88
469.804	406.88
470.023	426.88
470.243	437.88
470.462	417.88
470.681	436.88
470.901	427.88
471.12	428.88
471.339	418.88
471.558	422.88
471.777	428.88
471.997	415.88
472.216	438.88
472.435	463.88
472.654	458.88
472.873	440.88
473.092	432.88
473.311	415.88
473.53	425.88
473.749	431.88
473.968	474.88
474.187	594.88
474.406	613.88
474.625	498.88
474.844	460.88
475.063	422.88
475.282	434.88
475.501	414.88
475.72	441.88
475.939	436.88
476.158	433.88
476.377	431.88
476.596	448.88
476.814	432.88
477.033	460.88
477.252	471.88
477.471	436.88
477.69	454.88
477.908	460.88
478.127	466.88
478.346	438.88
478.564	453.88
478.783	457.88
479.002	468.88
479.22	485.88
479.439	504.88
479.658	501.88
479.876	502.88
480.095	513.88
480.313	546.88
480.532	521.88
480.751	495.88
480.969	531.88
481.188	610.88
481.406	672.88
481.624	558.88
481.843	520.88
482.061	506.88
482.28	511.88
482.498	500.88
482.717	486.88
482.935	505.88
483.153	495.88
483.372	524.88
483.59	503.88
483.808	470.88
484.027	492.88
484.245	485.88
484.463	492.88
484.681	511.88
484.9	499.88
485.118	503.88
485.336	491.88
485.554	504.88
485.772	503.88
485.99	502.88
486.209	513.88
486.427	515.88
486.645	530.88
486.863	553.88
487.081	546.88
487.299	527.88
487.517	530.88
487.735	543.88
487.953	536.88
488.171	498.88
488.389	543.88
488.607	519.88
488.825	527.88
489.043	527.88
489.261	544.88
489.479	520.88
489.696	522.88
489.914	553.88
490.132	550.88
490.35	564.88
490.568	551.88
490.786	549.88
491.003	562.88
491.221	577.88
491.439	598.88
491.657	609.88
491.874	608.88
492.092	608.88
492.31	613.88
492.527	603.88
492.745	609.88
492.963	610.88
493.18	632.88
493.398	615.88
493.615	617.88
493.833	615.88
494.05	616.88
494.268	640.88
494.485	640.88
494.703	620.88
494.92	616.88
495.138	625.88
495.355	633.88
495.573	634.88
495.79	630.88
496.008	618.88
496.225	628.88
496.442	635.88
496.66	632.88
496.877	642.88
497.094	631.88
497.312	643.88
497.529	635.88
497.746	656.88
497.963	665.88
498.181	678.88
498.398	660.88
498.615	683.88
498.832	700.88
499.049	679.88
499.267	706.88
499.484	709.88
499.701	737.88
499.918	736.88
500.135	769.88
500.352	800.88
500.569	784.88
500.786	773.88
501.003	793.88
501.22	768.88
501.437	766.88
501.654	762.88
501.871	745.88
502.088	733.88
502.305	724.88
502.522	709.88
502.739	680.88
502.956	652.88
503.172	644.88
503.389	664.88
503.606	659.88
503.823	629.88
504.04	630.88
504.256	634.88
504.473	609.88
504.69	628.88
504.907	613.88
505.123	598.88
505.34	629.88
505.557	618.88
505.773	615.88
505.99	599.88
506.207	614.88
506.423	597.88
506.64	605.88
506.856	614.88
507.073	609.88
507.289	603.88
507.506	586.88
507.722	621.88
507.939	662.88
508.155	621.88
508.372	592.88
508.588	576.88
508.805	592.88
509.021	601.88
509.238	602.88
509.454	616.88
509.67	575.88
509.887	600.88
510.103	582.88
510.319	608.88
510.536	711.88
510.752	1221.88
510.968	964.88
511.184	620.88
511.401	580.88
511.617	579.88
511.833	556.88
512.049	567.88
512.265	564.88
512.481	558.88
512.698	556.88
512.914	575.88
513.13	566.88
513.346	558.88
513.562	551.88
513.778	564.88
513.994	559.88
514.21	586.88
514.426	638.88
514.642	651.88
514.858	696.88
515.074	716.88
515.29	914.88
515.506	1346.88
515.721	1077.88
515.937	743.88
516.153	652.88
516.369	607.88
516.585	592.88
516.801	556.88
517.016	553.88
517.232	562.88
517.448	569.88
517.664	562.88
517.879	552.88
518.095	576.88
518.311	567.88
518.527	556.88
518.742	558.88
518.958	556.88
519.173	535.88
519.389	564.88
519.605	596.88
519.82	581.88
520.036	586.88
520.251	593.88
520.467	621.88
520.682	640.88
520.898	638.88
521.113	648.88
521.329	710.88
521.544	822.88
521.76	1059.88
521.975	1758.88
522.19	1724.88
522.406	905.88
522.621	664.88
522.836	623.88
523.052	582.88
523.267	537.88
523.482	564.88
523.698	534.88
523.913	533.88
524.128	535.88
524.343	501.88
524.559	496.88
524.774	484.88
524.989	496.88
525.204	490.88
525.419	497.88
525.634	484.88
525.849	477.88
526.064	470.88
526.28	473.88
526.495	469.88
526.71	461.88
526.925	461.88
527.14	459.88
527.355	431.88
527.57	458.88
527.785	450.88
527.999	466.88
528.214	469.88
528.429	464.88
528.644	457.88
528.859	462.88
529.074	451.88
529.289	509.88
529.503	582.88
529.718	548.88
529.933	495.88
530.148	479.88
530.363	507.88
530.577	466.88
530.792	426.88
531.007	439.88
531.221	439.88
531.436	453.88
531.651	442.88
531.865	431.88
532.08	426.88
532.295	441.88
532.509	441.88
532.724	432.88
532.938	419.88
533.153	439.88
533.367	425.88
533.582	424.88
533.796	426.88
534.011	439.88
534.225	433.88
534.44	416.88
534.654	415.88
534.868	410.88
535.083	415.88
535.297	432.88
535.511	430.88
535.726	444.88
535.94	440.88
536.154	446.88
536.369	433.88
536.583	435.88
536.797	416.88
537.011	420.88
537.225	414.88
537.44	408.88
537.654	422.88
537.868	407.88
538.082	403.88
538.296	431.88
538.51	426.88
538.724	417.88
538.938	402.88
539.153	416.88
539.367	430.88
539.581	458.88
539.795	432.88
540.009	403.88
540.222	399.88
540.436	414.88
540.65	427.88
540.864	417.88
541.078	413.88
541.292	430.88
541.506	433.88
541.72	417.88
541.934	432.88
542.147	428.88
542.361	425.88
542.575	385.88
542.789	405.88
543.002	410.88
543.216	405.88
543.43	418.88
543.644	419.88
543.857	414.88
544.071	405.88
544.285	420.88
544.498	416.88
544.712	406.88
544.925	402.88
545.139	433.88
545.352	397.88
545.566	404.88
545.779	390.88
545.993	396.88
546.206	414.88
546.42	416.88
546.633	389.88
546.847	390.88
547.06	398.88
547.274	381.88
547.487	400.88
547.7	417.88
547.914	406.88
548.127	407.88
548.34	396.88
548.554	403.88
548.767	385.88
548.98	392.88
549.193	378.88
549.407	381.88
549.62	382.88
549.833	380.88
550.046	396.88
550.259	384.88
550.473	381.88
550.686	385.88
550.899	402.88
551.112	386.88
551.325	372.88
551.538	377.88
551.751	373.88
551.964	366.88
552.177	386.88
552.39	384.88
552.603	383.88
552.816	355.88
553.029	387.88
553.242	382.88
553.455	389.88
553.667	403.88
553.88	408.88
554.093	407.88
554.306	393.88
554.519	408.88
554.732	372.88
554.944	384.88
555.157	367.88
555.37	356.88
555.583	375.88
555.795	388.88
556.008	390.88
556.221	367.88
556.433	377.88
556.646	371.88
556.859	347.88
557.071	348.88
557.284	338.88
557.496	363.88
557.709	361.88
557.921	360.88
558.134	337.88
558.346	354.88
558.559	350.88
558.771	351.88
558.984	349.88
559.196	345.88
559.409	332.88
559.621	358.88
559.833	345.88
560.046	333.88
560.258	344.88
560.47	358.88
560.683	367.88
560.895	382.88
561.107	354.88
561.32	349.88
561.532	338.88
561.744	334.88
561.956	341.88
562.168	351.88
562.381	349.88
562.593	357.88
562.805	360.88
563.017	348.88
563.229	341.88
563.441	340.88
563.653	344.88
563.865	351.88
564.077	338.88
564.289	357.88
564.501	327.88
564.713	359.88
564.925	362.88
565.137	380.88
565.349	370.88
565.561	363.88
565.773	359.88
565.985	362.88
566.197	364.88
566.408	374.88
566.62	376.88
566.832	394.88
567.044	406.88
567.255	389.88
567.467	396.88
567.679	394.88
567.891	389.88
568.102	404.88
568.314	390.88
568.526	377.88
568.737	396.88
568.949	377.88
569.161	360.88
569.372	355.88
569.584	361.88
569.795	357.88
570.007	348.88
570.218	402.88
570.43	401.88
570.641	329.88
570.853	331.88
571.064	342.88
571.276	333.88
571.487	332.88
571.698	327.88
571.91	337.88
572.121	326.88
572.333	301.88
572.544	320.88
572.755	311.88
572.966	296.88
573.178	322.88
573.389	326.88
573.6	314.88
573.811	310.88
574.023	282.88
574.234	298.88
574.445	312.88
574.656	304.88
574.867	309.88
575.078	305.88
575.289	310.88
575.501	290.88
575.712	305.88
575.923	308.88
576.134	303.88
576.345	297.88
576.556	299.88
576.767	292.88
576.978	308.88
577.188	295.88
577.399	304.88
577.61	292.88
577.821	285.88
578.032	298.88
578.243	351.88
578.454	581.88
578.665	420.88
578.875	308.88
579.086	300.88
579.297	283.88
579.508	308.88
579.718	286.88
579.929	276.88
580.14	280.88
580.35	271.88
580.561	281.88
580.772	283.88
580.982	284.88
581.193	290.88
581.403	273.88
581.614	289.88
581.825	294.88
582.035	274.88
582.246	296.88
582.456	285.88
582.667	287.88
582.877	295.88
583.087	279.88
583.298	275.88
583.508	285.88
583.719	257.88
583.929	259.88
584.139	285.88
584.35	276.88
584.56	262.88
584.77	284.88
584.981	288.88
585.191	274.88
585.401	291.88
585.611	274.88
585.821	284.88
586.032	286.88
586.242	274.88
586.452	268.88
586.662	245.88
586.872	285.88
587.082	284.88
587.292	268.88
587.502	269.88
587.713	248.88
587.923	269.88
588.133	281.88
588.343	283.88
588.553	279.88
588.762	283.88
588.972	279.88
589.182	279.88
589.392	254.88
589.602	258.88
589.812	277.88
590.022	291.88
590.232	265.88
590.441	283.88
590.651	274.88
590.861	274.88
591.071	284.88
591.281	263.88
591.49	262.88
591.7	242.88
591.91	259.88
592.119	238.88
592.329	270.88
592.539	279.88
592.748	272.88
592.958	266.88
593.167	282.88
593.377	296.88
593.587	271.88
593.796	259.88
594.006	279.88
594.215	263.88
594.424	260.88
594.634	252.88
594.843	269.88
595.053	248.88
595.262	248.88
595.472	258.88
595.681	270.88
595.89	247.88
596.1	239.88
596.309	274.88
596.518	256.88
596.727	265.88
596.937	254.88
597.146	233.88
597.355	265.88
597.564	270.88
597.774	235.88
597.983	247.88
598.192	241.88
598.401	244.88
598.61	247.88
598.819	242.88
599.028	249.88
599.237	247.88
599.446	245.88
599.655	249.88
599.864	253.88
600.073	229.88
600.282	242.88
600.491	249.88
600.7	228.88
600.909	229.88
601.118	246.88
601.327	237.88
601.536	227.88
601.745	226.88
601.953	219.88
602.162	237.88
602.371	230.88
602.58	228.88
602.789	223.88
602.997	232.88
603.206	235.88
603.415	248.88
603.623	224.88
603.832	238.88
604.041	251.88
604.249	223.88
604.458	216.88
604.666	230.88
604.875	237.88
605.084	221.88
605.292	229.88
605.501	221.88
605.709	217.88
605.918	237.88
606.126	210.88
606.334	230.88
606.543	223.88
606.751	226.88
606.96	221.88
607.168	220.88
607.376	237.88
607.585	249.88
607.793	244.88
608.001	230.88
608.21	238.88
608.418	227.88
608.626	227.88
608.834	234.88
609.043	210.88
609.251	215.88
609.459	216.88
609.667	238.88
609.875	220.88
610.083	236.88
610.291	225.88
610.499	223.88
610.707	229.88
610.916	223.88
611.124	213.88
611.332	226.88
611.54	217.88
611.748	230.88
611.955	225.88
612.163	235.88
612.371	236.88
612.579	227.88
612.787	214.88
612.995	214.88
613.203	235.88
613.411	226.88
613.618	230.88
613.826	217.88
614.034	208.88
614.242	207.88
614.449	230.88
614.657	228.88
614.865	215.88
615.072	207.88
615.28	215.88
615.488	207.88
615.695	215.88
615.903	212.88
616.111	203.88
616.318	216.88
616.526	222.88
616.733	225.88
616.941	210.88
617.148	220.88
617.356	210.88
617.563	227.88
617.771	220.88
617.978	218.88
618.185	218.88
618.393	202.88
618.6	200.88
618.807	216.88
619.015	221.88
619.222	218.88
619.429	203.88
619.637	205.88
619.844	210.88
620.051	213.88
620.258	207.88
620.466	209.88
620.673	205.88
620.88	194.88
621.087	198.88
621.294	206.88
621.501	192.88
621.708	207.88
621.915	214.88
622.122	198.88
622.329	210.88
622.536	214.88
622.743	201.88
622.95	207.88
623.157	199.88
623.364	201.88
623.571	186.88
623.778	186.88
623.985	206.88
624.192	193.88
624.399	200.88
624.606	207.88
624.812	196.88
625.019	192.88
625.226	189.88
625.433	203.88
625.639	199.88
625.846	192.88
626.053	186.88
626.259	193.88
626.466	186.88
626.673	188.88
626.879	189.88
627.086	200.88
627.293	180.88
627.499	197.88
627.706	202.88
627.912	195.88
628.119	205.88
628.325	197.88
628.532	179.88
628.738	164.88
628.945	190.88
629.151	177.88
629.357	172.88
629.564	197.88
629.77	170.88
629.976	177.88
630.183	177.88
630.389	176.88
630.595	177.88
630.802	194.88
631.008	185.88
631.214	190.88
631.42	183.88
631.627	191.88
631.833	184.88
632.039	177.88
632.245	192.88
632.451	188.88
632.657	180.88
632.863	175.88
633.069	167.88
633.275	181.88
633.481	179.88
633.688	186.88
633.893	172.88
634.099	174.88
634.305	165.88
634.511	196.88
634.717	190.88
634.923	178.88
635.129	156.88
635.335	162.88
635.541	185.88
635.747	177.88
635.952	174.88
636.158	176.88
636.364	177.88
636.57	192.88
636.775	178.88
636.981	160.88
637.187	169.88
637.392	175.88
637.598	158.88
637.804	182.88
638.009	186.88
638.215	173.88
638.421	172.88
638.626	170.88
638.832	164.88
639.037	172.88
639.243	172.88
639.448	173.88
639.654	163.88
639.859	162.88
640.065	156.88
640.27	189.88
640.475	153.88
640.681	160.88
640.886	164.88
641.091	150.88
641.297	169.88
641.502	174.88
641.707	164.88
641.913	165.88
642.118	184.88
642.323	163.88
642.528	148.88
642.733	157.88
642.939	159.88
643.144	161.88
643.349	157.88
643.554	161.88
643.759	156.88
643.964	161.88
644.169	157.88
644.374	146.88
644.579	168.88
644.784	161.88
644.989	152.88
645.194	147.88
645.399	166.88
645.604	152.88
645.809	166.88
646.014	163.88
646.219	158.88
646.423	160.88
646.628	157.88
646.833	146.88
647.038	138.88
647.243	159.88
647.447	165.88
647.652	164.88
647.857	175.88
648.062	168.88
648.266	161.88
648.471	158.88
648.676	176.88
648.88	163.88
649.085	171.88
649.289	162.88
649.494	158.88
649.698	173.88
649.903	178.88
650.107	173.88
650.312	169.88
650.516	157.88
650.721	144.88
650.925	146.88
651.13	148.88
651.334	143.88
651.539	132.88
651.743	140.88
651.947	138.88
652.152	159.88
652.356	142.88
652.56	152.88
652.764	150.88
652.969	145.88
653.173	154.88
653.377	134.88
653.581	138.88
653.785	128.88
653.99	123.88
654.194	137.88
654.398	137.88
654.602	134.88
654.806	129.88
655.01	144.88
655.214	137.88
655.418	129.88
655.622	127.88
655.826	127.88
656.03	124.88
656.234	122.88
656.438	134.88
656.642	129.88
656.846	128.88
657.049	133.88
657.253	124.88
657.457	117.88
657.661	129.88
657.865	118.88
658.068	110.88
658.272	105.88
658.476	110.88
658.68	104.88
658.883	111.88
659.087	113.88
659.291	105.88
659.494	96.88
659.698	94.88
659.901	82.88
660.105	113.88
660.309	90.88
660.512	98.88
660.716	117.88
660.919	87.88
661.123	88.88
661.326	94.88
661.53	96.88
661.733	89.88
661.936	94.88
662.14	94.88
662.343	79.88
662.546	82.88
662.75	86.88
662.953	95.88
663.156	84.88
663.36	80.88
663.563	87.88
663.766	78.88
663.969	88.88
664.173	96.88
664.376	94.88
664.579	84.88
664.782	79.88
664.985	95.88
665.188	86.88
665.391	75.88
665.594	82.88
665.797	88.88
666	90.88
666.203	80.88
666.406	86.88
666.609	92.88
666.812	92.88
667.015	94.88
667.218	90.88
667.421	81.88
667.624	82.88
667.827	88.88
668.03	89.88
668.232	90.88
668.435	81.88
668.638	86.88
668.841	102.88
669.043	86.88
669.246	72.88
669.449	74.88
669.651	78.88
669.854	85.88
670.057	86.88
670.259	81.88
670.462	78.88
670.665	93.88
670.867	80.88
671.07	92.88
671.272	94.88
671.475	88.88
671.677	88.88
671.88	80.88
672.082	99.88
672.284	102.88
672.487	91.88
672.689	77.88
672.892	72.88
