Data from 1972.PennyLincolnUp.Lamp.En5.5.200Scan.071719.P1._HRD10591_15-28-17-844.txt Node
Date: Thu Jul 18 15:28:17 EDT 2019
User: cochatt
Spectrometer: HR+D1059
Trigger mode: 1
Integration Time (sec): 1.000000E-1
Scans to average: 1
Electric dark correction enabled: true
Nonlinearity correction enabled: false
Boxcar width: 0
XAxis mode: Wavelengths
Number of Pixels in Spectrum: 2048
>>>>>Begin Spectral Data<<<<<
223.165	-20.12
223.4	-20.12
223.635	-20.12
223.869	-28.12
224.104	-22.12
224.338	2.88
224.573	-15.12
224.808	-18.12
225.042	-6.12
225.277	-2.12
225.511	-6.12
225.746	-5.12
225.98	-5.12
226.215	19.88
226.449	20.88
226.683	20.88
226.918	29.88
227.152	33.88
227.387	26.88
227.621	35.88
227.856	52.88
228.09	48.88
228.324	55.88
228.559	44.88
228.793	85.88
229.027	93.88
229.262	116.88
229.496	111.88
229.73	142.88
229.964	173.88
230.199	122.88
230.433	115.88
230.667	116.88
230.901	103.88
231.136	122.88
231.37	100.88
231.604	128.88
231.838	122.88
232.072	110.88
232.306	107.88
232.541	121.88
232.775	108.88
233.009	116.88
233.243	119.88
233.477	123.88
233.711	108.88
233.945	120.88
234.179	110.88
234.413	112.88
234.647	116.88
234.881	122.88
235.115	119.88
235.349	123.88
235.583	132.88
235.817	126.88
236.051	124.88
236.285	113.88
236.519	116.88
236.753	142.88
236.987	132.88
237.221	163.88
237.455	248.88
237.689	190.88
237.922	140.88
238.156	125.88
238.39	114.88
238.624	124.88
238.858	137.88
239.091	126.88
239.325	129.88
239.559	123.88
239.793	131.88
240.027	129.88
240.26	133.88
240.494	163.88
240.728	147.88
240.961	152.88
241.195	133.88
241.429	133.88
241.662	137.88
241.896	135.88
242.13	123.88
242.363	113.88
242.597	125.88
242.83	140.88
243.064	128.88
243.298	136.88
243.531	140.88
243.765	125.88
243.998	127.88
244.232	146.88
244.465	150.88
244.699	145.88
244.932	152.88
245.166	140.88
245.399	146.88
245.633	137.88
245.866	143.88
246.099	146.88
246.333	156.88
246.566	148.88
246.8	121.88
247.033	136.88
247.266	149.88
247.5	160.88
247.733	158.88
247.966	167.88
248.2	142.88
248.433	170.88
248.666	160.88
248.899	176.88
249.133	201.88
249.366	217.88
249.599	203.88
249.832	189.88
250.066	180.88
250.299	179.88
250.532	176.88
250.765	194.88
250.998	210.88
251.231	231.88
251.465	229.88
251.698	212.88
251.931	200.88
252.164	206.88
252.397	201.88
252.63	202.88
252.863	204.88
253.096	221.88
253.329	219.88
253.562	233.88
253.795	203.88
254.028	218.88
254.261	219.88
254.494	227.88
254.727	261.88
254.96	284.88
255.193	286.88
255.426	263.88
255.659	230.88
255.892	229.88
256.124	218.88
256.357	257.88
256.59	241.88
256.823	208.88
257.056	208.88
257.289	213.88
257.521	206.88
257.754	200.88
257.987	209.88
258.22	208.88
258.452	206.88
258.685	200.88
258.918	200.88
259.151	214.88
259.383	204.88
259.616	215.88
259.849	223.88
260.081	232.88
260.314	249.88
260.547	260.88
260.779	259.88
261.012	225.88
261.244	225.88
261.477	209.88
261.71	245.88
261.942	227.88
262.175	254.88
262.407	226.88
262.64	210.88
262.872	194.88
263.105	207.88
263.337	212.88
263.57	215.88
263.802	197.88
264.035	222.88
264.267	207.88
264.499	208.88
264.732	209.88
264.964	187.88
265.197	185.88
265.429	205.88
265.661	187.88
265.894	194.88
266.126	219.88
266.358	222.88
266.591	211.88
266.823	199.88
267.055	204.88
267.287	215.88
267.52	225.88
267.752	219.88
267.984	212.88
268.216	241.88
268.448	223.88
268.681	220.88
268.913	244.88
269.145	238.88
269.377	288.88
269.609	271.88
269.841	259.88
270.073	267.88
270.306	283.88
270.538	308.88
270.77	308.88
271.002	296.88
271.234	297.88
271.466	304.88
271.698	304.88
271.93	320.88
272.162	315.88
272.394	316.88
272.626	296.88
272.858	296.88
273.09	284.88
273.322	260.88
273.553	232.88
273.785	246.88
274.017	263.88
274.249	256.88
274.481	260.88
274.713	276.88
274.945	259.88
275.176	261.88
275.408	242.88
275.64	261.88
275.872	269.88
276.104	263.88
276.335	260.88
276.567	260.88
276.799	261.88
277.031	304.88
277.262	305.88
277.494	311.88
277.726	316.88
277.957	302.88
278.189	265.88
278.421	248.88
278.652	248.88
278.884	232.88
279.115	249.88
279.347	254.88
279.579	265.88
279.81	244.88
280.042	242.88
280.273	258.88
280.505	253.88
280.736	249.88
280.968	243.88
281.199	253.88
281.431	257.88
281.662	256.88
281.894	255.88
282.125	255.88
282.356	269.88
282.588	298.88
282.819	309.88
283.051	258.88
283.282	249.88
283.513	261.88
283.745	262.88
283.976	251.88
284.207	296.88
284.439	265.88
284.67	264.88
284.901	262.88
285.132	259.88
285.364	256.88
285.595	236.88
285.826	262.88
286.057	256.88
286.288	248.88
286.52	265.88
286.751	264.88
286.982	267.88
287.213	262.88
287.444	263.88
287.675	276.88
287.906	265.88
288.138	272.88
288.369	272.88
288.6	281.88
288.831	260.88
289.062	268.88
289.293	262.88
289.524	264.88
289.755	280.88
289.986	280.88
290.217	253.88
290.448	265.88
290.679	252.88
290.91	245.88
291.141	262.88
291.371	269.88
291.602	262.88
291.833	273.88
292.064	259.88
292.295	266.88
292.526	264.88
292.757	274.88
292.987	260.88
293.218	268.88
293.449	261.88
293.68	267.88
293.91	251.88
294.141	258.88
294.372	263.88
294.603	249.88
294.833	247.88
295.064	271.88
295.295	261.88
295.525	270.88
295.756	284.88
295.987	280.88
296.217	301.88
296.448	318.88
296.679	288.88
296.909	264.88
297.14	274.88
297.37	282.88
297.601	258.88
297.831	275.88
298.062	283.88
298.292	267.88
298.523	288.88
298.753	281.88
298.984	284.88
299.214	280.88
299.445	290.88
299.675	299.88
299.905	268.88
300.136	277.88
300.366	277.88
300.597	305.88
300.827	293.88
301.057	288.88
301.288	281.88
301.518	301.88
301.748	279.88
301.979	304.88
302.209	302.88
302.439	294.88
302.669	293.88
302.9	293.88
303.13	303.88
303.36	293.88
303.59	299.88
303.82	313.88
304.051	315.88
304.281	313.88
304.511	299.88
304.741	290.88
304.971	294.88
305.201	306.88
305.431	286.88
305.661	295.88
305.891	301.88
306.121	291.88
306.352	301.88
306.582	306.88
306.812	292.88
307.042	302.88
307.272	299.88
307.502	304.88
307.731	311.88
307.961	299.88
308.191	288.88
308.421	308.88
308.651	324.88
308.881	304.88
309.111	323.88
309.341	336.88
309.571	332.88
309.8	337.88
310.03	347.88
310.26	343.88
310.49	355.88
310.72	369.88
310.949	379.88
311.179	393.88
311.409	359.88
311.639	332.88
311.868	366.88
312.098	368.88
312.328	354.88
312.557	394.88
312.787	395.88
313.017	392.88
313.246	376.88
313.476	372.88
313.706	359.88
313.935	342.88
314.165	387.88
314.394	392.88
314.624	372.88
314.853	373.88
315.083	349.88
315.312	370.88
315.542	372.88
315.771	347.88
316.001	338.88
316.23	337.88
316.46	371.88
316.689	343.88
316.919	354.88
317.148	378.88
317.377	359.88
317.607	371.88
317.836	341.88
318.065	354.88
318.295	356.88
318.524	345.88
318.753	348.88
318.983	351.88
319.212	366.88
319.441	357.88
319.67	384.88
319.9	354.88
320.129	357.88
320.358	349.88
320.587	371.88
320.816	386.88
321.046	378.88
321.275	388.88
321.504	376.88
321.733	374.88
321.962	373.88
322.191	421.88
322.42	417.88
322.649	428.88
322.878	448.88
323.108	444.88
323.337	482.88
323.566	490.88
323.795	545.88
324.024	609.88
324.253	744.88
324.482	1123.88
324.71	1703.88
324.939	2498.88
325.168	2171.88
325.397	1113.88
325.626	726.88
325.855	596.88
326.084	514.88
326.313	516.88
326.542	523.88
326.77	586.88
326.999	696.88
327.228	957.88
327.457	1496.88
327.686	1882.88
327.914	1248.88
328.143	826.88
328.372	680.88
328.6	624.88
328.829	577.88
329.058	600.88
329.287	628.88
329.515	577.88
329.744	520.88
329.972	520.88
330.201	564.88
330.43	610.88
330.658	628.88
330.887	666.88
331.115	638.88
331.344	554.88
331.572	481.88
331.801	488.88
332.03	486.88
332.258	472.88
332.486	437.88
332.715	434.88
332.943	439.88
333.172	419.88
333.4	410.88
333.629	426.88
333.857	473.88
334.085	452.88
334.314	483.88
334.542	509.88
334.771	546.88
334.999	472.88
335.227	463.88
335.455	438.88
335.684	416.88
335.912	406.88
336.14	410.88
336.369	411.88
336.597	397.88
336.825	406.88
337.053	401.88
337.281	398.88
337.51	398.88
337.738	378.88
337.966	406.88
338.194	396.88
338.422	401.88
338.65	404.88
338.878	403.88
339.106	410.88
339.334	388.88
339.562	384.88
339.79	380.88
340.018	399.88
340.246	415.88
340.474	408.88
340.702	391.88
340.93	380.88
341.158	374.88
341.386	388.88
341.614	404.88
341.842	407.88
342.07	408.88
342.298	408.88
342.526	382.88
342.754	372.88
342.981	372.88
343.209	370.88
343.437	375.88
343.665	380.88
343.893	409.88
344.12	388.88
344.348	383.88
344.576	395.88
344.804	406.88
345.031	389.88
345.259	414.88
345.487	399.88
345.714	412.88
345.942	390.88
346.17	388.88
346.397	400.88
346.625	390.88
346.853	358.88
347.08	381.88
347.308	380.88
347.535	395.88
347.763	400.88
347.99	399.88
348.218	408.88
348.445	401.88
348.673	411.88
348.9	380.88
349.128	370.88
349.355	352.88
349.583	369.88
349.81	360.88
350.037	357.88
350.265	381.88
350.492	368.88
350.72	365.88
350.947	364.88
351.174	385.88
351.402	402.88
351.629	394.88
351.856	392.88
352.083	395.88
352.311	410.88
352.538	406.88
352.765	388.88
352.992	380.88
353.22	371.88
353.447	374.88
353.674	374.88
353.901	354.88
354.128	368.88
354.355	372.88
354.583	375.88
354.81	349.88
355.037	334.88
355.264	352.88
355.491	324.88
355.718	336.88
355.945	343.88
356.172	352.88
356.399	337.88
356.626	357.88
356.853	360.88
357.08	332.88
357.307	336.88
357.534	341.88
357.761	348.88
357.988	326.88
358.215	354.88
358.441	346.88
358.668	352.88
358.895	370.88
359.122	342.88
359.349	368.88
359.576	374.88
359.802	399.88
360.029	424.88
360.256	449.88
360.483	410.88
360.709	395.88
360.936	380.88
361.163	379.88
361.39	380.88
361.616	387.88
361.843	388.88
362.07	387.88
362.296	379.88
362.523	401.88
362.749	372.88
362.976	354.88
363.203	366.88
363.429	356.88
363.656	368.88
363.882	363.88
364.109	367.88
364.335	360.88
364.562	349.88
364.788	355.88
365.015	347.88
365.241	341.88
365.468	352.88
365.694	366.88
365.92	368.88
366.147	359.88
366.373	354.88
366.599	360.88
366.826	362.88
367.052	354.88
367.278	374.88
367.505	348.88
367.731	345.88
367.957	373.88
368.184	362.88
368.41	356.88
368.636	381.88
368.862	355.88
369.089	353.88
369.315	361.88
369.541	353.88
369.767	368.88
369.993	357.88
370.219	362.88
370.445	348.88
370.672	354.88
370.898	366.88
371.124	357.88
371.35	343.88
371.576	333.88
371.802	341.88
372.028	355.88
372.254	317.88
372.48	336.88
372.706	342.88
372.932	343.88
373.158	330.88
373.384	352.88
373.61	361.88
373.835	369.88
374.061	338.88
374.287	341.88
374.513	342.88
374.739	355.88
374.965	343.88
375.191	339.88
375.416	348.88
375.642	343.88
375.868	344.88
376.094	354.88
376.319	337.88
376.545	340.88
376.771	339.88
376.997	332.88
377.222	338.88
377.448	321.88
377.674	339.88
377.899	332.88
378.125	322.88
378.35	336.88
378.576	325.88
378.802	333.88
379.027	333.88
379.253	333.88
379.478	349.88
379.704	340.88
379.929	345.88
380.155	361.88
380.38	357.88
380.606	321.88
380.831	345.88
381.057	346.88
381.282	344.88
381.507	348.88
381.733	332.88
381.958	331.88
382.184	333.88
382.409	343.88
382.634	344.88
382.86	343.88
383.085	350.88
383.31	368.88
383.535	346.88
383.761	335.88
383.986	347.88
384.211	338.88
384.436	358.88
384.662	348.88
384.887	344.88
385.112	362.88
385.337	360.88
385.562	345.88
385.787	358.88
386.013	378.88
386.238	368.88
386.463	362.88
386.688	368.88
386.913	348.88
387.138	369.88
387.363	356.88
387.588	371.88
387.813	361.88
388.038	342.88
388.263	352.88
388.488	362.88
388.713	370.88
388.938	369.88
389.163	376.88
389.387	377.88
389.612	354.88
389.837	351.88
390.062	346.88
390.287	364.88
390.512	366.88
390.736	350.88
390.961	360.88
391.186	379.88
391.411	366.88
391.636	348.88
391.86	361.88
392.085	366.88
392.31	372.88
392.534	352.88
392.759	343.88
392.984	358.88
393.208	370.88
393.433	364.88
393.658	384.88
393.882	358.88
394.107	354.88
394.331	367.88
394.556	349.88
394.78	354.88
395.005	341.88
395.229	361.88
395.454	356.88
395.678	365.88
395.903	371.88
396.127	382.88
396.352	409.88
396.576	385.88
396.801	375.88
397.025	380.88
397.249	391.88
397.474	372.88
397.698	396.88
397.922	389.88
398.147	407.88
398.371	406.88
398.595	404.88
398.82	417.88
399.044	417.88
399.268	399.88
399.492	418.88
399.717	428.88
399.941	466.88
400.165	489.88
400.389	502.88
400.613	463.88
400.837	436.88
401.062	412.88
401.286	399.88
401.51	412.88
401.734	430.88
401.958	428.88
402.182	419.88
402.406	421.88
402.63	425.88
402.854	428.88
403.078	418.88
403.302	413.88
403.526	445.88
403.75	430.88
403.974	427.88
404.198	418.88
404.422	446.88
404.645	416.88
404.869	434.88
405.093	472.88
405.317	510.88
405.541	536.88
405.765	490.88
405.988	473.88
406.212	475.88
406.436	480.88
406.66	500.88
406.883	482.88
407.107	489.88
407.331	538.88
407.555	587.88
407.778	590.88
408.002	515.88
408.226	469.88
408.449	467.88
408.673	469.88
408.896	497.88
409.12	556.88
409.344	520.88
409.567	481.88
409.791	437.88
410.014	430.88
410.238	408.88
410.461	404.88
410.685	434.88
410.908	464.88
411.132	477.88
411.355	510.88
411.578	482.88
411.802	448.88
412.025	433.88
412.249	460.88
412.472	482.88
412.695	514.88
412.919	492.88
413.142	458.88
413.365	453.88
413.589	425.88
413.812	409.88
414.035	413.88
414.258	404.88
414.482	387.88
414.705	393.88
414.928	401.88
415.151	400.88
415.374	394.88
415.597	385.88
415.821	385.88
416.044	399.88
416.267	399.88
416.49	413.88
416.713	401.88
416.936	416.88
417.159	407.88
417.382	429.88
417.605	410.88
417.828	398.88
418.051	430.88
418.274	407.88
418.497	413.88
418.72	411.88
418.943	404.88
419.166	422.88
419.389	421.88
419.611	413.88
419.834	413.88
420.057	439.88
420.28	412.88
420.503	411.88
420.726	437.88
420.948	450.88
421.171	485.88
421.394	531.88
421.617	460.88
421.839	441.88
422.062	445.88
422.285	445.88
422.507	520.88
422.73	574.88
422.953	558.88
423.175	488.88
423.398	453.88
423.621	455.88
423.843	482.88
424.066	457.88
424.288	456.88
424.511	513.88
424.733	566.88
424.956	627.88
425.178	579.88
425.401	596.88
425.623	606.88
425.846	543.88
426.068	486.88
426.291	480.88
426.513	477.88
426.735	497.88
426.958	523.88
427.18	618.88
427.402	747.88
427.625	836.88
427.847	749.88
428.069	647.88
428.292	552.88
428.514	482.88
428.736	473.88
428.958	467.88
429.181	451.88
429.403	461.88
429.625	452.88
429.847	488.88
430.069	567.88
430.292	570.88
430.514	467.88
430.736	449.88
430.958	446.88
431.18	427.88
431.402	427.88
431.624	412.88
431.846	397.88
432.068	409.88
432.29	413.88
432.512	424.88
432.734	418.88
432.956	439.88
433.178	428.88
433.4	432.88
433.622	418.88
433.844	404.88
434.066	418.88
434.287	406.88
434.509	416.88
434.731	426.88
434.953	409.88
435.175	438.88
435.397	477.88
435.618	491.88
435.84	527.88
436.062	618.88
436.284	696.88
436.505	581.88
436.727	498.88
436.949	457.88
437.17	462.88
437.392	456.88
437.614	454.88
437.835	500.88
438.057	607.88
438.278	728.88
438.5	692.88
438.721	756.88
438.943	700.88
439.165	590.88
439.386	526.88
439.608	526.88
439.829	522.88
440.05	563.88
440.272	584.88
440.493	556.88
440.715	498.88
440.936	449.88
441.158	448.88
441.379	470.88
441.6	465.88
441.822	488.88
442.043	514.88
442.264	601.88
442.486	656.88
442.707	517.88
442.928	500.88
443.149	508.88
443.371	522.88
443.592	569.88
443.813	653.88
444.034	697.88
444.255	566.88
444.476	519.88
444.698	472.88
444.919	475.88
445.14	564.88
445.361	546.88
445.582	542.88
445.803	608.88
446.024	692.88
446.245	732.88
446.466	678.88
446.687	560.88
446.908	500.88
447.129	471.88
447.35	436.88
447.571	445.88
447.792	445.88
448.013	458.88
448.234	511.88
448.455	540.88
448.675	660.88
448.896	744.88
449.117	649.88
449.338	614.88
449.559	688.88
449.779	790.88
450	633.88
450.221	523.88
450.442	482.88
450.662	476.88
450.883	462.88
451.104	476.88
451.324	468.88
451.545	449.88
451.766	408.88
451.986	397.88
452.207	397.88
452.428	401.88
452.648	411.88
452.869	413.88
453.089	428.88
453.31	433.88
453.53	420.88
453.751	384.88
453.971	416.88
454.192	423.88
454.412	428.88
454.633	404.88
454.853	403.88
455.073	401.88
455.294	430.88
455.514	486.88
455.734	482.88
455.955	406.88
456.175	394.88
456.395	387.88
456.616	346.88
456.836	373.88
457.056	372.88
457.276	355.88
457.497	368.88
457.717	380.88
457.937	377.88
458.157	391.88
458.377	409.88
458.598	434.88
458.818	484.88
459.038	580.88
459.258	573.88
459.478	491.88
459.698	430.88
459.918	407.88
460.138	392.88
460.358	413.88
460.578	404.88
460.798	411.88
461.018	412.88
461.238	398.88
461.458	404.88
461.678	408.88
461.898	406.88
462.118	415.88
462.338	417.88
462.558	419.88
462.777	416.88
462.997	423.88
463.217	438.88
463.437	408.88
463.657	416.88
463.876	441.88
464.096	408.88
464.316	404.88
464.536	410.88
464.755	453.88
464.975	454.88
465.195	493.88
465.414	587.88
465.634	525.88
465.854	457.88
466.073	433.88
466.293	424.88
466.512	423.88
466.732	399.88
466.951	395.88
467.171	416.88
467.391	410.88
467.61	417.88
467.829	420.88
468.049	405.88
468.268	425.88
468.488	385.88
468.707	386.88
468.927	388.88
469.146	390.88
469.365	409.88
469.585	384.88
469.804	400.88
470.023	420.88
470.243	413.88
470.462	410.88
470.681	452.88
470.901	427.88
471.12	422.88
471.339	406.88
471.558	414.88
471.777	410.88
471.997	417.88
472.216	406.88
472.435	469.88
472.654	457.88
472.873	423.88
473.092	424.88
473.311	413.88
473.53	405.88
473.749	414.88
473.968	476.88
474.187	557.88
474.406	593.88
474.625	470.88
474.844	426.88
475.063	418.88
475.282	422.88
475.501	404.88
475.72	430.88
475.939	429.88
476.158	433.88
476.377	426.88
476.596	416.88
476.814	447.88
477.033	429.88
477.252	432.88
477.471	432.88
477.69	445.88
477.908	442.88
478.127	446.88
478.346	450.88
478.564	429.88
478.783	443.88
479.002	439.88
479.22	469.88
479.439	471.88
479.658	518.88
479.876	504.88
480.095	497.88
480.313	519.88
480.532	512.88
480.751	498.88
480.969	528.88
481.188	588.88
481.406	662.88
481.624	571.88
481.843	504.88
482.061	491.88
482.28	502.88
482.498	471.88
482.717	459.88
482.935	492.88
483.153	484.88
483.372	481.88
483.59	477.88
483.808	472.88
484.027	471.88
484.245	483.88
484.463	463.88
484.681	463.88
484.9	489.88
485.118	483.88
485.336	496.88
485.554	501.88
485.772	471.88
485.99	488.88
486.209	521.88
486.427	531.88
486.645	520.88
486.863	536.88
487.081	539.88
487.299	529.88
487.517	497.88
487.735	498.88
487.953	523.88
488.171	506.88
488.389	510.88
488.607	541.88
488.825	502.88
489.043	513.88
489.261	541.88
489.479	507.88
489.696	520.88
489.914	525.88
490.132	542.88
490.35	546.88
490.568	551.88
490.786	558.88
491.003	578.88
491.221	567.88
491.439	599.88
491.657	583.88
491.874	597.88
492.092	587.88
492.31	590.88
492.527	600.88
492.745	614.88
492.963	604.88
493.18	627.88
493.398	596.88
493.615	610.88
493.833	626.88
494.05	635.88
494.268	630.88
494.485	617.88
494.703	622.88
494.92	628.88
495.138	616.88
495.355	621.88
495.573	593.88
495.79	634.88
496.008	636.88
496.225	585.88
496.442	599.88
496.66	599.88
496.877	634.88
497.094	648.88
497.312	610.88
497.529	627.88
497.746	644.88
497.963	634.88
498.181	649.88
498.398	659.88
498.615	654.88
498.832	654.88
499.049	675.88
499.267	676.88
499.484	697.88
499.701	734.88
499.918	713.88
500.135	719.88
500.352	746.88
500.569	765.88
500.786	746.88
501.003	754.88
501.22	756.88
501.437	728.88
501.654	714.88
501.871	732.88
502.088	726.88
502.305	706.88
502.522	694.88
502.739	673.88
502.956	640.88
503.172	631.88
503.389	650.88
503.606	647.88
503.823	639.88
504.04	644.88
504.256	642.88
504.473	597.88
504.69	605.88
504.907	609.88
505.123	596.88
505.34	597.88
505.557	591.88
505.773	607.88
505.99	599.88
506.207	599.88
506.423	600.88
506.64	587.88
506.856	591.88
507.073	593.88
507.289	583.88
507.506	567.88
507.722	595.88
507.939	617.88
508.155	582.88
508.372	582.88
508.588	583.88
508.805	568.88
509.021	585.88
509.238	607.88
509.454	598.88
509.67	609.88
509.887	573.88
510.103	569.88
510.319	605.88
510.536	701.88
510.752	1282.88
510.968	995.88
511.184	615.88
511.401	566.88
511.617	568.88
511.833	538.88
512.049	546.88
512.265	581.88
512.481	563.88
512.698	545.88
512.914	546.88
513.13	550.88
513.346	565.88
513.562	544.88
513.778	533.88
513.994	568.88
514.21	587.88
514.426	602.88
514.642	654.88
514.858	716.88
515.074	748.88
515.29	914.88
515.506	1445.88
515.721	1141.88
515.937	737.88
516.153	642.88
516.369	603.88
516.585	578.88
516.801	578.88
517.016	561.88
517.232	563.88
517.448	566.88
517.664	541.88
517.879	565.88
518.095	554.88
518.311	536.88
518.527	542.88
518.742	562.88
518.958	572.88
519.173	547.88
519.389	561.88
519.605	551.88
519.82	583.88
520.036	575.88
520.251	620.88
520.467	628.88
520.682	622.88
520.898	640.88
521.113	706.88
521.329	726.88
521.544	833.88
521.76	1100.88
521.975	1871.88
522.19	1845.88
522.406	931.88
522.621	663.88
522.836	614.88
523.052	578.88
523.267	582.88
523.482	522.88
523.698	527.88
523.913	520.88
524.128	530.88
524.343	506.88
524.559	493.88
524.774	473.88
524.989	470.88
525.204	476.88
525.419	465.88
525.634	493.88
525.849	486.88
526.064	480.88
526.28	456.88
526.495	469.88
526.71	454.88
526.925	434.88
527.14	435.88
527.355	449.88
527.57	467.88
527.785	435.88
527.999	443.88
528.214	452.88
528.429	454.88
528.644	449.88
528.859	460.88
529.074	453.88
529.289	478.88
529.503	584.88
529.718	565.88
529.933	489.88
530.148	456.88
530.363	469.88
530.577	440.88
530.792	422.88
531.007	408.88
531.221	418.88
531.436	422.88
531.651	428.88
531.865	419.88
532.08	422.88
532.295	410.88
532.509	411.88
532.724	429.88
532.938	421.88
533.153	412.88
533.367	427.88
533.582	409.88
533.796	418.88
534.011	425.88
534.225	399.88
534.44	409.88
534.654	419.88
534.868	409.88
535.083	399.88
535.297	380.88
535.511	409.88
535.726	429.88
535.94	416.88
536.154	419.88
536.369	440.88
536.583	399.88
536.797	400.88
537.011	396.88
537.225	406.88
537.44	391.88
537.654	418.88
537.868	392.88
538.082	380.88
538.296	378.88
538.51	411.88
538.724	415.88
538.938	418.88
539.153	413.88
539.367	413.88
539.581	416.88
539.795	407.88
540.009	398.88
540.222	393.88
540.436	392.88
540.65	410.88
540.864	391.88
541.078	412.88
541.292	428.88
541.506	420.88
541.72	414.88
541.934	424.88
542.147	405.88
542.361	423.88
542.575	378.88
542.789	402.88
543.002	408.88
543.216	398.88
543.43	402.88
543.644	416.88
543.857	394.88
544.071	389.88
544.285	394.88
544.498	416.88
544.712	390.88
544.925	388.88
545.139	394.88
545.352	382.88
545.566	383.88
545.779	386.88
545.993	390.88
546.206	394.88
546.42	386.88
546.633	373.88
546.847	373.88
547.06	378.88
547.274	383.88
547.487	372.88
547.7	367.88
547.914	368.88
548.127	376.88
548.34	381.88
548.554	378.88
548.767	373.88
548.98	364.88
549.193	381.88
549.407	375.88
549.62	384.88
549.833	376.88
550.046	389.88
550.259	377.88
550.473	374.88
550.686	376.88
550.899	374.88
551.112	359.88
551.325	365.88
551.538	363.88
551.751	382.88
551.964	376.88
552.177	362.88
552.39	364.88
552.603	375.88
552.816	384.88
553.029	368.88
553.242	372.88
553.455	362.88
553.667	384.88
553.88	386.88
554.093	380.88
554.306	359.88
554.519	371.88
554.732	360.88
554.944	355.88
555.157	360.88
555.37	337.88
555.583	355.88
555.795	344.88
556.008	350.88
556.221	359.88
556.433	361.88
556.646	337.88
556.859	332.88
557.071	345.88
557.284	345.88
557.496	342.88
557.709	352.88
557.921	335.88
558.134	313.88
558.346	341.88
558.559	328.88
558.771	349.88
558.984	328.88
559.196	335.88
559.409	328.88
559.621	339.88
559.833	336.88
560.046	345.88
560.258	331.88
560.47	330.88
560.683	349.88
560.895	338.88
561.107	329.88
561.32	314.88
561.532	334.88
561.744	333.88
561.956	344.88
562.168	332.88
562.381	338.88
562.593	322.88
562.805	346.88
563.017	338.88
563.229	334.88
563.441	326.88
563.653	342.88
563.865	341.88
564.077	333.88
564.289	340.88
564.501	338.88
564.713	317.88
564.925	347.88
565.137	356.88
565.349	352.88
565.561	334.88
565.773	358.88
565.985	352.88
566.197	365.88
566.408	371.88
566.62	374.88
566.832	362.88
567.044	360.88
567.255	375.88
567.467	366.88
567.679	372.88
567.891	371.88
568.102	386.88
568.314	378.88
568.526	367.88
568.737	362.88
568.949	366.88
569.161	356.88
569.372	337.88
569.584	339.88
569.795	332.88
570.007	347.88
570.218	396.88
570.43	383.88
570.641	322.88
570.853	321.88
571.064	321.88
571.276	341.88
571.487	322.88
571.698	320.88
571.91	305.88
572.121	323.88
572.333	330.88
572.544	325.88
572.755	301.88
572.966	292.88
573.178	293.88
573.389	304.88
573.6	294.88
573.811	290.88
574.023	292.88
574.234	296.88
574.445	293.88
574.656	284.88
574.867	262.88
575.078	280.88
575.289	302.88
575.501	284.88
575.712	286.88
575.923	286.88
576.134	288.88
576.345	286.88
576.556	296.88
576.767	292.88
576.978	289.88
577.188	297.88
577.399	255.88
577.61	297.88
577.821	280.88
578.032	284.88
578.243	348.88
578.454	576.88
578.665	422.88
578.875	308.88
579.086	287.88
579.297	252.88
579.508	274.88
579.718	278.88
579.929	270.88
580.14	269.88
580.35	278.88
580.561	276.88
580.772	279.88
580.982	264.88
581.193	278.88
581.403	286.88
581.614	257.88
581.825	272.88
582.035	259.88
582.246	260.88
582.456	253.88
582.667	252.88
582.877	257.88
583.087	269.88
583.298	283.88
583.508	281.88
583.719	276.88
583.929	275.88
584.139	272.88
584.35	268.88
584.56	259.88
584.77	261.88
584.981	260.88
585.191	256.88
585.401	264.88
585.611	252.88
585.821	253.88
586.032	248.88
586.242	260.88
586.452	250.88
586.662	258.88
586.872	247.88
587.082	263.88
587.292	277.88
587.502	272.88
587.713	232.88
587.923	264.88
588.133	254.88
588.343	263.88
588.553	258.88
588.762	262.88
588.972	257.88
589.182	253.88
589.392	279.88
589.602	252.88
589.812	260.88
590.022	263.88
590.232	264.88
590.441	261.88
590.651	233.88
590.861	243.88
591.071	252.88
591.281	265.88
591.49	248.88
591.7	277.88
591.91	244.88
592.119	264.88
592.329	258.88
592.539	273.88
592.748	243.88
592.958	245.88
593.167	261.88
593.377	257.88
593.587	268.88
593.796	263.88
594.006	253.88
594.215	250.88
594.424	250.88
594.634	251.88
594.843	245.88
595.053	248.88
595.262	237.88
595.472	246.88
595.681	254.88
595.89	256.88
596.1	249.88
596.309	247.88
596.518	235.88
596.727	233.88
596.937	245.88
597.146	236.88
597.355	228.88
597.564	243.88
597.774	235.88
597.983	244.88
598.192	234.88
598.401	216.88
598.61	242.88
598.819	243.88
599.028	231.88
599.237	222.88
599.446	234.88
599.655	235.88
599.864	223.88
600.073	229.88
600.282	228.88
600.491	212.88
600.7	211.88
600.909	215.88
601.118	238.88
601.327	226.88
601.536	216.88
601.745	225.88
601.953	222.88
602.162	217.88
602.371	221.88
602.58	225.88
602.789	222.88
602.997	231.88
603.206	235.88
603.415	219.88
603.623	224.88
603.832	216.88
604.041	217.88
604.249	213.88
604.458	212.88
604.666	225.88
604.875	220.88
605.084	212.88
605.292	212.88
605.501	213.88
605.709	215.88
605.918	202.88
606.126	224.88
606.334	219.88
606.543	229.88
606.751	219.88
606.96	203.88
607.168	205.88
607.376	206.88
607.585	215.88
607.793	217.88
608.001	228.88
608.21	213.88
608.418	210.88
608.626	221.88
608.834	199.88
609.043	210.88
609.251	208.88
609.459	212.88
609.667	217.88
609.875	212.88
610.083	206.88
610.291	198.88
610.499	232.88
610.707	197.88
610.916	208.88
611.124	216.88
611.332	221.88
611.54	211.88
611.748	215.88
611.955	230.88
612.163	208.88
612.371	205.88
612.579	213.88
612.787	209.88
612.995	191.88
613.203	206.88
613.411	201.88
613.618	214.88
613.826	207.88
614.034	222.88
614.242	217.88
614.449	215.88
614.657	199.88
614.865	200.88
615.072	201.88
615.28	209.88
615.488	220.88
615.695	205.88
615.903	210.88
616.111	212.88
616.318	213.88
616.526	206.88
616.733	216.88
616.941	219.88
617.148	206.88
617.356	204.88
617.563	209.88
617.771	198.88
617.978	203.88
618.185	208.88
618.393	196.88
618.6	210.88
618.807	203.88
619.015	206.88
619.222	202.88
619.429	210.88
619.637	200.88
619.844	203.88
620.051	191.88
620.258	200.88
620.466	206.88
620.673	185.88
620.88	184.88
621.087	193.88
621.294	199.88
621.501	199.88
621.708	190.88
621.915	201.88
622.122	205.88
622.329	197.88
622.536	182.88
622.743	210.88
622.95	202.88
623.157	182.88
623.364	202.88
623.571	214.88
623.778	204.88
623.985	196.88
624.192	188.88
624.399	207.88
624.606	189.88
624.812	192.88
625.019	184.88
625.226	187.88
625.433	181.88
625.639	170.88
625.846	188.88
626.053	182.88
626.259	192.88
626.466	176.88
626.673	174.88
626.879	187.88
627.086	185.88
627.293	183.88
627.499	193.88
627.706	193.88
627.912	187.88
628.119	193.88
628.325	169.88
628.532	189.88
628.738	186.88
628.945	170.88
629.151	176.88
629.357	181.88
629.564	194.88
629.77	194.88
629.976	169.88
630.183	157.88
630.389	184.88
630.595	171.88
630.802	180.88
631.008	178.88
631.214	166.88
631.42	194.88
631.627	181.88
631.833	180.88
632.039	183.88
632.245	169.88
632.451	164.88
632.657	170.88
632.863	180.88
633.069	148.88
633.275	182.88
633.481	165.88
633.688	160.88
633.893	173.88
634.099	164.88
634.305	162.88
634.511	168.88
634.717	161.88
634.923	159.88
635.129	165.88
635.335	169.88
635.541	163.88
635.747	173.88
635.952	163.88
636.158	166.88
636.364	170.88
636.57	179.88
636.775	182.88
636.981	170.88
637.187	159.88
637.392	156.88
637.598	162.88
637.804	165.88
638.009	161.88
638.215	166.88
638.421	155.88
638.626	167.88
638.832	164.88
639.037	161.88
639.243	169.88
639.448	160.88
639.654	172.88
639.859	162.88
640.065	158.88
640.27	178.88
640.475	143.88
640.681	157.88
640.886	168.88
641.091	171.88
641.297	157.88
641.502	155.88
641.707	146.88
641.913	160.88
642.118	151.88
642.323	139.88
642.528	156.88
642.733	148.88
642.939	147.88
643.144	145.88
643.349	165.88
643.554	156.88
643.759	146.88
643.964	151.88
644.169	165.88
644.374	159.88
644.579	141.88
644.784	141.88
644.989	166.88
645.194	144.88
645.399	142.88
645.604	148.88
645.809	144.88
646.014	142.88
646.219	149.88
646.423	158.88
646.628	139.88
646.833	160.88
647.038	149.88
647.243	160.88
647.447	160.88
647.652	152.88
647.857	146.88
648.062	140.88
648.266	144.88
648.471	152.88
648.676	150.88
648.88	146.88
649.085	153.88
649.289	146.88
649.494	163.88
649.698	176.88
649.903	173.88
650.107	156.88
650.312	154.88
650.516	149.88
650.721	150.88
650.925	142.88
651.13	155.88
651.334	138.88
651.539	146.88
651.743	149.88
651.947	132.88
652.152	145.88
652.356	153.88
652.56	132.88
652.764	134.88
652.969	139.88
653.173	121.88
653.377	121.88
653.581	136.88
653.785	124.88
653.99	127.88
654.194	123.88
654.398	134.88
654.602	136.88
654.806	138.88
655.01	139.88
655.214	123.88
655.418	112.88
655.622	141.88
655.826	123.88
656.03	118.88
656.234	142.88
656.438	118.88
656.642	134.88
656.846	116.88
657.049	117.88
657.253	128.88
657.457	106.88
657.661	114.88
657.865	114.88
658.068	102.88
658.272	105.88
658.476	95.88
658.68	101.88
658.883	93.88
659.087	106.88
659.291	104.88
659.494	108.88
659.698	83.88
659.901	89.88
660.105	85.88
660.309	97.88
660.512	103.88
660.716	90.88
660.919	92.88
661.123	92.88
661.326	91.88
661.53	83.88
661.733	82.88
661.936	99.88
662.14	84.88
662.343	93.88
662.546	87.88
662.75	87.88
662.953	83.88
663.156	77.88
663.36	79.88
663.563	88.88
663.766	88.88
663.969	80.88
664.173	88.88
664.376	81.88
664.579	93.88
664.782	69.88
664.985	98.88
665.188	74.88
665.391	74.88
665.594	82.88
665.797	88.88
666	81.88
666.203	70.88
666.406	88.88
666.609	70.88
666.812	93.88
667.015	96.88
667.218	82.88
667.421	89.88
667.624	77.88
667.827	68.88
668.03	82.88
668.232	87.88
668.435	78.88
668.638	60.88
668.841	78.88
669.043	69.88
669.246	89.88
669.449	96.88
669.651	75.88
669.854	72.88
670.057	84.88
670.259	73.88
670.462	85.88
670.665	80.88
670.867	84.88
671.07	83.88
671.272	78.88
671.475	91.88
671.677	81.88
671.88	76.88
672.082	75.88
672.284	77.88
672.487	84.88
672.689	87.88
672.892	81.88
