Data from 1972.PennyLincolnUp.Lamp.En5.5.200Scan.071719.P1._HRD10591_15-28-55-845.txt Node
Date: Thu Jul 18 15:28:55 EDT 2019
User: cochatt
Spectrometer: HR+D1059
Trigger mode: 1
Integration Time (sec): 1.000000E-1
Scans to average: 1
Electric dark correction enabled: true
Nonlinearity correction enabled: false
Boxcar width: 0
XAxis mode: Wavelengths
Number of Pixels in Spectrum: 2048
>>>>>Begin Spectral Data<<<<<
223.165	-23.94
223.4	-23.94
223.635	-23.94
223.869	-11.94
224.104	-12.94
224.338	-11.94
224.573	-6.94
224.808	-9.94
225.042	-14.94
225.277	-0.94
225.511	1.06
225.746	5.06
225.98	7.06
226.215	16.06
226.449	12.06
226.683	5.06
226.918	23.06
227.152	24.06
227.387	36.06
227.621	38.06
227.856	41.06
228.09	45.06
228.324	62.06
228.559	46.06
228.793	70.06
229.027	103.06
229.262	127.06
229.496	128.06
229.73	134.06
229.964	165.06
230.199	130.06
230.433	122.06
230.667	122.06
230.901	127.06
231.136	109.06
231.37	93.06
231.604	111.06
231.838	101.06
232.072	121.06
232.306	108.06
232.541	119.06
232.775	108.06
233.009	117.06
233.243	117.06
233.477	119.06
233.711	99.06
233.945	106.06
234.179	109.06
234.413	120.06
234.647	115.06
234.881	128.06
235.115	116.06
235.349	124.06
235.583	122.06
235.817	125.06
236.051	135.06
236.285	136.06
236.519	135.06
236.753	131.06
236.987	156.06
237.221	195.06
237.455	257.06
237.689	193.06
237.922	153.06
238.156	135.06
238.39	137.06
238.624	127.06
238.858	126.06
239.091	115.06
239.325	113.06
239.559	118.06
239.793	139.06
240.027	141.06
240.26	141.06
240.494	163.06
240.728	153.06
240.961	159.06
241.195	162.06
241.429	141.06
241.662	140.06
241.896	138.06
242.13	139.06
242.363	130.06
242.597	147.06
242.83	137.06
243.064	143.06
243.298	139.06
243.531	145.06
243.765	129.06
243.998	144.06
244.232	146.06
244.465	152.06
244.699	123.06
244.932	143.06
245.166	146.06
245.399	139.06
245.633	142.06
245.866	139.06
246.099	141.06
246.333	155.06
246.566	148.06
246.8	135.06
247.033	155.06
247.266	167.06
247.5	177.06
247.733	169.06
247.966	165.06
248.2	179.06
248.433	181.06
248.666	180.06
248.899	205.06
249.133	202.06
249.366	235.06
249.599	211.06
249.832	188.06
250.066	168.06
250.299	182.06
250.532	194.06
250.765	234.06
250.998	239.06
251.231	242.06
251.465	227.06
251.698	223.06
251.931	201.06
252.164	185.06
252.397	202.06
252.63	213.06
252.863	232.06
253.096	222.06
253.329	233.06
253.562	243.06
253.795	250.06
254.028	234.06
254.261	228.06
254.494	234.06
254.727	278.06
254.96	307.06
255.193	299.06
255.426	277.06
255.659	268.06
255.892	241.06
256.124	247.06
256.357	258.06
256.59	245.06
256.823	234.06
257.056	228.06
257.289	207.06
257.521	231.06
257.754	236.06
257.987	230.06
258.22	230.06
258.452	211.06
258.685	219.06
258.918	204.06
259.151	226.06
259.383	239.06
259.616	231.06
259.849	259.06
260.081	231.06
260.314	281.06
260.547	266.06
260.779	257.06
261.012	246.06
261.244	229.06
261.477	241.06
261.71	243.06
261.942	248.06
262.175	260.06
262.407	241.06
262.64	227.06
262.872	231.06
263.105	211.06
263.337	224.06
263.57	223.06
263.802	222.06
264.035	204.06
264.267	219.06
264.499	216.06
264.732	242.06
264.964	221.06
265.197	221.06
265.429	221.06
265.661	218.06
265.894	211.06
266.126	231.06
266.358	247.06
266.591	218.06
266.823	228.06
267.055	228.06
267.287	230.06
267.52	227.06
267.752	250.06
267.984	220.06
268.216	227.06
268.448	246.06
268.681	262.06
268.913	247.06
269.145	261.06
269.377	278.06
269.609	286.06
269.841	290.06
270.073	278.06
270.306	300.06
270.538	329.06
270.77	338.06
271.002	327.06
271.234	303.06
271.466	319.06
271.698	346.06
271.93	340.06
272.162	350.06
272.394	337.06
272.626	307.06
272.858	313.06
273.09	301.06
273.322	285.06
273.553	285.06
273.785	280.06
274.017	283.06
274.249	278.06
274.481	286.06
274.713	281.06
274.945	293.06
275.176	285.06
275.408	270.06
275.64	276.06
275.872	289.06
276.104	286.06
276.335	292.06
276.567	286.06
276.799	304.06
277.031	313.06
277.262	343.06
277.494	341.06
277.726	327.06
277.957	294.06
278.189	324.06
278.421	278.06
278.652	277.06
278.884	278.06
279.115	285.06
279.347	269.06
279.579	259.06
279.81	270.06
280.042	269.06
280.273	283.06
280.505	271.06
280.736	263.06
280.968	298.06
281.199	253.06
281.431	276.06
281.662	290.06
281.894	280.06
282.125	271.06
282.356	309.06
282.588	317.06
282.819	315.06
283.051	296.06
283.282	283.06
283.513	279.06
283.745	270.06
283.976	275.06
284.207	281.06
284.439	266.06
284.67	295.06
284.901	277.06
285.132	277.06
285.364	278.06
285.595	275.06
285.826	275.06
286.057	270.06
286.288	280.06
286.52	267.06
286.751	281.06
286.982	266.06
287.213	273.06
287.444	292.06
287.675	281.06
287.906	284.06
288.138	317.06
288.369	300.06
288.6	297.06
288.831	316.06
289.062	291.06
289.293	291.06
289.524	293.06
289.755	293.06
289.986	278.06
290.217	295.06
290.448	285.06
290.679	286.06
290.91	276.06
291.141	266.06
291.371	294.06
291.602	287.06
291.833	295.06
292.064	291.06
292.295	296.06
292.526	281.06
292.757	284.06
292.987	274.06
293.218	270.06
293.449	283.06
293.68	301.06
293.91	285.06
294.141	312.06
294.372	276.06
294.603	286.06
294.833	305.06
295.064	279.06
295.295	294.06
295.525	300.06
295.756	307.06
295.987	320.06
296.217	334.06
296.448	345.06
296.679	308.06
296.909	300.06
297.14	302.06
297.37	293.06
297.601	305.06
297.831	288.06
298.062	288.06
298.292	303.06
298.523	288.06
298.753	309.06
298.984	295.06
299.214	300.06
299.445	299.06
299.675	314.06
299.905	342.06
300.136	304.06
300.366	295.06
300.597	295.06
300.827	319.06
301.057	323.06
301.288	322.06
301.518	326.06
301.748	323.06
301.979	317.06
302.209	311.06
302.439	310.06
302.669	303.06
302.9	313.06
303.13	323.06
303.36	334.06
303.59	327.06
303.82	316.06
304.051	339.06
304.281	323.06
304.511	298.06
304.741	311.06
304.971	333.06
305.201	321.06
305.431	300.06
305.661	334.06
305.891	329.06
306.121	338.06
306.352	329.06
306.582	334.06
306.812	325.06
307.042	324.06
307.272	325.06
307.502	326.06
307.731	321.06
307.961	327.06
308.191	344.06
308.421	325.06
308.651	333.06
308.881	349.06
309.111	349.06
309.341	342.06
309.571	348.06
309.8	378.06
310.03	374.06
310.26	378.06
310.49	391.06
310.72	403.06
310.949	427.06
311.179	414.06
311.409	381.06
311.639	384.06
311.868	400.06
312.098	394.06
312.328	373.06
312.557	418.06
312.787	421.06
313.017	423.06
313.246	409.06
313.476	395.06
313.706	388.06
313.935	380.06
314.165	402.06
314.394	414.06
314.624	421.06
314.853	410.06
315.083	389.06
315.312	373.06
315.542	388.06
315.771	365.06
316.001	381.06
316.23	375.06
316.46	360.06
316.689	373.06
316.919	391.06
317.148	404.06
317.377	406.06
317.607	407.06
317.836	393.06
318.065	387.06
318.295	359.06
318.524	371.06
318.753	369.06
318.983	381.06
319.212	394.06
319.441	387.06
319.67	393.06
319.9	388.06
320.129	389.06
320.358	379.06
320.587	395.06
320.816	403.06
321.046	401.06
321.275	415.06
321.504	398.06
321.733	421.06
321.962	427.06
322.191	455.06
322.42	453.06
322.649	464.06
322.878	481.06
323.108	494.06
323.337	525.06
323.566	539.06
323.795	637.06
324.024	674.06
324.253	804.06
324.482	1239.06
324.71	1963.06
324.939	2876.06
325.168	2529.06
325.397	1241.06
325.626	773.06
325.855	661.06
326.084	571.06
326.313	563.06
326.542	586.06
326.77	618.06
326.999	776.06
327.228	1115.06
327.457	1719.06
327.686	2152.06
327.914	1392.06
328.143	880.06
328.372	767.06
328.6	677.06
328.829	651.06
329.058	673.06
329.287	680.06
329.515	628.06
329.744	586.06
329.972	574.06
330.201	592.06
330.43	667.06
330.658	685.06
330.887	725.06
331.115	703.06
331.344	574.06
331.572	526.06
331.801	532.06
332.03	526.06
332.258	490.06
332.486	476.06
332.715	457.06
332.943	469.06
333.172	476.06
333.4	461.06
333.629	475.06
333.857	487.06
334.085	519.06
334.314	531.06
334.542	578.06
334.771	579.06
334.999	537.06
335.227	497.06
335.455	455.06
335.684	459.06
335.912	455.06
336.14	431.06
336.369	430.06
336.597	462.06
336.825	474.06
337.053	441.06
337.281	417.06
337.51	407.06
337.738	448.06
337.966	423.06
338.194	451.06
338.422	456.06
338.65	428.06
338.878	437.06
339.106	420.06
339.334	430.06
339.562	431.06
339.79	413.06
340.018	422.06
340.246	433.06
340.474	447.06
340.702	423.06
340.93	438.06
341.158	433.06
341.386	405.06
341.614	421.06
341.842	398.06
342.07	407.06
342.298	415.06
342.526	396.06
342.754	417.06
342.981	421.06
343.209	408.06
343.437	415.06
343.665	404.06
343.893	426.06
344.12	421.06
344.348	417.06
344.576	422.06
344.804	451.06
345.031	453.06
345.259	460.06
345.487	441.06
345.714	449.06
345.942	434.06
346.17	442.06
346.397	404.06
346.625	433.06
346.853	397.06
347.08	402.06
347.308	427.06
347.535	430.06
347.763	450.06
347.99	423.06
348.218	422.06
348.445	435.06
348.673	445.06
348.9	415.06
349.128	431.06
349.355	394.06
349.583	415.06
349.81	410.06
350.037	390.06
350.265	388.06
350.492	389.06
350.72	409.06
350.947	409.06
351.174	421.06
351.402	413.06
351.629	442.06
351.856	435.06
352.083	437.06
352.311	425.06
352.538	453.06
352.765	448.06
352.992	443.06
353.22	412.06
353.447	427.06
353.674	400.06
353.901	381.06
354.128	378.06
354.355	382.06
354.583	399.06
354.81	387.06
355.037	378.06
355.264	373.06
355.491	355.06
355.718	365.06
355.945	376.06
356.172	366.06
356.399	405.06
356.626	363.06
356.853	379.06
357.08	358.06
357.307	379.06
357.534	376.06
357.761	362.06
357.988	385.06
358.215	373.06
358.441	391.06
358.668	388.06
358.895	390.06
359.122	382.06
359.349	406.06
359.576	418.06
359.802	436.06
360.029	465.06
360.256	499.06
360.483	458.06
360.709	416.06
360.936	421.06
361.163	419.06
361.39	414.06
361.616	423.06
361.843	397.06
362.07	391.06
362.296	417.06
362.523	420.06
362.749	414.06
362.976	404.06
363.203	414.06
363.429	387.06
363.656	380.06
363.882	391.06
364.109	362.06
364.335	399.06
364.562	379.06
364.788	355.06
365.015	387.06
365.241	376.06
365.468	368.06
365.694	411.06
365.92	401.06
366.147	371.06
366.373	385.06
366.599	383.06
366.826	391.06
367.052	390.06
367.278	378.06
367.505	371.06
367.731	399.06
367.957	367.06
368.184	362.06
368.41	378.06
368.636	389.06
368.862	410.06
369.089	381.06
369.315	395.06
369.541	361.06
369.767	378.06
369.993	383.06
370.219	379.06
370.445	390.06
370.672	385.06
370.898	383.06
371.124	380.06
371.35	363.06
371.576	389.06
371.802	366.06
372.028	351.06
372.254	386.06
372.48	354.06
372.706	379.06
372.932	357.06
373.158	379.06
373.384	379.06
373.61	386.06
373.835	366.06
374.061	351.06
374.287	389.06
374.513	385.06
374.739	380.06
374.965	366.06
375.191	361.06
375.416	373.06
375.642	348.06
375.868	361.06
376.094	388.06
376.319	362.06
376.545	365.06
376.771	355.06
376.997	371.06
377.222	350.06
377.448	375.06
377.674	359.06
377.899	349.06
378.125	365.06
378.35	375.06
378.576	362.06
378.802	345.06
379.027	355.06
379.253	375.06
379.478	356.06
379.704	372.06
379.929	376.06
380.155	375.06
380.38	360.06
380.606	375.06
380.831	346.06
381.057	358.06
381.282	378.06
381.507	362.06
381.733	378.06
381.958	351.06
382.184	365.06
382.409	355.06
382.634	361.06
382.86	358.06
383.085	361.06
383.31	377.06
383.535	385.06
383.761	382.06
383.986	394.06
384.211	355.06
384.436	373.06
384.662	377.06
384.887	375.06
385.112	374.06
385.337	392.06
385.562	396.06
385.787	398.06
386.013	399.06
386.238	398.06
386.463	413.06
386.688	397.06
386.913	397.06
387.138	378.06
387.363	382.06
387.588	384.06
387.813	397.06
388.038	393.06
388.263	385.06
388.488	385.06
388.713	390.06
388.938	398.06
389.163	399.06
389.387	385.06
389.612	395.06
389.837	410.06
390.062	403.06
390.287	374.06
390.512	374.06
390.736	380.06
390.961	389.06
391.186	385.06
391.411	392.06
391.636	409.06
391.86	389.06
392.085	378.06
392.31	388.06
392.534	388.06
392.759	398.06
392.984	405.06
393.208	381.06
393.433	413.06
393.658	400.06
393.882	362.06
394.107	396.06
394.331	397.06
394.556	395.06
394.78	395.06
395.005	387.06
395.229	396.06
395.454	406.06
395.678	405.06
395.903	398.06
396.127	440.06
396.352	426.06
396.576	428.06
396.801	412.06
397.025	405.06
397.249	411.06
397.474	403.06
397.698	394.06
397.922	427.06
398.147	427.06
398.371	441.06
398.595	434.06
398.82	424.06
399.044	422.06
399.268	449.06
399.492	446.06
399.717	473.06
399.941	506.06
400.165	534.06
400.389	562.06
400.613	498.06
400.837	479.06
401.062	468.06
401.286	454.06
401.51	449.06
401.734	423.06
401.958	435.06
402.182	458.06
402.406	476.06
402.63	477.06
402.854	458.06
403.078	462.06
403.302	457.06
403.526	463.06
403.75	475.06
403.974	456.06
404.198	458.06
404.422	460.06
404.645	468.06
404.869	474.06
405.093	511.06
405.317	572.06
405.541	565.06
405.765	554.06
405.988	492.06
406.212	520.06
406.436	541.06
406.66	542.06
406.883	520.06
407.107	549.06
407.331	592.06
407.555	628.06
407.778	638.06
408.002	569.06
408.226	526.06
408.449	502.06
408.673	527.06
408.896	556.06
409.12	591.06
409.344	556.06
409.567	503.06
409.791	465.06
410.014	472.06
410.238	468.06
410.461	449.06
410.685	484.06
410.908	482.06
411.132	519.06
411.355	580.06
411.578	548.06
411.802	491.06
412.025	471.06
412.249	468.06
412.472	514.06
412.695	567.06
412.919	568.06
413.142	486.06
413.365	462.06
413.589	455.06
413.812	446.06
414.035	438.06
414.258	440.06
414.482	439.06
414.705	430.06
414.928	422.06
415.151	435.06
415.374	439.06
415.597	424.06
415.821	437.06
416.044	457.06
416.267	432.06
416.49	424.06
416.713	436.06
416.936	449.06
417.159	439.06
417.382	452.06
417.605	446.06
417.828	443.06
418.051	467.06
418.274	470.06
418.497	455.06
418.72	426.06
418.943	449.06
419.166	449.06
419.389	475.06
419.611	469.06
419.834	467.06
420.057	478.06
420.28	491.06
420.503	456.06
420.726	471.06
420.948	490.06
421.171	542.06
421.394	570.06
421.617	498.06
421.839	460.06
422.062	482.06
422.285	478.06
422.507	545.06
422.73	625.06
422.953	593.06
423.175	527.06
423.398	493.06
423.621	488.06
423.843	512.06
424.066	507.06
424.288	502.06
424.511	557.06
424.733	608.06
424.956	670.06
425.178	654.06
425.401	663.06
425.623	695.06
425.846	567.06
426.068	523.06
426.291	539.06
426.513	514.06
426.735	512.06
426.958	573.06
427.18	671.06
427.402	821.06
427.625	908.06
427.847	851.06
428.069	707.06
428.292	595.06
428.514	535.06
428.736	508.06
428.958	515.06
429.181	481.06
429.403	482.06
429.625	509.06
429.847	531.06
430.069	613.06
430.292	590.06
430.514	482.06
430.736	489.06
430.958	455.06
431.18	460.06
431.402	425.06
431.624	426.06
431.846	430.06
432.068	441.06
432.29	456.06
432.512	454.06
432.734	441.06
432.956	459.06
433.178	485.06
433.4	492.06
433.622	483.06
433.844	461.06
434.066	428.06
434.287	444.06
434.509	462.06
434.731	443.06
434.953	460.06
435.175	476.06
435.397	492.06
435.618	517.06
435.84	549.06
436.062	680.06
436.284	728.06
436.505	585.06
436.727	555.06
436.949	484.06
437.17	492.06
437.392	480.06
437.614	503.06
437.835	548.06
438.057	661.06
438.278	767.06
438.5	757.06
438.721	843.06
438.943	789.06
439.165	608.06
439.386	558.06
439.608	554.06
439.829	554.06
440.05	590.06
440.272	634.06
440.493	593.06
440.715	535.06
440.936	520.06
441.158	498.06
441.379	500.06
441.6	477.06
441.822	501.06
442.043	577.06
442.264	672.06
442.486	721.06
442.707	588.06
442.928	563.06
443.149	547.06
443.371	600.06
443.592	642.06
443.813	733.06
444.034	761.06
444.255	621.06
444.476	546.06
444.698	529.06
444.919	517.06
445.14	594.06
445.361	581.06
445.582	575.06
445.803	660.06
446.024	777.06
446.245	803.06
446.466	723.06
446.687	598.06
446.908	555.06
447.129	510.06
447.35	479.06
447.571	499.06
447.792	484.06
448.013	482.06
448.234	505.06
448.455	580.06
448.675	705.06
448.896	829.06
449.117	693.06
449.338	639.06
449.559	748.06
449.779	867.06
450	705.06
450.221	549.06
450.442	503.06
450.662	478.06
450.883	489.06
451.104	537.06
451.324	482.06
451.545	492.06
451.766	463.06
451.986	433.06
452.207	430.06
452.428	443.06
452.648	436.06
452.869	455.06
453.089	444.06
453.31	455.06
453.53	456.06
453.751	463.06
453.971	461.06
454.192	462.06
454.412	465.06
454.633	433.06
454.853	435.06
455.073	441.06
455.294	472.06
455.514	557.06
455.734	525.06
455.955	440.06
456.175	430.06
456.395	403.06
456.616	412.06
456.836	404.06
457.056	393.06
457.276	398.06
457.497	398.06
457.717	411.06
457.937	425.06
458.157	403.06
458.377	419.06
458.598	458.06
458.818	498.06
459.038	618.06
459.258	635.06
459.478	528.06
459.698	477.06
459.918	443.06
460.138	437.06
460.358	445.06
460.578	424.06
460.798	437.06
461.018	439.06
461.238	443.06
461.458	435.06
461.678	429.06
461.898	441.06
462.118	439.06
462.338	445.06
462.558	438.06
462.777	445.06
462.997	468.06
463.217	454.06
463.437	465.06
463.657	458.06
463.876	453.06
464.096	465.06
464.316	433.06
464.536	486.06
464.755	475.06
464.975	467.06
465.195	538.06
465.414	616.06
465.634	561.06
465.854	498.06
466.073	495.06
466.293	457.06
466.512	446.06
466.732	435.06
466.951	433.06
467.171	424.06
467.391	434.06
467.61	449.06
467.829	460.06
468.049	462.06
468.268	479.06
468.488	436.06
468.707	443.06
468.927	435.06
469.146	398.06
469.365	435.06
469.585	424.06
469.804	440.06
470.023	427.06
470.243	441.06
470.462	443.06
470.681	470.06
470.901	498.06
471.12	448.06
471.339	452.06
471.558	457.06
471.777	439.06
471.997	440.06
472.216	445.06
472.435	504.06
472.654	460.06
472.873	450.06
473.092	447.06
473.311	452.06
473.53	441.06
473.749	447.06
473.968	511.06
474.187	635.06
474.406	646.06
474.625	519.06
474.844	473.06
475.063	443.06
475.282	435.06
475.501	453.06
475.72	449.06
475.939	434.06
476.158	453.06
476.377	475.06
476.596	445.06
476.814	465.06
477.033	476.06
477.252	478.06
477.471	456.06
477.69	489.06
477.908	486.06
478.127	480.06
478.346	466.06
478.564	477.06
478.783	488.06
479.002	505.06
479.22	502.06
479.439	508.06
479.658	533.06
479.876	541.06
480.095	534.06
480.313	573.06
480.532	591.06
480.751	534.06
480.969	555.06
481.188	646.06
481.406	719.06
481.624	599.06
481.843	563.06
482.061	547.06
482.28	534.06
482.498	547.06
482.717	511.06
482.935	543.06
483.153	515.06
483.372	506.06
483.59	515.06
483.808	521.06
484.027	528.06
484.245	524.06
484.463	545.06
484.681	516.06
484.9	536.06
485.118	526.06
485.336	530.06
485.554	519.06
485.772	549.06
485.99	537.06
486.209	561.06
486.427	549.06
486.645	563.06
486.863	574.06
487.081	579.06
487.299	563.06
487.517	556.06
487.735	558.06
487.953	569.06
488.171	577.06
488.389	558.06
488.607	569.06
488.825	556.06
489.043	552.06
489.261	568.06
489.479	569.06
489.696	579.06
489.914	583.06
490.132	562.06
490.35	573.06
490.568	577.06
490.786	587.06
491.003	616.06
491.221	638.06
491.439	643.06
491.657	635.06
491.874	658.06
492.092	637.06
492.31	636.06
492.527	648.06
492.745	650.06
492.963	653.06
493.18	657.06
493.398	643.06
493.615	661.06
493.833	656.06
494.05	667.06
494.268	652.06
494.485	686.06
494.703	665.06
494.92	641.06
495.138	653.06
495.355	668.06
495.573	655.06
495.79	693.06
496.008	654.06
496.225	689.06
496.442	639.06
496.66	661.06
496.877	669.06
497.094	646.06
497.312	653.06
497.529	681.06
497.746	687.06
497.963	697.06
498.181	725.06
498.398	707.06
498.615	717.06
498.832	725.06
499.049	729.06
499.267	725.06
499.484	756.06
499.701	778.06
499.918	762.06
500.135	814.06
500.352	811.06
500.569	801.06
500.786	819.06
501.003	814.06
501.22	813.06
501.437	817.06
501.654	799.06
501.871	816.06
502.088	787.06
502.305	749.06
502.522	737.06
502.739	742.06
502.956	706.06
503.172	696.06
503.389	686.06
503.606	703.06
503.823	701.06
504.04	679.06
504.256	699.06
504.473	638.06
504.69	658.06
504.907	648.06
505.123	645.06
505.34	647.06
505.557	653.06
505.773	658.06
505.99	653.06
506.207	635.06
506.423	630.06
506.64	645.06
506.856	651.06
507.073	628.06
507.289	650.06
507.506	646.06
507.722	651.06
507.939	684.06
508.155	643.06
508.372	644.06
508.588	630.06
508.805	627.06
509.021	606.06
509.238	636.06
509.454	649.06
509.67	662.06
509.887	620.06
510.103	634.06
510.319	659.06
510.536	777.06
510.752	1369.06
510.968	1081.06
511.184	673.06
511.401	621.06
511.617	629.06
511.833	615.06
512.049	627.06
512.265	602.06
512.481	610.06
512.698	595.06
512.914	617.06
513.13	614.06
513.346	601.06
513.562	589.06
513.778	622.06
513.994	607.06
514.21	645.06
514.426	659.06
514.642	732.06
514.858	767.06
515.074	825.06
515.29	1010.06
515.506	1550.06
515.721	1231.06
515.937	796.06
516.153	722.06
516.369	645.06
516.585	647.06
516.801	625.06
517.016	620.06
517.232	623.06
517.448	611.06
517.664	589.06
517.879	613.06
518.095	610.06
518.311	617.06
518.527	590.06
518.742	602.06
518.958	601.06
519.173	599.06
519.389	584.06
519.605	583.06
519.82	642.06
520.036	609.06
520.251	635.06
520.467	712.06
520.682	691.06
520.898	717.06
521.113	754.06
521.329	801.06
521.544	957.06
521.76	1244.06
521.975	2108.06
522.19	2036.06
522.406	1059.06
522.621	784.06
522.836	690.06
523.052	631.06
523.267	595.06
523.482	583.06
523.698	569.06
523.913	582.06
524.128	564.06
524.343	562.06
524.559	550.06
524.774	531.06
524.989	543.06
525.204	547.06
525.419	529.06
525.634	530.06
525.849	514.06
526.064	489.06
526.28	484.06
526.495	478.06
526.71	504.06
526.925	492.06
527.14	490.06
527.355	491.06
527.57	487.06
527.785	486.06
527.999	473.06
528.214	467.06
528.429	486.06
528.644	476.06
528.859	479.06
529.074	504.06
529.289	508.06
529.503	651.06
529.718	594.06
529.933	516.06
530.148	517.06
530.363	511.06
530.577	478.06
530.792	489.06
531.007	487.06
531.221	468.06
531.436	456.06
531.651	467.06
531.865	464.06
532.08	456.06
532.295	479.06
532.509	447.06
532.724	442.06
532.938	460.06
533.153	426.06
533.367	470.06
533.582	458.06
533.796	462.06
534.011	434.06
534.225	451.06
534.44	423.06
534.654	455.06
534.868	454.06
535.083	448.06
535.297	437.06
535.511	457.06
535.726	463.06
535.94	452.06
536.154	474.06
536.369	464.06
536.583	439.06
536.797	411.06
537.011	423.06
537.225	440.06
537.44	442.06
537.654	422.06
537.868	439.06
538.082	426.06
538.296	419.06
538.51	433.06
538.724	417.06
538.938	437.06
539.153	453.06
539.367	463.06
539.581	458.06
539.795	427.06
540.009	454.06
540.222	428.06
540.436	436.06
540.65	436.06
540.864	441.06
541.078	448.06
541.292	461.06
541.506	449.06
541.72	435.06
541.934	425.06
542.147	450.06
542.361	421.06
542.575	415.06
542.789	437.06
543.002	433.06
543.216	451.06
543.43	415.06
543.644	430.06
543.857	436.06
544.071	422.06
544.285	435.06
544.498	417.06
544.712	396.06
544.925	417.06
545.139	423.06
545.352	410.06
545.566	397.06
545.779	409.06
545.993	422.06
546.206	428.06
546.42	446.06
546.633	402.06
546.847	426.06
547.06	409.06
547.274	413.06
547.487	406.06
547.7	392.06
547.914	415.06
548.127	393.06
548.34	399.06
548.554	405.06
548.767	415.06
548.98	403.06
549.193	391.06
549.407	404.06
549.62	421.06
549.833	403.06
550.046	392.06
550.259	399.06
550.473	403.06
550.686	391.06
550.899	406.06
551.112	387.06
551.325	385.06
551.538	395.06
551.751	402.06
551.964	377.06
552.177	380.06
552.39	388.06
552.603	385.06
552.816	404.06
553.029	411.06
553.242	402.06
553.455	393.06
553.667	407.06
553.88	431.06
554.093	420.06
554.306	409.06
554.519	413.06
554.732	391.06
554.944	402.06
555.157	400.06
555.37	390.06
555.583	382.06
555.795	386.06
556.008	362.06
556.221	369.06
556.433	357.06
556.646	393.06
556.859	378.06
557.071	377.06
557.284	371.06
557.496	380.06
557.709	364.06
557.921	366.06
558.134	365.06
558.346	362.06
558.559	359.06
558.771	359.06
558.984	350.06
559.196	375.06
559.409	364.06
559.621	369.06
559.833	355.06
560.046	335.06
560.258	381.06
560.47	361.06
560.683	352.06
560.895	326.06
561.107	340.06
561.32	371.06
561.532	345.06
561.744	364.06
561.956	365.06
562.168	359.06
562.381	350.06
562.593	344.06
562.805	359.06
563.017	365.06
563.229	359.06
563.441	382.06
563.653	366.06
563.865	349.06
564.077	354.06
564.289	346.06
564.501	361.06
564.713	377.06
564.925	380.06
565.137	382.06
565.349	382.06
565.561	378.06
565.773	399.06
565.985	389.06
566.197	392.06
566.408	383.06
566.62	398.06
566.832	421.06
567.044	404.06
567.255	414.06
567.467	406.06
567.679	426.06
567.891	415.06
568.102	391.06
568.314	392.06
568.526	399.06
568.737	375.06
568.949	373.06
569.161	390.06
569.372	365.06
569.584	360.06
569.795	376.06
570.007	361.06
570.218	417.06
570.43	421.06
570.641	378.06
570.853	361.06
571.064	332.06
571.276	330.06
571.487	343.06
571.698	328.06
571.91	339.06
572.121	317.06
572.333	327.06
572.544	333.06
572.755	333.06
572.966	323.06
573.178	330.06
573.389	316.06
573.6	318.06
573.811	318.06
574.023	321.06
574.234	337.06
574.445	317.06
574.656	302.06
574.867	303.06
575.078	294.06
575.289	310.06
575.501	317.06
575.712	313.06
575.923	293.06
576.134	306.06
576.345	300.06
576.556	305.06
576.767	322.06
576.978	307.06
577.188	309.06
577.399	298.06
577.61	296.06
577.821	310.06
578.032	319.06
578.243	374.06
578.454	653.06
578.665	459.06
578.875	320.06
579.086	291.06
579.297	294.06
579.508	305.06
579.718	307.06
579.929	312.06
580.14	293.06
580.35	279.06
580.561	284.06
580.772	300.06
580.982	285.06
581.193	287.06
581.403	283.06
581.614	289.06
581.825	273.06
582.035	287.06
582.246	265.06
582.456	288.06
582.667	280.06
582.877	280.06
583.087	269.06
583.298	282.06
583.508	287.06
583.719	297.06
583.929	274.06
584.139	297.06
584.35	259.06
584.56	292.06
584.77	292.06
584.981	283.06
585.191	289.06
585.401	289.06
585.611	279.06
585.821	290.06
586.032	299.06
586.242	280.06
586.452	269.06
586.662	271.06
586.872	270.06
587.082	278.06
587.292	281.06
587.502	265.06
587.713	283.06
587.923	274.06
588.133	277.06
588.343	287.06
588.553	265.06
588.762	260.06
588.972	289.06
589.182	280.06
589.392	281.06
589.602	284.06
589.812	269.06
590.022	279.06
590.232	278.06
590.441	282.06
590.651	279.06
590.861	271.06
591.071	283.06
591.281	271.06
591.49	263.06
591.7	283.06
591.91	279.06
592.119	288.06
592.329	283.06
592.539	282.06
592.748	302.06
592.958	262.06
593.167	268.06
593.377	293.06
593.587	293.06
593.796	262.06
594.006	265.06
594.215	295.06
594.424	272.06
594.634	270.06
594.843	268.06
595.053	249.06
595.262	263.06
595.472	259.06
595.681	271.06
595.89	264.06
596.1	257.06
596.309	260.06
596.518	242.06
596.727	255.06
596.937	265.06
597.146	252.06
597.355	259.06
597.564	245.06
597.774	249.06
597.983	241.06
598.192	255.06
598.401	243.06
598.61	259.06
598.819	251.06
599.028	246.06
599.237	248.06
599.446	258.06
599.655	255.06
599.864	233.06
600.073	229.06
600.282	249.06
600.491	236.06
600.7	229.06
600.909	236.06
601.118	247.06
601.327	250.06
601.536	259.06
601.745	241.06
601.953	262.06
602.162	233.06
602.371	224.06
602.58	244.06
602.789	245.06
602.997	241.06
603.206	235.06
603.415	234.06
603.623	249.06
603.832	224.06
604.041	223.06
604.249	223.06
604.458	232.06
604.666	233.06
604.875	234.06
605.084	234.06
605.292	222.06
605.501	245.06
605.709	245.06
605.918	230.06
606.126	235.06
606.334	226.06
606.543	228.06
606.751	242.06
606.96	234.06
607.168	230.06
607.376	211.06
607.585	230.06
607.793	227.06
608.001	228.06
608.21	229.06
608.418	220.06
608.626	221.06
608.834	220.06
609.043	224.06
609.251	219.06
609.459	216.06
609.667	249.06
609.875	230.06
610.083	213.06
610.291	217.06
610.499	209.06
610.707	221.06
610.916	224.06
611.124	233.06
611.332	234.06
611.54	243.06
611.748	230.06
611.955	226.06
612.163	222.06
612.371	230.06
612.579	228.06
612.787	210.06
612.995	226.06
613.203	216.06
613.411	214.06
613.618	212.06
613.826	238.06
614.034	229.06
614.242	215.06
614.449	233.06
614.657	215.06
614.865	213.06
615.072	222.06
615.28	215.06
615.488	212.06
615.695	224.06
615.903	237.06
616.111	213.06
616.318	214.06
616.526	214.06
616.733	216.06
616.941	199.06
617.148	229.06
617.356	224.06
617.563	231.06
617.771	219.06
617.978	210.06
618.185	214.06
618.393	214.06
618.6	208.06
618.807	227.06
619.015	224.06
619.222	226.06
619.429	214.06
619.637	204.06
619.844	230.06
620.051	209.06
620.258	200.06
620.466	206.06
620.673	205.06
620.88	210.06
621.087	204.06
621.294	224.06
621.501	203.06
621.708	200.06
621.915	213.06
622.122	194.06
622.329	230.06
622.536	219.06
622.743	212.06
622.95	209.06
623.157	203.06
623.364	206.06
623.571	213.06
623.778	199.06
623.985	202.06
624.192	204.06
624.399	201.06
624.606	200.06
624.812	200.06
625.019	203.06
625.226	221.06
625.433	185.06
625.639	199.06
625.846	181.06
626.053	183.06
626.259	195.06
626.466	191.06
626.673	182.06
626.879	202.06
627.086	187.06
627.293	186.06
627.499	183.06
627.706	202.06
627.912	201.06
628.119	187.06
628.325	191.06
628.532	167.06
628.738	201.06
628.945	184.06
629.151	175.06
629.357	183.06
629.564	188.06
629.77	191.06
629.976	188.06
630.183	204.06
630.389	173.06
630.595	174.06
630.802	189.06
631.008	186.06
631.214	184.06
631.42	198.06
631.627	193.06
631.833	172.06
632.039	172.06
632.245	171.06
632.451	168.06
632.657	183.06
632.863	181.06
633.069	173.06
633.275	178.06
633.481	171.06
633.688	168.06
633.893	195.06
634.099	174.06
634.305	196.06
634.511	187.06
634.717	195.06
634.923	175.06
635.129	181.06
635.335	165.06
635.541	167.06
635.747	181.06
635.952	165.06
636.158	167.06
636.364	178.06
636.57	187.06
636.775	185.06
636.981	175.06
637.187	178.06
637.392	166.06
637.598	170.06
637.804	186.06
638.009	161.06
638.215	173.06
638.421	170.06
638.626	162.06
638.832	161.06
639.037	159.06
639.243	164.06
639.448	165.06
639.654	166.06
639.859	175.06
640.065	164.06
640.27	167.06
640.475	184.06
640.681	155.06
640.886	177.06
641.091	181.06
641.297	159.06
641.502	175.06
641.707	168.06
641.913	168.06
642.118	159.06
642.323	169.06
642.528	166.06
642.733	153.06
642.939	158.06
643.144	158.06
643.349	163.06
643.554	166.06
643.759	167.06
643.964	161.06
644.169	166.06
644.374	161.06
644.579	169.06
644.784	155.06
644.989	156.06
645.194	157.06
645.399	159.06
645.604	172.06
645.809	168.06
646.014	146.06
646.219	143.06
646.423	159.06
646.628	147.06
646.833	163.06
647.038	169.06
647.243	173.06
647.447	169.06
647.652	172.06
647.857	161.06
648.062	147.06
648.266	167.06
648.471	158.06
648.676	153.06
648.88	159.06
649.085	170.06
649.289	147.06
649.494	170.06
649.698	196.06
649.903	177.06
650.107	166.06
650.312	165.06
650.516	172.06
650.721	166.06
650.925	143.06
651.13	150.06
651.334	153.06
651.539	134.06
651.743	161.06
651.947	155.06
652.152	130.06
652.356	148.06
652.56	157.06
652.764	147.06
652.969	141.06
653.173	129.06
653.377	131.06
653.581	129.06
653.785	128.06
653.99	148.06
654.194	141.06
654.398	134.06
654.602	126.06
654.806	132.06
655.01	145.06
655.214	130.06
655.418	130.06
655.622	139.06
655.826	131.06
656.03	134.06
656.234	130.06
656.438	146.06
656.642	136.06
656.846	126.06
657.049	118.06
657.253	125.06
657.457	124.06
657.661	119.06
657.865	111.06
658.068	105.06
658.272	108.06
658.476	114.06
658.68	119.06
658.883	98.06
659.087	98.06
659.291	108.06
659.494	80.06
659.698	106.06
659.901	84.06
660.105	113.06
660.309	93.06
660.512	90.06
660.716	95.06
660.919	80.06
661.123	85.06
661.326	83.06
661.53	99.06
661.733	88.06
661.936	109.06
662.14	99.06
662.343	93.06
662.546	96.06
662.75	94.06
662.953	93.06
663.156	83.06
663.36	100.06
663.563	94.06
663.766	90.06
663.969	87.06
664.173	85.06
664.376	86.06
664.579	91.06
664.782	82.06
664.985	75.06
665.188	89.06
665.391	79.06
665.594	93.06
665.797	85.06
666	68.06
666.203	64.06
666.406	87.06
666.609	89.06
666.812	80.06
667.015	94.06
667.218	85.06
667.421	70.06
667.624	87.06
667.827	80.06
668.03	89.06
668.232	89.06
668.435	83.06
668.638	85.06
668.841	92.06
669.043	76.06
669.246	81.06
669.449	101.06
669.651	95.06
669.854	82.06
670.057	84.06
670.259	81.06
670.462	82.06
670.665	86.06
670.867	85.06
671.07	93.06
671.272	79.06
671.475	86.06
671.677	77.06
671.88	77.06
672.082	86.06
672.284	90.06
672.487	78.06
672.689	93.06
672.892	86.06
