Data from 1972.PennyLincolnUp.Lamp.En5.5.200Scan.071719.P1._HRD10591_15-29-51-844.txt Node
Date: Thu Jul 18 15:29:51 EDT 2019
User: cochatt
Spectrometer: HR+D1059
Trigger mode: 1
Integration Time (sec): 1.000000E-1
Scans to average: 1
Electric dark correction enabled: true
Nonlinearity correction enabled: false
Boxcar width: 0
XAxis mode: Wavelengths
Number of Pixels in Spectrum: 2048
>>>>>Begin Spectral Data<<<<<
223.165	-12.12
223.4	-12.12
223.635	-12.12
223.869	-11.12
224.104	-18.12
224.338	-5.12
224.573	-23.12
224.808	-13.12
225.042	-17.12
225.277	5.88
225.511	-12.12
225.746	3.88
225.98	15.88
226.215	9.88
226.449	8.88
226.683	16.88
226.918	23.88
227.152	26.88
227.387	42.88
227.621	26.88
227.856	37.88
228.09	49.88
228.324	50.88
228.559	42.88
228.793	70.88
229.027	94.88
229.262	116.88
229.496	125.88
229.73	143.88
229.964	186.88
230.199	123.88
230.433	121.88
230.667	121.88
230.901	115.88
231.136	102.88
231.37	121.88
231.604	117.88
231.838	121.88
232.072	113.88
232.306	109.88
232.541	111.88
232.775	117.88
233.009	119.88
233.243	112.88
233.477	127.88
233.711	112.88
233.945	128.88
234.179	125.88
234.413	125.88
234.647	114.88
234.881	108.88
235.115	113.88
235.349	120.88
235.583	124.88
235.817	121.88
236.051	119.88
236.285	123.88
236.519	130.88
236.753	142.88
236.987	147.88
237.221	201.88
237.455	244.88
237.689	222.88
237.922	160.88
238.156	142.88
238.39	145.88
238.624	142.88
238.858	126.88
239.091	125.88
239.325	126.88
239.559	132.88
239.793	132.88
240.027	148.88
240.26	149.88
240.494	170.88
240.728	166.88
240.961	152.88
241.195	146.88
241.429	133.88
241.662	130.88
241.896	127.88
242.13	133.88
242.363	135.88
242.597	134.88
242.83	147.88
243.064	141.88
243.298	141.88
243.531	131.88
243.765	140.88
243.998	129.88
244.232	153.88
244.465	137.88
244.699	147.88
244.932	134.88
245.166	145.88
245.399	137.88
245.633	137.88
245.866	145.88
246.099	154.88
246.333	152.88
246.566	139.88
246.8	156.88
247.033	154.88
247.266	148.88
247.5	183.88
247.733	178.88
247.966	173.88
248.2	178.88
248.433	168.88
248.666	166.88
248.899	197.88
249.133	212.88
249.366	212.88
249.599	202.88
249.832	191.88
250.066	193.88
250.299	188.88
250.532	207.88
250.765	227.88
250.998	241.88
251.231	240.88
251.465	226.88
251.698	229.88
251.931	209.88
252.164	207.88
252.397	210.88
252.63	206.88
252.863	214.88
253.096	216.88
253.329	239.88
253.562	245.88
253.795	224.88
254.028	241.88
254.261	232.88
254.494	243.88
254.727	277.88
254.96	310.88
255.193	294.88
255.426	273.88
255.659	255.88
255.892	255.88
256.124	242.88
256.357	253.88
256.59	259.88
256.823	251.88
257.056	240.88
257.289	235.88
257.521	241.88
257.754	237.88
257.987	225.88
258.22	208.88
258.452	216.88
258.685	219.88
258.918	212.88
259.151	221.88
259.383	231.88
259.616	241.88
259.849	251.88
260.081	253.88
260.314	265.88
260.547	268.88
260.779	277.88
261.012	256.88
261.244	237.88
261.477	248.88
261.71	240.88
261.942	257.88
262.175	255.88
262.407	259.88
262.64	239.88
262.872	237.88
263.105	244.88
263.337	226.88
263.57	229.88
263.802	217.88
264.035	221.88
264.267	219.88
264.499	214.88
264.732	203.88
264.964	228.88
265.197	211.88
265.429	225.88
265.661	216.88
265.894	233.88
266.126	223.88
266.358	219.88
266.591	227.88
266.823	232.88
267.055	242.88
267.287	232.88
267.52	252.88
267.752	236.88
267.984	227.88
268.216	243.88
268.448	245.88
268.681	259.88
268.913	249.88
269.145	278.88
269.377	294.88
269.609	273.88
269.841	299.88
270.073	299.88
270.306	317.88
270.538	323.88
270.77	343.88
271.002	343.88
271.234	295.88
271.466	312.88
271.698	350.88
271.93	336.88
272.162	354.88
272.394	355.88
272.626	325.88
272.858	320.88
273.09	303.88
273.322	303.88
273.553	306.88
273.785	295.88
274.017	292.88
274.249	288.88
274.481	290.88
274.713	262.88
274.945	281.88
275.176	286.88
275.408	282.88
275.64	274.88
275.872	274.88
276.104	268.88
276.335	290.88
276.567	297.88
276.799	305.88
277.031	327.88
277.262	331.88
277.494	356.88
277.726	321.88
277.957	303.88
278.189	305.88
278.421	278.88
278.652	281.88
278.884	281.88
279.115	288.88
279.347	290.88
279.579	291.88
279.81	285.88
280.042	259.88
280.273	272.88
280.505	273.88
280.736	281.88
280.968	281.88
281.199	283.88
281.431	273.88
281.662	291.88
281.894	278.88
282.125	280.88
282.356	290.88
282.588	332.88
282.819	346.88
283.051	297.88
283.282	290.88
283.513	272.88
283.745	274.88
283.976	308.88
284.207	297.88
284.439	284.88
284.67	274.88
284.901	290.88
285.132	267.88
285.364	267.88
285.595	280.88
285.826	277.88
286.057	296.88
286.288	299.88
286.52	280.88
286.751	272.88
286.982	266.88
287.213	282.88
287.444	299.88
287.675	301.88
287.906	297.88
288.138	315.88
288.369	335.88
288.6	313.88
288.831	297.88
289.062	290.88
289.293	280.88
289.524	288.88
289.755	303.88
289.986	294.88
290.217	277.88
290.448	298.88
290.679	280.88
290.91	287.88
291.141	315.88
291.371	295.88
291.602	298.88
291.833	289.88
292.064	270.88
292.295	290.88
292.526	290.88
292.757	291.88
292.987	302.88
293.218	285.88
293.449	289.88
293.68	285.88
293.91	298.88
294.141	289.88
294.372	290.88
294.603	295.88
294.833	290.88
295.064	280.88
295.295	289.88
295.525	295.88
295.756	310.88
295.987	301.88
296.217	343.88
296.448	355.88
296.679	320.88
296.909	311.88
297.14	297.88
297.37	324.88
297.601	319.88
297.831	295.88
298.062	314.88
298.292	310.88
298.523	299.88
298.753	299.88
298.984	305.88
299.214	295.88
299.445	295.88
299.675	305.88
299.905	322.88
300.136	316.88
300.366	312.88
300.597	310.88
300.827	329.88
301.057	351.88
301.288	338.88
301.518	334.88
301.748	312.88
301.979	326.88
302.209	336.88
302.439	333.88
302.669	322.88
302.9	334.88
303.13	328.88
303.36	343.88
303.59	338.88
303.82	360.88
304.051	353.88
304.281	328.88
304.511	339.88
304.741	335.88
304.971	308.88
305.201	319.88
305.431	335.88
305.661	346.88
305.891	325.88
306.121	330.88
306.352	337.88
306.582	350.88
306.812	349.88
307.042	340.88
307.272	349.88
307.502	334.88
307.731	338.88
307.961	344.88
308.191	341.88
308.421	365.88
308.651	344.88
308.881	344.88
309.111	353.88
309.341	347.88
309.571	374.88
309.8	366.88
310.03	394.88
310.26	395.88
310.49	373.88
310.72	405.88
310.949	423.88
311.179	433.88
311.409	407.88
311.639	371.88
311.868	399.88
312.098	389.88
312.328	399.88
312.557	449.88
312.787	458.88
313.017	448.88
313.246	417.88
313.476	411.88
313.706	393.88
313.935	415.88
314.165	413.88
314.394	423.88
314.624	412.88
314.853	403.88
315.083	398.88
315.312	398.88
315.542	365.88
315.771	374.88
316.001	385.88
316.23	368.88
316.46	386.88
316.689	389.88
316.919	379.88
317.148	407.88
317.377	399.88
317.607	394.88
317.836	390.88
318.065	404.88
318.295	399.88
318.524	399.88
318.753	394.88
318.983	392.88
319.212	392.88
319.441	396.88
319.67	426.88
319.9	401.88
320.129	396.88
320.358	405.88
320.587	400.88
320.816	415.88
321.046	426.88
321.275	439.88
321.504	422.88
321.733	424.88
321.962	457.88
322.191	449.88
322.42	448.88
322.649	489.88
322.878	494.88
323.108	517.88
323.337	538.88
323.566	603.88
323.795	605.88
324.024	667.88
324.253	852.88
324.482	1279.88
324.71	2008.88
324.939	2959.88
325.168	2621.88
325.397	1268.88
325.626	827.88
325.855	651.88
326.084	605.88
326.313	583.88
326.542	593.88
326.77	642.88
326.999	778.88
327.228	1115.88
327.457	1753.88
327.686	2216.88
327.914	1455.88
328.143	918.88
328.372	760.88
328.6	711.88
328.829	687.88
329.058	674.88
329.287	714.88
329.515	632.88
329.744	579.88
329.972	581.88
330.201	606.88
330.43	687.88
330.658	739.88
330.887	741.88
331.115	733.88
331.344	587.88
331.572	539.88
331.801	558.88
332.03	528.88
332.258	529.88
332.486	479.88
332.715	460.88
332.943	479.88
333.172	470.88
333.4	477.88
333.629	470.88
333.857	487.88
334.085	536.88
334.314	555.88
334.542	578.88
334.771	631.88
334.999	547.88
335.227	490.88
335.455	489.88
335.684	448.88
335.912	450.88
336.14	463.88
336.369	457.88
336.597	498.88
336.825	467.88
337.053	448.88
337.281	434.88
337.51	459.88
337.738	440.88
337.966	429.88
338.194	458.88
338.422	457.88
338.65	452.88
338.878	451.88
339.106	425.88
339.334	451.88
339.562	426.88
339.79	439.88
340.018	435.88
340.246	434.88
340.474	445.88
340.702	447.88
340.93	438.88
341.158	435.88
341.386	441.88
341.614	446.88
341.842	424.88
342.07	427.88
342.298	414.88
342.526	424.88
342.754	408.88
342.981	415.88
343.209	411.88
343.437	392.88
343.665	431.88
343.893	414.88
344.12	442.88
344.348	419.88
344.576	429.88
344.804	452.88
345.031	470.88
345.259	446.88
345.487	452.88
345.714	446.88
345.942	424.88
346.17	422.88
346.397	422.88
346.625	434.88
346.853	418.88
347.08	423.88
347.308	437.88
347.535	439.88
347.763	452.88
347.99	453.88
348.218	413.88
348.445	451.88
348.673	429.88
348.9	418.88
349.128	395.88
349.355	410.88
349.583	417.88
349.81	407.88
350.037	404.88
350.265	407.88
350.492	415.88
350.72	410.88
350.947	409.88
351.174	446.88
351.402	441.88
351.629	445.88
351.856	464.88
352.083	455.88
352.311	447.88
352.538	439.88
352.765	459.88
352.992	454.88
353.22	437.88
353.447	422.88
353.674	419.88
353.901	397.88
354.128	400.88
354.355	389.88
354.583	401.88
354.81	393.88
355.037	401.88
355.264	382.88
355.491	375.88
355.718	384.88
355.945	378.88
356.172	367.88
356.399	361.88
356.626	383.88
356.853	391.88
357.08	380.88
357.307	383.88
357.534	385.88
357.761	376.88
357.988	381.88
358.215	357.88
358.441	377.88
358.668	382.88
358.895	391.88
359.122	390.88
359.349	403.88
359.576	406.88
359.802	445.88
360.029	501.88
360.256	496.88
360.483	477.88
360.709	441.88
360.936	427.88
361.163	395.88
361.39	415.88
361.616	436.88
361.843	409.88
362.07	417.88
362.296	412.88
362.523	427.88
362.749	432.88
362.976	393.88
363.203	403.88
363.429	388.88
363.656	383.88
363.882	397.88
364.109	385.88
364.335	392.88
364.562	379.88
364.788	398.88
365.015	413.88
365.241	388.88
365.468	392.88
365.694	401.88
365.92	403.88
366.147	393.88
366.373	370.88
366.599	370.88
366.826	397.88
367.052	377.88
367.278	383.88
367.505	408.88
367.731	377.88
367.957	396.88
368.184	374.88
368.41	391.88
368.636	391.88
368.862	408.88
369.089	375.88
369.315	377.88
369.541	400.88
369.767	400.88
369.993	397.88
370.219	395.88
370.445	383.88
370.672	388.88
370.898	378.88
371.124	375.88
371.35	384.88
371.576	377.88
371.802	352.88
372.028	389.88
372.254	369.88
372.48	384.88
372.706	384.88
372.932	358.88
373.158	376.88
373.384	374.88
373.61	389.88
373.835	387.88
374.061	372.88
374.287	397.88
374.513	384.88
374.739	383.88
374.965	387.88
375.191	377.88
375.416	361.88
375.642	387.88
375.868	371.88
376.094	403.88
376.319	368.88
376.545	356.88
376.771	366.88
376.997	379.88
377.222	384.88
377.448	362.88
377.674	359.88
377.899	360.88
378.125	369.88
378.35	383.88
378.576	392.88
378.802	365.88
379.027	359.88
379.253	364.88
379.478	373.88
379.704	378.88
379.929	371.88
380.155	386.88
380.38	383.88
380.606	383.88
380.831	375.88
381.057	393.88
381.282	356.88
381.507	391.88
381.733	385.88
381.958	382.88
382.184	369.88
382.409	380.88
382.634	389.88
382.86	382.88
383.085	381.88
383.31	378.88
383.535	373.88
383.761	383.88
383.986	376.88
384.211	373.88
384.436	375.88
384.662	368.88
384.887	394.88
385.112	392.88
385.337	384.88
385.562	394.88
385.787	421.88
386.013	418.88
386.238	414.88
386.463	410.88
386.688	403.88
386.913	410.88
387.138	391.88
387.363	385.88
387.588	413.88
387.813	395.88
388.038	388.88
388.263	404.88
388.488	379.88
388.713	391.88
388.938	399.88
389.163	391.88
389.387	392.88
389.612	411.88
389.837	402.88
390.062	403.88
390.287	405.88
390.512	387.88
390.736	377.88
390.961	409.88
391.186	400.88
391.411	402.88
391.636	397.88
391.86	385.88
392.085	387.88
392.31	415.88
392.534	395.88
392.759	431.88
392.984	393.88
393.208	405.88
393.433	397.88
393.658	403.88
393.882	406.88
394.107	403.88
394.331	388.88
394.556	389.88
394.78	415.88
395.005	393.88
395.229	384.88
395.454	411.88
395.678	423.88
395.903	439.88
396.127	458.88
396.352	446.88
396.576	403.88
396.801	425.88
397.025	396.88
397.249	428.88
397.474	407.88
397.698	421.88
397.922	448.88
398.147	457.88
398.371	450.88
398.595	419.88
398.82	431.88
399.044	455.88
399.268	457.88
399.492	455.88
399.717	499.88
399.941	541.88
400.165	564.88
400.389	565.88
400.613	530.88
400.837	473.88
401.062	476.88
401.286	448.88
401.51	466.88
401.734	445.88
401.958	454.88
402.182	453.88
402.406	464.88
402.63	477.88
402.854	459.88
403.078	440.88
403.302	486.88
403.526	482.88
403.75	459.88
403.974	465.88
404.198	454.88
404.422	461.88
404.645	485.88
404.869	514.88
405.093	545.88
405.317	579.88
405.541	587.88
405.765	541.88
405.988	521.88
406.212	524.88
406.436	557.88
406.66	557.88
406.883	532.88
407.107	570.88
407.331	587.88
407.555	658.88
407.778	668.88
408.002	598.88
408.226	537.88
408.449	555.88
408.673	524.88
408.896	560.88
409.12	626.88
409.344	570.88
409.567	509.88
409.791	469.88
410.014	463.88
410.238	454.88
410.461	487.88
410.685	484.88
410.908	510.88
411.132	542.88
411.355	575.88
411.578	546.88
411.802	498.88
412.025	480.88
412.249	486.88
412.472	539.88
412.695	585.88
412.919	551.88
413.142	497.88
413.365	483.88
413.589	473.88
413.812	463.88
414.035	455.88
414.258	435.88
414.482	434.88
414.705	436.88
414.928	446.88
415.151	433.88
415.374	444.88
415.597	434.88
415.821	454.88
416.044	441.88
416.267	451.88
416.49	453.88
416.713	445.88
416.936	442.88
417.159	458.88
417.382	448.88
417.605	470.88
417.828	464.88
418.051	479.88
418.274	463.88
418.497	467.88
418.72	458.88
418.943	427.88
419.166	467.88
419.389	484.88
419.611	501.88
419.834	479.88
420.057	456.88
420.28	501.88
420.503	480.88
420.726	458.88
420.948	503.88
421.171	551.88
421.394	600.88
421.617	536.88
421.839	478.88
422.062	471.88
422.285	485.88
422.507	544.88
422.73	635.88
422.953	625.88
423.175	539.88
423.398	508.88
423.621	504.88
423.843	529.88
424.066	542.88
424.288	518.88
424.511	517.88
424.733	617.88
424.956	719.88
425.178	699.88
425.401	660.88
425.623	695.88
425.846	567.88
426.068	551.88
426.291	543.88
426.513	501.88
426.735	548.88
426.958	601.88
427.18	731.88
427.402	850.88
427.625	942.88
427.847	868.88
428.069	698.88
428.292	628.88
428.514	538.88
428.736	522.88
428.958	515.88
429.181	499.88
429.403	509.88
429.625	485.88
429.847	546.88
430.069	633.88
430.292	614.88
430.514	524.88
430.736	477.88
430.958	469.88
431.18	447.88
431.402	463.88
431.624	435.88
431.846	450.88
432.068	441.88
432.29	456.88
432.512	464.88
432.734	458.88
432.956	472.88
433.178	461.88
433.4	487.88
433.622	470.88
433.844	477.88
434.066	450.88
434.287	447.88
434.509	446.88
434.731	465.88
434.953	473.88
435.175	488.88
435.397	523.88
435.618	519.88
435.84	578.88
436.062	703.88
436.284	786.88
436.505	627.88
436.727	592.88
436.949	530.88
437.17	499.88
437.392	515.88
437.614	533.88
437.835	575.88
438.057	666.88
438.278	797.88
438.5	788.88
438.721	855.88
438.943	814.88
439.165	645.88
439.386	590.88
439.608	580.88
439.829	569.88
440.05	587.88
440.272	676.88
440.493	602.88
440.715	555.88
440.936	509.88
441.158	485.88
441.379	476.88
441.6	504.88
441.822	534.88
442.043	610.88
442.264	702.88
442.486	725.88
442.707	629.88
442.928	565.88
443.149	574.88
443.371	605.88
443.592	634.88
443.813	717.88
444.034	797.88
444.255	658.88
444.476	561.88
444.698	551.88
444.919	530.88
445.14	615.88
445.361	589.88
445.582	635.88
445.803	687.88
446.024	803.88
446.245	835.88
446.466	723.88
446.687	622.88
446.908	554.88
447.129	530.88
447.35	512.88
447.571	477.88
447.792	493.88
448.013	499.88
448.234	519.88
448.455	611.88
448.675	723.88
448.896	842.88
449.117	705.88
449.338	659.88
449.559	797.88
449.779	877.88
450	718.88
450.221	597.88
450.442	519.88
450.662	499.88
450.883	508.88
451.104	532.88
451.324	499.88
451.545	478.88
451.766	478.88
451.986	458.88
452.207	447.88
452.428	455.88
452.648	433.88
452.869	438.88
453.089	463.88
453.31	494.88
453.53	468.88
453.751	466.88
453.971	450.88
454.192	460.88
454.412	471.88
454.633	466.88
454.853	439.88
455.073	445.88
455.294	464.88
455.514	569.88
455.734	550.88
455.955	446.88
456.175	407.88
456.395	429.88
456.616	407.88
456.836	417.88
457.056	407.88
457.276	403.88
457.497	424.88
457.717	409.88
457.937	427.88
458.157	443.88
458.377	427.88
458.598	466.88
458.818	543.88
459.038	627.88
459.258	675.88
459.478	500.88
459.698	479.88
459.918	461.88
460.138	447.88
460.358	444.88
460.578	441.88
460.798	468.88
461.018	455.88
461.238	441.88
461.458	449.88
461.678	425.88
461.898	455.88
462.118	451.88
462.338	457.88
462.558	455.88
462.777	437.88
462.997	487.88
463.217	475.88
463.437	457.88
463.657	454.88
463.876	497.88
464.096	459.88
464.316	471.88
464.536	461.88
464.755	495.88
464.975	506.88
465.195	568.88
465.414	676.88
465.634	577.88
465.854	494.88
466.073	493.88
466.293	466.88
466.512	460.88
466.732	455.88
466.951	445.88
467.171	430.88
467.391	458.88
467.61	481.88
467.829	478.88
468.049	449.88
468.268	466.88
468.488	453.88
468.707	431.88
468.927	420.88
469.146	416.88
469.365	438.88
469.585	418.88
469.804	433.88
470.023	466.88
470.243	452.88
470.462	444.88
470.681	463.88
470.901	481.88
471.12	462.88
471.339	469.88
471.558	447.88
471.777	472.88
471.997	441.88
472.216	469.88
472.435	513.88
472.654	513.88
472.873	456.88
473.092	466.88
473.311	446.88
473.53	470.88
473.749	500.88
473.968	525.88
474.187	655.88
474.406	675.88
474.625	522.88
474.844	479.88
475.063	471.88
475.282	473.88
475.501	447.88
475.72	468.88
475.939	443.88
476.158	475.88
476.377	462.88
476.596	470.88
476.814	474.88
477.033	493.88
477.252	468.88
477.471	487.88
477.69	482.88
477.908	471.88
478.127	482.88
478.346	479.88
478.564	489.88
478.783	510.88
479.002	493.88
479.22	500.88
479.439	542.88
479.658	561.88
479.876	552.88
480.095	525.88
480.313	570.88
480.532	575.88
480.751	547.88
480.969	580.88
481.188	661.88
481.406	751.88
481.624	621.88
481.843	577.88
482.061	555.88
482.28	520.88
482.498	547.88
482.717	537.88
482.935	538.88
483.153	527.88
483.372	528.88
483.59	540.88
483.808	560.88
484.027	551.88
484.245	551.88
484.463	538.88
484.681	559.88
484.9	535.88
485.118	547.88
485.336	550.88
485.554	547.88
485.772	548.88
485.99	559.88
486.209	533.88
486.427	553.88
486.645	538.88
486.863	582.88
487.081	608.88
487.299	579.88
487.517	580.88
487.735	567.88
487.953	578.88
488.171	566.88
488.389	593.88
488.607	596.88
488.825	597.88
489.043	593.88
489.261	582.88
489.479	593.88
489.696	577.88
489.914	601.88
490.132	599.88
490.35	597.88
490.568	583.88
490.786	600.88
491.003	605.88
491.221	641.88
491.439	648.88
491.657	654.88
491.874	667.88
492.092	652.88
492.31	657.88
492.527	683.88
492.745	697.88
492.963	685.88
493.18	679.88
493.398	690.88
493.615	674.88
493.833	663.88
494.05	704.88
494.268	676.88
494.485	682.88
494.703	670.88
494.92	680.88
495.138	677.88
495.355	673.88
495.573	650.88
495.79	701.88
496.008	687.88
496.225	680.88
496.442	692.88
496.66	667.88
496.877	679.88
497.094	692.88
497.312	697.88
497.529	694.88
497.746	697.88
497.963	730.88
498.181	720.88
498.398	713.88
498.615	727.88
498.832	747.88
499.049	766.88
499.267	772.88
499.484	765.88
499.701	794.88
499.918	811.88
500.135	845.88
500.352	817.88
500.569	862.88
500.786	862.88
501.003	865.88
501.22	849.88
501.437	842.88
501.654	827.88
501.871	816.88
502.088	785.88
502.305	778.88
502.522	755.88
502.739	725.88
502.956	730.88
503.172	724.88
503.389	705.88
503.606	719.88
503.823	709.88
504.04	689.88
504.256	679.88
504.473	691.88
504.69	663.88
504.907	666.88
505.123	675.88
505.34	676.88
505.557	679.88
505.773	682.88
505.99	665.88
506.207	683.88
506.423	667.88
506.64	666.88
506.856	640.88
507.073	635.88
507.289	669.88
507.506	653.88
507.722	697.88
507.939	708.88
508.155	683.88
508.372	664.88
508.588	636.88
508.805	655.88
509.021	652.88
509.238	663.88
509.454	691.88
509.67	675.88
509.887	646.88
510.103	643.88
510.319	644.88
510.536	792.88
510.752	1429.88
510.968	1123.88
511.184	706.88
511.401	664.88
511.617	613.88
511.833	627.88
512.049	614.88
512.265	615.88
512.481	646.88
512.698	611.88
512.914	604.88
513.13	627.88
513.346	615.88
513.562	610.88
513.778	624.88
513.994	618.88
514.21	651.88
514.426	657.88
514.642	745.88
514.858	783.88
515.074	823.88
515.29	1021.88
515.506	1597.88
515.721	1244.88
515.937	813.88
516.153	731.88
516.369	665.88
516.585	666.88
516.801	644.88
517.016	628.88
517.232	619.88
517.448	598.88
517.664	607.88
517.879	619.88
518.095	621.88
518.311	625.88
518.527	624.88
518.742	628.88
518.958	605.88
519.173	594.88
519.389	602.88
519.605	637.88
519.82	623.88
520.036	665.88
520.251	664.88
520.467	704.88
520.682	717.88
520.898	722.88
521.113	753.88
521.329	818.88
521.544	963.88
521.76	1246.88
521.975	2150.88
522.19	2095.88
522.406	1086.88
522.621	770.88
522.836	681.88
523.052	643.88
523.267	625.88
523.482	573.88
523.698	569.88
523.913	555.88
524.128	567.88
524.343	553.88
524.559	544.88
524.774	532.88
524.989	540.88
525.204	547.88
525.419	545.88
525.634	544.88
525.849	515.88
526.064	538.88
526.28	496.88
526.495	493.88
526.71	482.88
526.925	514.88
527.14	487.88
527.355	495.88
527.57	497.88
527.785	493.88
527.999	502.88
528.214	501.88
528.429	506.88
528.644	485.88
528.859	487.88
529.074	519.88
529.289	540.88
529.503	611.88
529.718	615.88
529.933	535.88
530.148	533.88
530.363	490.88
530.577	501.88
530.792	481.88
531.007	483.88
531.221	487.88
531.436	468.88
531.651	469.88
531.865	449.88
532.08	454.88
532.295	487.88
532.509	446.88
532.724	468.88
532.938	453.88
533.153	449.88
533.367	461.88
533.582	453.88
533.796	432.88
534.011	472.88
534.225	444.88
534.44	455.88
534.654	458.88
534.868	462.88
535.083	449.88
535.297	450.88
535.511	448.88
535.726	450.88
535.94	479.88
536.154	479.88
536.369	470.88
536.583	464.88
536.797	448.88
537.011	439.88
537.225	445.88
537.44	431.88
537.654	457.88
537.868	450.88
538.082	449.88
538.296	458.88
538.51	449.88
538.724	449.88
538.938	459.88
539.153	467.88
539.367	465.88
539.581	461.88
539.795	454.88
540.009	451.88
540.222	433.88
540.436	442.88
540.65	440.88
540.864	463.88
541.078	460.88
541.292	459.88
541.506	443.88
541.72	438.88
541.934	441.88
542.147	434.88
542.361	433.88
542.575	423.88
542.789	431.88
543.002	441.88
543.216	447.88
543.43	457.88
543.644	446.88
543.857	442.88
544.071	423.88
544.285	449.88
544.498	419.88
544.712	420.88
544.925	425.88
545.139	433.88
545.352	432.88
545.566	427.88
545.779	438.88
545.993	425.88
546.206	429.88
546.42	415.88
546.633	448.88
546.847	411.88
547.06	412.88
547.274	399.88
547.487	410.88
547.7	424.88
547.914	432.88
548.127	416.88
548.34	409.88
548.554	402.88
548.767	415.88
548.98	414.88
549.193	422.88
549.407	390.88
549.62	417.88
549.833	411.88
550.046	404.88
550.259	388.88
550.473	401.88
550.686	421.88
550.899	395.88
551.112	393.88
551.325	406.88
551.538	419.88
551.751	407.88
551.964	404.88
552.177	414.88
552.39	418.88
552.603	408.88
552.816	401.88
553.029	405.88
553.242	407.88
553.455	419.88
553.667	417.88
553.88	420.88
554.093	439.88
554.306	422.88
554.519	413.88
554.732	404.88
554.944	405.88
555.157	400.88
555.37	418.88
555.583	396.88
555.795	391.88
556.008	395.88
556.221	390.88
556.433	391.88
556.646	375.88
556.859	401.88
557.071	369.88
557.284	376.88
557.496	385.88
557.709	373.88
557.921	380.88
558.134	370.88
558.346	359.88
558.559	385.88
558.771	373.88
558.984	361.88
559.196	371.88
559.409	377.88
559.621	351.88
559.833	355.88
560.046	365.88
560.258	358.88
560.47	354.88
560.683	350.88
560.895	356.88
561.107	387.88
561.32	380.88
561.532	359.88
561.744	357.88
561.956	365.88
562.168	360.88
562.381	360.88
562.593	383.88
562.805	371.88
563.017	358.88
563.229	377.88
563.441	364.88
563.653	371.88
563.865	353.88
564.077	378.88
564.289	358.88
564.501	364.88
564.713	395.88
564.925	385.88
565.137	401.88
565.349	387.88
565.561	373.88
565.773	402.88
565.985	392.88
566.197	403.88
566.408	394.88
566.62	397.88
566.832	415.88
567.044	431.88
567.255	431.88
567.467	434.88
567.679	415.88
567.891	416.88
568.102	420.88
568.314	416.88
568.526	408.88
568.737	405.88
568.949	399.88
569.161	382.88
569.372	367.88
569.584	374.88
569.795	400.88
570.007	400.88
570.218	432.88
570.43	404.88
570.641	365.88
570.853	351.88
571.064	367.88
571.276	366.88
571.487	342.88
571.698	335.88
571.91	329.88
572.121	329.88
572.333	326.88
572.544	332.88
572.755	350.88
572.966	339.88
573.178	325.88
573.389	315.88
573.6	326.88
573.811	310.88
574.023	327.88
574.234	322.88
574.445	330.88
574.656	330.88
574.867	323.88
575.078	326.88
575.289	326.88
575.501	325.88
575.712	314.88
575.923	302.88
576.134	324.88
576.345	311.88
576.556	310.88
576.767	313.88
576.978	306.88
577.188	315.88
577.399	331.88
577.61	315.88
577.821	313.88
578.032	308.88
578.243	350.88
578.454	630.88
578.665	439.88
578.875	306.88
579.086	298.88
579.297	303.88
579.508	314.88
579.718	307.88
579.929	315.88
580.14	279.88
580.35	308.88
580.561	285.88
580.772	289.88
580.982	290.88
581.193	287.88
581.403	295.88
581.614	297.88
581.825	290.88
582.035	309.88
582.246	279.88
582.456	286.88
582.667	302.88
582.877	290.88
583.087	266.88
583.298	274.88
583.508	276.88
583.719	306.88
583.929	292.88
584.139	294.88
584.35	272.88
584.56	288.88
584.77	308.88
584.981	286.88
585.191	270.88
585.401	293.88
585.611	289.88
585.821	285.88
586.032	276.88
586.242	277.88
586.452	286.88
586.662	277.88
586.872	286.88
587.082	291.88
587.292	273.88
587.502	287.88
587.713	282.88
587.923	266.88
588.133	271.88
588.343	267.88
588.553	274.88
588.762	285.88
588.972	287.88
589.182	277.88
589.392	267.88
589.602	276.88
589.812	277.88
590.022	264.88
590.232	279.88
590.441	267.88
590.651	275.88
590.861	273.88
591.071	279.88
591.281	274.88
591.49	280.88
591.7	274.88
591.91	278.88
592.119	277.88
592.329	294.88
592.539	294.88
592.748	289.88
592.958	284.88
593.167	294.88
593.377	267.88
593.587	283.88
593.796	278.88
594.006	297.88
594.215	290.88
594.424	275.88
594.634	266.88
594.843	270.88
595.053	289.88
595.262	265.88
595.472	264.88
595.681	278.88
595.89	269.88
596.1	262.88
596.309	263.88
596.518	262.88
596.727	270.88
596.937	287.88
597.146	256.88
597.355	264.88
597.564	263.88
597.774	253.88
597.983	255.88
598.192	251.88
598.401	250.88
598.61	224.88
598.819	245.88
599.028	253.88
599.237	260.88
599.446	274.88
599.655	253.88
599.864	246.88
600.073	223.88
600.282	257.88
600.491	238.88
600.7	238.88
600.909	269.88
601.118	242.88
601.327	251.88
601.536	244.88
601.745	230.88
601.953	237.88
602.162	255.88
602.371	252.88
602.58	241.88
602.789	231.88
602.997	263.88
603.206	238.88
603.415	239.88
603.623	233.88
603.832	247.88
604.041	242.88
604.249	235.88
604.458	227.88
604.666	245.88
604.875	243.88
605.084	245.88
605.292	242.88
605.501	237.88
605.709	237.88
605.918	232.88
606.126	237.88
606.334	231.88
606.543	228.88
606.751	235.88
606.96	230.88
607.168	249.88
607.376	230.88
607.585	239.88
607.793	226.88
608.001	219.88
608.21	230.88
608.418	212.88
608.626	247.88
608.834	228.88
609.043	245.88
609.251	252.88
609.459	228.88
609.667	224.88
609.875	242.88
610.083	228.88
610.291	237.88
610.499	225.88
610.707	237.88
610.916	250.88
611.124	228.88
611.332	250.88
611.54	225.88
611.748	241.88
611.955	232.88
612.163	215.88
612.371	211.88
612.579	237.88
612.787	234.88
612.995	239.88
613.203	234.88
613.411	225.88
613.618	213.88
613.826	221.88
614.034	220.88
614.242	204.88
614.449	210.88
614.657	243.88
614.865	214.88
615.072	229.88
615.28	226.88
615.488	232.88
615.695	222.88
615.903	211.88
616.111	227.88
616.318	225.88
616.526	216.88
616.733	230.88
616.941	230.88
617.148	233.88
617.356	225.88
617.563	231.88
617.771	232.88
617.978	225.88
618.185	218.88
618.393	202.88
618.6	216.88
618.807	212.88
619.015	218.88
619.222	202.88
619.429	208.88
619.637	223.88
619.844	228.88
620.051	224.88
620.258	214.88
620.466	203.88
620.673	210.88
620.88	208.88
621.087	206.88
621.294	216.88
621.501	199.88
621.708	210.88
621.915	206.88
622.122	213.88
622.329	234.88
622.536	203.88
622.743	201.88
622.95	210.88
623.157	217.88
623.364	194.88
623.571	215.88
623.778	205.88
623.985	201.88
624.192	193.88
624.399	206.88
624.606	187.88
624.812	202.88
625.019	180.88
625.226	202.88
625.433	203.88
625.639	213.88
625.846	207.88
626.053	198.88
626.259	201.88
626.466	214.88
626.673	202.88
626.879	207.88
627.086	221.88
627.293	201.88
627.499	200.88
627.706	187.88
627.912	178.88
628.119	189.88
628.325	206.88
628.532	200.88
628.738	187.88
628.945	193.88
629.151	197.88
629.357	182.88
629.564	189.88
629.77	185.88
629.976	176.88
630.183	196.88
630.389	169.88
630.595	161.88
630.802	184.88
631.008	165.88
631.214	181.88
631.42	197.88
631.627	186.88
631.833	191.88
632.039	189.88
632.245	174.88
632.451	191.88
632.657	173.88
632.863	195.88
633.069	176.88
633.275	173.88
633.481	188.88
633.688	178.88
633.893	173.88
634.099	169.88
634.305	180.88
634.511	187.88
634.717	184.88
634.923	174.88
635.129	188.88
635.335	173.88
635.541	167.88
635.747	177.88
635.952	167.88
636.158	172.88
636.364	175.88
636.57	184.88
636.775	176.88
636.981	177.88
637.187	175.88
637.392	175.88
637.598	169.88
637.804	163.88
638.009	163.88
638.215	162.88
638.421	174.88
638.626	179.88
638.832	175.88
639.037	177.88
639.243	161.88
639.448	156.88
639.654	175.88
639.859	176.88
640.065	170.88
640.27	179.88
640.475	177.88
640.681	160.88
640.886	170.88
641.091	166.88
641.297	182.88
641.502	154.88
641.707	161.88
641.913	169.88
642.118	165.88
642.323	164.88
642.528	156.88
642.733	156.88
642.939	161.88
643.144	160.88
643.349	154.88
643.554	160.88
643.759	173.88
643.964	171.88
644.169	161.88
644.374	154.88
644.579	173.88
644.784	154.88
644.989	166.88
645.194	174.88
645.399	167.88
645.604	144.88
645.809	166.88
646.014	149.88
646.219	160.88
646.423	155.88
646.628	175.88
646.833	161.88
647.038	163.88
647.243	147.88
647.447	155.88
647.652	168.88
647.857	164.88
648.062	160.88
648.266	150.88
648.471	154.88
648.676	176.88
648.88	145.88
649.085	164.88
649.289	167.88
649.494	184.88
649.698	200.88
649.903	194.88
650.107	170.88
650.312	160.88
650.516	152.88
650.721	153.88
650.925	145.88
651.13	137.88
651.334	142.88
651.539	140.88
651.743	148.88
651.947	154.88
652.152	157.88
652.356	149.88
652.56	135.88
652.764	127.88
652.969	133.88
653.173	137.88
653.377	112.88
653.581	133.88
653.785	147.88
653.99	141.88
654.194	122.88
654.398	147.88
654.602	123.88
654.806	134.88
655.01	132.88
655.214	129.88
655.418	136.88
655.622	122.88
655.826	129.88
656.03	149.88
656.234	132.88
656.438	123.88
656.642	130.88
656.846	116.88
657.049	121.88
657.253	116.88
657.457	115.88
657.661	109.88
657.865	109.88
658.068	109.88
658.272	106.88
658.476	102.88
658.68	101.88
658.883	95.88
659.087	86.88
659.291	94.88
659.494	96.88
659.698	105.88
659.901	94.88
660.105	87.88
660.309	85.88
660.512	96.88
660.716	106.88
660.919	83.88
661.123	94.88
661.326	100.88
661.53	93.88
661.733	93.88
661.936	79.88
662.14	84.88
662.343	71.88
662.546	79.88
662.75	98.88
662.953	101.88
663.156	97.88
663.36	87.88
663.563	75.88
663.766	94.88
663.969	97.88
664.173	92.88
664.376	75.88
664.579	76.88
664.782	86.88
664.985	75.88
665.188	76.88
665.391	87.88
665.594	73.88
665.797	90.88
666	86.88
666.203	79.88
666.406	77.88
666.609	74.88
666.812	84.88
667.015	91.88
667.218	86.88
667.421	77.88
667.624	74.88
667.827	74.88
668.03	72.88
668.232	84.88
668.435	94.88
668.638	78.88
668.841	73.88
669.043	72.88
669.246	78.88
669.449	83.88
669.651	83.88
669.854	80.88
670.057	79.88
670.259	91.88
670.462	93.88
670.665	81.88
670.867	85.88
671.07	77.88
671.272	85.88
671.475	82.88
671.677	86.88
671.88	79.88
672.082	73.88
672.284	86.88
672.487	89.88
672.689	89.88
672.892	79.88
