Data from 1973.PennyLincolnUp.Lamp.En5.5.200Scan.071719.P1.Changed Mount._HRD10591_15-44-36-852.txt Node
Date: Thu Jul 18 15:44:36 EDT 2019
User: cochatt
Spectrometer: HR+D1059
Trigger mode: 1
Integration Time (sec): 1.000000E-1
Scans to average: 1
Electric dark correction enabled: true
Nonlinearity correction enabled: false
Boxcar width: 0
XAxis mode: Wavelengths
Number of Pixels in Spectrum: 2048
>>>>>Begin Spectral Data<<<<<
223.165	-26.94
223.4	-26.94
223.635	-26.94
223.869	-22.94
224.104	-9.94
224.338	-24.94
224.573	-3.94
224.808	-5.94
225.042	-10.94
225.277	-10.94
225.511	-5.94
225.746	18.06
225.98	-1.94
226.215	8.06
226.449	19.06
226.683	28.06
226.918	17.06
227.152	34.06
227.387	25.06
227.621	46.06
227.856	56.06
228.09	54.06
228.324	61.06
228.559	63.06
228.793	74.06
229.027	88.06
229.262	113.06
229.496	105.06
229.73	122.06
229.964	157.06
230.199	132.06
230.433	116.06
230.667	107.06
230.901	122.06
231.136	129.06
231.37	124.06
231.604	125.06
231.838	114.06
232.072	108.06
232.306	103.06
232.541	122.06
232.775	118.06
233.009	122.06
233.243	98.06
233.477	130.06
233.711	125.06
233.945	127.06
234.179	111.06
234.413	134.06
234.647	127.06
234.881	126.06
235.115	117.06
235.349	104.06
235.583	115.06
235.817	120.06
236.051	122.06
236.285	133.06
236.519	129.06
236.753	128.06
236.987	152.06
237.221	185.06
237.455	208.06
237.689	192.06
237.922	156.06
238.156	129.06
238.39	157.06
238.624	134.06
238.858	121.06
239.091	149.06
239.325	134.06
239.559	124.06
239.793	154.06
240.027	124.06
240.26	140.06
240.494	160.06
240.728	164.06
240.961	154.06
241.195	150.06
241.429	141.06
241.662	146.06
241.896	136.06
242.13	150.06
242.363	129.06
242.597	142.06
242.83	141.06
243.064	129.06
243.298	160.06
243.531	144.06
243.765	141.06
243.998	162.06
244.232	151.06
244.465	158.06
244.699	157.06
244.932	171.06
245.166	151.06
245.399	154.06
245.633	142.06
245.866	173.06
246.099	152.06
246.333	153.06
246.566	146.06
246.8	140.06
247.033	165.06
247.266	169.06
247.5	166.06
247.733	197.06
247.966	184.06
248.2	180.06
248.433	176.06
248.666	171.06
248.899	185.06
249.133	210.06
249.366	216.06
249.599	198.06
249.832	189.06
250.066	202.06
250.299	200.06
250.532	192.06
250.765	214.06
250.998	218.06
251.231	224.06
251.465	217.06
251.698	204.06
251.931	202.06
252.164	202.06
252.397	204.06
252.63	186.06
252.863	219.06
253.096	222.06
253.329	224.06
253.562	223.06
253.795	221.06
254.028	204.06
254.261	226.06
254.494	219.06
254.727	246.06
254.96	276.06
255.193	270.06
255.426	252.06
255.659	229.06
255.892	222.06
256.124	244.06
256.357	240.06
256.59	228.06
256.823	220.06
257.056	222.06
257.289	213.06
257.521	206.06
257.754	224.06
257.987	237.06
258.22	212.06
258.452	220.06
258.685	221.06
258.918	208.06
259.151	229.06
259.383	239.06
259.616	230.06
259.849	240.06
260.081	237.06
260.314	248.06
260.547	266.06
260.779	248.06
261.012	237.06
261.244	236.06
261.477	223.06
261.71	233.06
261.942	245.06
262.175	241.06
262.407	241.06
262.64	230.06
262.872	229.06
263.105	215.06
263.337	234.06
263.57	240.06
263.802	222.06
264.035	223.06
264.267	238.06
264.499	237.06
264.732	230.06
264.964	223.06
265.197	230.06
265.429	232.06
265.661	233.06
265.894	225.06
266.126	232.06
266.358	215.06
266.591	245.06
266.823	247.06
267.055	261.06
267.287	237.06
267.52	260.06
267.752	259.06
267.984	245.06
268.216	258.06
268.448	257.06
268.681	252.06
268.913	263.06
269.145	290.06
269.377	287.06
269.609	293.06
269.841	288.06
270.073	269.06
270.306	285.06
270.538	327.06
270.77	326.06
271.002	316.06
271.234	322.06
271.466	301.06
271.698	335.06
271.93	303.06
272.162	328.06
272.394	320.06
272.626	316.06
272.858	308.06
273.09	292.06
273.322	293.06
273.553	284.06
273.785	280.06
274.017	300.06
274.249	299.06
274.481	279.06
274.713	284.06
274.945	274.06
275.176	305.06
275.408	283.06
275.64	280.06
275.872	305.06
276.104	282.06
276.335	290.06
276.567	302.06
276.799	311.06
277.031	326.06
277.262	328.06
277.494	333.06
277.726	328.06
277.957	323.06
278.189	316.06
278.421	309.06
278.652	278.06
278.884	297.06
279.115	289.06
279.347	289.06
279.579	301.06
279.81	275.06
280.042	280.06
280.273	299.06
280.505	295.06
280.736	290.06
280.968	291.06
281.199	316.06
281.431	287.06
281.662	304.06
281.894	296.06
282.125	292.06
282.356	297.06
282.588	318.06
282.819	341.06
283.051	312.06
283.282	299.06
283.513	312.06
283.745	308.06
283.976	309.06
284.207	313.06
284.439	330.06
284.67	325.06
284.901	310.06
285.132	316.06
285.364	326.06
285.595	310.06
285.826	308.06
286.057	323.06
286.288	320.06
286.52	311.06
286.751	318.06
286.982	318.06
287.213	314.06
287.444	319.06
287.675	314.06
287.906	316.06
288.138	338.06
288.369	319.06
288.6	337.06
288.831	353.06
289.062	328.06
289.293	321.06
289.524	347.06
289.755	330.06
289.986	323.06
290.217	311.06
290.448	337.06
290.679	322.06
290.91	314.06
291.141	298.06
291.371	330.06
291.602	336.06
291.833	318.06
292.064	326.06
292.295	327.06
292.526	322.06
292.757	305.06
292.987	348.06
293.218	329.06
293.449	330.06
293.68	337.06
293.91	314.06
294.141	312.06
294.372	328.06
294.603	324.06
294.833	324.06
295.064	333.06
295.295	326.06
295.525	330.06
295.756	333.06
295.987	341.06
296.217	356.06
296.448	346.06
296.679	354.06
296.909	349.06
297.14	320.06
297.37	341.06
297.601	344.06
297.831	348.06
298.062	328.06
298.292	347.06
298.523	336.06
298.753	335.06
298.984	355.06
299.214	353.06
299.445	362.06
299.675	333.06
299.905	352.06
300.136	348.06
300.366	344.06
300.597	349.06
300.827	356.06
301.057	345.06
301.288	351.06
301.518	357.06
301.748	370.06
301.979	379.06
302.209	374.06
302.439	356.06
302.669	365.06
302.9	387.06
303.13	356.06
303.36	381.06
303.59	368.06
303.82	352.06
304.051	363.06
304.281	378.06
304.511	354.06
304.741	369.06
304.971	373.06
305.201	357.06
305.431	373.06
305.661	390.06
305.891	338.06
306.121	363.06
306.352	366.06
306.582	364.06
306.812	359.06
307.042	374.06
307.272	373.06
307.502	353.06
307.731	360.06
307.961	362.06
308.191	382.06
308.421	388.06
308.651	380.06
308.881	362.06
309.111	388.06
309.341	394.06
309.571	402.06
309.8	394.06
310.03	397.06
310.26	409.06
310.49	389.06
310.72	410.06
310.949	393.06
311.179	405.06
311.409	397.06
311.639	403.06
311.868	399.06
312.098	393.06
312.328	390.06
312.557	409.06
312.787	430.06
313.017	416.06
313.246	414.06
313.476	404.06
313.706	377.06
313.935	414.06
314.165	413.06
314.394	414.06
314.624	411.06
314.853	412.06
315.083	397.06
315.312	400.06
315.542	404.06
315.771	402.06
316.001	408.06
316.23	414.06
316.46	386.06
316.689	416.06
316.919	390.06
317.148	400.06
317.377	411.06
317.607	431.06
317.836	378.06
318.065	401.06
318.295	394.06
318.524	412.06
318.753	404.06
318.983	410.06
319.212	425.06
319.441	409.06
319.67	411.06
319.9	397.06
320.129	397.06
320.358	397.06
320.587	405.06
320.816	411.06
321.046	415.06
321.275	432.06
321.504	396.06
321.733	421.06
321.962	412.06
322.191	417.06
322.42	429.06
322.649	443.06
322.878	439.06
323.108	440.06
323.337	477.06
323.566	476.06
323.795	512.06
324.024	543.06
324.253	623.06
324.482	800.06
324.71	1208.06
324.939	1647.06
325.168	1480.06
325.397	813.06
325.626	600.06
325.855	537.06
326.084	504.06
326.313	520.06
326.542	489.06
326.77	527.06
326.999	575.06
327.228	794.06
327.457	1107.06
327.686	1272.06
327.914	942.06
328.143	646.06
328.372	590.06
328.6	544.06
328.829	550.06
329.058	532.06
329.287	572.06
329.515	533.06
329.744	502.06
329.972	516.06
330.201	529.06
330.43	539.06
330.658	560.06
330.887	583.06
331.115	567.06
331.344	523.06
331.572	491.06
331.801	503.06
332.03	500.06
332.258	495.06
332.486	487.06
332.715	482.06
332.943	463.06
333.172	508.06
333.4	494.06
333.629	502.06
333.857	553.06
334.085	553.06
334.314	544.06
334.542	558.06
334.771	586.06
334.999	541.06
335.227	519.06
335.455	507.06
335.684	497.06
335.912	507.06
336.14	506.06
336.369	503.06
336.597	506.06
336.825	496.06
337.053	499.06
337.281	460.06
337.51	477.06
337.738	469.06
337.966	495.06
338.194	489.06
338.422	477.06
338.65	474.06
338.878	470.06
339.106	461.06
339.334	473.06
339.562	451.06
339.79	465.06
340.018	460.06
340.246	470.06
340.474	469.06
340.702	472.06
340.93	448.06
341.158	462.06
341.386	466.06
341.614	484.06
341.842	463.06
342.07	439.06
342.298	437.06
342.526	448.06
342.754	437.06
342.981	461.06
343.209	436.06
343.437	465.06
343.665	465.06
343.893	470.06
344.12	503.06
344.348	493.06
344.576	465.06
344.804	476.06
345.031	475.06
345.259	479.06
345.487	450.06
345.714	443.06
345.942	465.06
346.17	453.06
346.397	447.06
346.625	433.06
346.853	421.06
347.08	431.06
347.308	439.06
347.535	431.06
347.763	447.06
347.99	430.06
348.218	452.06
348.445	438.06
348.673	455.06
348.9	462.06
349.128	427.06
349.355	425.06
349.583	420.06
349.81	406.06
350.037	417.06
350.265	420.06
350.492	420.06
350.72	431.06
350.947	438.06
351.174	426.06
351.402	439.06
351.629	433.06
351.856	447.06
352.083	449.06
352.311	437.06
352.538	436.06
352.765	442.06
352.992	449.06
353.22	453.06
353.447	410.06
353.674	424.06
353.901	423.06
354.128	397.06
354.355	415.06
354.583	428.06
354.81	416.06
355.037	421.06
355.264	419.06
355.491	414.06
355.718	396.06
355.945	404.06
356.172	407.06
356.399	412.06
356.626	413.06
356.853	412.06
357.08	422.06
357.307	431.06
357.534	420.06
357.761	388.06
357.988	428.06
358.215	405.06
358.441	431.06
358.668	414.06
358.895	431.06
359.122	426.06
359.349	445.06
359.576	447.06
359.802	461.06
360.029	473.06
360.256	471.06
360.483	452.06
360.709	448.06
360.936	432.06
361.163	417.06
361.39	442.06
361.616	429.06
361.843	440.06
362.07	451.06
362.296	444.06
362.523	433.06
362.749	440.06
362.976	421.06
363.203	430.06
363.429	438.06
363.656	413.06
363.882	403.06
364.109	423.06
364.335	428.06
364.562	436.06
364.788	414.06
365.015	411.06
365.241	406.06
365.468	428.06
365.694	432.06
365.92	440.06
366.147	407.06
366.373	404.06
366.599	436.06
366.826	413.06
367.052	416.06
367.278	429.06
367.505	413.06
367.731	394.06
367.957	399.06
368.184	427.06
368.41	434.06
368.636	433.06
368.862	439.06
369.089	444.06
369.315	420.06
369.541	419.06
369.767	428.06
369.993	420.06
370.219	436.06
370.445	428.06
370.672	402.06
370.898	433.06
371.124	431.06
371.35	438.06
371.576	411.06
371.802	415.06
372.028	423.06
372.254	439.06
372.48	433.06
372.706	425.06
372.932	444.06
373.158	418.06
373.384	440.06
373.61	430.06
373.835	426.06
374.061	443.06
374.287	433.06
374.513	428.06
374.739	446.06
374.965	429.06
375.191	459.06
375.416	470.06
375.642	447.06
375.868	448.06
376.094	435.06
376.319	428.06
376.545	418.06
376.771	432.06
376.997	427.06
377.222	428.06
377.448	424.06
377.674	404.06
377.899	407.06
378.125	419.06
378.35	394.06
378.576	430.06
378.802	429.06
379.027	420.06
379.253	410.06
379.478	410.06
379.704	416.06
379.929	437.06
380.155	444.06
380.38	417.06
380.606	441.06
380.831	434.06
381.057	417.06
381.282	411.06
381.507	416.06
381.733	431.06
381.958	432.06
382.184	439.06
382.409	459.06
382.634	455.06
382.86	438.06
383.085	442.06
383.31	452.06
383.535	439.06
383.761	449.06
383.986	462.06
384.211	465.06
384.436	477.06
384.662	461.06
384.887	469.06
385.112	470.06
385.337	473.06
385.562	453.06
385.787	485.06
386.013	491.06
386.238	462.06
386.463	470.06
386.688	480.06
386.913	481.06
387.138	466.06
387.363	486.06
387.588	474.06
387.813	473.06
388.038	464.06
388.263	488.06
388.488	486.06
388.713	476.06
388.938	466.06
389.163	476.06
389.387	494.06
389.612	465.06
389.837	469.06
390.062	476.06
390.287	476.06
390.512	472.06
390.736	455.06
390.961	492.06
391.186	465.06
391.411	472.06
391.636	486.06
391.86	493.06
392.085	525.06
392.31	496.06
392.534	492.06
392.759	495.06
392.984	495.06
393.208	518.06
393.433	503.06
393.658	480.06
393.882	487.06
394.107	490.06
394.331	476.06
394.556	480.06
394.78	495.06
395.005	487.06
395.229	492.06
395.454	506.06
395.678	508.06
395.903	519.06
396.127	542.06
396.352	541.06
396.576	493.06
396.801	487.06
397.025	497.06
397.249	518.06
397.474	515.06
397.698	540.06
397.922	549.06
398.147	532.06
398.371	561.06
398.595	544.06
398.82	560.06
399.044	572.06
399.268	605.06
399.492	669.06
399.717	700.06
399.941	735.06
400.165	732.06
400.389	716.06
400.613	660.06
400.837	582.06
401.062	591.06
401.286	566.06
401.51	584.06
401.734	560.06
401.958	560.06
402.182	589.06
402.406	592.06
402.63	597.06
402.854	580.06
403.078	575.06
403.302	593.06
403.526	606.06
403.75	607.06
403.974	623.06
404.198	626.06
404.422	614.06
404.645	609.06
404.869	581.06
405.093	625.06
405.317	677.06
405.541	690.06
405.765	640.06
405.988	604.06
406.212	626.06
406.436	664.06
406.66	654.06
406.883	616.06
407.107	681.06
407.331	710.06
407.555	775.06
407.778	788.06
408.002	716.06
408.226	682.06
408.449	653.06
408.673	649.06
408.896	647.06
409.12	705.06
409.344	683.06
409.567	597.06
409.791	593.06
410.014	592.06
410.238	592.06
410.461	594.06
410.685	603.06
410.908	598.06
411.132	633.06
411.355	642.06
411.578	623.06
411.802	582.06
412.025	598.06
412.249	610.06
412.472	633.06
412.695	651.06
412.919	630.06
413.142	592.06
413.365	562.06
413.589	567.06
413.812	559.06
414.035	547.06
414.258	555.06
414.482	556.06
414.705	542.06
414.928	568.06
415.151	566.06
415.374	546.06
415.597	570.06
415.821	548.06
416.044	542.06
416.267	549.06
416.49	551.06
416.713	556.06
416.936	568.06
417.159	534.06
417.382	569.06
417.605	554.06
417.828	567.06
418.051	591.06
418.274	588.06
418.497	584.06
418.72	552.06
418.943	569.06
419.166	584.06
419.389	589.06
419.611	609.06
419.834	594.06
420.057	601.06
420.28	592.06
420.503	590.06
420.726	590.06
420.948	589.06
421.171	632.06
421.394	650.06
421.617	616.06
421.839	570.06
422.062	574.06
422.285	569.06
422.507	644.06
422.73	716.06
422.953	685.06
423.175	624.06
423.398	601.06
423.621	607.06
423.843	606.06
424.066	624.06
424.288	614.06
424.511	641.06
424.733	651.06
424.956	739.06
425.178	710.06
425.401	724.06
425.623	714.06
425.846	634.06
426.068	609.06
426.291	579.06
426.513	577.06
426.735	600.06
426.958	617.06
427.18	716.06
427.402	791.06
427.625	863.06
427.847	766.06
428.069	682.06
428.292	617.06
428.514	572.06
428.736	549.06
428.958	575.06
429.181	546.06
429.403	548.06
429.625	573.06
429.847	571.06
430.069	647.06
430.292	639.06
430.514	564.06
430.736	557.06
430.958	552.06
431.18	536.06
431.402	503.06
431.624	519.06
431.846	496.06
432.068	525.06
432.29	532.06
432.512	531.06
432.734	517.06
432.956	534.06
433.178	544.06
433.4	557.06
433.622	531.06
433.844	522.06
434.066	522.06
434.287	525.06
434.509	523.06
434.731	556.06
434.953	568.06
435.175	585.06
435.397	593.06
435.618	609.06
435.84	613.06
436.062	705.06
436.284	752.06
436.505	635.06
436.727	602.06
436.949	570.06
437.17	571.06
437.392	546.06
437.614	571.06
437.835	585.06
438.057	641.06
438.278	731.06
438.5	734.06
438.721	805.06
438.943	797.06
439.165	641.06
439.386	582.06
439.608	595.06
439.829	606.06
440.05	591.06
440.272	636.06
440.493	620.06
440.715	584.06
440.936	559.06
441.158	549.06
441.379	570.06
441.6	568.06
441.822	595.06
442.043	625.06
442.264	697.06
442.486	757.06
442.707	644.06
442.928	633.06
443.149	618.06
443.371	601.06
443.592	669.06
443.813	749.06
444.034	809.06
444.255	705.06
444.476	662.06
444.698	641.06
444.919	620.06
445.14	746.06
445.361	671.06
445.582	650.06
445.803	693.06
446.024	753.06
446.245	783.06
446.466	703.06
446.687	617.06
446.908	586.06
447.129	558.06
447.35	572.06
447.571	540.06
447.792	564.06
448.013	554.06
448.234	553.06
448.455	581.06
448.675	690.06
448.896	807.06
449.117	685.06
449.338	628.06
449.559	743.06
449.779	814.06
450	657.06
450.221	575.06
450.442	536.06
450.662	516.06
450.883	511.06
451.104	553.06
451.324	518.06
451.545	486.06
451.766	502.06
451.986	490.06
452.207	492.06
452.428	471.06
452.648	477.06
452.869	487.06
453.089	493.06
453.31	496.06
453.53	496.06
453.751	506.06
453.971	493.06
454.192	506.06
454.412	476.06
454.633	479.06
454.853	465.06
455.073	473.06
455.294	522.06
455.514	571.06
455.734	551.06
455.955	458.06
456.175	474.06
456.395	461.06
456.616	477.06
456.836	459.06
457.056	452.06
457.276	443.06
457.497	449.06
457.717	454.06
457.937	452.06
458.157	472.06
458.377	495.06
458.598	498.06
458.818	530.06
459.038	614.06
459.258	622.06
459.478	553.06
459.698	537.06
459.918	516.06
460.138	521.06
460.358	541.06
460.578	550.06
460.798	561.06
461.018	578.06
461.238	554.06
461.458	571.06
461.678	555.06
461.898	579.06
462.118	560.06
462.338	578.06
462.558	610.06
462.777	589.06
462.997	603.06
463.217	652.06
463.437	646.06
463.657	636.06
463.876	607.06
464.096	620.06
464.316	609.06
464.536	597.06
464.755	614.06
464.975	605.06
465.195	615.06
465.414	637.06
465.634	580.06
465.854	568.06
466.073	536.06
466.293	549.06
466.512	508.06
466.732	516.06
466.951	495.06
467.171	481.06
467.391	511.06
467.61	517.06
467.829	492.06
468.049	505.06
468.268	508.06
468.488	481.06
468.707	501.06
468.927	487.06
469.146	480.06
469.365	506.06
469.585	489.06
469.804	527.06
470.023	507.06
470.243	497.06
470.462	507.06
470.681	498.06
470.901	522.06
471.12	518.06
471.339	511.06
471.558	519.06
471.777	502.06
471.997	499.06
472.216	511.06
472.435	523.06
472.654	508.06
472.873	519.06
473.092	502.06
473.311	488.06
473.53	478.06
473.749	520.06
473.968	540.06
474.187	620.06
474.406	629.06
474.625	549.06
474.844	506.06
475.063	506.06
475.282	505.06
475.501	474.06
475.72	525.06
475.939	525.06
476.158	519.06
476.377	514.06
476.596	510.06
476.814	548.06
477.033	547.06
477.252	545.06
477.471	552.06
477.69	558.06
477.908	536.06
478.127	562.06
478.346	581.06
478.564	580.06
478.783	571.06
479.002	589.06
479.22	594.06
479.439	598.06
479.658	596.06
479.876	598.06
480.095	609.06
480.313	656.06
480.532	654.06
480.751	629.06
480.969	631.06
481.188	692.06
481.406	687.06
481.624	625.06
481.843	592.06
482.061	596.06
482.28	587.06
482.498	591.06
482.717	588.06
482.935	565.06
483.153	569.06
483.372	567.06
483.59	590.06
483.808	574.06
484.027	577.06
484.245	597.06
484.463	572.06
484.681	589.06
484.9	595.06
485.118	588.06
485.336	588.06
485.554	602.06
485.772	612.06
485.99	608.06
486.209	600.06
486.427	617.06
486.645	616.06
486.863	634.06
487.081	610.06
487.299	624.06
487.517	613.06
487.735	615.06
487.953	637.06
488.171	600.06
488.389	623.06
488.607	616.06
488.825	619.06
489.043	620.06
489.261	622.06
489.479	636.06
489.696	624.06
489.914	623.06
490.132	633.06
490.35	647.06
490.568	641.06
490.786	647.06
491.003	668.06
491.221	692.06
491.439	678.06
491.657	676.06
491.874	681.06
492.092	708.06
492.31	715.06
492.527	695.06
492.745	709.06
492.963	706.06
493.18	711.06
493.398	715.06
493.615	722.06
493.833	698.06
494.05	709.06
494.268	735.06
494.485	733.06
494.703	729.06
494.92	732.06
495.138	731.06
495.355	738.06
495.573	736.06
495.79	712.06
496.008	730.06
496.225	723.06
496.442	747.06
496.66	717.06
496.877	739.06
497.094	745.06
497.312	725.06
497.529	764.06
497.746	780.06
497.963	786.06
498.181	829.06
498.398	841.06
498.615	847.06
498.832	851.06
499.049	894.06
499.267	918.06
499.484	977.06
499.701	993.06
499.918	1102.06
500.135	1178.06
500.352	1238.06
500.569	1271.06
500.786	1247.06
501.003	1228.06
501.22	1171.06
501.437	1104.06
501.654	1040.06
501.871	1009.06
502.088	945.06
502.305	913.06
502.522	867.06
502.739	850.06
502.956	820.06
503.172	816.06
503.389	817.06
503.606	796.06
503.823	780.06
504.04	774.06
504.256	784.06
504.473	744.06
504.69	753.06
504.907	747.06
505.123	709.06
505.34	717.06
505.557	689.06
505.773	700.06
505.99	698.06
506.207	706.06
506.423	681.06
506.64	701.06
506.856	692.06
507.073	644.06
507.289	675.06
507.506	650.06
507.722	672.06
507.939	678.06
508.155	666.06
508.372	641.06
508.588	664.06
508.805	640.06
509.021	643.06
509.238	637.06
509.454	660.06
509.67	638.06
509.887	645.06
510.103	621.06
510.319	637.06
510.536	705.06
510.752	1092.06
510.968	896.06
511.184	633.06
511.401	628.06
511.617	620.06
511.833	586.06
512.049	630.06
512.265	602.06
512.481	610.06
512.698	589.06
512.914	598.06
513.13	586.06
513.346	586.06
513.562	597.06
513.778	611.06
513.994	616.06
514.21	603.06
514.426	632.06
514.642	620.06
514.858	663.06
515.074	702.06
515.29	780.06
515.506	1096.06
515.721	941.06
515.937	700.06
516.153	662.06
516.369	640.06
516.585	646.06
516.801	646.06
517.016	668.06
517.232	692.06
517.448	680.06
517.664	665.06
517.879	682.06
518.095	690.06
518.311	672.06
518.527	671.06
518.742	654.06
518.958	641.06
519.173	639.06
519.389	620.06
519.605	625.06
519.82	604.06
520.036	620.06
520.251	623.06
520.467	635.06
520.682	665.06
520.898	637.06
521.113	646.06
521.329	669.06
521.544	706.06
521.76	889.06
521.975	1400.06
522.19	1381.06
522.406	808.06
522.621	643.06
522.836	574.06
523.052	581.06
523.267	569.06
523.482	552.06
523.698	553.06
523.913	557.06
524.128	553.06
524.343	542.06
524.559	549.06
524.774	523.06
524.989	528.06
525.204	525.06
525.419	503.06
525.634	522.06
525.849	522.06
526.064	493.06
526.28	513.06
526.495	508.06
526.71	485.06
526.925	490.06
527.14	504.06
527.355	508.06
527.57	514.06
527.785	499.06
527.999	504.06
528.214	497.06
528.429	506.06
528.644	528.06
528.859	517.06
529.074	509.06
529.289	539.06
529.503	583.06
529.718	556.06
529.933	546.06
530.148	498.06
530.363	500.06
530.577	501.06
530.792	514.06
531.007	497.06
531.221	488.06
531.436	492.06
531.651	516.06
531.865	510.06
532.08	491.06
532.295	497.06
532.509	504.06
532.724	493.06
532.938	478.06
533.153	501.06
533.367	496.06
533.582	484.06
533.796	484.06
534.011	484.06
534.225	480.06
534.44	484.06
534.654	508.06
534.868	474.06
535.083	486.06
535.297	473.06
535.511	481.06
535.726	485.06
535.94	484.06
536.154	474.06
536.369	481.06
536.583	480.06
536.797	474.06
537.011	481.06
537.225	477.06
537.44	473.06
537.654	474.06
537.868	462.06
538.082	465.06
538.296	460.06
538.51	473.06
538.724	479.06
538.938	469.06
539.153	475.06
539.367	479.06
539.581	471.06
539.795	469.06
540.009	452.06
540.222	465.06
540.436	471.06
540.65	465.06
540.864	474.06
541.078	486.06
541.292	463.06
541.506	462.06
541.72	479.06
541.934	471.06
542.147	478.06
542.361	480.06
542.575	470.06
542.789	465.06
543.002	445.06
543.216	489.06
543.43	466.06
543.644	473.06
543.857	490.06
544.071	473.06
544.285	473.06
544.498	476.06
544.712	470.06
544.925	488.06
545.139	467.06
545.352	475.06
545.566	433.06
545.779	462.06
545.993	446.06
546.206	459.06
546.42	460.06
546.633	463.06
546.847	477.06
547.06	461.06
547.274	450.06
547.487	469.06
547.7	488.06
547.914	477.06
548.127	472.06
548.34	464.06
548.554	450.06
548.767	455.06
548.98	462.06
549.193	457.06
549.407	443.06
549.62	452.06
549.833	472.06
550.046	455.06
550.259	462.06
550.473	468.06
550.686	461.06
550.899	458.06
551.112	451.06
551.325	450.06
551.538	462.06
551.751	465.06
551.964	452.06
552.177	467.06
552.39	460.06
552.603	473.06
552.816	460.06
553.029	458.06
553.242	467.06
553.455	483.06
553.667	490.06
553.88	480.06
554.093	474.06
554.306	458.06
554.519	484.06
554.732	453.06
554.944	461.06
555.157	453.06
555.37	449.06
555.583	439.06
555.795	421.06
556.008	423.06
556.221	435.06
556.433	432.06
556.646	438.06
556.859	417.06
557.071	415.06
557.284	414.06
557.496	413.06
557.709	421.06
557.921	417.06
558.134	417.06
558.346	422.06
558.559	418.06
558.771	405.06
558.984	413.06
559.196	401.06
559.409	412.06
559.621	413.06
559.833	391.06
560.046	406.06
560.258	418.06
560.47	405.06
560.683	398.06
560.895	402.06
561.107	420.06
561.32	397.06
561.532	407.06
561.744	402.06
561.956	398.06
562.168	418.06
562.381	418.06
562.593	392.06
562.805	401.06
563.017	400.06
563.229	396.06
563.441	400.06
563.653	402.06
563.865	425.06
564.077	414.06
564.289	426.06
564.501	430.06
564.713	427.06
564.925	446.06
565.137	451.06
565.349	484.06
565.561	466.06
565.773	467.06
565.985	471.06
566.197	487.06
566.408	520.06
566.62	549.06
566.832	561.06
567.044	559.06
567.255	552.06
567.467	579.06
567.679	596.06
567.891	625.06
568.102	636.06
568.314	592.06
568.526	575.06
568.737	544.06
568.949	514.06
569.161	505.06
569.372	468.06
569.584	450.06
569.795	448.06
570.007	425.06
570.218	458.06
570.43	453.06
570.641	417.06
570.853	397.06
571.064	420.06
571.276	412.06
571.487	397.06
571.698	397.06
571.91	409.06
572.121	370.06
572.333	361.06
572.544	395.06
572.755	388.06
572.966	385.06
573.178	366.06
573.389	364.06
573.6	372.06
573.811	353.06
574.023	360.06
574.234	363.06
574.445	364.06
574.656	367.06
574.867	374.06
575.078	366.06
575.289	376.06
575.501	360.06
575.712	336.06
575.923	349.06
576.134	357.06
576.345	351.06
576.556	356.06
576.767	349.06
576.978	353.06
577.188	338.06
577.399	333.06
577.61	345.06
577.821	338.06
578.032	340.06
578.243	369.06
578.454	526.06
578.665	429.06
578.875	345.06
579.086	328.06
579.297	329.06
579.508	324.06
579.718	340.06
579.929	334.06
580.14	323.06
580.35	324.06
580.561	330.06
580.772	341.06
580.982	326.06
581.193	327.06
581.403	314.06
581.614	302.06
581.825	316.06
582.035	311.06
582.246	338.06
582.456	323.06
582.667	320.06
582.877	289.06
583.087	300.06
583.298	318.06
583.508	344.06
583.719	325.06
583.929	298.06
584.139	314.06
584.35	353.06
584.56	310.06
584.77	302.06
584.981	290.06
585.191	302.06
585.401	309.06
585.611	324.06
585.821	331.06
586.032	321.06
586.242	308.06
586.452	309.06
586.662	298.06
586.872	316.06
587.082	308.06
587.292	303.06
587.502	312.06
587.713	318.06
587.923	303.06
588.133	318.06
588.343	318.06
588.553	317.06
588.762	320.06
588.972	310.06
589.182	325.06
589.392	320.06
589.602	294.06
589.812	312.06
590.022	309.06
590.232	310.06
590.441	318.06
590.651	320.06
590.861	302.06
591.071	307.06
591.281	320.06
591.49	336.06
591.7	330.06
591.91	337.06
592.119	316.06
592.329	330.06
592.539	329.06
592.748	341.06
592.958	358.06
593.167	350.06
593.377	359.06
593.587	350.06
593.796	362.06
594.006	359.06
594.215	361.06
594.424	345.06
594.634	342.06
594.843	358.06
595.053	344.06
595.262	329.06
595.472	313.06
595.681	332.06
595.89	290.06
596.1	308.06
596.309	319.06
596.518	308.06
596.727	290.06
596.937	297.06
597.146	298.06
597.355	303.06
597.564	286.06
597.774	284.06
597.983	290.06
598.192	296.06
598.401	272.06
598.61	282.06
598.819	292.06
599.028	283.06
599.237	273.06
599.446	290.06
599.655	281.06
599.864	280.06
600.073	278.06
600.282	287.06
600.491	279.06
600.7	278.06
600.909	268.06
601.118	267.06
601.327	296.06
601.536	287.06
601.745	272.06
601.953	273.06
602.162	286.06
602.371	272.06
602.58	257.06
602.789	259.06
602.997	271.06
603.206	274.06
603.415	261.06
603.623	267.06
603.832	272.06
604.041	267.06
604.249	262.06
604.458	254.06
604.666	267.06
604.875	262.06
605.084	260.06
605.292	257.06
605.501	262.06
605.709	252.06
605.918	267.06
606.126	251.06
606.334	264.06
606.543	265.06
606.751	267.06
606.96	269.06
607.168	269.06
607.376	255.06
607.585	241.06
607.793	246.06
608.001	267.06
608.21	259.06
608.418	275.06
608.626	263.06
608.834	255.06
609.043	242.06
609.251	256.06
609.459	264.06
609.667	264.06
609.875	254.06
610.083	277.06
610.291	255.06
610.499	263.06
610.707	258.06
610.916	253.06
611.124	285.06
611.332	253.06
611.54	237.06
611.748	266.06
611.955	253.06
612.163	262.06
612.371	252.06
612.579	256.06
612.787	251.06
612.995	264.06
613.203	249.06
613.411	239.06
613.618	273.06
613.826	249.06
614.034	239.06
614.242	262.06
614.449	254.06
614.657	253.06
614.865	271.06
615.072	246.06
615.28	236.06
615.488	236.06
615.695	245.06
615.903	238.06
616.111	234.06
616.318	263.06
616.526	264.06
616.733	237.06
616.941	249.06
617.148	276.06
617.356	250.06
617.563	255.06
617.771	254.06
617.978	249.06
618.185	263.06
618.393	246.06
618.6	253.06
618.807	241.06
619.015	240.06
619.222	249.06
619.429	248.06
619.637	234.06
619.844	233.06
620.051	248.06
620.258	234.06
620.466	222.06
620.673	247.06
620.88	229.06
621.087	242.06
621.294	230.06
621.501	240.06
621.708	242.06
621.915	253.06
622.122	238.06
622.329	221.06
622.536	242.06
622.743	214.06
622.95	225.06
623.157	221.06
623.364	222.06
623.571	234.06
623.778	232.06
623.985	220.06
624.192	225.06
624.399	221.06
624.606	227.06
624.812	225.06
625.019	212.06
625.226	228.06
625.433	216.06
625.639	225.06
625.846	227.06
626.053	227.06
626.259	210.06
626.466	233.06
626.673	220.06
626.879	216.06
627.086	228.06
627.293	237.06
627.499	217.06
627.706	229.06
627.912	219.06
628.119	216.06
628.325	212.06
628.532	214.06
628.738	199.06
628.945	216.06
629.151	234.06
629.357	210.06
629.564	219.06
629.77	211.06
629.976	218.06
630.183	212.06
630.389	201.06
630.595	201.06
630.802	201.06
631.008	213.06
631.214	201.06
631.42	215.06
631.627	213.06
631.833	202.06
632.039	182.06
632.245	218.06
632.451	214.06
632.657	213.06
632.863	206.06
633.069	199.06
633.275	210.06
633.481	194.06
633.688	195.06
633.893	190.06
634.099	199.06
634.305	201.06
634.511	205.06
634.717	185.06
634.923	191.06
635.129	189.06
635.335	184.06
635.541	184.06
635.747	171.06
635.952	185.06
636.158	182.06
636.364	178.06
636.57	183.06
636.775	196.06
636.981	213.06
637.187	194.06
637.392	199.06
637.598	206.06
637.804	192.06
638.009	200.06
638.215	184.06
638.421	185.06
638.626	196.06
638.832	189.06
639.037	174.06
639.243	191.06
639.448	182.06
639.654	187.06
639.859	185.06
640.065	171.06
640.27	170.06
640.475	192.06
640.681	180.06
640.886	178.06
641.091	196.06
641.297	173.06
641.502	187.06
641.707	164.06
641.913	168.06
642.118	185.06
642.323	184.06
642.528	191.06
642.733	175.06
642.939	178.06
643.144	184.06
643.349	170.06
643.554	178.06
643.759	182.06
643.964	178.06
644.169	186.06
644.374	169.06
644.579	184.06
644.784	172.06
644.989	177.06
645.194	181.06
645.399	184.06
645.604	187.06
645.809	184.06
646.014	160.06
646.219	183.06
646.423	173.06
646.628	186.06
646.833	187.06
647.038	184.06
647.243	173.06
647.447	180.06
647.652	184.06
647.857	175.06
648.062	178.06
648.266	169.06
648.471	176.06
648.676	182.06
648.88	194.06
649.085	165.06
649.289	191.06
649.494	182.06
649.698	204.06
649.903	182.06
650.107	165.06
650.312	188.06
650.516	180.06
650.721	166.06
650.925	157.06
651.13	169.06
651.334	170.06
651.539	157.06
651.743	157.06
651.947	154.06
652.152	162.06
652.356	152.06
652.56	140.06
652.764	154.06
652.969	164.06
653.173	150.06
653.377	150.06
653.581	158.06
653.785	143.06
653.99	143.06
654.194	158.06
654.398	133.06
654.602	140.06
654.806	151.06
655.01	154.06
655.214	142.06
655.418	158.06
655.622	152.06
655.826	159.06
656.03	126.06
656.234	152.06
656.438	156.06
656.642	142.06
656.846	149.06
657.049	139.06
657.253	136.06
657.457	128.06
657.661	128.06
657.865	128.06
658.068	113.06
658.272	124.06
658.476	120.06
658.68	110.06
658.883	108.06
659.087	116.06
659.291	115.06
659.494	113.06
659.698	103.06
659.901	106.06
660.105	106.06
660.309	104.06
660.512	111.06
660.716	111.06
660.919	102.06
661.123	102.06
661.326	92.06
661.53	84.06
661.733	106.06
661.936	110.06
662.14	104.06
662.343	94.06
662.546	95.06
662.75	99.06
662.953	106.06
663.156	94.06
663.36	92.06
663.563	88.06
663.766	91.06
663.969	84.06
664.173	79.06
664.376	86.06
664.579	85.06
664.782	81.06
664.985	93.06
665.188	95.06
665.391	100.06
665.594	88.06
665.797	74.06
666	96.06
666.203	91.06
666.406	99.06
666.609	85.06
666.812	84.06
667.015	84.06
667.218	78.06
667.421	91.06
667.624	71.06
667.827	82.06
668.03	87.06
668.232	86.06
668.435	87.06
668.638	81.06
668.841	98.06
669.043	78.06
669.246	78.06
669.449	78.06
669.651	89.06
669.854	77.06
670.057	97.06
670.259	91.06
670.462	82.06
670.665	86.06
670.867	88.06
671.07	95.06
671.272	91.06
671.475	86.06
671.677	92.06
671.88	87.06
672.082	92.06
672.284	80.06
672.487	76.06
672.689	78.06
672.892	81.06
