Data from 1973.PennyLincolnUp.Lamp.En5.5.200Scan.071719.P1.Changed Mount._HRD10591_15-44-23-852.txt Node
Date: Thu Jul 18 15:44:23 EDT 2019
User: cochatt
Spectrometer: HR+D1059
Trigger mode: 1
Integration Time (sec): 1.000000E-1
Scans to average: 1
Electric dark correction enabled: true
Nonlinearity correction enabled: false
Boxcar width: 0
XAxis mode: Wavelengths
Number of Pixels in Spectrum: 2048
>>>>>Begin Spectral Data<<<<<
223.165	-5.19
223.4	-5.19
223.635	-5.19
223.869	-4.19
224.104	-23.19
224.338	-14.19
224.573	-6.19
224.808	-3.19
225.042	-10.19
225.277	-6.19
225.511	0.81
225.746	1.81
225.98	-3.19
226.215	11.81
226.449	14.81
226.683	7.81
226.918	13.81
227.152	24.81
227.387	33.81
227.621	43.81
227.856	37.81
228.09	28.81
228.324	34.81
228.559	60.81
228.793	66.81
229.027	98.81
229.262	90.81
229.496	121.81
229.73	134.81
229.964	148.81
230.199	110.81
230.433	102.81
230.667	101.81
230.901	114.81
231.136	109.81
231.37	112.81
231.604	105.81
231.838	108.81
232.072	116.81
232.306	102.81
232.541	112.81
232.775	109.81
233.009	106.81
233.243	121.81
233.477	116.81
233.711	100.81
233.945	105.81
234.179	129.81
234.413	112.81
234.647	114.81
234.881	122.81
235.115	114.81
235.349	109.81
235.583	112.81
235.817	114.81
236.051	133.81
236.285	119.81
236.519	115.81
236.753	128.81
236.987	136.81
237.221	184.81
237.455	189.81
237.689	166.81
237.922	134.81
238.156	141.81
238.39	145.81
238.624	124.81
238.858	118.81
239.091	123.81
239.325	125.81
239.559	121.81
239.793	118.81
240.027	133.81
240.26	133.81
240.494	156.81
240.728	141.81
240.961	134.81
241.195	140.81
241.429	150.81
241.662	137.81
241.896	118.81
242.13	128.81
242.363	123.81
242.597	138.81
242.83	154.81
243.064	140.81
243.298	129.81
243.531	156.81
243.765	137.81
243.998	144.81
244.232	136.81
244.465	149.81
244.699	151.81
244.932	156.81
245.166	144.81
245.399	149.81
245.633	136.81
245.866	153.81
246.099	140.81
246.333	159.81
246.566	153.81
246.8	160.81
247.033	166.81
247.266	155.81
247.5	160.81
247.733	167.81
247.966	161.81
248.2	165.81
248.433	180.81
248.666	168.81
248.899	175.81
249.133	194.81
249.366	170.81
249.599	193.81
249.832	194.81
250.066	185.81
250.299	183.81
250.532	200.81
250.765	196.81
250.998	208.81
251.231	219.81
251.465	202.81
251.698	209.81
251.931	197.81
252.164	210.81
252.397	187.81
252.63	206.81
252.863	210.81
253.096	224.81
253.329	227.81
253.562	208.81
253.795	224.81
254.028	194.81
254.261	232.81
254.494	224.81
254.727	244.81
254.96	265.81
255.193	258.81
255.426	235.81
255.659	235.81
255.892	234.81
256.124	251.81
256.357	231.81
256.59	214.81
256.823	194.81
257.056	229.81
257.289	215.81
257.521	192.81
257.754	216.81
257.987	209.81
258.22	195.81
258.452	226.81
258.685	212.81
258.918	226.81
259.151	197.81
259.383	214.81
259.616	240.81
259.849	228.81
260.081	243.81
260.314	243.81
260.547	258.81
260.779	245.81
261.012	226.81
261.244	245.81
261.477	216.81
261.71	234.81
261.942	230.81
262.175	228.81
262.407	219.81
262.64	228.81
262.872	221.81
263.105	214.81
263.337	219.81
263.57	200.81
263.802	225.81
264.035	229.81
264.267	222.81
264.499	213.81
264.732	231.81
264.964	216.81
265.197	224.81
265.429	229.81
265.661	233.81
265.894	229.81
266.126	233.81
266.358	213.81
266.591	242.81
266.823	249.81
267.055	247.81
267.287	258.81
267.52	227.81
267.752	220.81
267.984	242.81
268.216	240.81
268.448	228.81
268.681	256.81
268.913	240.81
269.145	276.81
269.377	274.81
269.609	271.81
269.841	278.81
270.073	265.81
270.306	280.81
270.538	315.81
270.77	313.81
271.002	301.81
271.234	314.81
271.466	292.81
271.698	299.81
271.93	294.81
272.162	312.81
272.394	317.81
272.626	322.81
272.858	276.81
273.09	289.81
273.322	274.81
273.553	286.81
273.785	265.81
274.017	264.81
274.249	270.81
274.481	262.81
274.713	283.81
274.945	284.81
275.176	288.81
275.408	266.81
275.64	279.81
275.872	271.81
276.104	279.81
276.335	265.81
276.567	273.81
276.799	288.81
277.031	308.81
277.262	322.81
277.494	316.81
277.726	312.81
277.957	293.81
278.189	291.81
278.421	277.81
278.652	274.81
278.884	264.81
279.115	286.81
279.347	296.81
279.579	304.81
279.81	285.81
280.042	286.81
280.273	287.81
280.505	280.81
280.736	281.81
280.968	287.81
281.199	298.81
281.431	285.81
281.662	298.81
281.894	262.81
282.125	282.81
282.356	316.81
282.588	305.81
282.819	312.81
283.051	296.81
283.282	298.81
283.513	282.81
283.745	297.81
283.976	312.81
284.207	311.81
284.439	297.81
284.67	313.81
284.901	300.81
285.132	301.81
285.364	279.81
285.595	292.81
285.826	298.81
286.057	309.81
286.288	297.81
286.52	310.81
286.751	299.81
286.982	316.81
287.213	308.81
287.444	330.81
287.675	310.81
287.906	316.81
288.138	308.81
288.369	316.81
288.6	303.81
288.831	324.81
289.062	324.81
289.293	310.81
289.524	315.81
289.755	301.81
289.986	324.81
290.217	306.81
290.448	304.81
290.679	316.81
290.91	330.81
291.141	314.81
291.371	314.81
291.602	309.81
291.833	324.81
292.064	327.81
292.295	322.81
292.526	301.81
292.757	302.81
292.987	308.81
293.218	313.81
293.449	293.81
293.68	320.81
293.91	320.81
294.141	334.81
294.372	306.81
294.603	317.81
294.833	307.81
295.064	300.81
295.295	309.81
295.525	334.81
295.756	320.81
295.987	337.81
296.217	336.81
296.448	333.81
296.679	344.81
296.909	308.81
297.14	314.81
297.37	329.81
297.601	335.81
297.831	332.81
298.062	317.81
298.292	309.81
298.523	330.81
298.753	337.81
298.984	335.81
299.214	324.81
299.445	336.81
299.675	334.81
299.905	333.81
300.136	347.81
300.366	335.81
300.597	346.81
300.827	357.81
301.057	363.81
301.288	365.81
301.518	351.81
301.748	350.81
301.979	350.81
302.209	359.81
302.439	358.81
302.669	343.81
302.9	371.81
303.13	348.81
303.36	361.81
303.59	355.81
303.82	375.81
304.051	358.81
304.281	355.81
304.511	362.81
304.741	360.81
304.971	362.81
305.201	372.81
305.431	347.81
305.661	376.81
305.891	352.81
306.121	344.81
306.352	362.81
306.582	343.81
306.812	388.81
307.042	346.81
307.272	357.81
307.502	348.81
307.731	355.81
307.961	362.81
308.191	362.81
308.421	349.81
308.651	350.81
308.881	358.81
309.111	349.81
309.341	352.81
309.571	376.81
309.8	360.81
310.03	346.81
310.26	375.81
310.49	376.81
310.72	370.81
310.949	396.81
311.179	394.81
311.409	388.81
311.639	382.81
311.868	371.81
312.098	367.81
312.328	386.81
312.557	399.81
312.787	399.81
313.017	401.81
313.246	385.81
313.476	387.81
313.706	387.81
313.935	409.81
314.165	407.81
314.394	421.81
314.624	403.81
314.853	401.81
315.083	409.81
315.312	408.81
315.542	396.81
315.771	395.81
316.001	375.81
316.23	408.81
316.46	394.81
316.689	385.81
316.919	392.81
317.148	386.81
317.377	412.81
317.607	400.81
317.836	390.81
318.065	400.81
318.295	405.81
318.524	393.81
318.753	393.81
318.983	379.81
319.212	382.81
319.441	399.81
319.67	388.81
319.9	384.81
320.129	382.81
320.358	387.81
320.587	396.81
320.816	405.81
321.046	412.81
321.275	416.81
321.504	396.81
321.733	396.81
321.962	403.81
322.191	412.81
322.42	427.81
322.649	439.81
322.878	436.81
323.108	439.81
323.337	480.81
323.566	449.81
323.795	450.81
324.024	513.81
324.253	567.81
324.482	758.81
324.71	1078.81
324.939	1458.81
325.168	1288.81
325.397	720.81
325.626	538.81
325.855	496.81
326.084	469.81
326.313	446.81
326.542	478.81
326.77	500.81
326.999	554.81
327.228	686.81
327.457	969.81
327.686	1150.81
327.914	788.81
328.143	587.81
328.372	540.81
328.6	504.81
328.829	499.81
329.058	513.81
329.287	483.81
329.515	491.81
329.744	459.81
329.972	462.81
330.201	485.81
330.43	509.81
330.658	516.81
330.887	550.81
331.115	533.81
331.344	490.81
331.572	475.81
331.801	461.81
332.03	482.81
332.258	471.81
332.486	470.81
332.715	482.81
332.943	487.81
333.172	482.81
333.4	508.81
333.629	492.81
333.857	523.81
334.085	536.81
334.314	526.81
334.542	539.81
334.771	543.81
334.999	518.81
335.227	491.81
335.455	489.81
335.684	487.81
335.912	476.81
336.14	469.81
336.369	474.81
336.597	489.81
336.825	477.81
337.053	458.81
337.281	454.81
337.51	452.81
337.738	473.81
337.966	474.81
338.194	456.81
338.422	456.81
338.65	469.81
338.878	442.81
339.106	465.81
339.334	472.81
339.562	438.81
339.79	436.81
340.018	454.81
340.246	426.81
340.474	466.81
340.702	447.81
340.93	445.81
341.158	468.81
341.386	448.81
341.614	460.81
341.842	437.81
342.07	443.81
342.298	426.81
342.526	425.81
342.754	424.81
342.981	423.81
343.209	435.81
343.437	431.81
343.665	461.81
343.893	469.81
344.12	477.81
344.348	482.81
344.576	476.81
344.804	456.81
345.031	492.81
345.259	464.81
345.487	438.81
345.714	458.81
345.942	428.81
346.17	428.81
346.397	449.81
346.625	440.81
346.853	406.81
347.08	416.81
347.308	422.81
347.535	434.81
347.763	434.81
347.99	428.81
348.218	436.81
348.445	451.81
348.673	424.81
348.9	411.81
349.128	428.81
349.355	427.81
349.583	421.81
349.81	389.81
350.037	414.81
350.265	418.81
350.492	422.81
350.72	420.81
350.947	417.81
351.174	429.81
351.402	426.81
351.629	403.81
351.856	423.81
352.083	417.81
352.311	424.81
352.538	418.81
352.765	413.81
352.992	421.81
353.22	425.81
353.447	419.81
353.674	438.81
353.901	400.81
354.128	388.81
354.355	399.81
354.583	404.81
354.81	408.81
355.037	409.81
355.264	393.81
355.491	410.81
355.718	405.81
355.945	412.81
356.172	399.81
356.399	405.81
356.626	404.81
356.853	409.81
357.08	416.81
357.307	409.81
357.534	390.81
357.761	404.81
357.988	418.81
358.215	417.81
358.441	398.81
358.668	400.81
358.895	408.81
359.122	407.81
359.349	410.81
359.576	416.81
359.802	457.81
360.029	440.81
360.256	446.81
360.483	425.81
360.709	417.81
360.936	410.81
361.163	429.81
361.39	424.81
361.616	416.81
361.843	413.81
362.07	421.81
362.296	412.81
362.523	425.81
362.749	407.81
362.976	408.81
363.203	443.81
363.429	390.81
363.656	414.81
363.882	397.81
364.109	420.81
364.335	396.81
364.562	404.81
364.788	393.81
365.015	405.81
365.241	410.81
365.468	412.81
365.694	413.81
365.92	444.81
366.147	419.81
366.373	409.81
366.599	389.81
366.826	407.81
367.052	406.81
367.278	424.81
367.505	406.81
367.731	415.81
367.957	425.81
368.184	411.81
368.41	404.81
368.636	404.81
368.862	424.81
369.089	407.81
369.315	419.81
369.541	408.81
369.767	404.81
369.993	418.81
370.219	424.81
370.445	416.81
370.672	426.81
370.898	421.81
371.124	436.81
371.35	434.81
371.576	425.81
371.802	432.81
372.028	402.81
372.254	422.81
372.48	420.81
372.706	434.81
372.932	427.81
373.158	423.81
373.384	434.81
373.61	442.81
373.835	430.81
374.061	413.81
374.287	427.81
374.513	422.81
374.739	448.81
374.965	444.81
375.191	434.81
375.416	430.81
375.642	425.81
375.868	448.81
376.094	424.81
376.319	419.81
376.545	410.81
376.771	401.81
376.997	422.81
377.222	413.81
377.448	405.81
377.674	402.81
377.899	410.81
378.125	417.81
378.35	403.81
378.576	416.81
378.802	392.81
379.027	418.81
379.253	421.81
379.478	404.81
379.704	427.81
379.929	433.81
380.155	412.81
380.38	420.81
380.606	411.81
380.831	427.81
381.057	412.81
381.282	407.81
381.507	432.81
381.733	412.81
381.958	410.81
382.184	432.81
382.409	427.81
382.634	432.81
382.86	444.81
383.085	443.81
383.31	453.81
383.535	421.81
383.761	452.81
383.986	443.81
384.211	458.81
384.436	458.81
384.662	466.81
384.887	465.81
385.112	456.81
385.337	469.81
385.562	458.81
385.787	456.81
386.013	481.81
386.238	489.81
386.463	453.81
386.688	497.81
386.913	473.81
387.138	486.81
387.363	473.81
387.588	456.81
387.813	457.81
388.038	479.81
388.263	462.81
388.488	461.81
388.713	459.81
388.938	453.81
389.163	488.81
389.387	477.81
389.612	448.81
389.837	466.81
390.062	487.81
390.287	466.81
390.512	462.81
390.736	462.81
390.961	460.81
391.186	472.81
391.411	480.81
391.636	486.81
391.86	485.81
392.085	512.81
392.31	489.81
392.534	489.81
392.759	501.81
392.984	482.81
393.208	496.81
393.433	483.81
393.658	472.81
393.882	487.81
394.107	487.81
394.331	476.81
394.556	483.81
394.78	491.81
395.005	489.81
395.229	472.81
395.454	469.81
395.678	509.81
395.903	526.81
396.127	544.81
396.352	518.81
396.576	509.81
396.801	493.81
397.025	482.81
397.249	514.81
397.474	518.81
397.698	505.81
397.922	522.81
398.147	539.81
398.371	553.81
398.595	533.81
398.82	532.81
399.044	591.81
399.268	602.81
399.492	668.81
399.717	698.81
399.941	730.81
400.165	686.81
400.389	676.81
400.613	630.81
400.837	579.81
401.062	556.81
401.286	564.81
401.51	578.81
401.734	561.81
401.958	566.81
402.182	556.81
402.406	570.81
402.63	606.81
402.854	591.81
403.078	584.81
403.302	571.81
403.526	587.81
403.75	603.81
403.974	598.81
404.198	591.81
404.422	593.81
404.645	602.81
404.869	599.81
405.093	618.81
405.317	659.81
405.541	670.81
405.765	620.81
405.988	600.81
406.212	611.81
406.436	627.81
406.66	647.81
406.883	627.81
407.107	627.81
407.331	696.81
407.555	737.81
407.778	728.81
408.002	691.81
408.226	642.81
408.449	633.81
408.673	643.81
408.896	648.81
409.12	686.81
409.344	648.81
409.567	583.81
409.791	603.81
410.014	576.81
410.238	590.81
410.461	581.81
410.685	575.81
410.908	579.81
411.132	594.81
411.355	626.81
411.578	628.81
411.802	568.81
412.025	574.81
412.249	602.81
412.472	598.81
412.695	638.81
412.919	620.81
413.142	585.81
413.365	562.81
413.589	561.81
413.812	566.81
414.035	549.81
414.258	556.81
414.482	545.81
414.705	542.81
414.928	538.81
415.151	540.81
415.374	545.81
415.597	536.81
415.821	518.81
416.044	516.81
416.267	538.81
416.49	542.81
416.713	505.81
416.936	537.81
417.159	539.81
417.382	522.81
417.605	521.81
417.828	550.81
418.051	579.81
418.274	548.81
418.497	528.81
418.72	538.81
418.943	536.81
419.166	581.81
419.389	592.81
419.611	571.81
419.834	573.81
420.057	594.81
420.28	556.81
420.503	574.81
420.726	576.81
420.948	584.81
421.171	627.81
421.394	622.81
421.617	568.81
421.839	550.81
422.062	564.81
422.285	569.81
422.507	609.81
422.73	663.81
422.953	648.81
423.175	605.81
423.398	577.81
423.621	587.81
423.843	602.81
424.066	626.81
424.288	595.81
424.511	602.81
424.733	645.81
424.956	710.81
425.178	690.81
425.401	656.81
425.623	673.81
425.846	620.81
426.068	596.81
426.291	591.81
426.513	577.81
426.735	568.81
426.958	589.81
427.18	667.81
427.402	776.81
427.625	828.81
427.847	752.81
428.069	639.81
428.292	613.81
428.514	580.81
428.736	546.81
428.958	574.81
429.181	517.81
429.403	538.81
429.625	527.81
429.847	572.81
430.069	613.81
430.292	617.81
430.514	547.81
430.736	546.81
430.958	528.81
431.18	530.81
431.402	518.81
431.624	525.81
431.846	518.81
432.068	512.81
432.29	518.81
432.512	536.81
432.734	512.81
432.956	500.81
433.178	520.81
433.4	533.81
433.622	496.81
433.844	525.81
434.066	532.81
434.287	510.81
434.509	532.81
434.731	544.81
434.953	532.81
435.175	541.81
435.397	589.81
435.618	573.81
435.84	611.81
436.062	680.81
436.284	726.81
436.505	618.81
436.727	579.81
436.949	533.81
437.17	525.81
437.392	533.81
437.614	525.81
437.835	572.81
438.057	631.81
438.278	692.81
438.5	724.81
438.721	802.81
438.943	755.81
439.165	615.81
439.386	597.81
439.608	556.81
439.829	566.81
440.05	589.81
440.272	615.81
440.493	592.81
440.715	552.81
440.936	536.81
441.158	546.81
441.379	551.81
441.6	547.81
441.822	593.81
442.043	608.81
442.264	680.81
442.486	703.81
442.707	626.81
442.928	584.81
443.149	572.81
443.371	616.81
443.592	674.81
443.813	729.81
444.034	774.81
444.255	649.81
444.476	624.81
444.698	621.81
444.919	625.81
445.14	750.81
445.361	679.81
445.582	653.81
445.803	648.81
446.024	741.81
446.245	735.81
446.466	672.81
446.687	600.81
446.908	584.81
447.129	541.81
447.35	524.81
447.571	508.81
447.792	509.81
448.013	515.81
448.234	533.81
448.455	581.81
448.675	649.81
448.896	770.81
449.117	643.81
449.338	606.81
449.559	698.81
449.779	797.81
450	634.81
450.221	534.81
450.442	547.81
450.662	515.81
450.883	502.81
451.104	498.81
451.324	498.81
451.545	478.81
451.766	520.81
451.986	461.81
452.207	473.81
452.428	448.81
452.648	472.81
452.869	482.81
453.089	479.81
453.31	483.81
453.53	463.81
453.751	440.81
453.971	469.81
454.192	468.81
454.412	457.81
454.633	468.81
454.853	459.81
455.073	453.81
455.294	485.81
455.514	530.81
455.734	497.81
455.955	449.81
456.175	470.81
456.395	458.81
456.616	450.81
456.836	448.81
457.056	436.81
457.276	439.81
457.497	428.81
457.717	453.81
457.937	457.81
458.157	475.81
458.377	444.81
458.598	469.81
458.818	510.81
459.038	579.81
459.258	604.81
459.478	540.81
459.698	518.81
459.918	508.81
460.138	527.81
460.358	532.81
460.578	554.81
460.798	544.81
461.018	548.81
461.238	550.81
461.458	531.81
461.678	542.81
461.898	536.81
462.118	551.81
462.338	578.81
462.558	589.81
462.777	563.81
462.997	615.81
463.217	618.81
463.437	661.81
463.657	632.81
463.876	603.81
464.096	587.81
464.316	569.81
464.536	595.81
464.755	600.81
464.975	606.81
465.195	600.81
465.414	597.81
465.634	567.81
465.854	536.81
466.073	521.81
466.293	512.81
466.512	491.81
466.732	506.81
466.951	508.81
467.171	477.81
467.391	489.81
467.61	478.81
467.829	488.81
468.049	489.81
468.268	490.81
468.488	481.81
468.707	469.81
468.927	508.81
469.146	469.81
469.365	465.81
469.585	506.81
469.804	492.81
470.023	503.81
470.243	496.81
470.462	505.81
470.681	519.81
470.901	524.81
471.12	498.81
471.339	506.81
471.558	487.81
471.777	480.81
471.997	492.81
472.216	507.81
472.435	504.81
472.654	474.81
472.873	488.81
473.092	497.81
473.311	475.81
473.53	502.81
473.749	486.81
473.968	552.81
474.187	591.81
474.406	603.81
474.625	531.81
474.844	516.81
475.063	497.81
475.282	490.81
475.501	503.81
475.72	489.81
475.939	509.81
476.158	489.81
476.377	497.81
476.596	481.81
476.814	500.81
477.033	554.81
477.252	520.81
477.471	532.81
477.69	513.81
477.908	526.81
478.127	558.81
478.346	564.81
478.564	546.81
478.783	560.81
479.002	556.81
479.22	573.81
479.439	560.81
479.658	592.81
479.876	570.81
480.095	580.81
480.313	640.81
480.532	630.81
480.751	611.81
480.969	610.81
481.188	626.81
481.406	662.81
481.624	614.81
481.843	593.81
482.061	549.81
482.28	569.81
482.498	556.81
482.717	572.81
482.935	549.81
483.153	537.81
483.372	562.81
483.59	569.81
483.808	545.81
484.027	565.81
484.245	564.81
484.463	567.81
484.681	565.81
484.9	589.81
485.118	587.81
485.336	581.81
485.554	585.81
485.772	570.81
485.99	594.81
486.209	576.81
486.427	572.81
486.645	594.81
486.863	595.81
487.081	616.81
487.299	594.81
487.517	616.81
487.735	596.81
487.953	612.81
488.171	602.81
488.389	596.81
488.607	603.81
488.825	613.81
489.043	610.81
489.261	596.81
489.479	595.81
489.696	590.81
489.914	610.81
490.132	611.81
490.35	619.81
490.568	636.81
490.786	626.81
491.003	647.81
491.221	649.81
491.439	673.81
491.657	669.81
491.874	676.81
492.092	675.81
492.31	678.81
492.527	675.81
492.745	688.81
492.963	690.81
493.18	689.81
493.398	712.81
493.615	715.81
493.833	711.81
494.05	694.81
494.268	699.81
494.485	679.81
494.703	698.81
494.92	687.81
495.138	692.81
495.355	728.81
495.573	708.81
495.79	719.81
496.008	715.81
496.225	719.81
496.442	690.81
496.66	724.81
496.877	720.81
497.094	727.81
497.312	707.81
497.529	734.81
497.746	727.81
497.963	754.81
498.181	809.81
498.398	797.81
498.615	813.81
498.832	847.81
499.049	877.81
499.267	902.81
499.484	977.81
499.701	984.81
499.918	1074.81
500.135	1130.81
500.352	1222.81
500.569	1278.81
500.786	1238.81
501.003	1202.81
501.22	1179.81
501.437	1082.81
501.654	1024.81
501.871	992.81
502.088	955.81
502.305	882.81
502.522	842.81
502.739	840.81
502.956	807.81
503.172	778.81
503.389	737.81
503.606	731.81
503.823	746.81
504.04	735.81
504.256	723.81
504.473	733.81
504.69	749.81
504.907	733.81
505.123	697.81
505.34	680.81
505.557	668.81
505.773	704.81
505.99	656.81
506.207	660.81
506.423	666.81
506.64	638.81
506.856	653.81
507.073	641.81
507.289	641.81
507.506	649.81
507.722	654.81
507.939	661.81
508.155	638.81
508.372	621.81
508.588	642.81
508.805	631.81
509.021	613.81
509.238	622.81
509.454	624.81
509.67	624.81
509.887	613.81
510.103	624.81
510.319	610.81
510.536	660.81
510.752	919.81
510.968	806.81
511.184	615.81
511.401	581.81
511.617	581.81
511.833	591.81
512.049	575.81
512.265	577.81
512.481	567.81
512.698	577.81
512.914	585.81
513.13	578.81
513.346	588.81
513.562	582.81
513.778	589.81
513.994	589.81
514.21	609.81
514.426	604.81
514.642	591.81
514.858	608.81
515.074	651.81
515.29	718.81
515.506	916.81
515.721	778.81
515.937	632.81
516.153	617.81
516.369	640.81
516.585	611.81
516.801	607.81
517.016	626.81
517.232	648.81
517.448	628.81
517.664	671.81
517.879	670.81
518.095	657.81
518.311	676.81
518.527	644.81
518.742	625.81
518.958	625.81
519.173	606.81
519.389	621.81
519.605	603.81
519.82	617.81
520.036	598.81
520.251	605.81
520.467	611.81
520.682	608.81
520.898	596.81
521.113	612.81
521.329	631.81
521.544	668.81
521.76	750.81
521.975	1105.81
522.19	1078.81
522.406	689.81
522.621	581.81
522.836	560.81
523.052	540.81
523.267	555.81
523.482	540.81
523.698	526.81
523.913	534.81
524.128	505.81
524.343	494.81
524.559	512.81
524.774	496.81
524.989	509.81
525.204	493.81
525.419	520.81
525.634	510.81
525.849	477.81
526.064	487.81
526.28	488.81
526.495	478.81
526.71	498.81
526.925	485.81
527.14	483.81
527.355	499.81
527.57	480.81
527.785	485.81
527.999	496.81
528.214	461.81
528.429	492.81
528.644	512.81
528.859	492.81
529.074	491.81
529.289	497.81
529.503	536.81
529.718	547.81
529.933	522.81
530.148	491.81
530.363	483.81
530.577	499.81
530.792	461.81
531.007	474.81
531.221	488.81
531.436	487.81
531.651	486.81
531.865	482.81
532.08	468.81
532.295	479.81
532.509	472.81
532.724	485.81
532.938	454.81
533.153	478.81
533.367	465.81
533.582	462.81
533.796	471.81
534.011	475.81
534.225	465.81
534.44	480.81
534.654	457.81
534.868	473.81
535.083	475.81
535.297	476.81
535.511	468.81
535.726	457.81
535.94	480.81
536.154	459.81
536.369	462.81
536.583	453.81
536.797	493.81
537.011	460.81
537.225	469.81
537.44	472.81
537.654	457.81
537.868	459.81
538.082	454.81
538.296	453.81
538.51	477.81
538.724	467.81
538.938	461.81
539.153	454.81
539.367	465.81
539.581	443.81
539.795	451.81
540.009	461.81
540.222	450.81
540.436	450.81
540.65	463.81
540.864	475.81
541.078	488.81
541.292	433.81
541.506	457.81
541.72	450.81
541.934	476.81
542.147	452.81
542.361	470.81
542.575	453.81
542.789	451.81
543.002	449.81
543.216	465.81
543.43	438.81
543.644	456.81
543.857	440.81
544.071	470.81
544.285	452.81
544.498	474.81
544.712	451.81
544.925	467.81
545.139	463.81
545.352	441.81
545.566	457.81
545.779	459.81
545.993	469.81
546.206	441.81
546.42	442.81
546.633	471.81
546.847	478.81
547.06	457.81
547.274	460.81
547.487	451.81
547.7	445.81
547.914	476.81
548.127	454.81
548.34	472.81
548.554	467.81
548.767	451.81
548.98	437.81
549.193	454.81
549.407	462.81
549.62	462.81
549.833	465.81
550.046	452.81
550.259	439.81
550.473	454.81
550.686	436.81
550.899	441.81
551.112	449.81
551.325	429.81
551.538	442.81
551.751	436.81
551.964	456.81
552.177	434.81
552.39	454.81
552.603	479.81
552.816	450.81
553.029	468.81
553.242	470.81
553.455	467.81
553.667	487.81
553.88	500.81
554.093	477.81
554.306	469.81
554.519	455.81
554.732	450.81
554.944	459.81
555.157	439.81
555.37	436.81
555.583	439.81
555.795	416.81
556.008	429.81
556.221	441.81
556.433	398.81
556.646	405.81
556.859	412.81
557.071	386.81
557.284	390.81
557.496	418.81
557.709	409.81
557.921	408.81
558.134	398.81
558.346	396.81
558.559	416.81
558.771	387.81
558.984	410.81
559.196	395.81
559.409	414.81
559.621	397.81
559.833	384.81
560.046	424.81
560.258	385.81
560.47	392.81
560.683	393.81
560.895	378.81
561.107	394.81
561.32	402.81
561.532	395.81
561.744	398.81
561.956	404.81
562.168	408.81
562.381	402.81
562.593	391.81
562.805	401.81
563.017	386.81
563.229	398.81
563.441	424.81
563.653	427.81
563.865	402.81
564.077	420.81
564.289	415.81
564.501	420.81
564.713	425.81
564.925	432.81
565.137	422.81
565.349	434.81
565.561	468.81
565.773	462.81
565.985	458.81
566.197	474.81
566.408	496.81
566.62	552.81
566.832	560.81
567.044	544.81
567.255	527.81
567.467	577.81
567.679	584.81
567.891	590.81
568.102	597.81
568.314	584.81
568.526	564.81
568.737	519.81
568.949	492.81
569.161	458.81
569.372	454.81
569.584	437.81
569.795	446.81
570.007	436.81
570.218	437.81
570.43	430.81
570.641	410.81
570.853	411.81
571.064	413.81
571.276	399.81
571.487	381.81
571.698	381.81
571.91	393.81
572.121	401.81
572.333	384.81
572.544	353.81
572.755	364.81
572.966	357.81
573.178	358.81
573.389	346.81
573.6	347.81
573.811	347.81
574.023	372.81
574.234	340.81
574.445	332.81
574.656	330.81
574.867	330.81
575.078	342.81
575.289	352.81
575.501	333.81
575.712	320.81
575.923	336.81
576.134	338.81
576.345	330.81
576.556	369.81
576.767	326.81
576.978	334.81
577.188	340.81
577.399	346.81
577.61	341.81
577.821	336.81
578.032	318.81
578.243	335.81
578.454	463.81
578.665	377.81
578.875	337.81
579.086	318.81
579.297	313.81
579.508	322.81
579.718	329.81
579.929	318.81
580.14	329.81
580.35	315.81
580.561	324.81
580.772	312.81
580.982	323.81
581.193	313.81
581.403	312.81
581.614	292.81
581.825	316.81
582.035	319.81
582.246	336.81
582.456	306.81
582.667	318.81
582.877	302.81
583.087	311.81
583.298	317.81
583.508	305.81
583.719	324.81
583.929	293.81
584.139	307.81
584.35	305.81
584.56	310.81
584.77	295.81
584.981	308.81
585.191	313.81
585.401	306.81
585.611	315.81
585.821	305.81
586.032	298.81
586.242	306.81
586.452	289.81
586.662	311.81
586.872	312.81
587.082	312.81
587.292	327.81
587.502	300.81
587.713	299.81
587.923	312.81
588.133	282.81
588.343	308.81
588.553	328.81
588.762	290.81
588.972	307.81
589.182	312.81
589.392	320.81
589.602	310.81
589.812	305.81
590.022	310.81
590.232	304.81
590.441	320.81
590.651	324.81
590.861	314.81
591.071	320.81
591.281	299.81
591.49	308.81
591.7	317.81
591.91	312.81
592.119	299.81
592.329	337.81
592.539	330.81
592.748	349.81
592.958	344.81
593.167	341.81
593.377	362.81
593.587	367.81
593.796	336.81
594.006	348.81
594.215	350.81
594.424	353.81
594.634	363.81
594.843	340.81
595.053	338.81
595.262	333.81
595.472	334.81
595.681	308.81
595.89	318.81
596.1	279.81
596.309	300.81
596.518	295.81
596.727	292.81
596.937	312.81
597.146	301.81
597.355	292.81
597.564	277.81
597.774	303.81
597.983	285.81
598.192	278.81
598.401	286.81
598.61	282.81
598.819	290.81
599.028	295.81
599.237	277.81
599.446	294.81
599.655	265.81
599.864	273.81
600.073	269.81
600.282	271.81
600.491	279.81
600.7	279.81
600.909	260.81
601.118	251.81
601.327	257.81
601.536	268.81
601.745	257.81
601.953	265.81
602.162	278.81
602.371	242.81
602.58	254.81
602.789	279.81
602.997	254.81
603.206	256.81
603.415	268.81
603.623	265.81
603.832	270.81
604.041	255.81
604.249	268.81
604.458	270.81
604.666	240.81
604.875	236.81
605.084	252.81
605.292	250.81
605.501	255.81
605.709	255.81
605.918	249.81
606.126	252.81
606.334	259.81
606.543	262.81
606.751	260.81
606.96	242.81
607.168	256.81
607.376	257.81
607.585	256.81
607.793	254.81
608.001	256.81
608.21	253.81
608.418	250.81
608.626	232.81
608.834	254.81
609.043	256.81
609.251	242.81
609.459	230.81
609.667	254.81
609.875	258.81
610.083	263.81
610.291	269.81
610.499	257.81
610.707	252.81
610.916	260.81
611.124	253.81
611.332	239.81
611.54	245.81
611.748	245.81
611.955	261.81
612.163	263.81
612.371	247.81
612.579	248.81
612.787	229.81
612.995	281.81
613.203	249.81
613.411	245.81
613.618	242.81
613.826	230.81
614.034	247.81
614.242	237.81
614.449	233.81
614.657	226.81
614.865	242.81
615.072	240.81
615.28	257.81
615.488	233.81
615.695	244.81
615.903	240.81
616.111	249.81
616.318	237.81
616.526	236.81
616.733	248.81
616.941	225.81
617.148	260.81
617.356	238.81
617.563	262.81
617.771	245.81
617.978	235.81
618.185	256.81
618.393	242.81
618.6	260.81
618.807	229.81
619.015	248.81
619.222	236.81
619.429	234.81
619.637	219.81
619.844	235.81
620.051	233.81
620.258	229.81
620.466	232.81
620.673	219.81
620.88	246.81
621.087	248.81
621.294	236.81
621.501	213.81
621.708	224.81
621.915	233.81
622.122	220.81
622.329	219.81
622.536	224.81
622.743	236.81
622.95	212.81
623.157	202.81
623.364	209.81
623.571	221.81
623.778	231.81
623.985	222.81
624.192	225.81
624.399	221.81
624.606	218.81
624.812	225.81
625.019	220.81
625.226	218.81
625.433	222.81
625.639	218.81
625.846	205.81
626.053	212.81
626.259	210.81
626.466	214.81
626.673	189.81
626.879	217.81
627.086	200.81
627.293	215.81
627.499	215.81
627.706	206.81
627.912	211.81
628.119	199.81
628.325	218.81
628.532	197.81
628.738	206.81
628.945	220.81
629.151	224.81
629.357	202.81
629.564	206.81
629.77	212.81
629.976	198.81
630.183	208.81
630.389	201.81
630.595	198.81
630.802	199.81
631.008	186.81
631.214	184.81
631.42	202.81
631.627	215.81
631.833	198.81
632.039	205.81
632.245	195.81
632.451	192.81
632.657	200.81
632.863	206.81
633.069	198.81
633.275	193.81
633.481	196.81
633.688	194.81
633.893	200.81
634.099	198.81
634.305	186.81
634.511	194.81
634.717	203.81
634.923	174.81
635.129	197.81
635.335	183.81
635.541	186.81
635.747	174.81
635.952	190.81
636.158	187.81
636.364	181.81
636.57	175.81
636.775	185.81
636.981	195.81
637.187	190.81
637.392	199.81
637.598	187.81
637.804	176.81
638.009	195.81
638.215	190.81
638.421	199.81
638.626	191.81
638.832	174.81
639.037	178.81
639.243	187.81
639.448	178.81
639.654	167.81
639.859	166.81
640.065	178.81
640.27	182.81
640.475	178.81
640.681	182.81
640.886	179.81
641.091	183.81
641.297	188.81
641.502	178.81
641.707	180.81
641.913	191.81
642.118	185.81
642.323	181.81
642.528	172.81
642.733	176.81
642.939	174.81
643.144	181.81
643.349	163.81
643.554	178.81
643.759	165.81
643.964	164.81
644.169	170.81
644.374	177.81
644.579	169.81
644.784	182.81
644.989	180.81
645.194	169.81
645.399	164.81
645.604	157.81
645.809	166.81
646.014	175.81
646.219	166.81
646.423	174.81
646.628	169.81
646.833	175.81
647.038	170.81
647.243	172.81
647.447	163.81
647.652	182.81
647.857	184.81
648.062	195.81
648.266	174.81
648.471	192.81
648.676	187.81
648.88	176.81
649.085	167.81
649.289	190.81
649.494	167.81
649.698	174.81
649.903	180.81
650.107	181.81
650.312	178.81
650.516	165.81
650.721	167.81
650.925	164.81
651.13	170.81
651.334	162.81
651.539	156.81
651.743	163.81
651.947	139.81
652.152	164.81
652.356	146.81
652.56	160.81
652.764	153.81
652.969	142.81
653.173	138.81
653.377	143.81
653.581	152.81
653.785	137.81
653.99	141.81
654.194	132.81
654.398	135.81
654.602	148.81
654.806	162.81
655.01	142.81
655.214	140.81
655.418	127.81
655.622	147.81
655.826	133.81
656.03	148.81
656.234	143.81
656.438	139.81
656.642	145.81
656.846	138.81
657.049	128.81
657.253	142.81
657.457	134.81
657.661	114.81
657.865	120.81
658.068	117.81
658.272	114.81
658.476	108.81
658.68	112.81
658.883	102.81
659.087	101.81
659.291	108.81
659.494	100.81
659.698	95.81
659.901	96.81
660.105	106.81
660.309	100.81
660.512	77.81
660.716	98.81
660.919	104.81
661.123	85.81
661.326	83.81
661.53	82.81
661.733	89.81
661.936	93.81
662.14	91.81
662.343	97.81
662.546	85.81
662.75	85.81
662.953	85.81
663.156	81.81
663.36	90.81
663.563	74.81
663.766	92.81
663.969	82.81
664.173	79.81
664.376	81.81
664.579	93.81
664.782	81.81
664.985	85.81
665.188	76.81
665.391	85.81
665.594	75.81
665.797	71.81
666	75.81
666.203	70.81
666.406	76.81
666.609	77.81
666.812	84.81
667.015	80.81
667.218	88.81
667.421	99.81
667.624	77.81
667.827	69.81
668.03	79.81
668.232	73.81
668.435	94.81
668.638	74.81
668.841	86.81
669.043	73.81
669.246	69.81
669.449	66.81
669.651	86.81
669.854	78.81
670.057	74.81
670.259	85.81
670.462	80.81
670.665	86.81
670.867	84.81
671.07	93.81
671.272	72.81
671.475	85.81
671.677	60.81
671.88	82.81
672.082	85.81
672.284	73.81
672.487	94.81
672.689	71.81
672.892	70.81
