Data from 1973.PennyLincolnUp.Lamp.En5.5.200Scan.071719.P1.Changed Mount._HRD10591_15-44-14-852.txt Node
Date: Thu Jul 18 15:44:14 EDT 2019
User: cochatt
Spectrometer: HR+D1059
Trigger mode: 1
Integration Time (sec): 1.000000E-1
Scans to average: 1
Electric dark correction enabled: true
Nonlinearity correction enabled: false
Boxcar width: 0
XAxis mode: Wavelengths
Number of Pixels in Spectrum: 2048
>>>>>Begin Spectral Data<<<<<
223.165	-9.25
223.4	-9.25
223.635	-9.25
223.869	-22.25
224.104	-23.25
224.338	-16.25
224.573	-28.25
224.808	-4.25
225.042	6.75
225.277	-7.25
225.511	-4.25
225.746	-8.25
225.98	8.75
226.215	9.75
226.449	15.75
226.683	29.75
226.918	25.75
227.152	26.75
227.387	47.75
227.621	49.75
227.856	38.75
228.09	54.75
228.324	57.75
228.559	62.75
228.793	66.75
229.027	92.75
229.262	91.75
229.496	90.75
229.73	127.75
229.964	132.75
230.199	122.75
230.433	107.75
230.667	108.75
230.901	117.75
231.136	98.75
231.37	105.75
231.604	108.75
231.838	106.75
232.072	102.75
232.306	102.75
232.541	115.75
232.775	118.75
233.009	128.75
233.243	117.75
233.477	130.75
233.711	119.75
233.945	110.75
234.179	113.75
234.413	120.75
234.647	106.75
234.881	105.75
235.115	122.75
235.349	111.75
235.583	122.75
235.817	118.75
236.051	114.75
236.285	128.75
236.519	105.75
236.753	136.75
236.987	135.75
237.221	161.75
237.455	196.75
237.689	172.75
237.922	142.75
238.156	133.75
238.39	136.75
238.624	120.75
238.858	128.75
239.091	123.75
239.325	134.75
239.559	132.75
239.793	135.75
240.027	137.75
240.26	124.75
240.494	150.75
240.728	144.75
240.961	159.75
241.195	154.75
241.429	133.75
241.662	127.75
241.896	131.75
242.13	138.75
242.363	130.75
242.597	134.75
242.83	140.75
243.064	142.75
243.298	147.75
243.531	130.75
243.765	154.75
243.998	148.75
244.232	139.75
244.465	149.75
244.699	137.75
244.932	156.75
245.166	142.75
245.399	148.75
245.633	143.75
245.866	140.75
246.099	146.75
246.333	158.75
246.566	167.75
246.8	156.75
247.033	152.75
247.266	163.75
247.5	166.75
247.733	155.75
247.966	162.75
248.2	162.75
248.433	164.75
248.666	178.75
248.899	184.75
249.133	186.75
249.366	191.75
249.599	178.75
249.832	174.75
250.066	191.75
250.299	178.75
250.532	179.75
250.765	184.75
250.998	207.75
251.231	200.75
251.465	190.75
251.698	196.75
251.931	198.75
252.164	191.75
252.397	216.75
252.63	188.75
252.863	188.75
253.096	216.75
253.329	220.75
253.562	219.75
253.795	203.75
254.028	222.75
254.261	205.75
254.494	210.75
254.727	242.75
254.96	255.75
255.193	250.75
255.426	217.75
255.659	231.75
255.892	213.75
256.124	223.75
256.357	219.75
256.59	204.75
256.823	213.75
257.056	207.75
257.289	198.75
257.521	218.75
257.754	197.75
257.987	211.75
258.22	205.75
258.452	214.75
258.685	216.75
258.918	199.75
259.151	221.75
259.383	206.75
259.616	220.75
259.849	225.75
260.081	230.75
260.314	235.75
260.547	234.75
260.779	232.75
261.012	251.75
261.244	218.75
261.477	225.75
261.71	224.75
261.942	209.75
262.175	227.75
262.407	223.75
262.64	217.75
262.872	218.75
263.105	216.75
263.337	231.75
263.57	237.75
263.802	213.75
264.035	214.75
264.267	231.75
264.499	223.75
264.732	236.75
264.964	210.75
265.197	226.75
265.429	232.75
265.661	228.75
265.894	237.75
266.126	234.75
266.358	239.75
266.591	230.75
266.823	217.75
267.055	220.75
267.287	248.75
267.52	231.75
267.752	222.75
267.984	219.75
268.216	224.75
268.448	232.75
268.681	227.75
268.913	259.75
269.145	262.75
269.377	275.75
269.609	248.75
269.841	278.75
270.073	283.75
270.306	293.75
270.538	289.75
270.77	316.75
271.002	302.75
271.234	282.75
271.466	294.75
271.698	301.75
271.93	300.75
272.162	296.75
272.394	322.75
272.626	306.75
272.858	264.75
273.09	264.75
273.322	274.75
273.553	264.75
273.785	254.75
274.017	269.75
274.249	271.75
274.481	251.75
274.713	256.75
274.945	278.75
275.176	270.75
275.408	266.75
275.64	276.75
275.872	270.75
276.104	274.75
276.335	271.75
276.567	270.75
276.799	275.75
277.031	293.75
277.262	306.75
277.494	323.75
277.726	299.75
277.957	303.75
278.189	283.75
278.421	272.75
278.652	280.75
278.884	277.75
279.115	283.75
279.347	278.75
279.579	270.75
279.81	272.75
280.042	279.75
280.273	270.75
280.505	286.75
280.736	286.75
280.968	295.75
281.199	302.75
281.431	297.75
281.662	282.75
281.894	302.75
282.125	277.75
282.356	312.75
282.588	319.75
282.819	315.75
283.051	294.75
283.282	288.75
283.513	289.75
283.745	286.75
283.976	291.75
284.207	312.75
284.439	313.75
284.67	315.75
284.901	289.75
285.132	284.75
285.364	304.75
285.595	293.75
285.826	294.75
286.057	317.75
286.288	289.75
286.52	278.75
286.751	327.75
286.982	323.75
287.213	317.75
287.444	308.75
287.675	316.75
287.906	318.75
288.138	301.75
288.369	322.75
288.6	302.75
288.831	310.75
289.062	327.75
289.293	322.75
289.524	306.75
289.755	310.75
289.986	312.75
290.217	334.75
290.448	318.75
290.679	316.75
290.91	314.75
291.141	329.75
291.371	318.75
291.602	327.75
291.833	295.75
292.064	309.75
292.295	306.75
292.526	301.75
292.757	340.75
292.987	308.75
293.218	320.75
293.449	331.75
293.68	303.75
293.91	319.75
294.141	310.75
294.372	298.75
294.603	325.75
294.833	330.75
295.064	308.75
295.295	320.75
295.525	306.75
295.756	313.75
295.987	351.75
296.217	342.75
296.448	341.75
296.679	327.75
296.909	322.75
297.14	333.75
297.37	336.75
297.601	321.75
297.831	310.75
298.062	328.75
298.292	339.75
298.523	336.75
298.753	306.75
298.984	335.75
299.214	331.75
299.445	333.75
299.675	323.75
299.905	338.75
300.136	331.75
300.366	336.75
300.597	343.75
300.827	347.75
301.057	346.75
301.288	338.75
301.518	347.75
301.748	359.75
301.979	348.75
302.209	356.75
302.439	341.75
302.669	355.75
302.9	359.75
303.13	351.75
303.36	343.75
303.59	366.75
303.82	368.75
304.051	368.75
304.281	374.75
304.511	358.75
304.741	357.75
304.971	343.75
305.201	363.75
305.431	348.75
305.661	347.75
305.891	350.75
306.121	362.75
306.352	346.75
306.582	361.75
306.812	357.75
307.042	365.75
307.272	347.75
307.502	356.75
307.731	362.75
307.961	358.75
308.191	340.75
308.421	312.75
308.651	367.75
308.881	356.75
309.111	349.75
309.341	362.75
309.571	376.75
309.8	374.75
310.03	355.75
310.26	362.75
310.49	400.75
310.72	373.75
310.949	380.75
311.179	396.75
311.409	392.75
311.639	376.75
311.868	382.75
312.098	376.75
312.328	363.75
312.557	383.75
312.787	398.75
313.017	399.75
313.246	362.75
313.476	374.75
313.706	390.75
313.935	402.75
314.165	398.75
314.394	404.75
314.624	402.75
314.853	397.75
315.083	399.75
315.312	406.75
315.542	361.75
315.771	392.75
316.001	380.75
316.23	374.75
316.46	397.75
316.689	395.75
316.919	394.75
317.148	396.75
317.377	388.75
317.607	394.75
317.836	394.75
318.065	382.75
318.295	398.75
318.524	398.75
318.753	395.75
318.983	381.75
319.212	382.75
319.441	382.75
319.67	398.75
319.9	389.75
320.129	374.75
320.358	396.75
320.587	388.75
320.816	395.75
321.046	389.75
321.275	389.75
321.504	400.75
321.733	397.75
321.962	406.75
322.191	414.75
322.42	409.75
322.649	414.75
322.878	419.75
323.108	416.75
323.337	410.75
323.566	443.75
323.795	455.75
324.024	471.75
324.253	539.75
324.482	685.75
324.71	992.75
324.939	1378.75
325.168	1241.75
325.397	694.75
325.626	510.75
325.855	453.75
326.084	446.75
326.313	465.75
326.542	467.75
326.77	471.75
326.999	535.75
327.228	656.75
327.457	905.75
327.686	1100.75
327.914	750.75
328.143	559.75
328.372	544.75
328.6	514.75
328.829	503.75
329.058	498.75
329.287	498.75
329.515	483.75
329.744	483.75
329.972	476.75
330.201	484.75
330.43	510.75
330.658	524.75
330.887	524.75
331.115	511.75
331.344	483.75
331.572	492.75
331.801	507.75
332.03	481.75
332.258	471.75
332.486	450.75
332.715	469.75
332.943	491.75
333.172	491.75
333.4	486.75
333.629	496.75
333.857	495.75
334.085	515.75
334.314	532.75
334.542	537.75
334.771	525.75
334.999	501.75
335.227	479.75
335.455	500.75
335.684	464.75
335.912	493.75
336.14	486.75
336.369	464.75
336.597	487.75
336.825	457.75
337.053	458.75
337.281	445.75
337.51	459.75
337.738	454.75
337.966	460.75
338.194	456.75
338.422	454.75
338.65	450.75
338.878	440.75
339.106	442.75
339.334	439.75
339.562	427.75
339.79	442.75
340.018	431.75
340.246	441.75
340.474	459.75
340.702	436.75
340.93	447.75
341.158	450.75
341.386	440.75
341.614	437.75
341.842	430.75
342.07	438.75
342.298	428.75
342.526	437.75
342.754	443.75
342.981	435.75
343.209	429.75
343.437	431.75
343.665	447.75
343.893	458.75
344.12	476.75
344.348	444.75
344.576	454.75
344.804	464.75
345.031	445.75
345.259	436.75
345.487	426.75
345.714	450.75
345.942	415.75
346.17	425.75
346.397	425.75
346.625	412.75
346.853	426.75
347.08	430.75
347.308	418.75
347.535	450.75
347.763	424.75
347.99	416.75
348.218	412.75
348.445	412.75
348.673	427.75
348.9	426.75
349.128	401.75
349.355	418.75
349.583	420.75
349.81	400.75
350.037	422.75
350.265	405.75
350.492	396.75
350.72	427.75
350.947	426.75
351.174	422.75
351.402	420.75
351.629	413.75
351.856	409.75
352.083	413.75
352.311	418.75
352.538	427.75
352.765	430.75
352.992	407.75
353.22	410.75
353.447	370.75
353.674	418.75
353.901	414.75
354.128	408.75
354.355	408.75
354.583	409.75
354.81	391.75
355.037	383.75
355.264	401.75
355.491	403.75
355.718	409.75
355.945	400.75
356.172	386.75
356.399	408.75
356.626	401.75
356.853	389.75
357.08	386.75
357.307	398.75
357.534	398.75
357.761	393.75
357.988	389.75
358.215	404.75
358.441	393.75
358.668	412.75
358.895	421.75
359.122	398.75
359.349	406.75
359.576	406.75
359.802	403.75
360.029	439.75
360.256	447.75
360.483	421.75
360.709	438.75
360.936	424.75
361.163	419.75
361.39	394.75
361.616	439.75
361.843	394.75
362.07	407.75
362.296	422.75
362.523	431.75
362.749	410.75
362.976	380.75
363.203	410.75
363.429	409.75
363.656	397.75
363.882	413.75
364.109	410.75
364.335	400.75
364.562	387.75
364.788	399.75
365.015	402.75
365.241	395.75
365.468	418.75
365.694	413.75
365.92	404.75
366.147	429.75
366.373	400.75
366.599	414.75
366.826	404.75
367.052	412.75
367.278	396.75
367.505	411.75
367.731	403.75
367.957	396.75
368.184	400.75
368.41	414.75
368.636	410.75
368.862	398.75
369.089	407.75
369.315	424.75
369.541	418.75
369.767	399.75
369.993	396.75
370.219	408.75
370.445	415.75
370.672	416.75
370.898	427.75
371.124	413.75
371.35	414.75
371.576	409.75
371.802	420.75
372.028	419.75
372.254	424.75
372.48	429.75
372.706	407.75
372.932	431.75
373.158	415.75
373.384	402.75
373.61	408.75
373.835	430.75
374.061	431.75
374.287	419.75
374.513	443.75
374.739	438.75
374.965	430.75
375.191	431.75
375.416	423.75
375.642	406.75
375.868	427.75
376.094	422.75
376.319	400.75
376.545	405.75
376.771	431.75
376.997	410.75
377.222	409.75
377.448	412.75
377.674	421.75
377.899	416.75
378.125	410.75
378.35	433.75
378.576	430.75
378.802	400.75
379.027	395.75
379.253	411.75
379.478	419.75
379.704	418.75
379.929	427.75
380.155	407.75
380.38	388.75
380.606	405.75
380.831	411.75
381.057	421.75
381.282	408.75
381.507	427.75
381.733	436.75
381.958	404.75
382.184	418.75
382.409	427.75
382.634	397.75
382.86	421.75
383.085	421.75
383.31	447.75
383.535	440.75
383.761	440.75
383.986	436.75
384.211	443.75
384.436	452.75
384.662	455.75
384.887	447.75
385.112	454.75
385.337	463.75
385.562	464.75
385.787	471.75
386.013	470.75
386.238	467.75
386.463	473.75
386.688	473.75
386.913	476.75
387.138	460.75
387.363	485.75
387.588	457.75
387.813	456.75
388.038	438.75
388.263	476.75
388.488	453.75
388.713	467.75
388.938	470.75
389.163	455.75
389.387	469.75
389.612	451.75
389.837	446.75
390.062	467.75
390.287	457.75
390.512	448.75
390.736	469.75
390.961	484.75
391.186	459.75
391.411	457.75
391.636	483.75
391.86	471.75
392.085	503.75
392.31	504.75
392.534	500.75
392.759	455.75
392.984	467.75
393.208	475.75
393.433	472.75
393.658	468.75
393.882	457.75
394.107	475.75
394.331	482.75
394.556	486.75
394.78	476.75
395.005	494.75
395.229	490.75
395.454	492.75
395.678	479.75
395.903	496.75
396.127	524.75
396.352	516.75
396.576	488.75
396.801	495.75
397.025	493.75
397.249	511.75
397.474	498.75
397.698	503.75
397.922	521.75
398.147	531.75
398.371	544.75
398.595	518.75
398.82	558.75
399.044	577.75
399.268	608.75
399.492	643.75
399.717	681.75
399.941	728.75
400.165	684.75
400.389	690.75
400.613	616.75
400.837	564.75
401.062	566.75
401.286	573.75
401.51	538.75
401.734	542.75
401.958	544.75
402.182	559.75
402.406	562.75
402.63	550.75
402.854	546.75
403.078	567.75
403.302	560.75
403.526	581.75
403.75	562.75
403.974	582.75
404.198	583.75
404.422	584.75
404.645	614.75
404.869	589.75
405.093	619.75
405.317	642.75
405.541	682.75
405.765	599.75
405.988	601.75
406.212	592.75
406.436	606.75
406.66	601.75
406.883	619.75
407.107	642.75
407.331	682.75
407.555	722.75
407.778	733.75
408.002	661.75
408.226	650.75
408.449	646.75
408.673	635.75
408.896	628.75
409.12	655.75
409.344	644.75
409.567	580.75
409.791	556.75
410.014	575.75
410.238	554.75
410.461	564.75
410.685	577.75
410.908	591.75
411.132	606.75
411.355	631.75
411.578	610.75
411.802	583.75
412.025	556.75
412.249	580.75
412.472	597.75
412.695	619.75
412.919	613.75
413.142	566.75
413.365	553.75
413.589	531.75
413.812	535.75
414.035	557.75
414.258	548.75
414.482	537.75
414.705	542.75
414.928	559.75
415.151	560.75
415.374	535.75
415.597	525.75
415.821	550.75
416.044	540.75
416.267	531.75
416.49	531.75
416.713	520.75
416.936	522.75
417.159	532.75
417.382	547.75
417.605	496.75
417.828	552.75
418.051	552.75
418.274	563.75
418.497	542.75
418.72	552.75
418.943	544.75
419.166	557.75
419.389	588.75
419.611	572.75
419.834	562.75
420.057	574.75
420.28	559.75
420.503	540.75
420.726	535.75
420.948	556.75
421.171	589.75
421.394	631.75
421.617	563.75
421.839	580.75
422.062	549.75
422.285	550.75
422.507	607.75
422.73	661.75
422.953	632.75
423.175	589.75
423.398	573.75
423.621	565.75
423.843	604.75
424.066	578.75
424.288	566.75
424.511	570.75
424.733	629.75
424.956	682.75
425.178	668.75
425.401	678.75
425.623	679.75
425.846	595.75
426.068	598.75
426.291	561.75
426.513	557.75
426.735	573.75
426.958	603.75
427.18	653.75
427.402	783.75
427.625	829.75
427.847	700.75
428.069	644.75
428.292	592.75
428.514	552.75
428.736	531.75
428.958	523.75
429.181	551.75
429.403	525.75
429.625	549.75
429.847	558.75
430.069	599.75
430.292	604.75
430.514	529.75
430.736	503.75
430.958	512.75
431.18	526.75
431.402	478.75
431.624	493.75
431.846	483.75
432.068	503.75
432.29	511.75
432.512	522.75
432.734	512.75
432.956	514.75
433.178	513.75
433.4	528.75
433.622	501.75
433.844	486.75
434.066	523.75
434.287	516.75
434.509	504.75
434.731	539.75
434.953	559.75
435.175	571.75
435.397	571.75
435.618	568.75
435.84	598.75
436.062	648.75
436.284	728.75
436.505	606.75
436.727	554.75
436.949	529.75
437.17	511.75
437.392	500.75
437.614	533.75
437.835	558.75
438.057	606.75
438.278	700.75
438.5	688.75
438.721	739.75
438.943	719.75
439.165	598.75
439.386	582.75
439.608	562.75
439.829	556.75
440.05	562.75
440.272	605.75
440.493	568.75
440.715	547.75
440.936	556.75
441.158	541.75
441.379	524.75
441.6	544.75
441.822	554.75
442.043	591.75
442.264	667.75
442.486	679.75
442.707	609.75
442.928	580.75
443.149	595.75
443.371	603.75
443.592	620.75
443.813	727.75
444.034	750.75
444.255	680.75
444.476	611.75
444.698	605.75
444.919	612.75
445.14	666.75
445.361	619.75
445.582	604.75
445.803	642.75
446.024	676.75
446.245	696.75
446.466	652.75
446.687	567.75
446.908	546.75
447.129	529.75
447.35	512.75
447.571	522.75
447.792	489.75
448.013	498.75
448.234	510.75
448.455	548.75
448.675	630.75
448.896	725.75
449.117	635.75
449.338	607.75
449.559	678.75
449.779	764.75
450	626.75
450.221	563.75
450.442	500.75
450.662	491.75
450.883	511.75
451.104	500.75
451.324	506.75
451.545	464.75
451.766	453.75
451.986	471.75
452.207	443.75
452.428	471.75
452.648	452.75
452.869	457.75
453.089	465.75
453.31	447.75
453.53	472.75
453.751	465.75
453.971	473.75
454.192	472.75
454.412	471.75
454.633	442.75
454.853	454.75
455.073	443.75
455.294	462.75
455.514	535.75
455.734	538.75
455.955	445.75
456.175	431.75
456.395	450.75
456.616	430.75
456.836	443.75
457.056	446.75
457.276	428.75
457.497	430.75
457.717	429.75
457.937	441.75
458.157	461.75
458.377	442.75
458.598	458.75
458.818	511.75
459.038	528.75
459.258	602.75
459.478	522.75
459.698	505.75
459.918	507.75
460.138	490.75
460.358	530.75
460.578	554.75
460.798	527.75
461.018	531.75
461.238	517.75
461.458	533.75
461.678	555.75
461.898	546.75
462.118	531.75
462.338	560.75
462.558	572.75
462.777	574.75
462.997	610.75
463.217	628.75
463.437	639.75
463.657	608.75
463.876	603.75
464.096	594.75
464.316	596.75
464.536	589.75
464.755	586.75
464.975	550.75
465.195	578.75
465.414	609.75
465.634	520.75
465.854	503.75
466.073	500.75
466.293	498.75
466.512	494.75
466.732	487.75
466.951	484.75
467.171	488.75
467.391	486.75
467.61	481.75
467.829	474.75
468.049	471.75
468.268	489.75
468.488	461.75
468.707	477.75
468.927	472.75
469.146	470.75
469.365	474.75
469.585	470.75
469.804	482.75
470.023	480.75
470.243	484.75
470.462	511.75
470.681	509.75
470.901	499.75
471.12	474.75
471.339	484.75
471.558	491.75
471.777	487.75
471.997	478.75
472.216	475.75
472.435	494.75
472.654	476.75
472.873	463.75
473.092	461.75
473.311	478.75
473.53	470.75
473.749	476.75
473.968	522.75
474.187	558.75
474.406	628.75
474.625	516.75
474.844	481.75
475.063	488.75
475.282	475.75
475.501	472.75
475.72	485.75
475.939	491.75
476.158	498.75
476.377	475.75
476.596	479.75
476.814	490.75
477.033	485.75
477.252	507.75
477.471	516.75
477.69	530.75
477.908	514.75
478.127	551.75
478.346	542.75
478.564	556.75
478.783	570.75
479.002	551.75
479.22	582.75
479.439	549.75
479.658	583.75
479.876	576.75
480.095	585.75
480.313	610.75
480.532	620.75
480.751	590.75
480.969	605.75
481.188	619.75
481.406	638.75
481.624	582.75
481.843	574.75
482.061	575.75
482.28	580.75
482.498	556.75
482.717	559.75
482.935	560.75
483.153	537.75
483.372	551.75
483.59	550.75
483.808	554.75
484.027	571.75
484.245	573.75
484.463	576.75
484.681	573.75
484.9	573.75
485.118	566.75
485.336	564.75
485.554	575.75
485.772	564.75
485.99	569.75
486.209	558.75
486.427	583.75
486.645	581.75
486.863	580.75
487.081	576.75
487.299	588.75
487.517	588.75
487.735	606.75
487.953	595.75
488.171	590.75
488.389	580.75
488.607	606.75
488.825	623.75
489.043	587.75
489.261	603.75
489.479	588.75
489.696	615.75
489.914	632.75
490.132	605.75
490.35	602.75
490.568	619.75
490.786	651.75
491.003	632.75
491.221	656.75
491.439	643.75
491.657	644.75
491.874	658.75
492.092	672.75
492.31	679.75
492.527	675.75
492.745	673.75
492.963	676.75
493.18	694.75
493.398	703.75
493.615	712.75
493.833	701.75
494.05	687.75
494.268	684.75
494.485	687.75
494.703	686.75
494.92	695.75
495.138	679.75
495.355	691.75
495.573	679.75
495.79	690.75
496.008	700.75
496.225	674.75
496.442	653.75
496.66	678.75
496.877	679.75
497.094	703.75
497.312	724.75
497.529	735.75
497.746	719.75
497.963	735.75
498.181	763.75
498.398	798.75
498.615	814.75
498.832	818.75
499.049	879.75
499.267	908.75
499.484	926.75
499.701	1013.75
499.918	1067.75
500.135	1140.75
500.352	1178.75
500.569	1249.75
500.786	1243.75
501.003	1189.75
501.22	1147.75
501.437	1093.75
501.654	1042.75
501.871	960.75
502.088	911.75
502.305	870.75
502.522	849.75
502.739	830.75
502.956	800.75
503.172	783.75
503.389	747.75
503.606	749.75
503.823	760.75
504.04	723.75
504.256	740.75
504.473	743.75
504.69	739.75
504.907	723.75
505.123	677.75
505.34	687.75
505.557	675.75
505.773	659.75
505.99	662.75
506.207	637.75
506.423	660.75
506.64	639.75
506.856	656.75
507.073	636.75
507.289	652.75
507.506	621.75
507.722	638.75
507.939	646.75
508.155	628.75
508.372	584.75
508.588	602.75
508.805	611.75
509.021	584.75
509.238	630.75
509.454	629.75
509.67	615.75
509.887	612.75
510.103	598.75
510.319	612.75
510.536	632.75
510.752	863.75
510.968	745.75
511.184	600.75
511.401	588.75
511.617	564.75
511.833	575.75
512.049	581.75
512.265	575.75
512.481	569.75
512.698	584.75
512.914	576.75
513.13	566.75
513.346	565.75
513.562	572.75
513.778	552.75
513.994	564.75
514.21	572.75
514.426	563.75
514.642	585.75
514.858	616.75
515.074	609.75
515.29	673.75
515.506	892.75
515.721	782.75
515.937	600.75
516.153	593.75
516.369	597.75
516.585	583.75
516.801	611.75
517.016	608.75
517.232	633.75
517.448	634.75
517.664	656.75
517.879	629.75
518.095	677.75
518.311	653.75
518.527	638.75
518.742	638.75
518.958	616.75
519.173	590.75
519.389	600.75
519.605	576.75
519.82	571.75
520.036	589.75
520.251	591.75
520.467	606.75
520.682	569.75
520.898	573.75
521.113	592.75
521.329	593.75
521.544	622.75
521.76	712.75
521.975	1044.75
522.19	997.75
522.406	650.75
522.621	576.75
522.836	566.75
523.052	538.75
523.267	532.75
523.482	537.75
523.698	528.75
523.913	492.75
524.128	528.75
524.343	516.75
524.559	502.75
524.774	488.75
524.989	495.75
525.204	494.75
525.419	474.75
525.634	494.75
525.849	483.75
526.064	496.75
526.28	477.75
526.495	482.75
526.71	473.75
526.925	498.75
527.14	490.75
527.355	475.75
527.57	486.75
527.785	470.75
527.999	478.75
528.214	458.75
528.429	478.75
528.644	484.75
528.859	483.75
529.074	491.75
529.289	478.75
529.503	542.75
529.718	510.75
529.933	490.75
530.148	514.75
530.363	482.75
530.577	475.75
530.792	494.75
531.007	480.75
531.221	476.75
531.436	487.75
531.651	476.75
531.865	470.75
532.08	469.75
532.295	482.75
532.509	459.75
532.724	476.75
532.938	465.75
533.153	470.75
533.367	481.75
533.582	454.75
533.796	460.75
534.011	476.75
534.225	474.75
534.44	473.75
534.654	482.75
534.868	454.75
535.083	471.75
535.297	487.75
535.511	477.75
535.726	451.75
535.94	471.75
536.154	456.75
536.369	448.75
536.583	456.75
536.797	476.75
537.011	431.75
537.225	442.75
537.44	452.75
537.654	461.75
537.868	441.75
538.082	452.75
538.296	448.75
538.51	446.75
538.724	441.75
538.938	451.75
539.153	451.75
539.367	444.75
539.581	470.75
539.795	433.75
540.009	430.75
540.222	454.75
540.436	452.75
540.65	447.75
540.864	438.75
541.078	430.75
541.292	457.75
541.506	464.75
541.72	462.75
541.934	442.75
542.147	470.75
542.361	454.75
542.575	461.75
542.789	447.75
543.002	435.75
543.216	449.75
543.43	463.75
543.644	462.75
543.857	453.75
544.071	446.75
544.285	468.75
544.498	457.75
544.712	462.75
544.925	436.75
545.139	469.75
545.352	445.75
545.566	468.75
545.779	446.75
545.993	442.75
546.206	448.75
546.42	448.75
546.633	454.75
546.847	458.75
547.06	430.75
547.274	423.75
547.487	450.75
547.7	460.75
547.914	441.75
548.127	439.75
548.34	446.75
548.554	464.75
548.767	429.75
548.98	458.75
549.193	439.75
549.407	468.75
549.62	463.75
549.833	466.75
550.046	454.75
550.259	443.75
550.473	454.75
550.686	444.75
550.899	458.75
551.112	438.75
551.325	443.75
551.538	436.75
551.751	435.75
551.964	442.75
552.177	422.75
552.39	456.75
552.603	447.75
552.816	463.75
553.029	476.75
553.242	464.75
553.455	443.75
553.667	471.75
553.88	472.75
554.093	475.75
554.306	440.75
554.519	476.75
554.732	453.75
554.944	428.75
555.157	424.75
555.37	432.75
555.583	425.75
555.795	429.75
556.008	417.75
556.221	409.75
556.433	408.75
556.646	423.75
556.859	407.75
557.071	422.75
557.284	408.75
557.496	428.75
557.709	392.75
557.921	411.75
558.134	400.75
558.346	401.75
558.559	395.75
558.771	382.75
558.984	381.75
559.196	397.75
559.409	385.75
559.621	386.75
559.833	379.75
560.046	373.75
560.258	384.75
560.47	409.75
560.683	382.75
560.895	387.75
561.107	403.75
561.32	389.75
561.532	388.75
561.744	392.75
561.956	388.75
562.168	394.75
562.381	387.75
562.593	388.75
562.805	403.75
563.017	378.75
563.229	407.75
563.441	392.75
563.653	383.75
563.865	397.75
564.077	426.75
564.289	411.75
564.501	399.75
564.713	419.75
564.925	426.75
565.137	429.75
565.349	424.75
565.561	455.75
565.773	473.75
565.985	468.75
566.197	468.75
566.408	487.75
566.62	510.75
566.832	550.75
567.044	566.75
567.255	539.75
567.467	551.75
567.679	590.75
567.891	584.75
568.102	588.75
568.314	576.75
568.526	559.75
568.737	511.75
568.949	484.75
569.161	448.75
569.372	455.75
569.584	446.75
569.795	422.75
570.007	419.75
570.218	431.75
570.43	443.75
570.641	397.75
570.853	394.75
571.064	394.75
571.276	390.75
571.487	383.75
571.698	382.75
571.91	387.75
572.121	400.75
572.333	386.75
572.544	361.75
572.755	343.75
572.966	358.75
573.178	352.75
573.389	354.75
573.6	351.75
573.811	358.75
574.023	332.75
574.234	363.75
574.445	351.75
574.656	341.75
574.867	345.75
575.078	360.75
575.289	356.75
575.501	351.75
575.712	336.75
575.923	350.75
576.134	357.75
576.345	343.75
576.556	357.75
576.767	364.75
576.978	344.75
577.188	343.75
577.399	327.75
577.61	341.75
577.821	318.75
578.032	341.75
578.243	348.75
578.454	446.75
578.665	370.75
578.875	327.75
579.086	329.75
579.297	323.75
579.508	307.75
579.718	322.75
579.929	324.75
580.14	328.75
580.35	316.75
580.561	310.75
580.772	303.75
580.982	319.75
581.193	293.75
581.403	324.75
581.614	316.75
581.825	311.75
582.035	323.75
582.246	320.75
582.456	295.75
582.667	308.75
582.877	315.75
583.087	299.75
583.298	329.75
583.508	315.75
583.719	298.75
583.929	310.75
584.139	313.75
584.35	306.75
584.56	318.75
584.77	307.75
584.981	293.75
585.191	307.75
585.401	296.75
585.611	303.75
585.821	324.75
586.032	294.75
586.242	301.75
586.452	289.75
586.662	315.75
586.872	302.75
587.082	306.75
587.292	293.75
587.502	303.75
587.713	310.75
587.923	284.75
588.133	298.75
588.343	290.75
588.553	285.75
588.762	309.75
588.972	308.75
589.182	309.75
589.392	310.75
589.602	290.75
589.812	284.75
590.022	279.75
590.232	294.75
590.441	297.75
590.651	336.75
590.861	306.75
591.071	298.75
591.281	298.75
591.49	325.75
591.7	318.75
591.91	324.75
592.119	331.75
592.329	318.75
592.539	323.75
592.748	339.75
592.958	336.75
593.167	346.75
593.377	328.75
593.587	356.75
593.796	350.75
594.006	347.75
594.215	374.75
594.424	340.75
594.634	329.75
594.843	350.75
595.053	315.75
595.262	326.75
595.472	318.75
595.681	342.75
595.89	302.75
596.1	303.75
596.309	310.75
596.518	296.75
596.727	290.75
596.937	284.75
597.146	299.75
597.355	285.75
597.564	285.75
597.774	289.75
597.983	288.75
598.192	280.75
598.401	292.75
598.61	287.75
598.819	281.75
599.028	276.75
599.237	277.75
599.446	278.75
599.655	282.75
599.864	266.75
600.073	275.75
600.282	288.75
600.491	276.75
600.7	287.75
600.909	280.75
601.118	282.75
601.327	271.75
601.536	253.75
601.745	245.75
601.953	262.75
602.162	264.75
602.371	258.75
602.58	271.75
602.789	248.75
602.997	267.75
603.206	262.75
603.415	272.75
603.623	248.75
603.832	268.75
604.041	259.75
604.249	246.75
604.458	267.75
604.666	271.75
604.875	260.75
605.084	260.75
605.292	265.75
605.501	260.75
605.709	256.75
605.918	240.75
606.126	247.75
606.334	261.75
606.543	267.75
606.751	272.75
606.96	266.75
607.168	262.75
607.376	265.75
607.585	235.75
607.793	260.75
608.001	269.75
608.21	251.75
608.418	245.75
608.626	240.75
608.834	252.75
609.043	259.75
609.251	242.75
609.459	237.75
609.667	262.75
609.875	246.75
610.083	254.75
610.291	243.75
610.499	230.75
610.707	232.75
610.916	237.75
611.124	258.75
611.332	234.75
611.54	251.75
611.748	243.75
611.955	227.75
612.163	253.75
612.371	247.75
612.579	236.75
612.787	252.75
612.995	258.75
613.203	250.75
613.411	239.75
613.618	263.75
613.826	228.75
614.034	260.75
614.242	226.75
614.449	237.75
614.657	245.75
614.865	237.75
615.072	258.75
615.28	255.75
615.488	239.75
615.695	243.75
615.903	255.75
616.111	236.75
616.318	242.75
616.526	246.75
616.733	258.75
616.941	240.75
617.148	238.75
617.356	230.75
617.563	238.75
617.771	241.75
617.978	240.75
618.185	254.75
618.393	239.75
618.6	253.75
618.807	216.75
619.015	235.75
619.222	227.75
619.429	242.75
619.637	243.75
619.844	239.75
620.051	235.75
620.258	232.75
620.466	239.75
620.673	227.75
620.88	227.75
621.087	234.75
621.294	237.75
621.501	228.75
621.708	229.75
621.915	217.75
622.122	229.75
622.329	229.75
622.536	232.75
622.743	256.75
622.95	247.75
623.157	227.75
623.364	226.75
623.571	219.75
623.778	228.75
623.985	226.75
624.192	240.75
624.399	195.75
624.606	222.75
624.812	236.75
625.019	227.75
625.226	235.75
625.433	217.75
625.639	212.75
625.846	212.75
626.053	213.75
626.259	196.75
626.466	216.75
626.673	214.75
626.879	215.75
627.086	218.75
627.293	235.75
627.499	191.75
627.706	215.75
627.912	218.75
628.119	211.75
628.325	216.75
628.532	208.75
628.738	210.75
628.945	198.75
629.151	198.75
629.357	205.75
629.564	201.75
629.77	209.75
629.976	204.75
630.183	199.75
630.389	189.75
630.595	199.75
630.802	209.75
631.008	212.75
631.214	195.75
631.42	198.75
631.627	219.75
631.833	202.75
632.039	194.75
632.245	192.75
632.451	213.75
632.657	195.75
632.863	184.75
633.069	173.75
633.275	202.75
633.481	186.75
633.688	198.75
633.893	199.75
634.099	178.75
634.305	196.75
634.511	193.75
634.717	201.75
634.923	189.75
635.129	194.75
635.335	191.75
635.541	192.75
635.747	204.75
635.952	196.75
636.158	195.75
636.364	195.75
636.57	192.75
636.775	187.75
636.981	180.75
637.187	184.75
637.392	180.75
637.598	194.75
637.804	184.75
638.009	182.75
638.215	187.75
638.421	159.75
638.626	176.75
638.832	190.75
639.037	171.75
639.243	178.75
639.448	188.75
639.654	190.75
639.859	186.75
640.065	185.75
640.27	175.75
640.475	174.75
640.681	180.75
640.886	182.75
641.091	175.75
641.297	184.75
641.502	170.75
641.707	170.75
641.913	166.75
642.118	167.75
642.323	171.75
642.528	163.75
642.733	173.75
642.939	182.75
643.144	182.75
643.349	172.75
643.554	175.75
643.759	167.75
643.964	169.75
644.169	171.75
644.374	161.75
644.579	175.75
644.784	183.75
644.989	167.75
645.194	157.75
645.399	169.75
645.604	180.75
645.809	184.75
646.014	181.75
646.219	173.75
646.423	164.75
646.628	171.75
646.833	168.75
647.038	171.75
647.243	181.75
647.447	174.75
647.652	193.75
647.857	165.75
648.062	177.75
648.266	171.75
648.471	190.75
648.676	178.75
648.88	188.75
649.085	166.75
649.289	187.75
649.494	194.75
649.698	180.75
649.903	199.75
650.107	177.75
650.312	153.75
650.516	158.75
650.721	157.75
650.925	150.75
651.13	156.75
651.334	173.75
651.539	151.75
651.743	154.75
651.947	142.75
652.152	144.75
652.356	156.75
652.56	148.75
652.764	138.75
652.969	153.75
653.173	147.75
653.377	154.75
653.581	144.75
653.785	146.75
653.99	147.75
654.194	151.75
654.398	143.75
654.602	156.75
654.806	148.75
655.01	144.75
655.214	149.75
655.418	132.75
655.622	134.75
655.826	147.75
656.03	132.75
656.234	119.75
656.438	140.75
656.642	141.75
656.846	138.75
657.049	129.75
657.253	127.75
657.457	134.75
657.661	127.75
657.865	129.75
658.068	122.75
658.272	114.75
658.476	110.75
658.68	106.75
658.883	111.75
659.087	108.75
659.291	120.75
659.494	108.75
659.698	96.75
659.901	89.75
660.105	110.75
660.309	108.75
660.512	99.75
660.716	97.75
660.919	100.75
661.123	83.75
661.326	95.75
661.53	98.75
661.733	87.75
661.936	83.75
662.14	97.75
662.343	97.75
662.546	87.75
662.75	101.75
662.953	83.75
663.156	94.75
663.36	77.75
663.563	89.75
663.766	79.75
663.969	92.75
664.173	91.75
664.376	87.75
664.579	88.75
664.782	97.75
664.985	80.75
665.188	99.75
665.391	91.75
665.594	88.75
665.797	83.75
666	70.75
666.203	77.75
666.406	85.75
666.609	90.75
666.812	96.75
667.015	95.75
667.218	86.75
667.421	89.75
667.624	86.75
667.827	81.75
668.03	75.75
668.232	91.75
668.435	88.75
668.638	93.75
668.841	82.75
669.043	78.75
669.246	86.75
669.449	77.75
669.651	88.75
669.854	77.75
670.057	87.75
670.259	79.75
670.462	83.75
670.665	74.75
670.867	82.75
671.07	87.75
671.272	92.75
671.475	92.75
671.677	102.75
671.88	84.75
672.082	87.75
672.284	96.75
672.487	90.75
672.689	88.75
672.892	91.75
