Data from 1973.PennyLincolnUp.Lamp.En5.5.200Scan.071719.P1.Changed Mount._HRD10591_15-45-47-852.txt Node
Date: Thu Jul 18 15:45:47 EDT 2019
User: cochatt
Spectrometer: HR+D1059
Trigger mode: 1
Integration Time (sec): 1.000000E-1
Scans to average: 1
Electric dark correction enabled: true
Nonlinearity correction enabled: false
Boxcar width: 0
XAxis mode: Wavelengths
Number of Pixels in Spectrum: 2048
>>>>>Begin Spectral Data<<<<<
223.165	-18.62
223.4	-18.62
223.635	-18.62
223.869	-13.62
224.104	-12.62
224.338	-14.62
224.573	-13.62
224.808	-19.62
225.042	-2.62
225.277	-15.62
225.511	-13.62
225.746	-2.62
225.98	2.38
226.215	15.38
226.449	11.38
226.683	36.38
226.918	28.38
227.152	33.38
227.387	24.38
227.621	22.38
227.856	38.38
228.09	42.38
228.324	49.38
228.559	61.38
228.793	69.38
229.027	92.38
229.262	102.38
229.496	122.38
229.73	120.38
229.964	140.38
230.199	105.38
230.433	119.38
230.667	113.38
230.901	108.38
231.136	103.38
231.37	114.38
231.604	114.38
231.838	123.38
232.072	114.38
232.306	104.38
232.541	124.38
232.775	103.38
233.009	120.38
233.243	122.38
233.477	116.38
233.711	107.38
233.945	134.38
234.179	126.38
234.413	109.38
234.647	119.38
234.881	103.38
235.115	117.38
235.349	134.38
235.583	135.38
235.817	120.38
236.051	120.38
236.285	124.38
236.519	122.38
236.753	120.38
236.987	128.38
237.221	171.38
237.455	206.38
237.689	157.38
237.922	141.38
238.156	130.38
238.39	108.38
238.624	117.38
238.858	116.38
239.091	133.38
239.325	125.38
239.559	120.38
239.793	128.38
240.027	132.38
240.26	125.38
240.494	157.38
240.728	152.38
240.961	139.38
241.195	148.38
241.429	133.38
241.662	143.38
241.896	141.38
242.13	155.38
242.363	145.38
242.597	143.38
242.83	143.38
243.064	152.38
243.298	139.38
243.531	148.38
243.765	150.38
243.998	147.38
244.232	147.38
244.465	143.38
244.699	156.38
244.932	154.38
245.166	154.38
245.399	161.38
245.633	157.38
245.866	145.38
246.099	145.38
246.333	167.38
246.566	159.38
246.8	157.38
247.033	150.38
247.266	164.38
247.5	157.38
247.733	169.38
247.966	172.38
248.2	176.38
248.433	173.38
248.666	165.38
248.899	196.38
249.133	176.38
249.366	203.38
249.599	189.38
249.832	188.38
250.066	186.38
250.299	184.38
250.532	186.38
250.765	203.38
250.998	220.38
251.231	240.38
251.465	222.38
251.698	228.38
251.931	192.38
252.164	202.38
252.397	196.38
252.63	191.38
252.863	197.38
253.096	225.38
253.329	221.38
253.562	235.38
253.795	226.38
254.028	219.38
254.261	220.38
254.494	220.38
254.727	255.38
254.96	294.38
255.193	272.38
255.426	264.38
255.659	233.38
255.892	246.38
256.124	238.38
256.357	245.38
256.59	228.38
256.823	202.38
257.056	214.38
257.289	234.38
257.521	225.38
257.754	227.38
257.987	226.38
258.22	227.38
258.452	220.38
258.685	205.38
258.918	203.38
259.151	224.38
259.383	220.38
259.616	247.38
259.849	226.38
260.081	236.38
260.314	264.38
260.547	272.38
260.779	258.38
261.012	240.38
261.244	220.38
261.477	228.38
261.71	253.38
261.942	245.38
262.175	237.38
262.407	229.38
262.64	219.38
262.872	217.38
263.105	232.38
263.337	235.38
263.57	227.38
263.802	219.38
264.035	245.38
264.267	231.38
264.499	232.38
264.732	217.38
264.964	231.38
265.197	231.38
265.429	245.38
265.661	230.38
265.894	236.38
266.126	236.38
266.358	234.38
266.591	243.38
266.823	250.38
267.055	230.38
267.287	244.38
267.52	245.38
267.752	242.38
267.984	260.38
268.216	242.38
268.448	266.38
268.681	268.38
268.913	268.38
269.145	265.38
269.377	311.38
269.609	278.38
269.841	276.38
270.073	290.38
270.306	299.38
270.538	336.38
270.77	327.38
271.002	309.38
271.234	313.38
271.466	326.38
271.698	316.38
271.93	331.38
272.162	323.38
272.394	328.38
272.626	309.38
272.858	326.38
273.09	283.38
273.322	287.38
273.553	289.38
273.785	304.38
274.017	290.38
274.249	270.38
274.481	295.38
274.713	283.38
274.945	281.38
275.176	287.38
275.408	308.38
275.64	290.38
275.872	271.38
276.104	278.38
276.335	300.38
276.567	306.38
276.799	308.38
277.031	294.38
277.262	347.38
277.494	310.38
277.726	329.38
277.957	323.38
278.189	298.38
278.421	293.38
278.652	301.38
278.884	295.38
279.115	306.38
279.347	283.38
279.579	297.38
279.81	285.38
280.042	295.38
280.273	302.38
280.505	299.38
280.736	308.38
280.968	308.38
281.199	312.38
281.431	308.38
281.662	290.38
281.894	311.38
282.125	320.38
282.356	317.38
282.588	327.38
282.819	343.38
283.051	310.38
283.282	311.38
283.513	317.38
283.745	312.38
283.976	337.38
284.207	312.38
284.439	324.38
284.67	312.38
284.901	321.38
285.132	312.38
285.364	305.38
285.595	305.38
285.826	305.38
286.057	339.38
286.288	312.38
286.52	313.38
286.751	326.38
286.982	318.38
287.213	329.38
287.444	335.38
287.675	313.38
287.906	334.38
288.138	333.38
288.369	345.38
288.6	330.38
288.831	331.38
289.062	348.38
289.293	361.38
289.524	326.38
289.755	310.38
289.986	341.38
290.217	332.38
290.448	292.38
290.679	310.38
290.91	323.38
291.141	327.38
291.371	345.38
291.602	327.38
291.833	333.38
292.064	350.38
292.295	327.38
292.526	319.38
292.757	326.38
292.987	329.38
293.218	319.38
293.449	337.38
293.68	334.38
293.91	330.38
294.141	327.38
294.372	334.38
294.603	340.38
294.833	340.38
295.064	325.38
295.295	332.38
295.525	324.38
295.756	325.38
295.987	344.38
296.217	366.38
296.448	362.38
296.679	357.38
296.909	342.38
297.14	378.38
297.37	328.38
297.601	347.38
297.831	338.38
298.062	349.38
298.292	344.38
298.523	358.38
298.753	354.38
298.984	343.38
299.214	351.38
299.445	343.38
299.675	353.38
299.905	374.38
300.136	358.38
300.366	371.38
300.597	360.38
300.827	374.38
301.057	344.38
301.288	376.38
301.518	367.38
301.748	359.38
301.979	391.38
302.209	373.38
302.439	369.38
302.669	389.38
302.9	362.38
303.13	376.38
303.36	386.38
303.59	373.38
303.82	363.38
304.051	378.38
304.281	384.38
304.511	376.38
304.741	379.38
304.971	373.38
305.201	377.38
305.431	359.38
305.661	385.38
305.891	382.38
306.121	348.38
306.352	361.38
306.582	384.38
306.812	378.38
307.042	365.38
307.272	361.38
307.502	363.38
307.731	376.38
307.961	369.38
308.191	358.38
308.421	404.38
308.651	377.38
308.881	348.38
309.111	388.38
309.341	398.38
309.571	388.38
309.8	411.38
310.03	394.38
310.26	396.38
310.49	398.38
310.72	402.38
310.949	417.38
311.179	420.38
311.409	425.38
311.639	399.38
311.868	398.38
312.098	405.38
312.328	410.38
312.557	438.38
312.787	410.38
313.017	432.38
313.246	411.38
313.476	401.38
313.706	406.38
313.935	423.38
314.165	428.38
314.394	412.38
314.624	423.38
314.853	415.38
315.083	403.38
315.312	416.38
315.542	406.38
315.771	421.38
316.001	411.38
316.23	424.38
316.46	405.38
316.689	429.38
316.919	412.38
317.148	405.38
317.377	419.38
317.607	419.38
317.836	427.38
318.065	429.38
318.295	417.38
318.524	406.38
318.753	409.38
318.983	421.38
319.212	396.38
319.441	419.38
319.67	418.38
319.9	421.38
320.129	442.38
320.358	416.38
320.587	387.38
320.816	441.38
321.046	436.38
321.275	433.38
321.504	425.38
321.733	415.38
321.962	416.38
322.191	430.38
322.42	443.38
322.649	460.38
322.878	459.38
323.108	456.38
323.337	483.38
323.566	486.38
323.795	491.38
324.024	536.38
324.253	604.38
324.482	785.38
324.71	1165.38
324.939	1663.38
325.168	1424.38
325.397	804.38
325.626	576.38
325.855	541.38
326.084	501.38
326.313	505.38
326.542	496.38
326.77	531.38
326.999	594.38
327.228	741.38
327.457	1035.38
327.686	1242.38
327.914	892.38
328.143	619.38
328.372	563.38
328.6	539.38
328.829	545.38
329.058	514.38
329.287	569.38
329.515	520.38
329.744	532.38
329.972	501.38
330.201	526.38
330.43	546.38
330.658	590.38
330.887	613.38
331.115	573.38
331.344	538.38
331.572	497.38
331.801	526.38
332.03	537.38
332.258	500.38
332.486	496.38
332.715	480.38
332.943	517.38
333.172	522.38
333.4	529.38
333.629	531.38
333.857	569.38
334.085	571.38
334.314	551.38
334.542	600.38
334.771	589.38
334.999	548.38
335.227	512.38
335.455	518.38
335.684	509.38
335.912	529.38
336.14	490.38
336.369	494.38
336.597	493.38
336.825	524.38
337.053	530.38
337.281	501.38
337.51	495.38
337.738	478.38
337.966	496.38
338.194	508.38
338.422	500.38
338.65	501.38
338.878	487.38
339.106	468.38
339.334	478.38
339.562	467.38
339.79	486.38
340.018	472.38
340.246	480.38
340.474	453.38
340.702	478.38
340.93	474.38
341.158	477.38
341.386	481.38
341.614	485.38
341.842	478.38
342.07	472.38
342.298	473.38
342.526	472.38
342.754	454.38
342.981	444.38
343.209	449.38
343.437	482.38
343.665	500.38
343.893	517.38
344.12	510.38
344.348	516.38
344.576	504.38
344.804	510.38
345.031	488.38
345.259	473.38
345.487	474.38
345.714	474.38
345.942	456.38
346.17	447.38
346.397	460.38
346.625	439.38
346.853	422.38
347.08	436.38
347.308	437.38
347.535	457.38
347.763	460.38
347.99	492.38
348.218	457.38
348.445	460.38
348.673	455.38
348.9	467.38
349.128	427.38
349.355	440.38
349.583	436.38
349.81	443.38
350.037	443.38
350.265	441.38
350.492	448.38
350.72	448.38
350.947	450.38
351.174	436.38
351.402	442.38
351.629	446.38
351.856	468.38
352.083	449.38
352.311	453.38
352.538	455.38
352.765	454.38
352.992	452.38
353.22	440.38
353.447	438.38
353.674	432.38
353.901	424.38
354.128	411.38
354.355	424.38
354.583	428.38
354.81	433.38
355.037	430.38
355.264	411.38
355.491	428.38
355.718	429.38
355.945	414.38
356.172	432.38
356.399	425.38
356.626	425.38
356.853	436.38
357.08	432.38
357.307	435.38
357.534	441.38
357.761	437.38
357.988	430.38
358.215	411.38
358.441	453.38
358.668	446.38
358.895	449.38
359.122	418.38
359.349	416.38
359.576	452.38
359.802	456.38
360.029	489.38
360.256	503.38
360.483	456.38
360.709	449.38
360.936	462.38
361.163	444.38
361.39	457.38
361.616	459.38
361.843	455.38
362.07	434.38
362.296	460.38
362.523	433.38
362.749	450.38
362.976	446.38
363.203	454.38
363.429	406.38
363.656	445.38
363.882	432.38
364.109	441.38
364.335	422.38
364.562	416.38
364.788	405.38
365.015	421.38
365.241	409.38
365.468	440.38
365.694	433.38
365.92	434.38
366.147	431.38
366.373	437.38
366.599	428.38
366.826	422.38
367.052	415.38
367.278	434.38
367.505	454.38
367.731	410.38
367.957	425.38
368.184	429.38
368.41	443.38
368.636	443.38
368.862	432.38
369.089	417.38
369.315	438.38
369.541	440.38
369.767	427.38
369.993	424.38
370.219	428.38
370.445	436.38
370.672	419.38
370.898	422.38
371.124	432.38
371.35	444.38
371.576	416.38
371.802	445.38
372.028	432.38
372.254	446.38
372.48	444.38
372.706	455.38
372.932	441.38
373.158	443.38
373.384	459.38
373.61	434.38
373.835	437.38
374.061	434.38
374.287	451.38
374.513	469.38
374.739	452.38
374.965	454.38
375.191	458.38
375.416	443.38
375.642	450.38
375.868	458.38
376.094	439.38
376.319	438.38
376.545	459.38
376.771	451.38
376.997	454.38
377.222	449.38
377.448	465.38
377.674	427.38
377.899	437.38
378.125	423.38
378.35	438.38
378.576	438.38
378.802	415.38
379.027	451.38
379.253	435.38
379.478	424.38
379.704	434.38
379.929	447.38
380.155	421.38
380.38	457.38
380.606	434.38
380.831	441.38
381.057	450.38
381.282	437.38
381.507	448.38
381.733	447.38
381.958	441.38
382.184	436.38
382.409	475.38
382.634	469.38
382.86	449.38
383.085	451.38
383.31	453.38
383.535	472.38
383.761	480.38
383.986	470.38
384.211	472.38
384.436	461.38
384.662	485.38
384.887	489.38
385.112	472.38
385.337	482.38
385.562	498.38
385.787	514.38
386.013	505.38
386.238	517.38
386.463	494.38
386.688	510.38
386.913	489.38
387.138	492.38
387.363	483.38
387.588	508.38
387.813	476.38
388.038	485.38
388.263	508.38
388.488	474.38
388.713	510.38
388.938	506.38
389.163	490.38
389.387	498.38
389.612	489.38
389.837	500.38
390.062	486.38
390.287	479.38
390.512	485.38
390.736	496.38
390.961	498.38
391.186	502.38
391.411	487.38
391.636	525.38
391.86	527.38
392.085	522.38
392.31	523.38
392.534	525.38
392.759	523.38
392.984	532.38
393.208	496.38
393.433	516.38
393.658	500.38
393.882	484.38
394.107	518.38
394.331	526.38
394.556	502.38
394.78	524.38
395.005	512.38
395.229	519.38
395.454	530.38
395.678	551.38
395.903	548.38
396.127	513.38
396.352	554.38
396.576	538.38
396.801	535.38
397.025	520.38
397.249	530.38
397.474	530.38
397.698	551.38
397.922	528.38
398.147	556.38
398.371	570.38
398.595	571.38
398.82	568.38
399.044	624.38
399.268	635.38
399.492	695.38
399.717	722.38
399.941	784.38
400.165	753.38
400.389	732.38
400.613	672.38
400.837	640.38
401.062	609.38
401.286	601.38
401.51	580.38
401.734	558.38
401.958	594.38
402.182	599.38
402.406	592.38
402.63	599.38
402.854	621.38
403.078	593.38
403.302	617.38
403.526	628.38
403.75	638.38
403.974	613.38
404.198	618.38
404.422	647.38
404.645	624.38
404.869	624.38
405.093	653.38
405.317	685.38
405.541	699.38
405.765	638.38
405.988	638.38
406.212	643.38
406.436	646.38
406.66	698.38
406.883	645.38
407.107	662.38
407.331	741.38
407.555	790.38
407.778	788.38
408.002	745.38
408.226	677.38
408.449	685.38
408.673	646.38
408.896	694.38
409.12	715.38
409.344	692.38
409.567	651.38
409.791	622.38
410.014	612.38
410.238	608.38
410.461	580.38
410.685	588.38
410.908	634.38
411.132	649.38
411.355	678.38
411.578	654.38
411.802	602.38
412.025	610.38
412.249	611.38
412.472	638.38
412.695	628.38
412.919	639.38
413.142	601.38
413.365	584.38
413.589	605.38
413.812	576.38
414.035	571.38
414.258	584.38
414.482	568.38
414.705	577.38
414.928	566.38
415.151	597.38
415.374	577.38
415.597	586.38
415.821	573.38
416.044	561.38
416.267	569.38
416.49	574.38
416.713	560.38
416.936	570.38
417.159	571.38
417.382	565.38
417.605	588.38
417.828	582.38
418.051	600.38
418.274	594.38
418.497	580.38
418.72	560.38
418.943	576.38
419.166	605.38
419.389	666.38
419.611	632.38
419.834	624.38
420.057	644.38
420.28	611.38
420.503	589.38
420.726	580.38
420.948	604.38
421.171	651.38
421.394	646.38
421.617	616.38
421.839	602.38
422.062	582.38
422.285	587.38
422.507	667.38
422.73	724.38
422.953	702.38
423.175	652.38
423.398	607.38
423.621	608.38
423.843	635.38
424.066	666.38
424.288	619.38
424.511	640.38
424.733	677.38
424.956	748.38
425.178	725.38
425.401	737.38
425.623	724.38
425.846	637.38
426.068	623.38
426.291	621.38
426.513	612.38
426.735	609.38
426.958	646.38
427.18	716.38
427.402	824.38
427.625	898.38
427.847	809.38
428.069	670.38
428.292	638.38
428.514	595.38
428.736	575.38
428.958	538.38
429.181	566.38
429.403	557.38
429.625	570.38
429.847	619.38
430.069	664.38
430.292	672.38
430.514	576.38
430.736	569.38
430.958	577.38
431.18	537.38
431.402	530.38
431.624	560.38
431.846	551.38
432.068	542.38
432.29	551.38
432.512	533.38
432.734	549.38
432.956	547.38
433.178	551.38
433.4	545.38
433.622	568.38
433.844	545.38
434.066	563.38
434.287	550.38
434.509	554.38
434.731	556.38
434.953	590.38
435.175	606.38
435.397	613.38
435.618	601.38
435.84	627.38
436.062	733.38
436.284	765.38
436.505	664.38
436.727	607.38
436.949	588.38
437.17	567.38
437.392	551.38
437.614	588.38
437.835	603.38
438.057	636.38
438.278	729.38
438.5	748.38
438.721	828.38
438.943	812.38
439.165	653.38
439.386	594.38
439.608	597.38
439.829	584.38
440.05	617.38
440.272	620.38
440.493	620.38
440.715	587.38
440.936	589.38
441.158	579.38
441.379	576.38
441.6	580.38
441.822	612.38
442.043	652.38
442.264	694.38
442.486	742.38
442.707	658.38
442.928	614.38
443.149	632.38
443.371	638.38
443.592	680.38
443.813	783.38
444.034	845.38
444.255	710.38
444.476	678.38
444.698	662.38
444.919	636.38
445.14	752.38
445.361	678.38
445.582	657.38
445.803	700.38
446.024	782.38
446.245	800.38
446.466	713.38
446.687	644.38
446.908	601.38
447.129	581.38
447.35	572.38
447.571	571.38
447.792	567.38
448.013	557.38
448.234	554.38
448.455	598.38
448.675	680.38
448.896	797.38
449.117	699.38
449.338	640.38
449.559	762.38
449.779	846.38
450	683.38
450.221	582.38
450.442	552.38
450.662	538.38
450.883	536.38
451.104	546.38
451.324	524.38
451.545	525.38
451.766	512.38
451.986	487.38
452.207	497.38
452.428	489.38
452.648	498.38
452.869	482.38
453.089	501.38
453.31	527.38
453.53	501.38
453.751	478.38
453.971	476.38
454.192	505.38
454.412	490.38
454.633	488.38
454.853	505.38
455.073	475.38
455.294	525.38
455.514	544.38
455.734	554.38
455.955	494.38
456.175	500.38
456.395	478.38
456.616	490.38
456.836	466.38
457.056	498.38
457.276	451.38
457.497	471.38
457.717	473.38
457.937	488.38
458.157	475.38
458.377	489.38
458.598	511.38
458.818	562.38
459.038	611.38
459.258	640.38
459.478	582.38
459.698	544.38
459.918	547.38
460.138	558.38
460.358	565.38
460.578	569.38
460.798	577.38
461.018	581.38
461.238	592.38
461.458	588.38
461.678	573.38
461.898	603.38
462.118	577.38
462.338	603.38
462.558	610.38
462.777	624.38
462.997	633.38
463.217	662.38
463.437	673.38
463.657	653.38
463.876	642.38
464.096	657.38
464.316	615.38
464.536	662.38
464.755	612.38
464.975	626.38
465.195	646.38
465.414	662.38
465.634	617.38
465.854	585.38
466.073	526.38
466.293	516.38
466.512	501.38
466.732	509.38
466.951	524.38
467.171	514.38
467.391	538.38
467.61	503.38
467.829	520.38
468.049	508.38
468.268	538.38
468.488	521.38
468.707	499.38
468.927	511.38
469.146	502.38
469.365	516.38
469.585	499.38
469.804	531.38
470.023	540.38
470.243	553.38
470.462	522.38
470.681	550.38
470.901	546.38
471.12	534.38
471.339	535.38
471.558	547.38
471.777	549.38
471.997	517.38
472.216	512.38
472.435	538.38
472.654	527.38
472.873	506.38
473.092	512.38
473.311	521.38
473.53	548.38
473.749	541.38
473.968	557.38
474.187	638.38
474.406	632.38
474.625	570.38
474.844	515.38
475.063	524.38
475.282	529.38
475.501	524.38
475.72	546.38
475.939	534.38
476.158	534.38
476.377	524.38
476.596	541.38
476.814	554.38
477.033	545.38
477.252	548.38
477.471	553.38
477.69	582.38
477.908	575.38
478.127	582.38
478.346	573.38
478.564	588.38
478.783	584.38
479.002	588.38
479.22	625.38
479.439	632.38
479.658	617.38
479.876	636.38
480.095	640.38
480.313	662.38
480.532	656.38
480.751	656.38
480.969	686.38
481.188	674.38
481.406	674.38
481.624	659.38
481.843	612.38
482.061	647.38
482.28	627.38
482.498	597.38
482.717	603.38
482.935	611.38
483.153	585.38
483.372	594.38
483.59	593.38
483.808	579.38
484.027	582.38
484.245	593.38
484.463	601.38
484.681	611.38
484.9	610.38
485.118	619.38
485.336	634.38
485.554	590.38
485.772	615.38
485.99	635.38
486.209	633.38
486.427	613.38
486.645	631.38
486.863	610.38
487.081	638.38
487.299	642.38
487.517	630.38
487.735	630.38
487.953	640.38
488.171	630.38
488.389	638.38
488.607	633.38
488.825	644.38
489.043	654.38
489.261	633.38
489.479	651.38
489.696	649.38
489.914	660.38
490.132	674.38
490.35	667.38
490.568	688.38
490.786	680.38
491.003	680.38
491.221	707.38
491.439	716.38
491.657	716.38
491.874	706.38
492.092	710.38
492.31	732.38
492.527	730.38
492.745	737.38
492.963	746.38
493.18	749.38
493.398	728.38
493.615	755.38
493.833	737.38
494.05	745.38
494.268	762.38
494.485	724.38
494.703	745.38
494.92	743.38
495.138	744.38
495.355	747.38
495.573	765.38
495.79	766.38
496.008	765.38
496.225	750.38
496.442	760.38
496.66	761.38
496.877	751.38
497.094	762.38
497.312	772.38
497.529	795.38
497.746	792.38
497.963	803.38
498.181	826.38
498.398	849.38
498.615	879.38
498.832	904.38
499.049	930.38
499.267	971.38
499.484	1037.38
499.701	1089.38
499.918	1140.38
500.135	1225.38
500.352	1293.38
500.569	1350.38
500.786	1317.38
501.003	1339.38
501.22	1217.38
501.437	1167.38
501.654	1088.38
501.871	1040.38
502.088	984.38
502.305	945.38
502.522	907.38
502.739	902.38
502.956	844.38
503.172	824.38
503.389	833.38
503.606	806.38
503.823	794.38
504.04	781.38
504.256	789.38
504.473	776.38
504.69	800.38
504.907	767.38
505.123	745.38
505.34	713.38
505.557	724.38
505.773	718.38
505.99	715.38
506.207	693.38
506.423	706.38
506.64	693.38
506.856	706.38
507.073	676.38
507.289	680.38
507.506	648.38
507.722	666.38
507.939	695.38
508.155	668.38
508.372	680.38
508.588	645.38
508.805	652.38
509.021	675.38
509.238	688.38
509.454	651.38
509.67	670.38
509.887	655.38
510.103	633.38
510.319	652.38
510.536	732.38
510.752	967.38
510.968	830.38
511.184	640.38
511.401	632.38
511.617	626.38
511.833	637.38
512.049	608.38
512.265	610.38
512.481	633.38
512.698	602.38
512.914	616.38
513.13	603.38
513.346	639.38
513.562	619.38
513.778	609.38
513.994	605.38
514.21	620.38
514.426	628.38
514.642	651.38
514.858	704.38
515.074	686.38
515.29	779.38
515.506	987.38
515.721	884.38
515.937	709.38
516.153	666.38
516.369	664.38
516.585	685.38
516.801	673.38
517.016	661.38
517.232	695.38
517.448	682.38
517.664	722.38
517.879	710.38
518.095	697.38
518.311	696.38
518.527	663.38
518.742	672.38
518.958	660.38
519.173	654.38
519.389	638.38
519.605	639.38
519.82	629.38
520.036	625.38
520.251	631.38
520.467	641.38
520.682	624.38
520.898	653.38
521.113	660.38
521.329	661.38
521.544	718.38
521.76	808.38
521.975	1200.38
522.19	1196.38
522.406	748.38
522.621	641.38
522.836	604.38
523.052	579.38
523.267	558.38
523.482	568.38
523.698	560.38
523.913	562.38
524.128	544.38
524.343	560.38
524.559	537.38
524.774	538.38
524.989	562.38
525.204	542.38
525.419	541.38
525.634	547.38
525.849	532.38
526.064	520.38
526.28	527.38
526.495	506.38
526.71	526.38
526.925	523.38
527.14	528.38
527.355	537.38
527.57	520.38
527.785	511.38
527.999	525.38
528.214	509.38
528.429	492.38
528.644	524.38
528.859	521.38
529.074	532.38
529.289	546.38
529.503	588.38
529.718	555.38
529.933	546.38
530.148	509.38
530.363	541.38
530.577	489.38
530.792	491.38
531.007	480.38
531.221	493.38
531.436	537.38
531.651	520.38
531.865	512.38
532.08	509.38
532.295	492.38
532.509	510.38
532.724	533.38
532.938	483.38
533.153	516.38
533.367	480.38
533.582	498.38
533.796	507.38
534.011	491.38
534.225	489.38
534.44	509.38
534.654	514.38
534.868	516.38
535.083	493.38
535.297	498.38
535.511	492.38
535.726	485.38
535.94	515.38
536.154	499.38
536.369	509.38
536.583	491.38
536.797	489.38
537.011	468.38
537.225	471.38
537.44	459.38
537.654	475.38
537.868	472.38
538.082	464.38
538.296	478.38
538.51	471.38
538.724	510.38
538.938	485.38
539.153	495.38
539.367	514.38
539.581	479.38
539.795	476.38
540.009	463.38
540.222	474.38
540.436	476.38
540.65	465.38
540.864	467.38
541.078	475.38
541.292	472.38
541.506	462.38
541.72	504.38
541.934	498.38
542.147	484.38
542.361	469.38
542.575	473.38
542.789	472.38
543.002	465.38
543.216	480.38
543.43	490.38
543.644	472.38
543.857	474.38
544.071	497.38
544.285	492.38
544.498	486.38
544.712	497.38
544.925	471.38
545.139	509.38
545.352	490.38
545.566	469.38
545.779	467.38
545.993	476.38
546.206	482.38
546.42	482.38
546.633	484.38
546.847	483.38
547.06	481.38
547.274	468.38
547.487	456.38
547.7	470.38
547.914	441.38
548.127	479.38
548.34	480.38
548.554	476.38
548.767	473.38
548.98	486.38
549.193	473.38
549.407	474.38
549.62	481.38
549.833	484.38
550.046	455.38
550.259	492.38
550.473	472.38
550.686	490.38
550.899	476.38
551.112	464.38
551.325	452.38
551.538	459.38
551.751	444.38
551.964	450.38
552.177	470.38
552.39	476.38
552.603	467.38
552.816	468.38
553.029	486.38
553.242	507.38
553.455	523.38
553.667	505.38
553.88	504.38
554.093	481.38
554.306	476.38
554.519	470.38
554.732	479.38
554.944	465.38
555.157	456.38
555.37	452.38
555.583	443.38
555.795	447.38
556.008	437.38
556.221	444.38
556.433	443.38
556.646	437.38
556.859	429.38
557.071	428.38
557.284	416.38
557.496	442.38
557.709	436.38
557.921	420.38
558.134	425.38
558.346	416.38
558.559	417.38
558.771	423.38
558.984	428.38
559.196	410.38
559.409	424.38
559.621	427.38
559.833	421.38
560.046	405.38
560.258	417.38
560.47	412.38
560.683	404.38
560.895	417.38
561.107	422.38
561.32	411.38
561.532	422.38
561.744	425.38
561.956	419.38
562.168	414.38
562.381	418.38
562.593	404.38
562.805	412.38
563.017	420.38
563.229	429.38
563.441	409.38
563.653	425.38
563.865	421.38
564.077	425.38
564.289	437.38
564.501	422.38
564.713	445.38
564.925	451.38
565.137	448.38
565.349	462.38
565.561	478.38
565.773	464.38
565.985	492.38
566.197	530.38
566.408	522.38
566.62	552.38
566.832	556.38
567.044	577.38
567.255	598.38
567.467	605.38
567.679	600.38
567.891	634.38
568.102	650.38
568.314	628.38
568.526	580.38
568.737	560.38
568.949	512.38
569.161	521.38
569.372	502.38
569.584	445.38
569.795	442.38
570.007	447.38
570.218	463.38
570.43	455.38
570.641	446.38
570.853	444.38
571.064	410.38
571.276	427.38
571.487	411.38
571.698	399.38
571.91	401.38
572.121	414.38
572.333	389.38
572.544	396.38
572.755	374.38
572.966	387.38
573.178	365.38
573.389	369.38
573.6	363.38
573.811	370.38
574.023	372.38
574.234	361.38
574.445	362.38
574.656	369.38
574.867	375.38
575.078	354.38
575.289	347.38
575.501	345.38
575.712	360.38
575.923	370.38
576.134	359.38
576.345	354.38
576.556	353.38
576.767	346.38
576.978	363.38
577.188	357.38
577.399	344.38
577.61	335.38
577.821	340.38
578.032	350.38
578.243	369.38
578.454	474.38
578.665	397.38
578.875	349.38
579.086	339.38
579.297	339.38
579.508	324.38
579.718	324.38
579.929	318.38
580.14	324.38
580.35	325.38
580.561	336.38
580.772	324.38
580.982	336.38
581.193	321.38
581.403	312.38
581.614	324.38
581.825	340.38
582.035	323.38
582.246	314.38
582.456	306.38
582.667	311.38
582.877	326.38
583.087	322.38
583.298	318.38
583.508	308.38
583.719	334.38
583.929	315.38
584.139	337.38
584.35	328.38
584.56	324.38
584.77	312.38
584.981	309.38
585.191	312.38
585.401	298.38
585.611	324.38
585.821	318.38
586.032	333.38
586.242	307.38
586.452	299.38
586.662	330.38
586.872	313.38
587.082	310.38
587.292	330.38
587.502	341.38
587.713	322.38
587.923	323.38
588.133	316.38
588.343	313.38
588.553	306.38
588.762	299.38
588.972	326.38
589.182	321.38
589.392	312.38
589.602	321.38
589.812	308.38
590.022	323.38
590.232	312.38
590.441	309.38
590.651	299.38
590.861	317.38
591.071	322.38
591.281	323.38
591.49	332.38
591.7	332.38
591.91	312.38
592.119	315.38
592.329	327.38
592.539	338.38
592.748	342.38
592.958	341.38
593.167	355.38
593.377	382.38
593.587	376.38
593.796	353.38
594.006	359.38
594.215	372.38
594.424	375.38
594.634	346.38
594.843	357.38
595.053	354.38
595.262	339.38
595.472	350.38
595.681	338.38
595.89	329.38
596.1	334.38
596.309	312.38
596.518	293.38
596.727	306.38
596.937	304.38
597.146	328.38
597.355	319.38
597.564	293.38
597.774	285.38
597.983	295.38
598.192	287.38
598.401	275.38
598.61	293.38
598.819	281.38
599.028	295.38
599.237	309.38
599.446	286.38
599.655	279.38
599.864	281.38
600.073	269.38
600.282	263.38
600.491	270.38
600.7	268.38
600.909	266.38
601.118	293.38
601.327	282.38
601.536	274.38
601.745	270.38
601.953	254.38
602.162	266.38
602.371	262.38
602.58	286.38
602.789	272.38
602.997	285.38
603.206	268.38
603.415	274.38
603.623	276.38
603.832	259.38
604.041	285.38
604.249	264.38
604.458	263.38
604.666	259.38
604.875	255.38
605.084	235.38
605.292	241.38
605.501	254.38
605.709	270.38
605.918	263.38
606.126	242.38
606.334	268.38
606.543	262.38
606.751	260.38
606.96	272.38
607.168	256.38
607.376	251.38
607.585	249.38
607.793	256.38
608.001	271.38
608.21	237.38
608.418	251.38
608.626	228.38
608.834	269.38
609.043	251.38
609.251	257.38
609.459	276.38
609.667	260.38
609.875	249.38
610.083	272.38
610.291	241.38
610.499	256.38
610.707	256.38
610.916	267.38
611.124	243.38
611.332	270.38
611.54	256.38
611.748	260.38
611.955	260.38
612.163	244.38
612.371	226.38
612.579	254.38
612.787	262.38
612.995	263.38
613.203	264.38
613.411	257.38
613.618	243.38
613.826	264.38
614.034	243.38
614.242	257.38
614.449	242.38
614.657	235.38
614.865	231.38
615.072	242.38
615.28	245.38
615.488	253.38
615.695	251.38
615.903	245.38
616.111	258.38
616.318	270.38
616.526	251.38
616.733	260.38
616.941	249.38
617.148	252.38
617.356	261.38
617.563	244.38
617.771	258.38
617.978	251.38
618.185	242.38
618.393	237.38
618.6	236.38
618.807	242.38
619.015	244.38
619.222	241.38
619.429	253.38
619.637	253.38
619.844	235.38
620.051	222.38
620.258	249.38
620.466	228.38
620.673	245.38
620.88	242.38
621.087	241.38
621.294	248.38
621.501	244.38
621.708	233.38
621.915	221.38
622.122	236.38
622.329	221.38
622.536	246.38
622.743	252.38
622.95	193.38
623.157	213.38
623.364	244.38
623.571	226.38
623.778	235.38
623.985	235.38
624.192	215.38
624.399	229.38
624.606	236.38
624.812	203.38
625.019	234.38
625.226	219.38
625.433	220.38
625.639	214.38
625.846	203.38
626.053	215.38
626.259	216.38
626.466	221.38
626.673	213.38
626.879	210.38
627.086	211.38
627.293	206.38
627.499	210.38
627.706	218.38
627.912	225.38
628.119	210.38
628.325	220.38
628.532	221.38
628.738	201.38
628.945	208.38
629.151	204.38
629.357	193.38
629.564	215.38
629.77	213.38
629.976	192.38
630.183	197.38
630.389	213.38
630.595	213.38
630.802	198.38
631.008	193.38
631.214	203.38
631.42	211.38
631.627	215.38
631.833	197.38
632.039	212.38
632.245	189.38
632.451	193.38
632.657	199.38
632.863	202.38
633.069	215.38
633.275	204.38
633.481	198.38
633.688	204.38
633.893	211.38
634.099	198.38
634.305	179.38
634.511	204.38
634.717	188.38
634.923	173.38
635.129	196.38
635.335	205.38
635.541	183.38
635.747	194.38
635.952	178.38
636.158	201.38
636.364	187.38
636.57	190.38
636.775	187.38
636.981	191.38
637.187	190.38
637.392	190.38
637.598	186.38
637.804	200.38
638.009	200.38
638.215	177.38
638.421	173.38
638.626	192.38
638.832	172.38
639.037	187.38
639.243	192.38
639.448	171.38
639.654	171.38
639.859	174.38
640.065	177.38
640.27	195.38
640.475	184.38
640.681	170.38
640.886	168.38
641.091	164.38
641.297	168.38
641.502	179.38
641.707	184.38
641.913	182.38
642.118	167.38
642.323	177.38
642.528	196.38
642.733	176.38
642.939	186.38
643.144	193.38
643.349	184.38
643.554	185.38
643.759	176.38
643.964	166.38
644.169	188.38
644.374	168.38
644.579	181.38
644.784	161.38
644.989	179.38
645.194	166.38
645.399	169.38
645.604	169.38
645.809	180.38
646.014	172.38
646.219	174.38
646.423	166.38
646.628	178.38
646.833	182.38
647.038	194.38
647.243	177.38
647.447	182.38
647.652	199.38
647.857	173.38
648.062	173.38
648.266	167.38
648.471	185.38
648.676	181.38
648.88	199.38
649.085	177.38
649.289	182.38
649.494	187.38
649.698	201.38
649.903	189.38
650.107	185.38
650.312	182.38
650.516	176.38
650.721	179.38
650.925	177.38
651.13	168.38
651.334	167.38
651.539	162.38
651.743	168.38
651.947	150.38
652.152	157.38
652.356	150.38
652.56	153.38
652.764	153.38
652.969	141.38
653.173	158.38
653.377	146.38
653.581	124.38
653.785	142.38
653.99	156.38
654.194	152.38
654.398	129.38
654.602	149.38
654.806	131.38
655.01	129.38
655.214	145.38
655.418	130.38
655.622	146.38
655.826	134.38
656.03	132.38
656.234	149.38
656.438	133.38
656.642	143.38
656.846	151.38
657.049	125.38
657.253	124.38
657.457	131.38
657.661	113.38
657.865	126.38
658.068	124.38
658.272	106.38
658.476	112.38
658.68	110.38
658.883	114.38
659.087	105.38
659.291	104.38
659.494	109.38
659.698	93.38
659.901	97.38
660.105	101.38
660.309	93.38
660.512	86.38
660.716	90.38
660.919	105.38
661.123	103.38
661.326	100.38
661.53	98.38
661.733	100.38
661.936	92.38
662.14	87.38
662.343	88.38
662.546	69.38
662.75	93.38
662.953	80.38
663.156	76.38
663.36	76.38
663.563	87.38
663.766	94.38
663.969	88.38
664.173	84.38
664.376	88.38
664.579	87.38
664.782	76.38
664.985	84.38
665.188	87.38
665.391	81.38
665.594	104.38
665.797	80.38
666	88.38
666.203	86.38
666.406	71.38
666.609	79.38
666.812	82.38
667.015	79.38
667.218	74.38
667.421	77.38
667.624	82.38
667.827	82.38
668.03	77.38
668.232	92.38
668.435	84.38
668.638	90.38
668.841	106.38
669.043	86.38
669.246	85.38
669.449	81.38
669.651	92.38
669.854	89.38
670.057	90.38
670.259	67.38
670.462	80.38
670.665	69.38
670.867	90.38
671.07	73.38
671.272	88.38
671.475	83.38
671.677	88.38
671.88	69.38
672.082	81.38
672.284	88.38
672.487	84.38
672.689	79.38
672.892	84.38
