Data from 1973.PennyLincolnUp.Lamp.En5.5.200Scan.071719.P1.Changed Mount._HRD10591_15-45-06-852.txt Node
Date: Thu Jul 18 15:45:06 EDT 2019
User: cochatt
Spectrometer: HR+D1059
Trigger mode: 1
Integration Time (sec): 1.000000E-1
Scans to average: 1
Electric dark correction enabled: true
Nonlinearity correction enabled: false
Boxcar width: 0
XAxis mode: Wavelengths
Number of Pixels in Spectrum: 2048
>>>>>Begin Spectral Data<<<<<
223.165	-21.75
223.4	-21.75
223.635	-21.75
223.869	-18.75
224.104	-23.75
224.338	-13.75
224.573	-11.75
224.808	-14.75
225.042	-11.75
225.277	-9.75
225.511	2.25
225.746	7.25
225.98	2.25
226.215	19.25
226.449	13.25
226.683	20.25
226.918	25.25
227.152	36.25
227.387	44.25
227.621	22.25
227.856	52.25
228.09	49.25
228.324	38.25
228.559	48.25
228.793	79.25
229.027	85.25
229.262	107.25
229.496	108.25
229.73	123.25
229.964	143.25
230.199	132.25
230.433	103.25
230.667	116.25
230.901	122.25
231.136	102.25
231.37	112.25
231.604	115.25
231.838	115.25
232.072	101.25
232.306	101.25
232.541	94.25
232.775	112.25
233.009	107.25
233.243	100.25
233.477	126.25
233.711	107.25
233.945	104.25
234.179	125.25
234.413	125.25
234.647	135.25
234.881	113.25
235.115	107.25
235.349	112.25
235.583	122.25
235.817	111.25
236.051	136.25
236.285	142.25
236.519	138.25
236.753	111.25
236.987	141.25
237.221	180.25
237.455	215.25
237.689	173.25
237.922	141.25
238.156	126.25
238.39	127.25
238.624	139.25
238.858	120.25
239.091	141.25
239.325	131.25
239.559	142.25
239.793	123.25
240.027	130.25
240.26	148.25
240.494	154.25
240.728	153.25
240.961	152.25
241.195	148.25
241.429	130.25
241.662	142.25
241.896	153.25
242.13	128.25
242.363	146.25
242.597	132.25
242.83	145.25
243.064	137.25
243.298	137.25
243.531	138.25
243.765	129.25
243.998	150.25
244.232	143.25
244.465	134.25
244.699	145.25
244.932	170.25
245.166	139.25
245.399	148.25
245.633	158.25
245.866	169.25
246.099	150.25
246.333	153.25
246.566	156.25
246.8	168.25
247.033	152.25
247.266	160.25
247.5	167.25
247.733	173.25
247.966	183.25
248.2	172.25
248.433	180.25
248.666	177.25
248.899	169.25
249.133	200.25
249.366	207.25
249.599	195.25
249.832	164.25
250.066	192.25
250.299	189.25
250.532	185.25
250.765	209.25
250.998	228.25
251.231	223.25
251.465	213.25
251.698	189.25
251.931	211.25
252.164	215.25
252.397	215.25
252.63	226.25
252.863	195.25
253.096	206.25
253.329	219.25
253.562	220.25
253.795	220.25
254.028	220.25
254.261	212.25
254.494	238.25
254.727	250.25
254.96	266.25
255.193	273.25
255.426	252.25
255.659	216.25
255.892	220.25
256.124	213.25
256.357	227.25
256.59	221.25
256.823	227.25
257.056	220.25
257.289	203.25
257.521	225.25
257.754	229.25
257.987	222.25
258.22	192.25
258.452	221.25
258.685	216.25
258.918	208.25
259.151	216.25
259.383	222.25
259.616	244.25
259.849	240.25
260.081	250.25
260.314	254.25
260.547	268.25
260.779	234.25
261.012	242.25
261.244	246.25
261.477	231.25
261.71	219.25
261.942	240.25
262.175	233.25
262.407	240.25
262.64	216.25
262.872	221.25
263.105	230.25
263.337	243.25
263.57	226.25
263.802	212.25
264.035	220.25
264.267	222.25
264.499	214.25
264.732	218.25
264.964	222.25
265.197	216.25
265.429	234.25
265.661	214.25
265.894	227.25
266.126	231.25
266.358	241.25
266.591	232.25
266.823	230.25
267.055	246.25
267.287	244.25
267.52	231.25
267.752	240.25
267.984	246.25
268.216	242.25
268.448	245.25
268.681	257.25
268.913	263.25
269.145	267.25
269.377	290.25
269.609	271.25
269.841	282.25
270.073	286.25
270.306	321.25
270.538	331.25
270.77	295.25
271.002	308.25
271.234	290.25
271.466	325.25
271.698	334.25
271.93	307.25
272.162	325.25
272.394	328.25
272.626	290.25
272.858	294.25
273.09	292.25
273.322	295.25
273.553	283.25
273.785	278.25
274.017	258.25
274.249	289.25
274.481	274.25
274.713	303.25
274.945	274.25
275.176	289.25
275.408	283.25
275.64	287.25
275.872	280.25
276.104	293.25
276.335	283.25
276.567	290.25
276.799	304.25
277.031	314.25
277.262	330.25
277.494	324.25
277.726	320.25
277.957	311.25
278.189	276.25
278.421	299.25
278.652	306.25
278.884	297.25
279.115	293.25
279.347	296.25
279.579	292.25
279.81	306.25
280.042	288.25
280.273	288.25
280.505	290.25
280.736	267.25
280.968	311.25
281.199	285.25
281.431	286.25
281.662	290.25
281.894	285.25
282.125	282.25
282.356	311.25
282.588	323.25
282.819	314.25
283.051	315.25
283.282	292.25
283.513	306.25
283.745	317.25
283.976	308.25
284.207	315.25
284.439	309.25
284.67	294.25
284.901	331.25
285.132	306.25
285.364	302.25
285.595	328.25
285.826	317.25
286.057	316.25
286.288	318.25
286.52	322.25
286.751	315.25
286.982	323.25
287.213	313.25
287.444	331.25
287.675	326.25
287.906	303.25
288.138	331.25
288.369	337.25
288.6	323.25
288.831	305.25
289.062	331.25
289.293	333.25
289.524	318.25
289.755	328.25
289.986	332.25
290.217	333.25
290.448	330.25
290.679	322.25
290.91	324.25
291.141	323.25
291.371	316.25
291.602	333.25
291.833	325.25
292.064	340.25
292.295	323.25
292.526	333.25
292.757	322.25
292.987	328.25
293.218	315.25
293.449	336.25
293.68	312.25
293.91	320.25
294.141	337.25
294.372	333.25
294.603	333.25
294.833	337.25
295.064	333.25
295.295	335.25
295.525	356.25
295.756	328.25
295.987	332.25
296.217	352.25
296.448	345.25
296.679	344.25
296.909	338.25
297.14	345.25
297.37	340.25
297.601	350.25
297.831	360.25
298.062	350.25
298.292	339.25
298.523	338.25
298.753	345.25
298.984	336.25
299.214	335.25
299.445	372.25
299.675	346.25
299.905	347.25
300.136	349.25
300.366	334.25
300.597	354.25
300.827	346.25
301.057	366.25
301.288	347.25
301.518	361.25
301.748	374.25
301.979	364.25
302.209	366.25
302.439	365.25
302.669	368.25
302.9	358.25
303.13	354.25
303.36	359.25
303.59	369.25
303.82	348.25
304.051	362.25
304.281	371.25
304.511	374.25
304.741	352.25
304.971	372.25
305.201	370.25
305.431	350.25
305.661	360.25
305.891	368.25
306.121	349.25
306.352	346.25
306.582	370.25
306.812	355.25
307.042	372.25
307.272	371.25
307.502	369.25
307.731	373.25
307.961	361.25
308.191	364.25
308.421	352.25
308.651	373.25
308.881	369.25
309.111	380.25
309.341	363.25
309.571	380.25
309.8	394.25
310.03	370.25
310.26	376.25
310.49	398.25
310.72	382.25
310.949	403.25
311.179	383.25
311.409	406.25
311.639	394.25
311.868	386.25
312.098	390.25
312.328	391.25
312.557	404.25
312.787	416.25
313.017	419.25
313.246	390.25
313.476	405.25
313.706	409.25
313.935	426.25
314.165	401.25
314.394	413.25
314.624	409.25
314.853	417.25
315.083	411.25
315.312	388.25
315.542	405.25
315.771	404.25
316.001	387.25
316.23	389.25
316.46	390.25
316.689	397.25
316.919	412.25
317.148	413.25
317.377	423.25
317.607	421.25
317.836	414.25
318.065	397.25
318.295	408.25
318.524	413.25
318.753	407.25
318.983	413.25
319.212	427.25
319.441	427.25
319.67	392.25
319.9	423.25
320.129	399.25
320.358	399.25
320.587	400.25
320.816	419.25
321.046	423.25
321.275	425.25
321.504	439.25
321.733	410.25
321.962	432.25
322.191	415.25
322.42	448.25
322.649	440.25
322.878	462.25
323.108	444.25
323.337	468.25
323.566	478.25
323.795	494.25
324.024	514.25
324.253	574.25
324.482	754.25
324.71	1125.25
324.939	1576.25
325.168	1362.25
325.397	772.25
325.626	569.25
325.855	521.25
326.084	488.25
326.313	479.25
326.542	493.25
326.77	514.25
326.999	587.25
327.228	726.25
327.457	1032.25
327.686	1218.25
327.914	872.25
328.143	612.25
328.372	572.25
328.6	525.25
328.829	531.25
329.058	521.25
329.287	528.25
329.515	513.25
329.744	467.25
329.972	488.25
330.201	505.25
330.43	518.25
330.658	548.25
330.887	536.25
331.115	543.25
331.344	514.25
331.572	510.25
331.801	474.25
332.03	501.25
332.258	500.25
332.486	476.25
332.715	486.25
332.943	506.25
333.172	504.25
333.4	512.25
333.629	510.25
333.857	521.25
334.085	530.25
334.314	557.25
334.542	564.25
334.771	560.25
334.999	563.25
335.227	519.25
335.455	522.25
335.684	524.25
335.912	484.25
336.14	512.25
336.369	507.25
336.597	496.25
336.825	485.25
337.053	485.25
337.281	472.25
337.51	486.25
337.738	487.25
337.966	485.25
338.194	482.25
338.422	469.25
338.65	458.25
338.878	474.25
339.106	457.25
339.334	474.25
339.562	483.25
339.79	453.25
340.018	469.25
340.246	454.25
340.474	454.25
340.702	468.25
340.93	469.25
341.158	461.25
341.386	460.25
341.614	458.25
341.842	466.25
342.07	454.25
342.298	447.25
342.526	441.25
342.754	446.25
342.981	435.25
343.209	470.25
343.437	470.25
343.665	457.25
343.893	508.25
344.12	524.25
344.348	489.25
344.576	482.25
344.804	494.25
345.031	474.25
345.259	462.25
345.487	470.25
345.714	454.25
345.942	442.25
346.17	453.25
346.397	441.25
346.625	466.25
346.853	432.25
347.08	433.25
347.308	435.25
347.535	437.25
347.763	438.25
347.99	445.25
348.218	446.25
348.445	437.25
348.673	444.25
348.9	430.25
349.128	446.25
349.355	429.25
349.583	424.25
349.81	429.25
350.037	455.25
350.265	421.25
350.492	429.25
350.72	438.25
350.947	446.25
351.174	421.25
351.402	436.25
351.629	419.25
351.856	426.25
352.083	432.25
352.311	439.25
352.538	436.25
352.765	445.25
352.992	453.25
353.22	424.25
353.447	442.25
353.674	409.25
353.901	404.25
354.128	410.25
354.355	423.25
354.583	439.25
354.81	424.25
355.037	416.25
355.264	419.25
355.491	405.25
355.718	432.25
355.945	414.25
356.172	395.25
356.399	416.25
356.626	434.25
356.853	413.25
357.08	423.25
357.307	378.25
357.534	406.25
357.761	424.25
357.988	445.25
358.215	392.25
358.441	396.25
358.668	413.25
358.895	432.25
359.122	409.25
359.349	417.25
359.576	443.25
359.802	440.25
360.029	458.25
360.256	474.25
360.483	448.25
360.709	437.25
360.936	429.25
361.163	420.25
361.39	437.25
361.616	445.25
361.843	432.25
362.07	412.25
362.296	440.25
362.523	443.25
362.749	440.25
362.976	426.25
363.203	414.25
363.429	412.25
363.656	418.25
363.882	423.25
364.109	435.25
364.335	421.25
364.562	421.25
364.788	414.25
365.015	420.25
365.241	419.25
365.468	416.25
365.694	413.25
365.92	405.25
366.147	419.25
366.373	428.25
366.599	419.25
366.826	404.25
367.052	412.25
367.278	428.25
367.505	428.25
367.731	424.25
367.957	424.25
368.184	434.25
368.41	425.25
368.636	433.25
368.862	413.25
369.089	421.25
369.315	449.25
369.541	432.25
369.767	430.25
369.993	424.25
370.219	433.25
370.445	428.25
370.672	424.25
370.898	418.25
371.124	437.25
371.35	412.25
371.576	434.25
371.802	420.25
372.028	425.25
372.254	418.25
372.48	426.25
372.706	429.25
372.932	428.25
373.158	429.25
373.384	416.25
373.61	433.25
373.835	427.25
374.061	436.25
374.287	427.25
374.513	453.25
374.739	445.25
374.965	441.25
375.191	456.25
375.416	469.25
375.642	451.25
375.868	438.25
376.094	416.25
376.319	436.25
376.545	449.25
376.771	414.25
376.997	420.25
377.222	440.25
377.448	429.25
377.674	410.25
377.899	434.25
378.125	411.25
378.35	409.25
378.576	428.25
378.802	426.25
379.027	419.25
379.253	438.25
379.478	422.25
379.704	416.25
379.929	445.25
380.155	441.25
380.38	416.25
380.606	442.25
380.831	436.25
381.057	438.25
381.282	447.25
381.507	442.25
381.733	434.25
381.958	449.25
382.184	437.25
382.409	435.25
382.634	475.25
382.86	438.25
383.085	449.25
383.31	449.25
383.535	470.25
383.761	445.25
383.986	448.25
384.211	440.25
384.436	479.25
384.662	491.25
384.887	475.25
385.112	474.25
385.337	477.25
385.562	483.25
385.787	490.25
386.013	484.25
386.238	505.25
386.463	468.25
386.688	496.25
386.913	485.25
387.138	468.25
387.363	489.25
387.588	483.25
387.813	512.25
388.038	486.25
388.263	472.25
388.488	466.25
388.713	479.25
388.938	495.25
389.163	475.25
389.387	481.25
389.612	450.25
389.837	460.25
390.062	480.25
390.287	462.25
390.512	477.25
390.736	479.25
390.961	465.25
391.186	482.25
391.411	475.25
391.636	496.25
391.86	506.25
392.085	521.25
392.31	513.25
392.534	523.25
392.759	501.25
392.984	480.25
393.208	501.25
393.433	496.25
393.658	507.25
393.882	499.25
394.107	499.25
394.331	468.25
394.556	517.25
394.78	500.25
395.005	485.25
395.229	473.25
395.454	508.25
395.678	507.25
395.903	527.25
396.127	540.25
396.352	545.25
396.576	499.25
396.801	502.25
397.025	505.25
397.249	519.25
397.474	516.25
397.698	524.25
397.922	526.25
398.147	548.25
398.371	537.25
398.595	562.25
398.82	555.25
399.044	576.25
399.268	620.25
399.492	660.25
399.717	741.25
399.941	737.25
400.165	708.25
400.389	713.25
400.613	650.25
400.837	621.25
401.062	583.25
401.286	574.25
401.51	570.25
401.734	578.25
401.958	580.25
402.182	581.25
402.406	549.25
402.63	573.25
402.854	590.25
403.078	607.25
403.302	582.25
403.526	605.25
403.75	588.25
403.974	621.25
404.198	625.25
404.422	632.25
404.645	626.25
404.869	582.25
405.093	604.25
405.317	649.25
405.541	691.25
405.765	635.25
405.988	636.25
406.212	646.25
406.436	634.25
406.66	658.25
406.883	614.25
407.107	653.25
407.331	717.25
407.555	797.25
407.778	786.25
408.002	728.25
408.226	655.25
408.449	653.25
408.673	649.25
408.896	682.25
409.12	679.25
409.344	655.25
409.567	616.25
409.791	610.25
410.014	601.25
410.238	582.25
410.461	596.25
410.685	613.25
410.908	635.25
411.132	629.25
411.355	651.25
411.578	632.25
411.802	605.25
412.025	594.25
412.249	612.25
412.472	604.25
412.695	615.25
412.919	628.25
413.142	596.25
413.365	595.25
413.589	567.25
413.812	569.25
414.035	549.25
414.258	576.25
414.482	572.25
414.705	548.25
414.928	561.25
415.151	586.25
415.374	562.25
415.597	569.25
415.821	539.25
416.044	566.25
416.267	539.25
416.49	551.25
416.713	549.25
416.936	576.25
417.159	558.25
417.382	569.25
417.605	546.25
417.828	582.25
418.051	589.25
418.274	564.25
418.497	543.25
418.72	564.25
418.943	571.25
419.166	590.25
419.389	613.25
419.611	603.25
419.834	606.25
420.057	599.25
420.28	588.25
420.503	569.25
420.726	558.25
420.948	604.25
421.171	634.25
421.394	655.25
421.617	603.25
421.839	571.25
422.062	585.25
422.285	581.25
422.507	637.25
422.73	666.25
422.953	680.25
423.175	608.25
423.398	611.25
423.621	555.25
423.843	609.25
424.066	606.25
424.288	610.25
424.511	643.25
424.733	664.25
424.956	744.25
425.178	707.25
425.401	709.25
425.623	703.25
425.846	630.25
426.068	602.25
426.291	596.25
426.513	619.25
426.735	594.25
426.958	620.25
427.18	692.25
427.402	816.25
427.625	860.25
427.847	740.25
428.069	658.25
428.292	634.25
428.514	583.25
428.736	544.25
428.958	536.25
429.181	543.25
429.403	541.25
429.625	550.25
429.847	570.25
430.069	628.25
430.292	646.25
430.514	571.25
430.736	527.25
430.958	540.25
431.18	547.25
431.402	536.25
431.624	514.25
431.846	534.25
432.068	519.25
432.29	567.25
432.512	520.25
432.734	533.25
432.956	520.25
433.178	538.25
433.4	540.25
433.622	526.25
433.844	530.25
434.066	550.25
434.287	543.25
434.509	545.25
434.731	523.25
434.953	565.25
435.175	563.25
435.397	625.25
435.618	584.25
435.84	617.25
436.062	699.25
436.284	743.25
436.505	638.25
436.727	588.25
436.949	558.25
437.17	554.25
437.392	546.25
437.614	531.25
437.835	592.25
438.057	643.25
438.278	745.25
438.5	739.25
438.721	826.25
438.943	805.25
439.165	650.25
439.386	596.25
439.608	598.25
439.829	590.25
440.05	600.25
440.272	623.25
440.493	599.25
440.715	563.25
440.936	551.25
441.158	550.25
441.379	552.25
441.6	568.25
441.822	604.25
442.043	615.25
442.264	701.25
442.486	713.25
442.707	636.25
442.928	610.25
443.149	608.25
443.371	634.25
443.592	637.25
443.813	738.25
444.034	786.25
444.255	699.25
444.476	651.25
444.698	637.25
444.919	618.25
445.14	729.25
445.361	680.25
445.582	650.25
445.803	655.25
446.024	755.25
446.245	765.25
446.466	695.25
446.687	626.25
446.908	595.25
447.129	568.25
447.35	564.25
447.571	544.25
447.792	527.25
448.013	540.25
448.234	531.25
448.455	583.25
448.675	670.25
448.896	783.25
449.117	694.25
449.338	644.25
449.559	701.25
449.779	820.25
450	657.25
450.221	573.25
450.442	548.25
450.662	524.25
450.883	518.25
451.104	511.25
451.324	509.25
451.545	502.25
451.766	507.25
451.986	465.25
452.207	477.25
452.428	505.25
452.648	468.25
452.869	490.25
453.089	507.25
453.31	480.25
453.53	479.25
453.751	483.25
453.971	460.25
454.192	481.25
454.412	480.25
454.633	482.25
454.853	476.25
455.073	467.25
455.294	496.25
455.514	527.25
455.734	564.25
455.955	503.25
456.175	468.25
456.395	452.25
456.616	465.25
456.836	462.25
457.056	470.25
457.276	457.25
457.497	458.25
457.717	463.25
457.937	480.25
458.157	462.25
458.377	481.25
458.598	496.25
458.818	532.25
459.038	588.25
459.258	633.25
459.478	546.25
459.698	555.25
459.918	544.25
460.138	527.25
460.358	562.25
460.578	548.25
460.798	555.25
461.018	552.25
461.238	560.25
461.458	553.25
461.678	578.25
461.898	583.25
462.118	556.25
462.338	594.25
462.558	579.25
462.777	592.25
462.997	644.25
463.217	662.25
463.437	665.25
463.657	626.25
463.876	612.25
464.096	618.25
464.316	613.25
464.536	605.25
464.755	607.25
464.975	620.25
465.195	596.25
465.414	628.25
465.634	577.25
465.854	538.25
466.073	527.25
466.293	544.25
466.512	515.25
466.732	513.25
466.951	502.25
467.171	514.25
467.391	504.25
467.61	502.25
467.829	504.25
468.049	518.25
468.268	491.25
468.488	500.25
468.707	478.25
468.927	512.25
469.146	491.25
469.365	486.25
469.585	489.25
469.804	521.25
470.023	510.25
470.243	513.25
470.462	523.25
470.681	539.25
470.901	515.25
471.12	539.25
471.339	500.25
471.558	504.25
471.777	529.25
471.997	508.25
472.216	516.25
472.435	519.25
472.654	485.25
472.873	504.25
473.092	484.25
473.311	484.25
473.53	488.25
473.749	509.25
473.968	555.25
474.187	598.25
474.406	653.25
474.625	549.25
474.844	491.25
475.063	512.25
475.282	496.25
475.501	529.25
475.72	515.25
475.939	498.25
476.158	516.25
476.377	509.25
476.596	508.25
476.814	509.25
477.033	504.25
477.252	519.25
477.471	537.25
477.69	559.25
477.908	569.25
478.127	579.25
478.346	562.25
478.564	572.25
478.783	579.25
479.002	586.25
479.22	588.25
479.439	588.25
479.658	609.25
479.876	608.25
480.095	605.25
480.313	650.25
480.532	646.25
480.751	650.25
480.969	619.25
481.188	660.25
481.406	674.25
481.624	613.25
481.843	590.25
482.061	611.25
482.28	590.25
482.498	596.25
482.717	597.25
482.935	570.25
483.153	592.25
483.372	571.25
483.59	589.25
483.808	590.25
484.027	558.25
484.245	594.25
484.463	584.25
484.681	592.25
484.9	587.25
485.118	584.25
485.336	591.25
485.554	595.25
485.772	594.25
485.99	606.25
486.209	593.25
486.427	596.25
486.645	614.25
486.863	642.25
487.081	630.25
487.299	604.25
487.517	633.25
487.735	625.25
487.953	608.25
488.171	636.25
488.389	613.25
488.607	619.25
488.825	628.25
489.043	629.25
489.261	635.25
489.479	653.25
489.696	635.25
489.914	660.25
490.132	642.25
490.35	638.25
490.568	655.25
490.786	682.25
491.003	676.25
491.221	672.25
491.439	685.25
491.657	695.25
491.874	729.25
492.092	705.25
492.31	688.25
492.527	697.25
492.745	712.25
492.963	708.25
493.18	742.25
493.398	726.25
493.615	704.25
493.833	725.25
494.05	706.25
494.268	728.25
494.485	720.25
494.703	722.25
494.92	728.25
495.138	739.25
495.355	729.25
495.573	728.25
495.79	718.25
496.008	743.25
496.225	723.25
496.442	723.25
496.66	716.25
496.877	754.25
497.094	749.25
497.312	752.25
497.529	779.25
497.746	787.25
497.963	789.25
498.181	807.25
498.398	819.25
498.615	854.25
498.832	884.25
499.049	914.25
499.267	961.25
499.484	990.25
499.701	1014.25
499.918	1085.25
500.135	1209.25
500.352	1272.25
500.569	1291.25
500.786	1306.25
501.003	1266.25
501.22	1212.25
501.437	1119.25
501.654	1082.25
501.871	1019.25
502.088	975.25
502.305	922.25
502.522	910.25
502.739	853.25
502.956	843.25
503.172	790.25
503.389	796.25
503.606	771.25
503.823	757.25
504.04	769.25
504.256	760.25
504.473	778.25
504.69	771.25
504.907	759.25
505.123	740.25
505.34	706.25
505.557	729.25
505.773	693.25
505.99	659.25
506.207	674.25
506.423	698.25
506.64	697.25
506.856	678.25
507.073	653.25
507.289	670.25
507.506	667.25
507.722	701.25
507.939	679.25
508.155	650.25
508.372	658.25
508.588	645.25
508.805	615.25
509.021	629.25
509.238	650.25
509.454	654.25
509.67	643.25
509.887	619.25
510.103	624.25
510.319	624.25
510.536	697.25
510.752	962.25
510.968	816.25
511.184	624.25
511.401	606.25
511.617	609.25
511.833	611.25
512.049	616.25
512.265	590.25
512.481	609.25
512.698	601.25
512.914	602.25
513.13	586.25
513.346	593.25
513.562	608.25
513.778	598.25
513.994	604.25
514.21	615.25
514.426	613.25
514.642	641.25
514.858	640.25
515.074	681.25
515.29	742.25
515.506	966.25
515.721	837.25
515.937	701.25
516.153	636.25
516.369	659.25
516.585	653.25
516.801	669.25
517.016	664.25
517.232	654.25
517.448	660.25
517.664	686.25
517.879	692.25
518.095	690.25
518.311	673.25
518.527	658.25
518.742	658.25
518.958	627.25
519.173	618.25
519.389	624.25
519.605	626.25
519.82	614.25
520.036	629.25
520.251	628.25
520.467	614.25
520.682	633.25
520.898	632.25
521.113	638.25
521.329	668.25
521.544	696.25
521.76	813.25
521.975	1160.25
522.19	1137.25
522.406	738.25
522.621	623.25
522.836	593.25
523.052	579.25
523.267	565.25
523.482	562.25
523.698	552.25
523.913	548.25
524.128	544.25
524.343	542.25
524.559	536.25
524.774	517.25
524.989	549.25
525.204	537.25
525.419	543.25
525.634	509.25
525.849	513.25
526.064	515.25
526.28	513.25
526.495	500.25
526.71	504.25
526.925	495.25
527.14	500.25
527.355	484.25
527.57	501.25
527.785	507.25
527.999	491.25
528.214	523.25
528.429	505.25
528.644	502.25
528.859	522.25
529.074	533.25
529.289	522.25
529.503	560.25
529.718	578.25
529.933	519.25
530.148	513.25
530.363	525.25
530.577	502.25
530.792	482.25
531.007	501.25
531.221	514.25
531.436	500.25
531.651	489.25
531.865	496.25
532.08	500.25
532.295	480.25
532.509	481.25
532.724	494.25
532.938	489.25
533.153	499.25
533.367	496.25
533.582	514.25
533.796	512.25
534.011	510.25
534.225	484.25
534.44	498.25
534.654	486.25
534.868	481.25
535.083	481.25
535.297	489.25
535.511	490.25
535.726	497.25
535.94	506.25
536.154	484.25
536.369	489.25
536.583	468.25
536.797	490.25
537.011	467.25
537.225	466.25
537.44	483.25
537.654	464.25
537.868	469.25
538.082	465.25
538.296	484.25
538.51	466.25
538.724	478.25
538.938	445.25
539.153	463.25
539.367	468.25
539.581	468.25
539.795	469.25
540.009	465.25
540.222	461.25
540.436	472.25
540.65	452.25
540.864	468.25
541.078	477.25
541.292	499.25
541.506	478.25
541.72	436.25
541.934	470.25
542.147	459.25
542.361	455.25
542.575	464.25
542.789	450.25
543.002	469.25
543.216	444.25
543.43	454.25
543.644	475.25
543.857	467.25
544.071	475.25
544.285	485.25
544.498	460.25
544.712	481.25
544.925	466.25
545.139	465.25
545.352	446.25
545.566	477.25
545.779	466.25
545.993	477.25
546.206	497.25
546.42	498.25
546.633	476.25
546.847	479.25
547.06	449.25
547.274	459.25
547.487	468.25
547.7	466.25
547.914	486.25
548.127	484.25
548.34	461.25
548.554	461.25
548.767	464.25
548.98	448.25
549.193	472.25
549.407	448.25
549.62	481.25
549.833	461.25
550.046	476.25
550.259	448.25
550.473	447.25
550.686	451.25
550.899	454.25
551.112	441.25
551.325	454.25
551.538	454.25
551.751	458.25
551.964	451.25
552.177	466.25
552.39	462.25
552.603	458.25
552.816	483.25
553.029	484.25
553.242	485.25
553.455	498.25
553.667	489.25
553.88	496.25
554.093	465.25
554.306	466.25
554.519	474.25
554.732	462.25
554.944	424.25
555.157	426.25
555.37	453.25
555.583	448.25
555.795	441.25
556.008	452.25
556.221	444.25
556.433	427.25
556.646	424.25
556.859	388.25
557.071	398.25
557.284	420.25
557.496	424.25
557.709	406.25
557.921	423.25
558.134	410.25
558.346	423.25
558.559	415.25
558.771	391.25
558.984	412.25
559.196	404.25
559.409	398.25
559.621	435.25
559.833	400.25
560.046	403.25
560.258	402.25
560.47	401.25
560.683	401.25
560.895	393.25
561.107	413.25
561.32	425.25
561.532	391.25
561.744	401.25
561.956	402.25
562.168	409.25
562.381	408.25
562.593	397.25
562.805	411.25
563.017	403.25
563.229	405.25
563.441	400.25
563.653	425.25
563.865	396.25
564.077	438.25
564.289	434.25
564.501	420.25
564.713	442.25
564.925	421.25
565.137	465.25
565.349	452.25
565.561	448.25
565.773	462.25
565.985	480.25
566.197	485.25
566.408	498.25
566.62	550.25
566.832	574.25
567.044	555.25
567.255	560.25
567.467	584.25
567.679	578.25
567.891	638.25
568.102	619.25
568.314	582.25
568.526	566.25
568.737	530.25
568.949	540.25
569.161	480.25
569.372	429.25
569.584	444.25
569.795	422.25
570.007	429.25
570.218	463.25
570.43	418.25
570.641	404.25
570.853	424.25
571.064	408.25
571.276	421.25
571.487	392.25
571.698	408.25
571.91	404.25
572.121	370.25
572.333	378.25
572.544	390.25
572.755	382.25
572.966	358.25
573.178	354.25
573.389	366.25
573.6	370.25
573.811	359.25
574.023	348.25
574.234	377.25
574.445	366.25
574.656	364.25
574.867	365.25
575.078	360.25
575.289	365.25
575.501	366.25
575.712	357.25
575.923	353.25
576.134	353.25
576.345	345.25
576.556	341.25
576.767	341.25
576.978	349.25
577.188	363.25
577.399	343.25
577.61	333.25
577.821	343.25
578.032	338.25
578.243	344.25
578.454	456.25
578.665	380.25
578.875	330.25
579.086	336.25
579.297	316.25
579.508	311.25
579.718	302.25
579.929	306.25
580.14	333.25
580.35	330.25
580.561	336.25
580.772	335.25
580.982	314.25
581.193	327.25
581.403	302.25
581.614	326.25
581.825	315.25
582.035	334.25
582.246	330.25
582.456	310.25
582.667	312.25
582.877	334.25
583.087	331.25
583.298	308.25
583.508	317.25
583.719	337.25
583.929	317.25
584.139	294.25
584.35	302.25
584.56	305.25
584.77	307.25
584.981	318.25
585.191	326.25
585.401	309.25
585.611	301.25
585.821	306.25
586.032	290.25
586.242	318.25
586.452	298.25
586.662	306.25
586.872	307.25
587.082	312.25
587.292	316.25
587.502	296.25
587.713	295.25
587.923	302.25
588.133	310.25
588.343	306.25
588.553	320.25
588.762	290.25
588.972	306.25
589.182	318.25
589.392	299.25
589.602	298.25
589.812	307.25
590.022	333.25
590.232	309.25
590.441	315.25
590.651	318.25
590.861	296.25
591.071	304.25
591.281	339.25
591.49	309.25
591.7	329.25
591.91	334.25
592.119	321.25
592.329	322.25
592.539	333.25
592.748	354.25
592.958	356.25
593.167	333.25
593.377	358.25
593.587	358.25
593.796	362.25
594.006	337.25
594.215	361.25
594.424	357.25
594.634	348.25
594.843	354.25
595.053	345.25
595.262	328.25
595.472	342.25
595.681	320.25
595.89	326.25
596.1	314.25
596.309	324.25
596.518	292.25
596.727	310.25
596.937	296.25
597.146	301.25
597.355	281.25
597.564	291.25
597.774	278.25
597.983	267.25
598.192	284.25
598.401	298.25
598.61	277.25
598.819	290.25
599.028	296.25
599.237	274.25
599.446	274.25
599.655	267.25
599.864	266.25
600.073	283.25
600.282	265.25
600.491	266.25
600.7	268.25
600.909	269.25
601.118	282.25
601.327	280.25
601.536	268.25
601.745	251.25
601.953	275.25
602.162	266.25
602.371	266.25
602.58	275.25
602.789	262.25
602.997	290.25
603.206	258.25
603.415	260.25
603.623	246.25
603.832	272.25
604.041	282.25
604.249	254.25
604.458	249.25
604.666	257.25
604.875	258.25
605.084	250.25
605.292	260.25
605.501	256.25
605.709	256.25
605.918	243.25
606.126	247.25
606.334	249.25
606.543	234.25
606.751	248.25
606.96	246.25
607.168	259.25
607.376	245.25
607.585	248.25
607.793	253.25
608.001	258.25
608.21	253.25
608.418	244.25
608.626	231.25
608.834	251.25
609.043	244.25
609.251	257.25
609.459	253.25
609.667	238.25
609.875	242.25
610.083	250.25
610.291	252.25
610.499	258.25
610.707	264.25
610.916	257.25
611.124	238.25
611.332	247.25
611.54	264.25
611.748	262.25
611.955	254.25
612.163	248.25
612.371	244.25
612.579	255.25
612.787	237.25
612.995	257.25
613.203	236.25
613.411	236.25
613.618	261.25
613.826	250.25
614.034	224.25
614.242	244.25
614.449	248.25
614.657	234.25
614.865	234.25
615.072	261.25
615.28	257.25
615.488	231.25
615.695	230.25
615.903	244.25
616.111	247.25
616.318	245.25
616.526	259.25
616.733	242.25
616.941	240.25
617.148	247.25
617.356	250.25
617.563	252.25
617.771	261.25
617.978	253.25
618.185	267.25
618.393	233.25
618.6	246.25
618.807	252.25
619.015	243.25
619.222	248.25
619.429	231.25
619.637	236.25
619.844	247.25
620.051	229.25
620.258	234.25
620.466	245.25
620.673	237.25
620.88	237.25
621.087	243.25
621.294	239.25
621.501	221.25
621.708	227.25
621.915	225.25
622.122	237.25
622.329	229.25
622.536	224.25
622.743	219.25
622.95	218.25
623.157	232.25
623.364	240.25
623.571	231.25
623.778	230.25
623.985	230.25
624.192	221.25
624.399	232.25
624.606	229.25
624.812	226.25
625.019	210.25
625.226	204.25
625.433	222.25
625.639	221.25
625.846	230.25
626.053	217.25
626.259	205.25
626.466	243.25
626.673	227.25
626.879	224.25
627.086	194.25
627.293	196.25
627.499	211.25
627.706	215.25
627.912	205.25
628.119	208.25
628.325	207.25
628.532	212.25
628.738	195.25
628.945	223.25
629.151	217.25
629.357	200.25
629.564	211.25
629.77	208.25
629.976	191.25
630.183	214.25
630.389	206.25
630.595	196.25
630.802	184.25
631.008	185.25
631.214	206.25
631.42	200.25
631.627	202.25
631.833	212.25
632.039	196.25
632.245	211.25
632.451	217.25
632.657	197.25
632.863	193.25
633.069	200.25
633.275	201.25
633.481	199.25
633.688	199.25
633.893	191.25
634.099	203.25
634.305	200.25
634.511	188.25
634.717	194.25
634.923	190.25
635.129	195.25
635.335	209.25
635.541	184.25
635.747	177.25
635.952	202.25
636.158	197.25
636.364	191.25
636.57	189.25
636.775	173.25
636.981	189.25
637.187	211.25
637.392	188.25
637.598	189.25
637.804	164.25
638.009	186.25
638.215	189.25
638.421	182.25
638.626	194.25
638.832	183.25
639.037	167.25
639.243	165.25
639.448	193.25
639.654	183.25
639.859	196.25
640.065	178.25
640.27	184.25
640.475	186.25
640.681	192.25
640.886	183.25
641.091	174.25
641.297	163.25
641.502	182.25
641.707	173.25
641.913	194.25
642.118	179.25
642.323	178.25
642.528	182.25
642.733	168.25
642.939	157.25
643.144	169.25
643.349	159.25
643.554	164.25
643.759	185.25
643.964	170.25
644.169	165.25
644.374	158.25
644.579	162.25
644.784	181.25
644.989	172.25
645.194	175.25
645.399	171.25
645.604	161.25
645.809	157.25
646.014	159.25
646.219	165.25
646.423	167.25
646.628	172.25
646.833	184.25
647.038	175.25
647.243	190.25
647.447	164.25
647.652	170.25
647.857	163.25
648.062	166.25
648.266	174.25
648.471	176.25
648.676	173.25
648.88	176.25
649.085	180.25
649.289	181.25
649.494	182.25
649.698	178.25
649.903	180.25
650.107	181.25
650.312	172.25
650.516	164.25
650.721	161.25
650.925	153.25
651.13	145.25
651.334	144.25
651.539	169.25
651.743	141.25
651.947	150.25
652.152	155.25
652.356	141.25
652.56	160.25
652.764	140.25
652.969	146.25
653.173	141.25
653.377	140.25
653.581	142.25
653.785	148.25
653.99	139.25
654.194	135.25
654.398	152.25
654.602	143.25
654.806	142.25
655.01	144.25
655.214	148.25
655.418	139.25
655.622	129.25
655.826	136.25
656.03	143.25
656.234	143.25
656.438	163.25
656.642	138.25
656.846	141.25
657.049	129.25
657.253	129.25
657.457	135.25
657.661	130.25
657.865	123.25
658.068	136.25
658.272	129.25
658.476	120.25
658.68	104.25
658.883	114.25
659.087	100.25
659.291	105.25
659.494	102.25
659.698	97.25
659.901	98.25
660.105	92.25
660.309	87.25
660.512	88.25
660.716	102.25
660.919	78.25
661.123	98.25
661.326	94.25
661.53	86.25
661.733	83.25
661.936	96.25
662.14	96.25
662.343	85.25
662.546	83.25
662.75	92.25
662.953	82.25
663.156	80.25
663.36	84.25
663.563	77.25
663.766	77.25
663.969	91.25
664.173	89.25
664.376	78.25
664.579	86.25
664.782	82.25
664.985	74.25
665.188	75.25
665.391	70.25
665.594	69.25
665.797	78.25
666	77.25
666.203	77.25
666.406	73.25
666.609	90.25
666.812	80.25
667.015	85.25
667.218	71.25
667.421	67.25
667.624	89.25
667.827	83.25
668.03	74.25
668.232	81.25
668.435	90.25
668.638	80.25
668.841	73.25
669.043	86.25
669.246	86.25
669.449	68.25
669.651	83.25
669.854	94.25
670.057	78.25
670.259	91.25
670.462	86.25
670.665	81.25
670.867	85.25
671.07	72.25
671.272	81.25
671.475	68.25
671.677	81.25
671.88	98.25
672.082	94.25
672.284	87.25
672.487	74.25
672.689	93.25
672.892	83.25
