Data from 1973.PennyLincolnUp.Lamp.En5.5.200Scan.071719.P1.Changed Mount._HRD10591_15-45-24-852.txt Node
Date: Thu Jul 18 15:45:24 EDT 2019
User: cochatt
Spectrometer: HR+D1059
Trigger mode: 1
Integration Time (sec): 1.000000E-1
Scans to average: 1
Electric dark correction enabled: true
Nonlinearity correction enabled: false
Boxcar width: 0
XAxis mode: Wavelengths
Number of Pixels in Spectrum: 2048
>>>>>Begin Spectral Data<<<<<
223.165	-7.25
223.4	-7.25
223.635	-7.25
223.869	-15.25
224.104	-5.25
224.338	-8.25
224.573	-19.25
224.808	-15.25
225.042	-8.25
225.277	-2.25
225.511	1.75
225.746	4.75
225.98	6.75
226.215	2.75
226.449	3.75
226.683	22.75
226.918	27.75
227.152	10.75
227.387	14.75
227.621	37.75
227.856	43.75
228.09	45.75
228.324	50.75
228.559	50.75
228.793	61.75
229.027	97.75
229.262	98.75
229.496	109.75
229.73	132.75
229.964	150.75
230.199	125.75
230.433	118.75
230.667	100.75
230.901	106.75
231.136	120.75
231.37	100.75
231.604	107.75
231.838	89.75
232.072	118.75
232.306	112.75
232.541	110.75
232.775	128.75
233.009	125.75
233.243	118.75
233.477	122.75
233.711	121.75
233.945	114.75
234.179	117.75
234.413	123.75
234.647	108.75
234.881	115.75
235.115	116.75
235.349	115.75
235.583	114.75
235.817	122.75
236.051	131.75
236.285	118.75
236.519	113.75
236.753	118.75
236.987	141.75
237.221	164.75
237.455	194.75
237.689	172.75
237.922	125.75
238.156	128.75
238.39	121.75
238.624	125.75
238.858	130.75
239.091	131.75
239.325	122.75
239.559	130.75
239.793	143.75
240.027	140.75
240.26	145.75
240.494	153.75
240.728	165.75
240.961	155.75
241.195	157.75
241.429	144.75
241.662	124.75
241.896	129.75
242.13	128.75
242.363	136.75
242.597	138.75
242.83	139.75
243.064	132.75
243.298	143.75
243.531	132.75
243.765	140.75
243.998	136.75
244.232	160.75
244.465	156.75
244.699	149.75
244.932	154.75
245.166	158.75
245.399	141.75
245.633	143.75
245.866	155.75
246.099	147.75
246.333	147.75
246.566	156.75
246.8	145.75
247.033	161.75
247.266	164.75
247.5	180.75
247.733	169.75
247.966	159.75
248.2	164.75
248.433	176.75
248.666	168.75
248.899	189.75
249.133	205.75
249.366	219.75
249.599	176.75
249.832	200.75
250.066	199.75
250.299	187.75
250.532	177.75
250.765	199.75
250.998	223.75
251.231	221.75
251.465	212.75
251.698	211.75
251.931	188.75
252.164	198.75
252.397	205.75
252.63	194.75
252.863	195.75
253.096	213.75
253.329	205.75
253.562	211.75
253.795	230.75
254.028	221.75
254.261	214.75
254.494	220.75
254.727	245.75
254.96	265.75
255.193	267.75
255.426	235.75
255.659	229.75
255.892	244.75
256.124	218.75
256.357	230.75
256.59	232.75
256.823	223.75
257.056	224.75
257.289	210.75
257.521	210.75
257.754	205.75
257.987	214.75
258.22	214.75
258.452	230.75
258.685	205.75
258.918	227.75
259.151	206.75
259.383	207.75
259.616	224.75
259.849	259.75
260.081	245.75
260.314	267.75
260.547	265.75
260.779	233.75
261.012	241.75
261.244	223.75
261.477	233.75
261.71	235.75
261.942	218.75
262.175	232.75
262.407	236.75
262.64	228.75
262.872	225.75
263.105	216.75
263.337	212.75
263.57	234.75
263.802	228.75
264.035	220.75
264.267	221.75
264.499	213.75
264.732	210.75
264.964	237.75
265.197	244.75
265.429	215.75
265.661	233.75
265.894	235.75
266.126	243.75
266.358	221.75
266.591	235.75
266.823	238.75
267.055	240.75
267.287	253.75
267.52	220.75
267.752	252.75
267.984	240.75
268.216	227.75
268.448	261.75
268.681	258.75
268.913	259.75
269.145	257.75
269.377	299.75
269.609	296.75
269.841	280.75
270.073	297.75
270.306	311.75
270.538	306.75
270.77	321.75
271.002	323.75
271.234	308.75
271.466	306.75
271.698	327.75
271.93	329.75
272.162	323.75
272.394	321.75
272.626	306.75
272.858	299.75
273.09	276.75
273.322	288.75
273.553	287.75
273.785	284.75
274.017	289.75
274.249	285.75
274.481	278.75
274.713	285.75
274.945	272.75
275.176	274.75
275.408	268.75
275.64	299.75
275.872	270.75
276.104	282.75
276.335	300.75
276.567	288.75
276.799	323.75
277.031	327.75
277.262	318.75
277.494	330.75
277.726	332.75
277.957	308.75
278.189	310.75
278.421	291.75
278.652	304.75
278.884	288.75
279.115	294.75
279.347	286.75
279.579	291.75
279.81	286.75
280.042	306.75
280.273	287.75
280.505	294.75
280.736	288.75
280.968	289.75
281.199	292.75
281.431	283.75
281.662	308.75
281.894	294.75
282.125	293.75
282.356	326.75
282.588	324.75
282.819	346.75
283.051	314.75
283.282	321.75
283.513	294.75
283.745	310.75
283.976	324.75
284.207	301.75
284.439	314.75
284.67	306.75
284.901	314.75
285.132	300.75
285.364	308.75
285.595	316.75
285.826	313.75
286.057	337.75
286.288	321.75
286.52	320.75
286.751	321.75
286.982	331.75
287.213	317.75
287.444	322.75
287.675	316.75
287.906	335.75
288.138	345.75
288.369	328.75
288.6	322.75
288.831	337.75
289.062	338.75
289.293	317.75
289.524	317.75
289.755	331.75
289.986	331.75
290.217	332.75
290.448	314.75
290.679	319.75
290.91	308.75
291.141	332.75
291.371	328.75
291.602	339.75
291.833	317.75
292.064	313.75
292.295	325.75
292.526	327.75
292.757	329.75
292.987	324.75
293.218	317.75
293.449	337.75
293.68	328.75
293.91	323.75
294.141	325.75
294.372	333.75
294.603	313.75
294.833	330.75
295.064	331.75
295.295	329.75
295.525	330.75
295.756	327.75
295.987	353.75
296.217	354.75
296.448	352.75
296.679	347.75
296.909	331.75
297.14	349.75
297.37	350.75
297.601	345.75
297.831	325.75
298.062	337.75
298.292	366.75
298.523	348.75
298.753	346.75
298.984	351.75
299.214	353.75
299.445	351.75
299.675	333.75
299.905	369.75
300.136	366.75
300.366	362.75
300.597	348.75
300.827	385.75
301.057	365.75
301.288	373.75
301.518	378.75
301.748	376.75
301.979	376.75
302.209	376.75
302.439	388.75
302.669	371.75
302.9	345.75
303.13	373.75
303.36	358.75
303.59	373.75
303.82	346.75
304.051	366.75
304.281	370.75
304.511	375.75
304.741	365.75
304.971	374.75
305.201	348.75
305.431	374.75
305.661	368.75
305.891	361.75
306.121	364.75
306.352	383.75
306.582	365.75
306.812	390.75
307.042	363.75
307.272	365.75
307.502	365.75
307.731	349.75
307.961	354.75
308.191	371.75
308.421	370.75
308.651	364.75
308.881	374.75
309.111	394.75
309.341	383.75
309.571	381.75
309.8	390.75
310.03	386.75
310.26	398.75
310.49	385.75
310.72	428.75
310.949	404.75
311.179	413.75
311.409	389.75
311.639	398.75
311.868	403.75
312.098	408.75
312.328	398.75
312.557	432.75
312.787	428.75
313.017	425.75
313.246	437.75
313.476	405.75
313.706	406.75
313.935	388.75
314.165	419.75
314.394	400.75
314.624	435.75
314.853	428.75
315.083	415.75
315.312	420.75
315.542	422.75
315.771	401.75
316.001	394.75
316.23	424.75
316.46	413.75
316.689	414.75
316.919	410.75
317.148	426.75
317.377	430.75
317.607	421.75
317.836	406.75
318.065	402.75
318.295	418.75
318.524	417.75
318.753	390.75
318.983	406.75
319.212	424.75
319.441	420.75
319.67	415.75
319.9	415.75
320.129	408.75
320.358	416.75
320.587	426.75
320.816	414.75
321.046	413.75
321.275	420.75
321.504	416.75
321.733	422.75
321.962	419.75
322.191	427.75
322.42	441.75
322.649	448.75
322.878	470.75
323.108	458.75
323.337	485.75
323.566	474.75
323.795	512.75
324.024	538.75
324.253	624.75
324.482	840.75
324.71	1216.75
324.939	1730.75
325.168	1511.75
325.397	834.75
325.626	625.75
325.855	555.75
326.084	508.75
326.313	508.75
326.542	515.75
326.77	551.75
326.999	612.75
327.228	778.75
327.457	1112.75
327.686	1342.75
327.914	951.75
328.143	664.75
328.372	598.75
328.6	554.75
328.829	541.75
329.058	539.75
329.287	554.75
329.515	547.75
329.744	514.75
329.972	510.75
330.201	522.75
330.43	566.75
330.658	581.75
330.887	589.75
331.115	590.75
331.344	521.75
331.572	503.75
331.801	536.75
332.03	500.75
332.258	499.75
332.486	487.75
332.715	485.75
332.943	512.75
333.172	509.75
333.4	534.75
333.629	545.75
333.857	554.75
334.085	537.75
334.314	562.75
334.542	592.75
334.771	596.75
334.999	555.75
335.227	548.75
335.455	523.75
335.684	498.75
335.912	539.75
336.14	504.75
336.369	529.75
336.597	509.75
336.825	500.75
337.053	478.75
337.281	468.75
337.51	466.75
337.738	476.75
337.966	491.75
338.194	468.75
338.422	516.75
338.65	483.75
338.878	466.75
339.106	485.75
339.334	445.75
339.562	468.75
339.79	445.75
340.018	462.75
340.246	470.75
340.474	466.75
340.702	460.75
340.93	469.75
341.158	464.75
341.386	463.75
341.614	472.75
341.842	451.75
342.07	472.75
342.298	468.75
342.526	461.75
342.754	456.75
342.981	439.75
343.209	438.75
343.437	469.75
343.665	497.75
343.893	508.75
344.12	506.75
344.348	484.75
344.576	472.75
344.804	457.75
345.031	464.75
345.259	484.75
345.487	466.75
345.714	451.75
345.942	462.75
346.17	459.75
346.397	447.75
346.625	444.75
346.853	442.75
347.08	445.75
347.308	450.75
347.535	436.75
347.763	453.75
347.99	451.75
348.218	453.75
348.445	462.75
348.673	448.75
348.9	444.75
349.128	433.75
349.355	455.75
349.583	436.75
349.81	420.75
350.037	416.75
350.265	434.75
350.492	416.75
350.72	431.75
350.947	432.75
351.174	440.75
351.402	453.75
351.629	444.75
351.856	425.75
352.083	440.75
352.311	424.75
352.538	438.75
352.765	451.75
352.992	429.75
353.22	444.75
353.447	440.75
353.674	421.75
353.901	438.75
354.128	426.75
354.355	419.75
354.583	429.75
354.81	409.75
355.037	420.75
355.264	437.75
355.491	433.75
355.718	406.75
355.945	420.75
356.172	413.75
356.399	413.75
356.626	402.75
356.853	421.75
357.08	429.75
357.307	433.75
357.534	382.75
357.761	425.75
357.988	430.75
358.215	428.75
358.441	416.75
358.668	437.75
358.895	440.75
359.122	427.75
359.349	441.75
359.576	442.75
359.802	467.75
360.029	466.75
360.256	470.75
360.483	462.75
360.709	467.75
360.936	462.75
361.163	441.75
361.39	437.75
361.616	432.75
361.843	446.75
362.07	448.75
362.296	436.75
362.523	425.75
362.749	429.75
362.976	432.75
363.203	440.75
363.429	441.75
363.656	452.75
363.882	430.75
364.109	420.75
364.335	440.75
364.562	430.75
364.788	422.75
365.015	419.75
365.241	430.75
365.468	441.75
365.694	434.75
365.92	441.75
366.147	424.75
366.373	443.75
366.599	436.75
366.826	430.75
367.052	419.75
367.278	421.75
367.505	419.75
367.731	412.75
367.957	418.75
368.184	445.75
368.41	422.75
368.636	455.75
368.862	431.75
369.089	438.75
369.315	438.75
369.541	439.75
369.767	413.75
369.993	423.75
370.219	429.75
370.445	424.75
370.672	432.75
370.898	411.75
371.124	436.75
371.35	444.75
371.576	434.75
371.802	441.75
372.028	411.75
372.254	445.75
372.48	422.75
372.706	444.75
372.932	444.75
373.158	437.75
373.384	437.75
373.61	444.75
373.835	421.75
374.061	436.75
374.287	434.75
374.513	425.75
374.739	451.75
374.965	458.75
375.191	457.75
375.416	476.75
375.642	454.75
375.868	446.75
376.094	433.75
376.319	436.75
376.545	436.75
376.771	424.75
376.997	414.75
377.222	405.75
377.448	423.75
377.674	430.75
377.899	437.75
378.125	420.75
378.35	432.75
378.576	406.75
378.802	417.75
379.027	418.75
379.253	424.75
379.478	415.75
379.704	432.75
379.929	438.75
380.155	438.75
380.38	434.75
380.606	438.75
380.831	429.75
381.057	429.75
381.282	449.75
381.507	436.75
381.733	421.75
381.958	434.75
382.184	455.75
382.409	433.75
382.634	437.75
382.86	457.75
383.085	453.75
383.31	462.75
383.535	453.75
383.761	436.75
383.986	480.75
384.211	472.75
384.436	476.75
384.662	481.75
384.887	473.75
385.112	485.75
385.337	472.75
385.562	477.75
385.787	494.75
386.013	482.75
386.238	492.75
386.463	492.75
386.688	500.75
386.913	474.75
387.138	493.75
387.363	494.75
387.588	485.75
387.813	490.75
388.038	487.75
388.263	479.75
388.488	492.75
388.713	479.75
388.938	484.75
389.163	485.75
389.387	484.75
389.612	463.75
389.837	491.75
390.062	471.75
390.287	481.75
390.512	480.75
390.736	484.75
390.961	484.75
391.186	489.75
391.411	519.75
391.636	504.75
391.86	497.75
392.085	518.75
392.31	505.75
392.534	493.75
392.759	500.75
392.984	498.75
393.208	494.75
393.433	505.75
393.658	500.75
393.882	478.75
394.107	499.75
394.331	486.75
394.556	501.75
394.78	500.75
395.005	501.75
395.229	519.75
395.454	524.75
395.678	515.75
395.903	510.75
396.127	539.75
396.352	545.75
396.576	504.75
396.801	468.75
397.025	536.75
397.249	533.75
397.474	526.75
397.698	536.75
397.922	550.75
398.147	538.75
398.371	557.75
398.595	578.75
398.82	566.75
399.044	573.75
399.268	607.75
399.492	660.75
399.717	753.75
399.941	769.75
400.165	743.75
400.389	710.75
400.613	660.75
400.837	604.75
401.062	588.75
401.286	595.75
401.51	570.75
401.734	570.75
401.958	581.75
402.182	575.75
402.406	605.75
402.63	611.75
402.854	574.75
403.078	583.75
403.302	591.75
403.526	628.75
403.75	632.75
403.974	628.75
404.198	580.75
404.422	610.75
404.645	614.75
404.869	606.75
405.093	670.75
405.317	651.75
405.541	697.75
405.765	652.75
405.988	642.75
406.212	633.75
406.436	660.75
406.66	675.75
406.883	647.75
407.107	690.75
407.331	706.75
407.555	773.75
407.778	768.75
408.002	711.75
408.226	658.75
408.449	665.75
408.673	647.75
408.896	673.75
409.12	705.75
409.344	678.75
409.567	618.75
409.791	604.75
410.014	603.75
410.238	608.75
410.461	583.75
410.685	581.75
410.908	593.75
411.132	624.75
411.355	646.75
411.578	624.75
411.802	596.75
412.025	609.75
412.249	607.75
412.472	639.75
412.695	650.75
412.919	630.75
413.142	585.75
413.365	572.75
413.589	562.75
413.812	556.75
414.035	590.75
414.258	579.75
414.482	548.75
414.705	570.75
414.928	567.75
415.151	559.75
415.374	564.75
415.597	552.75
415.821	550.75
416.044	540.75
416.267	554.75
416.49	566.75
416.713	557.75
416.936	539.75
417.159	541.75
417.382	559.75
417.605	564.75
417.828	590.75
418.051	575.75
418.274	588.75
418.497	547.75
418.72	592.75
418.943	565.75
419.166	612.75
419.389	607.75
419.611	621.75
419.834	590.75
420.057	601.75
420.28	598.75
420.503	602.75
420.726	553.75
420.948	598.75
421.171	641.75
421.394	644.75
421.617	589.75
421.839	572.75
422.062	598.75
422.285	568.75
422.507	641.75
422.73	698.75
422.953	698.75
423.175	612.75
423.398	613.75
423.621	620.75
423.843	625.75
424.066	633.75
424.288	629.75
424.511	660.75
424.733	693.75
424.956	726.75
425.178	702.75
425.401	693.75
425.623	717.75
425.846	642.75
426.068	613.75
426.291	599.75
426.513	619.75
426.735	606.75
426.958	650.75
427.18	688.75
427.402	824.75
427.625	898.75
427.847	774.75
428.069	670.75
428.292	641.75
428.514	584.75
428.736	567.75
428.958	556.75
429.181	548.75
429.403	541.75
429.625	563.75
429.847	556.75
430.069	648.75
430.292	655.75
430.514	563.75
430.736	555.75
430.958	554.75
431.18	552.75
431.402	541.75
431.624	536.75
431.846	528.75
432.068	531.75
432.29	512.75
432.512	534.75
432.734	516.75
432.956	548.75
433.178	551.75
433.4	553.75
433.622	542.75
433.844	540.75
434.066	541.75
434.287	543.75
434.509	538.75
434.731	549.75
434.953	558.75
435.175	589.75
435.397	598.75
435.618	600.75
435.84	621.75
436.062	704.75
436.284	732.75
436.505	657.75
436.727	586.75
436.949	551.75
437.17	544.75
437.392	541.75
437.614	566.75
437.835	574.75
438.057	665.75
438.278	736.75
438.5	733.75
438.721	786.75
438.943	802.75
439.165	648.75
439.386	601.75
439.608	572.75
439.829	568.75
440.05	617.75
440.272	630.75
440.493	624.75
440.715	583.75
440.936	572.75
441.158	543.75
441.379	566.75
441.6	595.75
441.822	596.75
442.043	639.75
442.264	697.75
442.486	729.75
442.707	669.75
442.928	610.75
443.149	611.75
443.371	632.75
443.592	672.75
443.813	768.75
444.034	793.75
444.255	705.75
444.476	668.75
444.698	634.75
444.919	633.75
445.14	738.75
445.361	697.75
445.582	663.75
445.803	706.75
446.024	769.75
446.245	744.75
446.466	702.75
446.687	618.75
446.908	577.75
447.129	534.75
447.35	529.75
447.571	547.75
447.792	522.75
448.013	557.75
448.234	536.75
448.455	593.75
448.675	678.75
448.896	756.75
449.117	698.75
449.338	650.75
449.559	730.75
449.779	824.75
450	640.75
450.221	574.75
450.442	542.75
450.662	535.75
450.883	516.75
451.104	530.75
451.324	529.75
451.545	516.75
451.766	510.75
451.986	485.75
452.207	502.75
452.428	497.75
452.648	470.75
452.869	501.75
453.089	492.75
453.31	505.75
453.53	502.75
453.751	470.75
453.971	482.75
454.192	506.75
454.412	490.75
454.633	485.75
454.853	484.75
455.073	473.75
455.294	501.75
455.514	539.75
455.734	563.75
455.955	482.75
456.175	466.75
456.395	460.75
456.616	456.75
456.836	465.75
457.056	462.75
457.276	442.75
457.497	468.75
457.717	446.75
457.937	455.75
458.157	485.75
458.377	488.75
458.598	501.75
458.818	564.75
459.038	600.75
459.258	628.75
459.478	566.75
459.698	527.75
459.918	544.75
460.138	532.75
460.358	552.75
460.578	552.75
460.798	563.75
461.018	588.75
461.238	562.75
461.458	540.75
461.678	552.75
461.898	561.75
462.118	558.75
462.338	574.75
462.558	581.75
462.777	609.75
462.997	635.75
463.217	653.75
463.437	668.75
463.657	638.75
463.876	620.75
464.096	635.75
464.316	596.75
464.536	630.75
464.755	626.75
464.975	632.75
465.195	625.75
465.414	650.75
465.634	589.75
465.854	572.75
466.073	539.75
466.293	524.75
466.512	529.75
466.732	524.75
466.951	514.75
467.171	519.75
467.391	519.75
467.61	510.75
467.829	514.75
468.049	512.75
468.268	506.75
468.488	492.75
468.707	491.75
468.927	482.75
469.146	486.75
469.365	497.75
469.585	496.75
469.804	514.75
470.023	505.75
470.243	490.75
470.462	515.75
470.681	520.75
470.901	523.75
471.12	527.75
471.339	518.75
471.558	507.75
471.777	510.75
471.997	537.75
472.216	513.75
472.435	530.75
472.654	515.75
472.873	526.75
473.092	522.75
473.311	504.75
473.53	480.75
473.749	489.75
473.968	538.75
474.187	629.75
474.406	663.75
474.625	566.75
474.844	525.75
475.063	519.75
475.282	524.75
475.501	504.75
475.72	505.75
475.939	499.75
476.158	525.75
476.377	541.75
476.596	521.75
476.814	546.75
477.033	540.75
477.252	520.75
477.471	540.75
477.69	539.75
477.908	538.75
478.127	564.75
478.346	569.75
478.564	565.75
478.783	583.75
479.002	562.75
479.22	596.75
479.439	609.75
479.658	635.75
479.876	638.75
480.095	618.75
480.313	666.75
480.532	660.75
480.751	638.75
480.969	648.75
481.188	669.75
481.406	669.75
481.624	611.75
481.843	606.75
482.061	592.75
482.28	594.75
482.498	584.75
482.717	585.75
482.935	562.75
483.153	568.75
483.372	594.75
483.59	567.75
483.808	594.75
484.027	578.75
484.245	583.75
484.463	590.75
484.681	584.75
484.9	589.75
485.118	571.75
485.336	595.75
485.554	603.75
485.772	594.75
485.99	605.75
486.209	613.75
486.427	615.75
486.645	609.75
486.863	613.75
487.081	642.75
487.299	635.75
487.517	613.75
487.735	597.75
487.953	612.75
488.171	634.75
488.389	618.75
488.607	636.75
488.825	637.75
489.043	613.75
489.261	619.75
489.479	642.75
489.696	626.75
489.914	636.75
490.132	640.75
490.35	655.75
490.568	654.75
490.786	668.75
491.003	663.75
491.221	681.75
491.439	676.75
491.657	680.75
491.874	712.75
492.092	694.75
492.31	679.75
492.527	705.75
492.745	704.75
492.963	711.75
493.18	724.75
493.398	732.75
493.615	741.75
493.833	738.75
494.05	724.75
494.268	721.75
494.485	734.75
494.703	747.75
494.92	725.75
495.138	732.75
495.355	741.75
495.573	740.75
495.79	717.75
496.008	740.75
496.225	727.75
496.442	715.75
496.66	722.75
496.877	739.75
497.094	758.75
497.312	740.75
497.529	755.75
497.746	766.75
497.963	798.75
498.181	812.75
498.398	800.75
498.615	875.75
498.832	862.75
499.049	898.75
499.267	937.75
499.484	980.75
499.701	1056.75
499.918	1090.75
500.135	1189.75
500.352	1280.75
500.569	1284.75
500.786	1286.75
501.003	1266.75
501.22	1229.75
501.437	1133.75
501.654	1065.75
501.871	1036.75
502.088	978.75
502.305	924.75
502.522	889.75
502.739	877.75
502.956	817.75
503.172	792.75
503.389	795.75
503.606	757.75
503.823	798.75
504.04	779.75
504.256	765.75
504.473	754.75
504.69	743.75
504.907	760.75
505.123	718.75
505.34	743.75
505.557	736.75
505.773	713.75
505.99	670.75
506.207	680.75
506.423	693.75
506.64	663.75
506.856	666.75
507.073	674.75
507.289	642.75
507.506	657.75
507.722	653.75
507.939	688.75
508.155	640.75
508.372	647.75
508.588	640.75
508.805	634.75
509.021	618.75
509.238	644.75
509.454	678.75
509.67	653.75
509.887	621.75
510.103	639.75
510.319	619.75
510.536	716.75
510.752	1068.75
510.968	890.75
511.184	642.75
511.401	607.75
511.617	621.75
511.833	617.75
512.049	593.75
512.265	585.75
512.481	610.75
512.698	593.75
512.914	592.75
513.13	587.75
513.346	591.75
513.562	617.75
513.778	593.75
513.994	613.75
514.21	609.75
514.426	615.75
514.642	655.75
514.858	682.75
515.074	683.75
515.29	791.75
515.506	1103.75
515.721	944.75
515.937	711.75
516.153	673.75
516.369	662.75
516.585	643.75
516.801	660.75
517.016	643.75
517.232	674.75
517.448	677.75
517.664	690.75
517.879	692.75
518.095	681.75
518.311	675.75
518.527	660.75
518.742	667.75
518.958	643.75
519.173	645.75
519.389	648.75
519.605	639.75
519.82	617.75
520.036	637.75
520.251	636.75
520.467	669.75
520.682	638.75
520.898	640.75
521.113	666.75
521.329	693.75
521.544	744.75
521.76	869.75
521.975	1412.75
522.19	1375.75
522.406	809.75
522.621	648.75
522.836	612.75
523.052	604.75
523.267	580.75
523.482	548.75
523.698	552.75
523.913	552.75
524.128	547.75
524.343	538.75
524.559	540.75
524.774	540.75
524.989	527.75
525.204	540.75
525.419	522.75
525.634	555.75
525.849	520.75
526.064	552.75
526.28	513.75
526.495	505.75
526.71	488.75
526.925	507.75
527.14	472.75
527.355	504.75
527.57	509.75
527.785	523.75
527.999	489.75
528.214	497.75
528.429	514.75
528.644	493.75
528.859	515.75
529.074	517.75
529.289	529.75
529.503	577.75
529.718	551.75
529.933	552.75
530.148	508.75
530.363	503.75
530.577	500.75
530.792	507.75
531.007	492.75
531.221	498.75
531.436	477.75
531.651	486.75
531.865	499.75
532.08	502.75
532.295	490.75
532.509	520.75
532.724	497.75
532.938	510.75
533.153	489.75
533.367	487.75
533.582	494.75
533.796	481.75
534.011	487.75
534.225	517.75
534.44	478.75
534.654	483.75
534.868	484.75
535.083	468.75
535.297	468.75
535.511	471.75
535.726	518.75
535.94	468.75
536.154	481.75
536.369	476.75
536.583	481.75
536.797	467.75
537.011	457.75
537.225	450.75
537.44	459.75
537.654	482.75
537.868	472.75
538.082	461.75
538.296	473.75
538.51	461.75
538.724	477.75
538.938	479.75
539.153	466.75
539.367	461.75
539.581	465.75
539.795	467.75
540.009	439.75
540.222	453.75
540.436	467.75
540.65	452.75
540.864	458.75
541.078	462.75
541.292	490.75
541.506	465.75
541.72	463.75
541.934	456.75
542.147	486.75
542.361	453.75
542.575	477.75
542.789	469.75
543.002	451.75
543.216	465.75
543.43	466.75
543.644	473.75
543.857	464.75
544.071	463.75
544.285	470.75
544.498	449.75
544.712	457.75
544.925	501.75
545.139	479.75
545.352	450.75
545.566	436.75
545.779	458.75
545.993	458.75
546.206	459.75
546.42	486.75
546.633	462.75
546.847	461.75
547.06	461.75
547.274	472.75
547.487	462.75
547.7	455.75
547.914	465.75
548.127	458.75
548.34	450.75
548.554	463.75
548.767	453.75
548.98	485.75
549.193	483.75
549.407	467.75
549.62	458.75
549.833	455.75
550.046	478.75
550.259	453.75
550.473	454.75
550.686	468.75
550.899	461.75
551.112	461.75
551.325	471.75
551.538	456.75
551.751	449.75
551.964	465.75
552.177	460.75
552.39	481.75
552.603	453.75
552.816	482.75
553.029	477.75
553.242	486.75
553.455	472.75
553.667	480.75
553.88	502.75
554.093	465.75
554.306	454.75
554.519	461.75
554.732	462.75
554.944	443.75
555.157	452.75
555.37	441.75
555.583	407.75
555.795	436.75
556.008	417.75
556.221	453.75
556.433	412.75
556.646	421.75
556.859	416.75
557.071	389.75
557.284	420.75
557.496	426.75
557.709	407.75
557.921	414.75
558.134	397.75
558.346	410.75
558.559	396.75
558.771	416.75
558.984	409.75
559.196	408.75
559.409	395.75
559.621	392.75
559.833	409.75
560.046	409.75
560.258	412.75
560.47	422.75
560.683	382.75
560.895	418.75
561.107	397.75
561.32	399.75
561.532	405.75
561.744	401.75
561.956	399.75
562.168	395.75
562.381	398.75
562.593	399.75
562.805	402.75
563.017	414.75
563.229	408.75
563.441	425.75
563.653	423.75
563.865	421.75
564.077	419.75
564.289	403.75
564.501	437.75
564.713	459.75
564.925	438.75
565.137	438.75
565.349	444.75
565.561	442.75
565.773	486.75
565.985	474.75
566.197	504.75
566.408	529.75
566.62	530.75
566.832	534.75
567.044	577.75
567.255	571.75
567.467	582.75
567.679	608.75
567.891	606.75
568.102	610.75
568.314	578.75
568.526	569.75
568.737	529.75
568.949	505.75
569.161	494.75
569.372	471.75
569.584	459.75
569.795	447.75
570.007	443.75
570.218	438.75
570.43	459.75
570.641	403.75
570.853	413.75
571.064	423.75
571.276	430.75
571.487	408.75
571.698	414.75
571.91	388.75
572.121	390.75
572.333	386.75
572.544	365.75
572.755	344.75
572.966	386.75
573.178	371.75
573.389	378.75
573.6	371.75
573.811	363.75
574.023	359.75
574.234	357.75
574.445	367.75
574.656	380.75
574.867	352.75
575.078	343.75
575.289	346.75
575.501	365.75
575.712	354.75
575.923	334.75
576.134	351.75
576.345	348.75
576.556	346.75
576.767	340.75
576.978	357.75
577.188	350.75
577.399	347.75
577.61	331.75
577.821	327.75
578.032	324.75
578.243	360.75
578.454	525.75
578.665	409.75
578.875	336.75
579.086	318.75
579.297	330.75
579.508	311.75
579.718	332.75
579.929	315.75
580.14	327.75
580.35	312.75
580.561	316.75
580.772	321.75
580.982	315.75
581.193	292.75
581.403	319.75
581.614	318.75
581.825	314.75
582.035	302.75
582.246	315.75
582.456	305.75
582.667	317.75
582.877	306.75
583.087	316.75
583.298	310.75
583.508	313.75
583.719	312.75
583.929	325.75
584.139	325.75
584.35	322.75
584.56	317.75
584.77	314.75
584.981	315.75
585.191	317.75
585.401	301.75
585.611	299.75
585.821	308.75
586.032	307.75
586.242	307.75
586.452	311.75
586.662	302.75
586.872	318.75
587.082	304.75
587.292	302.75
587.502	301.75
587.713	316.75
587.923	304.75
588.133	301.75
588.343	296.75
588.553	300.75
588.762	312.75
588.972	318.75
589.182	313.75
589.392	322.75
589.602	289.75
589.812	316.75
590.022	301.75
590.232	317.75
590.441	299.75
590.651	300.75
590.861	315.75
591.071	320.75
591.281	312.75
591.49	308.75
591.7	321.75
591.91	331.75
592.119	320.75
592.329	344.75
592.539	332.75
592.748	341.75
592.958	330.75
593.167	344.75
593.377	356.75
593.587	373.75
593.796	357.75
594.006	363.75
594.215	360.75
594.424	345.75
594.634	334.75
594.843	353.75
595.053	343.75
595.262	331.75
595.472	331.75
595.681	297.75
595.89	306.75
596.1	293.75
596.309	296.75
596.518	294.75
596.727	304.75
596.937	297.75
597.146	290.75
597.355	296.75
597.564	284.75
597.774	304.75
597.983	279.75
598.192	274.75
598.401	279.75
598.61	285.75
598.819	270.75
599.028	277.75
599.237	275.75
599.446	275.75
599.655	273.75
599.864	273.75
600.073	261.75
600.282	275.75
600.491	259.75
600.7	251.75
600.909	245.75
601.118	272.75
601.327	272.75
601.536	252.75
601.745	264.75
601.953	285.75
602.162	250.75
602.371	257.75
602.58	264.75
602.789	273.75
602.997	258.75
603.206	256.75
603.415	264.75
603.623	261.75
603.832	265.75
604.041	246.75
604.249	240.75
604.458	267.75
604.666	250.75
604.875	260.75
605.084	260.75
605.292	258.75
605.501	268.75
605.709	259.75
605.918	242.75
606.126	260.75
606.334	268.75
606.543	266.75
606.751	256.75
606.96	273.75
607.168	272.75
607.376	251.75
607.585	259.75
607.793	262.75
608.001	247.75
608.21	251.75
608.418	226.75
608.626	247.75
608.834	250.75
609.043	254.75
609.251	248.75
609.459	252.75
609.667	254.75
609.875	260.75
610.083	245.75
610.291	262.75
610.499	249.75
610.707	232.75
610.916	240.75
611.124	244.75
611.332	257.75
611.54	261.75
611.748	242.75
611.955	261.75
612.163	244.75
612.371	245.75
612.579	251.75
612.787	247.75
612.995	248.75
613.203	274.75
613.411	242.75
613.618	237.75
613.826	235.75
614.034	252.75
614.242	249.75
614.449	276.75
614.657	234.75
614.865	253.75
615.072	236.75
615.28	233.75
615.488	239.75
615.695	237.75
615.903	252.75
616.111	246.75
616.318	258.75
616.526	261.75
616.733	237.75
616.941	242.75
617.148	248.75
617.356	267.75
617.563	243.75
617.771	242.75
617.978	232.75
618.185	228.75
618.393	237.75
618.6	249.75
618.807	260.75
619.015	239.75
619.222	229.75
619.429	231.75
619.637	233.75
619.844	243.75
620.051	228.75
620.258	233.75
620.466	234.75
620.673	244.75
620.88	226.75
621.087	235.75
621.294	217.75
621.501	223.75
621.708	226.75
621.915	234.75
622.122	228.75
622.329	238.75
622.536	241.75
622.743	228.75
622.95	226.75
623.157	225.75
623.364	239.75
623.571	221.75
623.778	223.75
623.985	213.75
624.192	224.75
624.399	211.75
624.606	222.75
624.812	212.75
625.019	235.75
625.226	207.75
625.433	219.75
625.639	208.75
625.846	216.75
626.053	217.75
626.259	211.75
626.466	200.75
626.673	205.75
626.879	202.75
627.086	228.75
627.293	194.75
627.499	213.75
627.706	200.75
627.912	206.75
628.119	219.75
628.325	221.75
628.532	225.75
628.738	215.75
628.945	217.75
629.151	203.75
629.357	213.75
629.564	221.75
629.77	208.75
629.976	191.75
630.183	201.75
630.389	199.75
630.595	197.75
630.802	217.75
631.008	192.75
631.214	198.75
631.42	206.75
631.627	183.75
631.833	194.75
632.039	203.75
632.245	183.75
632.451	198.75
632.657	189.75
632.863	193.75
633.069	216.75
633.275	187.75
633.481	197.75
633.688	192.75
633.893	178.75
634.099	197.75
634.305	190.75
634.511	185.75
634.717	195.75
634.923	187.75
635.129	189.75
635.335	189.75
635.541	194.75
635.747	188.75
635.952	182.75
636.158	193.75
636.364	198.75
636.57	195.75
636.775	183.75
636.981	174.75
637.187	179.75
637.392	173.75
637.598	182.75
637.804	183.75
638.009	198.75
638.215	193.75
638.421	177.75
638.626	184.75
638.832	187.75
639.037	177.75
639.243	182.75
639.448	202.75
639.654	179.75
639.859	191.75
640.065	164.75
640.27	177.75
640.475	165.75
640.681	193.75
640.886	173.75
641.091	174.75
641.297	177.75
641.502	184.75
641.707	162.75
641.913	163.75
642.118	166.75
642.323	178.75
642.528	191.75
642.733	172.75
642.939	178.75
643.144	178.75
643.349	192.75
643.554	161.75
643.759	174.75
643.964	163.75
644.169	161.75
644.374	173.75
644.579	191.75
644.784	157.75
644.989	158.75
645.194	168.75
645.399	184.75
645.604	169.75
645.809	164.75
646.014	177.75
646.219	176.75
646.423	182.75
646.628	173.75
646.833	168.75
647.038	169.75
647.243	174.75
647.447	169.75
647.652	180.75
647.857	175.75
648.062	184.75
648.266	177.75
648.471	172.75
648.676	182.75
648.88	193.75
649.085	158.75
649.289	176.75
649.494	184.75
649.698	194.75
649.903	180.75
650.107	184.75
650.312	171.75
650.516	163.75
650.721	148.75
650.925	162.75
651.13	147.75
651.334	147.75
651.539	148.75
651.743	163.75
651.947	144.75
652.152	158.75
652.356	135.75
652.56	164.75
652.764	163.75
652.969	162.75
653.173	142.75
653.377	132.75
653.581	135.75
653.785	135.75
653.99	141.75
654.194	150.75
654.398	131.75
654.602	149.75
654.806	146.75
655.01	139.75
655.214	130.75
655.418	132.75
655.622	129.75
655.826	134.75
656.03	140.75
656.234	154.75
656.438	134.75
656.642	136.75
656.846	133.75
657.049	132.75
657.253	130.75
657.457	123.75
657.661	122.75
657.865	123.75
658.068	121.75
658.272	104.75
658.476	105.75
658.68	118.75
658.883	112.75
659.087	109.75
659.291	110.75
659.494	106.75
659.698	90.75
659.901	101.75
660.105	96.75
660.309	101.75
660.512	95.75
660.716	88.75
660.919	90.75
661.123	89.75
661.326	81.75
661.53	97.75
661.733	81.75
661.936	98.75
662.14	80.75
662.343	80.75
662.546	86.75
662.75	95.75
662.953	98.75
663.156	85.75
663.36	74.75
663.563	91.75
663.766	77.75
663.969	91.75
664.173	72.75
664.376	86.75
664.579	89.75
664.782	89.75
664.985	78.75
665.188	79.75
665.391	96.75
665.594	69.75
665.797	91.75
666	90.75
666.203	84.75
666.406	82.75
666.609	81.75
666.812	87.75
667.015	72.75
667.218	76.75
667.421	67.75
667.624	69.75
667.827	83.75
668.03	82.75
668.232	93.75
668.435	84.75
668.638	84.75
668.841	74.75
669.043	84.75
669.246	73.75
669.449	64.75
669.651	78.75
669.854	78.75
670.057	82.75
670.259	78.75
670.462	77.75
670.665	99.75
670.867	85.75
671.07	74.75
671.272	73.75
671.475	100.75
671.677	77.75
671.88	81.75
672.082	82.75
672.284	75.75
672.487	93.75
672.689	79.75
672.892	78.75
