Data from 1973.PennyLincolnUp.Lamp.En5.5.200Scan.071719.P1.Changed Mount._HRD10591_15-46-02-853.txt Node
Date: Thu Jul 18 15:46:02 EDT 2019
User: cochatt
Spectrometer: HR+D1059
Trigger mode: 1
Integration Time (sec): 1.000000E-1
Scans to average: 1
Electric dark correction enabled: true
Nonlinearity correction enabled: false
Boxcar width: 0
XAxis mode: Wavelengths
Number of Pixels in Spectrum: 2048
>>>>>Begin Spectral Data<<<<<
223.165	-0.12
223.4	-0.12
223.635	-0.12
223.869	-30.12
224.104	-26.12
224.338	-29.12
224.573	-14.12
224.808	-11.12
225.042	-14.12
225.277	4.88
225.511	-10.12
225.746	5.88
225.98	7.88
226.215	13.88
226.449	8.88
226.683	25.88
226.918	30.88
227.152	36.88
227.387	27.88
227.621	20.88
227.856	47.88
228.09	38.88
228.324	52.88
228.559	53.88
228.793	78.88
229.027	97.88
229.262	96.88
229.496	105.88
229.73	133.88
229.964	134.88
230.199	130.88
230.433	114.88
230.667	105.88
230.901	99.88
231.136	108.88
231.37	106.88
231.604	108.88
231.838	107.88
232.072	116.88
232.306	107.88
232.541	107.88
232.775	125.88
233.009	117.88
233.243	101.88
233.477	109.88
233.711	122.88
233.945	107.88
234.179	115.88
234.413	106.88
234.647	129.88
234.881	113.88
235.115	120.88
235.349	122.88
235.583	113.88
235.817	125.88
236.051	128.88
236.285	116.88
236.519	118.88
236.753	133.88
236.987	139.88
237.221	157.88
237.455	223.88
237.689	177.88
237.922	149.88
238.156	146.88
238.39	137.88
238.624	131.88
238.858	120.88
239.091	121.88
239.325	133.88
239.559	121.88
239.793	130.88
240.027	126.88
240.26	136.88
240.494	153.88
240.728	155.88
240.961	139.88
241.195	144.88
241.429	134.88
241.662	141.88
241.896	142.88
242.13	131.88
242.363	151.88
242.597	146.88
242.83	130.88
243.064	125.88
243.298	146.88
243.531	133.88
243.765	132.88
243.998	139.88
244.232	130.88
244.465	145.88
244.699	147.88
244.932	153.88
245.166	156.88
245.399	152.88
245.633	148.88
245.866	153.88
246.099	160.88
246.333	151.88
246.566	141.88
246.8	149.88
247.033	160.88
247.266	170.88
247.5	151.88
247.733	171.88
247.966	162.88
248.2	161.88
248.433	171.88
248.666	174.88
248.899	175.88
249.133	182.88
249.366	211.88
249.599	211.88
249.832	195.88
250.066	186.88
250.299	193.88
250.532	212.88
250.765	197.88
250.998	211.88
251.231	234.88
251.465	201.88
251.698	199.88
251.931	207.88
252.164	197.88
252.397	196.88
252.63	204.88
252.863	204.88
253.096	206.88
253.329	222.88
253.562	220.88
253.795	222.88
254.028	207.88
254.261	224.88
254.494	223.88
254.727	246.88
254.96	277.88
255.193	269.88
255.426	241.88
255.659	222.88
255.892	234.88
256.124	226.88
256.357	239.88
256.59	229.88
256.823	202.88
257.056	216.88
257.289	223.88
257.521	216.88
257.754	205.88
257.987	214.88
258.22	217.88
258.452	220.88
258.685	209.88
258.918	204.88
259.151	202.88
259.383	231.88
259.616	228.88
259.849	221.88
260.081	259.88
260.314	246.88
260.547	268.88
260.779	263.88
261.012	231.88
261.244	230.88
261.477	232.88
261.71	215.88
261.942	220.88
262.175	229.88
262.407	245.88
262.64	218.88
262.872	232.88
263.105	225.88
263.337	230.88
263.57	221.88
263.802	228.88
264.035	215.88
264.267	209.88
264.499	227.88
264.732	238.88
264.964	236.88
265.197	234.88
265.429	234.88
265.661	233.88
265.894	245.88
266.126	236.88
266.358	230.88
266.591	236.88
266.823	234.88
267.055	235.88
267.287	237.88
267.52	229.88
267.752	246.88
267.984	240.88
268.216	240.88
268.448	254.88
268.681	244.88
268.913	261.88
269.145	276.88
269.377	297.88
269.609	278.88
269.841	283.88
270.073	289.88
270.306	298.88
270.538	321.88
270.77	301.88
271.002	301.88
271.234	298.88
271.466	301.88
271.698	302.88
271.93	324.88
272.162	301.88
272.394	315.88
272.626	321.88
272.858	285.88
273.09	285.88
273.322	290.88
273.553	278.88
273.785	291.88
274.017	277.88
274.249	286.88
274.481	287.88
274.713	272.88
274.945	297.88
275.176	282.88
275.408	279.88
275.64	289.88
275.872	285.88
276.104	261.88
276.335	273.88
276.567	279.88
276.799	294.88
277.031	302.88
277.262	334.88
277.494	333.88
277.726	314.88
277.957	313.88
278.189	304.88
278.421	296.88
278.652	273.88
278.884	284.88
279.115	275.88
279.347	275.88
279.579	293.88
279.81	302.88
280.042	297.88
280.273	282.88
280.505	298.88
280.736	294.88
280.968	290.88
281.199	283.88
281.431	301.88
281.662	299.88
281.894	315.88
282.125	309.88
282.356	297.88
282.588	341.88
282.819	313.88
283.051	311.88
283.282	315.88
283.513	319.88
283.745	310.88
283.976	310.88
284.207	299.88
284.439	309.88
284.67	319.88
284.901	307.88
285.132	309.88
285.364	301.88
285.595	323.88
285.826	298.88
286.057	313.88
286.288	309.88
286.52	322.88
286.751	317.88
286.982	313.88
287.213	310.88
287.444	328.88
287.675	305.88
287.906	327.88
288.138	335.88
288.369	327.88
288.6	333.88
288.831	315.88
289.062	324.88
289.293	330.88
289.524	315.88
289.755	328.88
289.986	349.88
290.217	323.88
290.448	321.88
290.679	319.88
290.91	316.88
291.141	313.88
291.371	346.88
291.602	338.88
291.833	312.88
292.064	319.88
292.295	319.88
292.526	340.88
292.757	329.88
292.987	319.88
293.218	325.88
293.449	335.88
293.68	334.88
293.91	337.88
294.141	336.88
294.372	325.88
294.603	313.88
294.833	326.88
295.064	327.88
295.295	315.88
295.525	319.88
295.756	339.88
295.987	331.88
296.217	359.88
296.448	365.88
296.679	342.88
296.909	341.88
297.14	346.88
297.37	315.88
297.601	335.88
297.831	346.88
298.062	337.88
298.292	338.88
298.523	347.88
298.753	331.88
298.984	339.88
299.214	317.88
299.445	348.88
299.675	364.88
299.905	355.88
300.136	349.88
300.366	348.88
300.597	349.88
300.827	371.88
301.057	371.88
301.288	376.88
301.518	355.88
301.748	364.88
301.979	369.88
302.209	366.88
302.439	372.88
302.669	357.88
302.9	371.88
303.13	373.88
303.36	370.88
303.59	374.88
303.82	381.88
304.051	374.88
304.281	366.88
304.511	378.88
304.741	375.88
304.971	355.88
305.201	370.88
305.431	350.88
305.661	370.88
305.891	367.88
306.121	361.88
306.352	373.88
306.582	370.88
306.812	375.88
307.042	380.88
307.272	354.88
307.502	369.88
307.731	362.88
307.961	351.88
308.191	361.88
308.421	379.88
308.651	356.88
308.881	350.88
309.111	369.88
309.341	375.88
309.571	380.88
309.8	381.88
310.03	406.88
310.26	407.88
310.49	396.88
310.72	387.88
310.949	409.88
311.179	417.88
311.409	406.88
311.639	389.88
311.868	390.88
312.098	414.88
312.328	409.88
312.557	419.88
312.787	403.88
313.017	412.88
313.246	423.88
313.476	400.88
313.706	390.88
313.935	425.88
314.165	429.88
314.394	425.88
314.624	403.88
314.853	419.88
315.083	414.88
315.312	413.88
315.542	402.88
315.771	385.88
316.001	408.88
316.23	421.88
316.46	429.88
316.689	411.88
316.919	413.88
317.148	419.88
317.377	419.88
317.607	394.88
317.836	391.88
318.065	402.88
318.295	411.88
318.524	412.88
318.753	417.88
318.983	413.88
319.212	417.88
319.441	406.88
319.67	410.88
319.9	386.88
320.129	408.88
320.358	419.88
320.587	399.88
320.816	427.88
321.046	426.88
321.275	422.88
321.504	440.88
321.733	435.88
321.962	432.88
322.191	441.88
322.42	442.88
322.649	460.88
322.878	437.88
323.108	473.88
323.337	451.88
323.566	482.88
323.795	501.88
324.024	537.88
324.253	602.88
324.482	781.88
324.71	1114.88
324.939	1578.88
325.168	1400.88
325.397	759.88
325.626	587.88
325.855	518.88
326.084	485.88
326.313	480.88
326.542	485.88
326.77	517.88
326.999	581.88
327.228	721.88
327.457	1005.88
327.686	1233.88
327.914	854.88
328.143	621.88
328.372	550.88
328.6	542.88
328.829	539.88
329.058	527.88
329.287	536.88
329.515	514.88
329.744	517.88
329.972	503.88
330.201	526.88
330.43	534.88
330.658	569.88
330.887	573.88
331.115	575.88
331.344	520.88
331.572	505.88
331.801	489.88
332.03	515.88
332.258	489.88
332.486	473.88
332.715	503.88
332.943	525.88
333.172	516.88
333.4	498.88
333.629	517.88
333.857	558.88
334.085	542.88
334.314	553.88
334.542	567.88
334.771	567.88
334.999	558.88
335.227	525.88
335.455	480.88
335.684	494.88
335.912	481.88
336.14	484.88
336.369	497.88
336.597	491.88
336.825	494.88
337.053	482.88
337.281	489.88
337.51	483.88
337.738	483.88
337.966	469.88
338.194	471.88
338.422	462.88
338.65	459.88
338.878	459.88
339.106	459.88
339.334	461.88
339.562	476.88
339.79	476.88
340.018	454.88
340.246	449.88
340.474	477.88
340.702	468.88
340.93	461.88
341.158	446.88
341.386	466.88
341.614	470.88
341.842	451.88
342.07	448.88
342.298	452.88
342.526	453.88
342.754	430.88
342.981	445.88
343.209	450.88
343.437	455.88
343.665	477.88
343.893	507.88
344.12	510.88
344.348	502.88
344.576	488.88
344.804	475.88
345.031	477.88
345.259	485.88
345.487	467.88
345.714	451.88
345.942	452.88
346.17	435.88
346.397	441.88
346.625	444.88
346.853	459.88
347.08	440.88
347.308	435.88
347.535	443.88
347.763	461.88
347.99	444.88
348.218	445.88
348.445	450.88
348.673	448.88
348.9	428.88
349.128	439.88
349.355	439.88
349.583	445.88
349.81	422.88
350.037	422.88
350.265	416.88
350.492	431.88
350.72	441.88
350.947	443.88
351.174	426.88
351.402	439.88
351.629	429.88
351.856	411.88
352.083	441.88
352.311	461.88
352.538	455.88
352.765	453.88
352.992	451.88
353.22	433.88
353.447	447.88
353.674	442.88
353.901	447.88
354.128	431.88
354.355	426.88
354.583	422.88
354.81	415.88
355.037	418.88
355.264	407.88
355.491	421.88
355.718	411.88
355.945	430.88
356.172	430.88
356.399	417.88
356.626	421.88
356.853	458.88
357.08	430.88
357.307	398.88
357.534	421.88
357.761	422.88
357.988	422.88
358.215	432.88
358.441	426.88
358.668	425.88
358.895	430.88
359.122	419.88
359.349	417.88
359.576	430.88
359.802	457.88
360.029	475.88
360.256	481.88
360.483	436.88
360.709	420.88
360.936	433.88
361.163	443.88
361.39	453.88
361.616	443.88
361.843	436.88
362.07	443.88
362.296	435.88
362.523	430.88
362.749	439.88
362.976	433.88
363.203	427.88
363.429	434.88
363.656	428.88
363.882	439.88
364.109	425.88
364.335	423.88
364.562	440.88
364.788	422.88
365.015	436.88
365.241	431.88
365.468	401.88
365.694	429.88
365.92	419.88
366.147	427.88
366.373	437.88
366.599	422.88
366.826	425.88
367.052	409.88
367.278	429.88
367.505	422.88
367.731	403.88
367.957	414.88
368.184	417.88
368.41	437.88
368.636	427.88
368.862	427.88
369.089	445.88
369.315	420.88
369.541	416.88
369.767	430.88
369.993	416.88
370.219	429.88
370.445	420.88
370.672	411.88
370.898	423.88
371.124	404.88
371.35	441.88
371.576	419.88
371.802	405.88
372.028	425.88
372.254	414.88
372.48	431.88
372.706	425.88
372.932	460.88
373.158	449.88
373.384	454.88
373.61	434.88
373.835	434.88
374.061	432.88
374.287	439.88
374.513	444.88
374.739	422.88
374.965	456.88
375.191	445.88
375.416	467.88
375.642	439.88
375.868	438.88
376.094	421.88
376.319	443.88
376.545	430.88
376.771	426.88
376.997	428.88
377.222	429.88
377.448	415.88
377.674	439.88
377.899	440.88
378.125	406.88
378.35	429.88
378.576	409.88
378.802	419.88
379.027	434.88
379.253	429.88
379.478	439.88
379.704	443.88
379.929	425.88
380.155	445.88
380.38	430.88
380.606	417.88
380.831	424.88
381.057	450.88
381.282	430.88
381.507	404.88
381.733	443.88
381.958	411.88
382.184	425.88
382.409	422.88
382.634	438.88
382.86	465.88
383.085	462.88
383.31	489.88
383.535	467.88
383.761	470.88
383.986	502.88
384.211	468.88
384.436	466.88
384.662	467.88
384.887	501.88
385.112	480.88
385.337	507.88
385.562	504.88
385.787	477.88
386.013	487.88
386.238	505.88
386.463	501.88
386.688	482.88
386.913	483.88
387.138	472.88
387.363	467.88
387.588	483.88
387.813	497.88
388.038	480.88
388.263	485.88
388.488	474.88
388.713	489.88
388.938	518.88
389.163	502.88
389.387	485.88
389.612	473.88
389.837	492.88
390.062	484.88
390.287	477.88
390.512	473.88
390.736	492.88
390.961	492.88
391.186	521.88
391.411	487.88
391.636	521.88
391.86	513.88
392.085	520.88
392.31	509.88
392.534	531.88
392.759	494.88
392.984	497.88
393.208	491.88
393.433	463.88
393.658	478.88
393.882	518.88
394.107	481.88
394.331	489.88
394.556	496.88
394.78	490.88
395.005	518.88
395.229	510.88
395.454	522.88
395.678	535.88
395.903	537.88
396.127	531.88
396.352	532.88
396.576	531.88
396.801	487.88
397.025	518.88
397.249	521.88
397.474	529.88
397.698	542.88
397.922	543.88
398.147	535.88
398.371	571.88
398.595	550.88
398.82	570.88
399.044	580.88
399.268	617.88
399.492	653.88
399.717	727.88
399.941	731.88
400.165	727.88
400.389	711.88
400.613	651.88
400.837	628.88
401.062	585.88
401.286	595.88
401.51	588.88
401.734	563.88
401.958	579.88
402.182	567.88
402.406	602.88
402.63	595.88
402.854	585.88
403.078	589.88
403.302	602.88
403.526	614.88
403.75	598.88
403.974	627.88
404.198	629.88
404.422	622.88
404.645	631.88
404.869	607.88
405.093	647.88
405.317	693.88
405.541	695.88
405.765	642.88
405.988	633.88
406.212	635.88
406.436	615.88
406.66	666.88
406.883	639.88
407.107	669.88
407.331	698.88
407.555	757.88
407.778	765.88
408.002	698.88
408.226	675.88
408.449	643.88
408.673	669.88
408.896	665.88
409.12	699.88
409.344	685.88
409.567	626.88
409.791	618.88
410.014	612.88
410.238	567.88
410.461	581.88
410.685	597.88
410.908	606.88
411.132	630.88
411.355	659.88
411.578	626.88
411.802	583.88
412.025	603.88
412.249	599.88
412.472	598.88
412.695	656.88
412.919	635.88
413.142	591.88
413.365	579.88
413.589	566.88
413.812	574.88
414.035	582.88
414.258	571.88
414.482	571.88
414.705	567.88
414.928	553.88
415.151	579.88
415.374	561.88
415.597	571.88
415.821	545.88
416.044	546.88
416.267	537.88
416.49	561.88
416.713	558.88
416.936	570.88
417.159	584.88
417.382	558.88
417.605	575.88
417.828	581.88
418.051	585.88
418.274	595.88
418.497	561.88
418.72	578.88
418.943	577.88
419.166	584.88
419.389	637.88
419.611	634.88
419.834	609.88
420.057	598.88
420.28	597.88
420.503	567.88
420.726	596.88
420.948	585.88
421.171	600.88
421.394	629.88
421.617	612.88
421.839	556.88
422.062	571.88
422.285	605.88
422.507	652.88
422.73	705.88
422.953	701.88
423.175	634.88
423.398	638.88
423.621	579.88
423.843	632.88
424.066	637.88
424.288	638.88
424.511	644.88
424.733	680.88
424.956	730.88
425.178	708.88
425.401	705.88
425.623	709.88
425.846	646.88
426.068	597.88
426.291	592.88
426.513	582.88
426.735	612.88
426.958	631.88
427.18	699.88
427.402	791.88
427.625	874.88
427.847	744.88
428.069	669.88
428.292	611.88
428.514	586.88
428.736	555.88
428.958	581.88
429.181	555.88
429.403	535.88
429.625	540.88
429.847	575.88
430.069	631.88
430.292	635.88
430.514	552.88
430.736	554.88
430.958	548.88
431.18	516.88
431.402	540.88
431.624	509.88
431.846	511.88
432.068	541.88
432.29	539.88
432.512	539.88
432.734	534.88
432.956	545.88
433.178	538.88
433.4	539.88
433.622	534.88
433.844	526.88
434.066	533.88
434.287	543.88
434.509	541.88
434.731	567.88
434.953	587.88
435.175	620.88
435.397	605.88
435.618	614.88
435.84	623.88
436.062	716.88
436.284	766.88
436.505	633.88
436.727	597.88
436.949	571.88
437.17	562.88
437.392	551.88
437.614	559.88
437.835	577.88
438.057	633.88
438.278	725.88
438.5	729.88
438.721	771.88
438.943	769.88
439.165	632.88
439.386	603.88
439.608	582.88
439.829	605.88
440.05	614.88
440.272	640.88
440.493	619.88
440.715	568.88
440.936	573.88
441.158	584.88
441.379	543.88
441.6	582.88
441.822	593.88
442.043	616.88
442.264	690.88
442.486	716.88
442.707	621.88
442.928	632.88
443.149	606.88
443.371	645.88
443.592	675.88
443.813	760.88
444.034	777.88
444.255	681.88
444.476	652.88
444.698	632.88
444.919	630.88
445.14	738.88
445.361	661.88
445.582	665.88
445.803	678.88
446.024	753.88
446.245	737.88
446.466	702.88
446.687	625.88
446.908	593.88
447.129	571.88
447.35	571.88
447.571	562.88
447.792	524.88
448.013	531.88
448.234	542.88
448.455	599.88
448.675	653.88
448.896	787.88
449.117	677.88
449.338	659.88
449.559	739.88
449.779	819.88
450	669.88
450.221	567.88
450.442	524.88
450.662	525.88
450.883	535.88
451.104	550.88
451.324	527.88
451.545	507.88
451.766	503.88
451.986	477.88
452.207	481.88
452.428	483.88
452.648	485.88
452.869	470.88
453.089	478.88
453.31	514.88
453.53	486.88
453.751	494.88
453.971	487.88
454.192	500.88
454.412	494.88
454.633	477.88
454.853	467.88
455.073	466.88
455.294	519.88
455.514	534.88
455.734	530.88
455.955	487.88
456.175	470.88
456.395	478.88
456.616	465.88
456.836	473.88
457.056	461.88
457.276	468.88
457.497	460.88
457.717	469.88
457.937	467.88
458.157	476.88
458.377	489.88
458.598	491.88
458.818	513.88
459.038	573.88
459.258	624.88
459.478	533.88
459.698	526.88
459.918	526.88
460.138	529.88
460.358	543.88
460.578	566.88
460.798	571.88
461.018	583.88
461.238	563.88
461.458	566.88
461.678	545.88
461.898	565.88
462.118	569.88
462.338	565.88
462.558	616.88
462.777	594.88
462.997	641.88
463.217	670.88
463.437	639.88
463.657	633.88
463.876	609.88
464.096	616.88
464.316	630.88
464.536	645.88
464.755	625.88
464.975	625.88
465.195	605.88
465.414	629.88
465.634	585.88
465.854	559.88
466.073	539.88
466.293	523.88
466.512	507.88
466.732	521.88
466.951	520.88
467.171	509.88
467.391	511.88
467.61	503.88
467.829	509.88
468.049	508.88
468.268	502.88
468.488	509.88
468.707	498.88
468.927	490.88
469.146	485.88
469.365	497.88
469.585	509.88
469.804	493.88
470.023	511.88
470.243	517.88
470.462	533.88
470.681	523.88
470.901	542.88
471.12	529.88
471.339	525.88
471.558	507.88
471.777	522.88
471.997	512.88
472.216	487.88
472.435	540.88
472.654	518.88
472.873	498.88
473.092	498.88
473.311	492.88
473.53	513.88
473.749	507.88
473.968	528.88
474.187	614.88
474.406	643.88
474.625	558.88
474.844	531.88
475.063	508.88
475.282	526.88
475.501	518.88
475.72	507.88
475.939	505.88
476.158	545.88
476.377	507.88
476.596	528.88
476.814	517.88
477.033	550.88
477.252	530.88
477.471	526.88
477.69	545.88
477.908	577.88
478.127	575.88
478.346	547.88
478.564	552.88
478.783	578.88
479.002	600.88
479.22	619.88
479.439	605.88
479.658	613.88
479.876	610.88
480.095	635.88
480.313	663.88
480.532	638.88
480.751	649.88
480.969	647.88
481.188	668.88
481.406	675.88
481.624	627.88
481.843	597.88
482.061	590.88
482.28	593.88
482.498	592.88
482.717	577.88
482.935	570.88
483.153	568.88
483.372	584.88
483.59	570.88
483.808	596.88
484.027	599.88
484.245	572.88
484.463	589.88
484.681	577.88
484.9	611.88
485.118	626.88
485.336	605.88
485.554	584.88
485.772	603.88
485.99	610.88
486.209	604.88
486.427	622.88
486.645	636.88
486.863	627.88
487.081	614.88
487.299	621.88
487.517	635.88
487.735	626.88
487.953	608.88
488.171	611.88
488.389	639.88
488.607	623.88
488.825	621.88
489.043	635.88
489.261	614.88
489.479	629.88
489.696	645.88
489.914	628.88
490.132	604.88
490.35	685.88
490.568	649.88
490.786	653.88
491.003	671.88
491.221	666.88
491.439	690.88
491.657	685.88
491.874	678.88
492.092	720.88
492.31	694.88
492.527	722.88
492.745	710.88
492.963	718.88
493.18	724.88
493.398	734.88
493.615	752.88
493.833	716.88
494.05	723.88
494.268	755.88
494.485	731.88
494.703	712.88
494.92	718.88
495.138	710.88
495.355	738.88
495.573	752.88
495.79	713.88
496.008	719.88
496.225	757.88
496.442	723.88
496.66	749.88
496.877	734.88
497.094	763.88
497.312	781.88
497.529	796.88
497.746	812.88
497.963	797.88
498.181	832.88
498.398	867.88
498.615	869.88
498.832	873.88
499.049	938.88
499.267	929.88
499.484	1009.88
499.701	1064.88
499.918	1108.88
500.135	1193.88
500.352	1273.88
500.569	1342.88
500.786	1305.88
501.003	1321.88
501.22	1178.88
501.437	1146.88
501.654	1074.88
501.871	1013.88
502.088	977.88
502.305	948.88
502.522	882.88
502.739	870.88
502.956	847.88
503.172	825.88
503.389	771.88
503.606	783.88
503.823	773.88
504.04	778.88
504.256	791.88
504.473	797.88
504.69	805.88
504.907	783.88
505.123	744.88
505.34	741.88
505.557	699.88
505.773	692.88
505.99	697.88
506.207	701.88
506.423	685.88
506.64	689.88
506.856	682.88
507.073	675.88
507.289	653.88
507.506	674.88
507.722	666.88
507.939	682.88
508.155	668.88
508.372	639.88
508.588	650.88
508.805	641.88
509.021	660.88
509.238	659.88
509.454	644.88
509.67	627.88
509.887	642.88
510.103	647.88
510.319	634.88
510.536	706.88
510.752	986.88
510.968	827.88
511.184	637.88
511.401	605.88
511.617	630.88
511.833	636.88
512.049	613.88
512.265	604.88
512.481	608.88
512.698	598.88
512.914	606.88
513.13	606.88
513.346	611.88
513.562	606.88
513.778	618.88
513.994	610.88
514.21	606.88
514.426	622.88
514.642	622.88
514.858	639.88
515.074	701.88
515.29	739.88
515.506	986.88
515.721	870.88
515.937	701.88
516.153	659.88
516.369	659.88
516.585	650.88
516.801	637.88
517.016	643.88
517.232	681.88
517.448	699.88
517.664	675.88
517.879	707.88
518.095	674.88
518.311	691.88
518.527	661.88
518.742	682.88
518.958	654.88
519.173	639.88
519.389	619.88
519.605	620.88
519.82	627.88
520.036	614.88
520.251	624.88
520.467	639.88
520.682	638.88
520.898	626.88
521.113	617.88
521.329	659.88
521.544	715.88
521.76	807.88
521.975	1166.88
522.19	1150.88
522.406	734.88
522.621	623.88
522.836	592.88
523.052	582.88
523.267	577.88
523.482	542.88
523.698	542.88
523.913	544.88
524.128	537.88
524.343	525.88
524.559	544.88
524.774	541.88
524.989	523.88
525.204	530.88
525.419	521.88
525.634	527.88
525.849	499.88
526.064	499.88
526.28	514.88
526.495	510.88
526.71	518.88
526.925	499.88
527.14	506.88
527.355	513.88
527.57	494.88
527.785	503.88
527.999	488.88
528.214	504.88
528.429	513.88
528.644	527.88
528.859	486.88
529.074	508.88
529.289	533.88
529.503	558.88
529.718	532.88
529.933	526.88
530.148	533.88
530.363	505.88
530.577	508.88
530.792	501.88
531.007	516.88
531.221	526.88
531.436	477.88
531.651	519.88
531.865	494.88
532.08	491.88
532.295	487.88
532.509	491.88
532.724	494.88
532.938	507.88
533.153	516.88
533.367	488.88
533.582	491.88
533.796	505.88
534.011	493.88
534.225	515.88
534.44	498.88
534.654	493.88
534.868	484.88
535.083	495.88
535.297	496.88
535.511	479.88
535.726	485.88
535.94	513.88
536.154	477.88
536.369	459.88
536.583	481.88
536.797	497.88
537.011	482.88
537.225	476.88
537.44	477.88
537.654	465.88
537.868	491.88
538.082	460.88
538.296	482.88
538.51	477.88
538.724	478.88
538.938	466.88
539.153	469.88
539.367	469.88
539.581	462.88
539.795	482.88
540.009	468.88
540.222	472.88
540.436	486.88
540.65	472.88
540.864	462.88
541.078	487.88
541.292	490.88
541.506	484.88
541.72	453.88
541.934	483.88
542.147	493.88
542.361	488.88
542.575	471.88
542.789	485.88
543.002	477.88
543.216	481.88
543.43	493.88
543.644	454.88
543.857	478.88
544.071	457.88
544.285	467.88
544.498	459.88
544.712	482.88
544.925	474.88
545.139	482.88
545.352	454.88
545.566	494.88
545.779	469.88
545.993	464.88
546.206	481.88
546.42	476.88
546.633	447.88
546.847	462.88
547.06	476.88
547.274	481.88
547.487	475.88
547.7	475.88
547.914	474.88
548.127	493.88
548.34	490.88
548.554	452.88
548.767	467.88
548.98	469.88
549.193	495.88
549.407	477.88
549.62	485.88
549.833	481.88
550.046	487.88
550.259	464.88
550.473	484.88
550.686	461.88
550.899	440.88
551.112	476.88
551.325	470.88
551.538	453.88
551.751	463.88
551.964	458.88
552.177	489.88
552.39	462.88
552.603	471.88
552.816	507.88
553.029	480.88
553.242	482.88
553.455	501.88
553.667	493.88
553.88	513.88
554.093	485.88
554.306	470.88
554.519	490.88
554.732	460.88
554.944	449.88
555.157	442.88
555.37	469.88
555.583	432.88
555.795	446.88
556.008	449.88
556.221	433.88
556.433	439.88
556.646	427.88
556.859	430.88
557.071	432.88
557.284	439.88
557.496	415.88
557.709	421.88
557.921	413.88
558.134	397.88
558.346	397.88
558.559	431.88
558.771	414.88
558.984	392.88
559.196	407.88
559.409	409.88
559.621	399.88
559.833	425.88
560.046	413.88
560.258	398.88
560.47	408.88
560.683	408.88
560.895	428.88
561.107	422.88
561.32	412.88
561.532	419.88
561.744	409.88
561.956	417.88
562.168	407.88
562.381	406.88
562.593	408.88
562.805	443.88
563.017	404.88
563.229	423.88
563.441	425.88
563.653	433.88
563.865	429.88
564.077	444.88
564.289	445.88
564.501	439.88
564.713	433.88
564.925	454.88
565.137	451.88
565.349	470.88
565.561	473.88
565.773	485.88
565.985	488.88
566.197	492.88
566.408	508.88
566.62	550.88
566.832	553.88
567.044	552.88
567.255	547.88
567.467	573.88
567.679	603.88
567.891	630.88
568.102	617.88
568.314	629.88
568.526	589.88
568.737	546.88
568.949	518.88
569.161	501.88
569.372	460.88
569.584	469.88
569.795	454.88
570.007	426.88
570.218	449.88
570.43	445.88
570.641	433.88
570.853	418.88
571.064	434.88
571.276	443.88
571.487	389.88
571.698	395.88
571.91	395.88
572.121	397.88
572.333	381.88
572.544	367.88
572.755	395.88
572.966	377.88
573.178	376.88
573.389	373.88
573.6	362.88
573.811	361.88
574.023	366.88
574.234	353.88
574.445	353.88
574.656	352.88
574.867	358.88
575.078	359.88
575.289	381.88
575.501	350.88
575.712	347.88
575.923	361.88
576.134	360.88
576.345	361.88
576.556	336.88
576.767	336.88
576.978	355.88
577.188	369.88
577.399	345.88
577.61	355.88
577.821	334.88
578.032	366.88
578.243	388.88
578.454	484.88
578.665	396.88
578.875	334.88
579.086	326.88
579.297	323.88
579.508	338.88
579.718	332.88
579.929	325.88
580.14	325.88
580.35	319.88
580.561	317.88
580.772	321.88
580.982	324.88
581.193	325.88
581.403	309.88
581.614	318.88
581.825	325.88
582.035	325.88
582.246	330.88
582.456	318.88
582.667	319.88
582.877	308.88
583.087	325.88
583.298	316.88
583.508	316.88
583.719	327.88
583.929	317.88
584.139	324.88
584.35	310.88
584.56	317.88
584.77	298.88
584.981	310.88
585.191	305.88
585.401	316.88
585.611	315.88
585.821	315.88
586.032	326.88
586.242	301.88
586.452	313.88
586.662	305.88
586.872	310.88
587.082	317.88
587.292	309.88
587.502	289.88
587.713	307.88
587.923	287.88
588.133	308.88
588.343	298.88
588.553	327.88
588.762	317.88
588.972	298.88
589.182	307.88
589.392	293.88
589.602	315.88
589.812	300.88
590.022	287.88
590.232	297.88
590.441	293.88
590.651	314.88
590.861	312.88
591.071	312.88
591.281	325.88
591.49	306.88
591.7	329.88
591.91	334.88
592.119	323.88
592.329	342.88
592.539	350.88
592.748	353.88
592.958	360.88
593.167	375.88
593.377	357.88
593.587	341.88
593.796	352.88
594.006	345.88
594.215	365.88
594.424	350.88
594.634	363.88
594.843	358.88
595.053	353.88
595.262	320.88
595.472	334.88
595.681	316.88
595.89	337.88
596.1	297.88
596.309	331.88
596.518	334.88
596.727	309.88
596.937	311.88
597.146	293.88
597.355	325.88
597.564	297.88
597.774	270.88
597.983	296.88
598.192	271.88
598.401	269.88
598.61	283.88
598.819	279.88
599.028	284.88
599.237	292.88
599.446	276.88
599.655	258.88
599.864	275.88
600.073	282.88
600.282	284.88
600.491	280.88
600.7	286.88
600.909	285.88
601.118	267.88
601.327	271.88
601.536	272.88
601.745	287.88
601.953	279.88
602.162	256.88
602.371	253.88
602.58	276.88
602.789	272.88
602.997	264.88
603.206	269.88
603.415	264.88
603.623	253.88
603.832	275.88
604.041	275.88
604.249	251.88
604.458	258.88
604.666	236.88
604.875	250.88
605.084	255.88
605.292	261.88
605.501	249.88
605.709	262.88
605.918	265.88
606.126	259.88
606.334	262.88
606.543	249.88
606.751	260.88
606.96	270.88
607.168	263.88
607.376	261.88
607.585	252.88
607.793	261.88
608.001	263.88
608.21	252.88
608.418	273.88
608.626	265.88
608.834	277.88
609.043	249.88
609.251	251.88
609.459	242.88
609.667	235.88
609.875	254.88
610.083	234.88
610.291	259.88
610.499	269.88
610.707	252.88
610.916	259.88
611.124	251.88
611.332	258.88
611.54	255.88
611.748	251.88
611.955	253.88
612.163	248.88
612.371	243.88
612.579	257.88
612.787	239.88
612.995	255.88
613.203	234.88
613.411	267.88
613.618	249.88
613.826	268.88
614.034	235.88
614.242	229.88
614.449	241.88
614.657	235.88
614.865	236.88
615.072	232.88
615.28	241.88
615.488	233.88
615.695	235.88
615.903	253.88
616.111	251.88
616.318	267.88
616.526	244.88
616.733	239.88
616.941	245.88
617.148	232.88
617.356	255.88
617.563	253.88
617.771	238.88
617.978	248.88
618.185	258.88
618.393	230.88
618.6	244.88
618.807	249.88
619.015	231.88
619.222	242.88
619.429	241.88
619.637	268.88
619.844	241.88
620.051	234.88
620.258	229.88
620.466	228.88
620.673	226.88
620.88	243.88
621.087	209.88
621.294	242.88
621.501	230.88
621.708	247.88
621.915	248.88
622.122	238.88
622.329	241.88
622.536	250.88
622.743	249.88
622.95	214.88
623.157	225.88
623.364	232.88
623.571	227.88
623.778	225.88
623.985	224.88
624.192	228.88
624.399	219.88
624.606	225.88
624.812	229.88
625.019	203.88
625.226	203.88
625.433	226.88
625.639	210.88
625.846	229.88
626.053	211.88
626.259	223.88
626.466	219.88
626.673	227.88
626.879	229.88
627.086	220.88
627.293	229.88
627.499	218.88
627.706	199.88
627.912	219.88
628.119	205.88
628.325	216.88
628.532	208.88
628.738	216.88
628.945	213.88
629.151	195.88
629.357	219.88
629.564	210.88
629.77	203.88
629.976	185.88
630.183	203.88
630.389	210.88
630.595	193.88
630.802	190.88
631.008	196.88
631.214	201.88
631.42	192.88
631.627	206.88
631.833	190.88
632.039	213.88
632.245	199.88
632.451	194.88
632.657	201.88
632.863	194.88
633.069	207.88
633.275	185.88
633.481	206.88
633.688	210.88
633.893	202.88
634.099	191.88
634.305	188.88
634.511	199.88
634.717	201.88
634.923	189.88
635.129	177.88
635.335	186.88
635.541	168.88
635.747	199.88
635.952	187.88
636.158	201.88
636.364	181.88
636.57	188.88
636.775	183.88
636.981	193.88
637.187	193.88
637.392	170.88
637.598	183.88
637.804	185.88
638.009	190.88
638.215	188.88
638.421	199.88
638.626	187.88
638.832	179.88
639.037	190.88
639.243	194.88
639.448	189.88
639.654	188.88
639.859	174.88
640.065	172.88
640.27	187.88
640.475	169.88
640.681	192.88
640.886	180.88
641.091	170.88
641.297	183.88
641.502	168.88
641.707	170.88
641.913	165.88
642.118	185.88
642.323	163.88
642.528	174.88
642.733	173.88
642.939	188.88
643.144	177.88
643.349	167.88
643.554	177.88
643.759	179.88
643.964	174.88
644.169	167.88
644.374	164.88
644.579	177.88
644.784	172.88
644.989	161.88
645.194	178.88
645.399	175.88
645.604	178.88
645.809	158.88
646.014	171.88
646.219	179.88
646.423	164.88
646.628	179.88
646.833	171.88
647.038	182.88
647.243	181.88
647.447	164.88
647.652	185.88
647.857	165.88
648.062	182.88
648.266	170.88
648.471	183.88
648.676	197.88
648.88	177.88
649.085	151.88
649.289	192.88
649.494	181.88
649.698	175.88
649.903	191.88
650.107	183.88
650.312	176.88
650.516	174.88
650.721	160.88
650.925	161.88
651.13	160.88
651.334	149.88
651.539	153.88
651.743	155.88
651.947	135.88
652.152	140.88
652.356	150.88
652.56	159.88
652.764	146.88
652.969	131.88
653.173	149.88
653.377	133.88
653.581	153.88
653.785	135.88
653.99	146.88
654.194	153.88
654.398	148.88
654.602	146.88
654.806	134.88
655.01	138.88
655.214	137.88
655.418	133.88
655.622	121.88
655.826	135.88
656.03	136.88
656.234	141.88
656.438	134.88
656.642	130.88
656.846	133.88
657.049	136.88
657.253	129.88
657.457	130.88
657.661	120.88
657.865	127.88
658.068	119.88
658.272	116.88
658.476	126.88
658.68	107.88
658.883	117.88
659.087	97.88
659.291	99.88
659.494	91.88
659.698	106.88
659.901	94.88
660.105	94.88
660.309	104.88
660.512	94.88
660.716	86.88
660.919	93.88
661.123	106.88
661.326	78.88
661.53	90.88
661.733	84.88
661.936	98.88
662.14	97.88
662.343	91.88
662.546	79.88
662.75	76.88
662.953	97.88
663.156	76.88
663.36	79.88
663.563	100.88
663.766	83.88
663.969	86.88
664.173	82.88
664.376	96.88
664.579	78.88
664.782	71.88
664.985	94.88
665.188	89.88
665.391	87.88
665.594	72.88
665.797	90.88
666	80.88
666.203	82.88
666.406	79.88
666.609	84.88
666.812	85.88
667.015	82.88
667.218	92.88
667.421	93.88
667.624	81.88
667.827	83.88
668.03	74.88
668.232	83.88
668.435	93.88
668.638	70.88
668.841	80.88
669.043	83.88
669.246	89.88
669.449	68.88
669.651	87.88
669.854	84.88
670.057	78.88
670.259	76.88
670.462	80.88
670.665	73.88
670.867	88.88
671.07	98.88
671.272	73.88
671.475	80.88
671.677	75.88
671.88	81.88
672.082	98.88
672.284	88.88
672.487	91.88
672.689	87.88
672.892	94.88
