Data from 1973.PennyLincolnUp.Lamp.En5.5.200Scan.071719.P1.Changed Mount._HRD10591_15-46-04-853.txt Node
Date: Thu Jul 18 15:46:04 EDT 2019
User: cochatt
Spectrometer: HR+D1059
Trigger mode: 1
Integration Time (sec): 1.000000E-1
Scans to average: 1
Electric dark correction enabled: true
Nonlinearity correction enabled: false
Boxcar width: 0
XAxis mode: Wavelengths
Number of Pixels in Spectrum: 2048
>>>>>Begin Spectral Data<<<<<
223.165	-16.12
223.4	-16.12
223.635	-16.12
223.869	-27.12
224.104	-27.12
224.338	-18.12
224.573	-16.12
224.808	-4.12
225.042	-9.12
225.277	-10.12
225.511	2.88
225.746	0.88
225.98	6.88
226.215	20.88
226.449	18.88
226.683	32.88
226.918	10.88
227.152	33.88
227.387	49.88
227.621	46.88
227.856	30.88
228.09	44.88
228.324	44.88
228.559	56.88
228.793	72.88
229.027	91.88
229.262	94.88
229.496	114.88
229.73	129.88
229.964	148.88
230.199	109.88
230.433	109.88
230.667	122.88
230.901	116.88
231.136	122.88
231.37	119.88
231.604	112.88
231.838	118.88
232.072	117.88
232.306	118.88
232.541	119.88
232.775	125.88
233.009	113.88
233.243	123.88
233.477	116.88
233.711	128.88
233.945	111.88
234.179	107.88
234.413	134.88
234.647	122.88
234.881	118.88
235.115	125.88
235.349	123.88
235.583	119.88
235.817	128.88
236.051	136.88
236.285	133.88
236.519	128.88
236.753	114.88
236.987	130.88
237.221	180.88
237.455	214.88
237.689	177.88
237.922	146.88
238.156	130.88
238.39	139.88
238.624	133.88
238.858	132.88
239.091	128.88
239.325	134.88
239.559	141.88
239.793	133.88
240.027	131.88
240.26	154.88
240.494	155.88
240.728	165.88
240.961	144.88
241.195	142.88
241.429	159.88
241.662	160.88
241.896	140.88
242.13	128.88
242.363	142.88
242.597	136.88
242.83	150.88
243.064	141.88
243.298	133.88
243.531	169.88
243.765	146.88
243.998	154.88
244.232	159.88
244.465	145.88
244.699	147.88
244.932	150.88
245.166	153.88
245.399	162.88
245.633	154.88
245.866	149.88
246.099	156.88
246.333	144.88
246.566	156.88
246.8	162.88
247.033	163.88
247.266	161.88
247.5	166.88
247.733	168.88
247.966	176.88
248.2	177.88
248.433	176.88
248.666	170.88
248.899	198.88
249.133	214.88
249.366	209.88
249.599	196.88
249.832	191.88
250.066	182.88
250.299	184.88
250.532	185.88
250.765	208.88
250.998	215.88
251.231	251.88
251.465	226.88
251.698	210.88
251.931	216.88
252.164	198.88
252.397	188.88
252.63	194.88
252.863	215.88
253.096	212.88
253.329	251.88
253.562	216.88
253.795	202.88
254.028	208.88
254.261	212.88
254.494	218.88
254.727	254.88
254.96	293.88
255.193	262.88
255.426	239.88
255.659	231.88
255.892	199.88
256.124	240.88
256.357	232.88
256.59	236.88
256.823	218.88
257.056	227.88
257.289	224.88
257.521	231.88
257.754	214.88
257.987	223.88
258.22	213.88
258.452	225.88
258.685	214.88
258.918	222.88
259.151	221.88
259.383	231.88
259.616	227.88
259.849	254.88
260.081	252.88
260.314	256.88
260.547	252.88
260.779	248.88
261.012	238.88
261.244	228.88
261.477	232.88
261.71	230.88
261.942	250.88
262.175	246.88
262.407	219.88
262.64	228.88
262.872	221.88
263.105	232.88
263.337	233.88
263.57	237.88
263.802	232.88
264.035	231.88
264.267	238.88
264.499	233.88
264.732	244.88
264.964	230.88
265.197	229.88
265.429	229.88
265.661	221.88
265.894	241.88
266.126	239.88
266.358	246.88
266.591	235.88
266.823	242.88
267.055	252.88
267.287	244.88
267.52	248.88
267.752	237.88
267.984	239.88
268.216	246.88
268.448	256.88
268.681	261.88
268.913	268.88
269.145	291.88
269.377	300.88
269.609	289.88
269.841	291.88
270.073	280.88
270.306	317.88
270.538	337.88
270.77	334.88
271.002	348.88
271.234	316.88
271.466	311.88
271.698	320.88
271.93	330.88
272.162	322.88
272.394	320.88
272.626	323.88
272.858	308.88
273.09	305.88
273.322	288.88
273.553	273.88
273.785	283.88
274.017	272.88
274.249	280.88
274.481	275.88
274.713	275.88
274.945	293.88
275.176	304.88
275.408	279.88
275.64	275.88
275.872	291.88
276.104	294.88
276.335	284.88
276.567	300.88
276.799	300.88
277.031	315.88
277.262	346.88
277.494	341.88
277.726	304.88
277.957	328.88
278.189	305.88
278.421	291.88
278.652	296.88
278.884	304.88
279.115	293.88
279.347	302.88
279.579	300.88
279.81	308.88
280.042	283.88
280.273	303.88
280.505	317.88
280.736	313.88
280.968	288.88
281.199	296.88
281.431	318.88
281.662	308.88
281.894	297.88
282.125	295.88
282.356	309.88
282.588	339.88
282.819	321.88
283.051	309.88
283.282	295.88
283.513	331.88
283.745	310.88
283.976	319.88
284.207	324.88
284.439	318.88
284.67	325.88
284.901	307.88
285.132	309.88
285.364	313.88
285.595	333.88
285.826	286.88
286.057	308.88
286.288	320.88
286.52	322.88
286.751	333.88
286.982	330.88
287.213	309.88
287.444	328.88
287.675	313.88
287.906	346.88
288.138	338.88
288.369	341.88
288.6	346.88
288.831	336.88
289.062	308.88
289.293	321.88
289.524	320.88
289.755	325.88
289.986	310.88
290.217	325.88
290.448	330.88
290.679	315.88
290.91	330.88
291.141	354.88
291.371	324.88
291.602	320.88
291.833	325.88
292.064	341.88
292.295	338.88
292.526	331.88
292.757	321.88
292.987	363.88
293.218	339.88
293.449	346.88
293.68	329.88
293.91	313.88
294.141	325.88
294.372	321.88
294.603	314.88
294.833	320.88
295.064	331.88
295.295	320.88
295.525	326.88
295.756	333.88
295.987	349.88
296.217	359.88
296.448	378.88
296.679	365.88
296.909	345.88
297.14	335.88
297.37	353.88
297.601	347.88
297.831	348.88
298.062	352.88
298.292	342.88
298.523	347.88
298.753	356.88
298.984	359.88
299.214	356.88
299.445	348.88
299.675	331.88
299.905	365.88
300.136	351.88
300.366	349.88
300.597	349.88
300.827	363.88
301.057	369.88
301.288	379.88
301.518	375.88
301.748	371.88
301.979	373.88
302.209	371.88
302.439	378.88
302.669	375.88
302.9	368.88
303.13	376.88
303.36	378.88
303.59	355.88
303.82	374.88
304.051	388.88
304.281	392.88
304.511	369.88
304.741	372.88
304.971	376.88
305.201	371.88
305.431	369.88
305.661	358.88
305.891	376.88
306.121	363.88
306.352	384.88
306.582	380.88
306.812	379.88
307.042	357.88
307.272	376.88
307.502	383.88
307.731	376.88
307.961	385.88
308.191	367.88
308.421	358.88
308.651	366.88
308.881	376.88
309.111	392.88
309.341	376.88
309.571	378.88
309.8	396.88
310.03	405.88
310.26	399.88
310.49	415.88
310.72	417.88
310.949	408.88
311.179	414.88
311.409	398.88
311.639	408.88
311.868	412.88
312.098	401.88
312.328	403.88
312.557	441.88
312.787	428.88
313.017	396.88
313.246	414.88
313.476	410.88
313.706	403.88
313.935	405.88
314.165	422.88
314.394	410.88
314.624	415.88
314.853	410.88
315.083	411.88
315.312	401.88
315.542	416.88
315.771	401.88
316.001	391.88
316.23	409.88
316.46	409.88
316.689	418.88
316.919	418.88
317.148	420.88
317.377	423.88
317.607	415.88
317.836	415.88
318.065	410.88
318.295	396.88
318.524	398.88
318.753	400.88
318.983	415.88
319.212	420.88
319.441	416.88
319.67	414.88
319.9	406.88
320.129	408.88
320.358	417.88
320.587	416.88
320.816	411.88
321.046	419.88
321.275	428.88
321.504	454.88
321.733	431.88
321.962	422.88
322.191	411.88
322.42	425.88
322.649	463.88
322.878	444.88
323.108	454.88
323.337	465.88
323.566	497.88
323.795	493.88
324.024	525.88
324.253	603.88
324.482	828.88
324.71	1137.88
324.939	1642.88
325.168	1455.88
325.397	794.88
325.626	583.88
325.855	534.88
326.084	504.88
326.313	511.88
326.542	508.88
326.77	509.88
326.999	582.88
327.228	738.88
327.457	1050.88
327.686	1272.88
327.914	898.88
328.143	673.88
328.372	566.88
328.6	558.88
328.829	546.88
329.058	536.88
329.287	570.88
329.515	545.88
329.744	501.88
329.972	528.88
330.201	523.88
330.43	547.88
330.658	570.88
330.887	594.88
331.115	571.88
331.344	503.88
331.572	516.88
331.801	527.88
332.03	507.88
332.258	485.88
332.486	500.88
332.715	500.88
332.943	498.88
333.172	492.88
333.4	509.88
333.629	540.88
333.857	544.88
334.085	529.88
334.314	538.88
334.542	585.88
334.771	575.88
334.999	548.88
335.227	543.88
335.455	532.88
335.684	514.88
335.912	502.88
336.14	503.88
336.369	481.88
336.597	500.88
336.825	501.88
337.053	487.88
337.281	490.88
337.51	483.88
337.738	491.88
337.966	476.88
338.194	487.88
338.422	481.88
338.65	490.88
338.878	466.88
339.106	455.88
339.334	474.88
339.562	464.88
339.79	461.88
340.018	455.88
340.246	467.88
340.474	492.88
340.702	480.88
340.93	464.88
341.158	459.88
341.386	466.88
341.614	463.88
341.842	476.88
342.07	445.88
342.298	446.88
342.526	470.88
342.754	466.88
342.981	458.88
343.209	456.88
343.437	468.88
343.665	479.88
343.893	492.88
344.12	502.88
344.348	507.88
344.576	492.88
344.804	495.88
345.031	488.88
345.259	469.88
345.487	491.88
345.714	458.88
345.942	455.88
346.17	458.88
346.397	440.88
346.625	426.88
346.853	449.88
347.08	442.88
347.308	446.88
347.535	457.88
347.763	466.88
347.99	442.88
348.218	461.88
348.445	447.88
348.673	465.88
348.9	446.88
349.128	441.88
349.355	448.88
349.583	427.88
349.81	424.88
350.037	448.88
350.265	422.88
350.492	436.88
350.72	438.88
350.947	437.88
351.174	441.88
351.402	437.88
351.629	458.88
351.856	439.88
352.083	433.88
352.311	473.88
352.538	461.88
352.765	459.88
352.992	448.88
353.22	437.88
353.447	434.88
353.674	454.88
353.901	430.88
354.128	417.88
354.355	421.88
354.583	440.88
354.81	430.88
355.037	423.88
355.264	413.88
355.491	422.88
355.718	440.88
355.945	428.88
356.172	437.88
356.399	428.88
356.626	432.88
356.853	439.88
357.08	406.88
357.307	420.88
357.534	422.88
357.761	438.88
357.988	423.88
358.215	429.88
358.441	426.88
358.668	406.88
358.895	429.88
359.122	434.88
359.349	422.88
359.576	441.88
359.802	456.88
360.029	455.88
360.256	490.88
360.483	477.88
360.709	438.88
360.936	425.88
361.163	434.88
361.39	425.88
361.616	454.88
361.843	430.88
362.07	420.88
362.296	439.88
362.523	436.88
362.749	416.88
362.976	433.88
363.203	424.88
363.429	418.88
363.656	425.88
363.882	428.88
364.109	420.88
364.335	428.88
364.562	431.88
364.788	434.88
365.015	430.88
365.241	434.88
365.468	417.88
365.694	434.88
365.92	433.88
366.147	422.88
366.373	430.88
366.599	416.88
366.826	430.88
367.052	417.88
367.278	416.88
367.505	434.88
367.731	409.88
367.957	430.88
368.184	448.88
368.41	440.88
368.636	421.88
368.862	446.88
369.089	414.88
369.315	428.88
369.541	425.88
369.767	422.88
369.993	428.88
370.219	434.88
370.445	411.88
370.672	432.88
370.898	427.88
371.124	417.88
371.35	440.88
371.576	423.88
371.802	422.88
372.028	448.88
372.254	420.88
372.48	440.88
372.706	420.88
372.932	444.88
373.158	452.88
373.384	445.88
373.61	447.88
373.835	424.88
374.061	436.88
374.287	439.88
374.513	461.88
374.739	450.88
374.965	461.88
375.191	441.88
375.416	449.88
375.642	450.88
375.868	437.88
376.094	455.88
376.319	440.88
376.545	415.88
376.771	438.88
376.997	426.88
377.222	428.88
377.448	432.88
377.674	423.88
377.899	429.88
378.125	417.88
378.35	417.88
378.576	424.88
378.802	424.88
379.027	446.88
379.253	433.88
379.478	426.88
379.704	427.88
379.929	424.88
380.155	435.88
380.38	417.88
380.606	430.88
380.831	442.88
381.057	458.88
381.282	437.88
381.507	448.88
381.733	453.88
381.958	448.88
382.184	440.88
382.409	443.88
382.634	420.88
382.86	449.88
383.085	443.88
383.31	450.88
383.535	462.88
383.761	459.88
383.986	477.88
384.211	462.88
384.436	457.88
384.662	472.88
384.887	499.88
385.112	480.88
385.337	482.88
385.562	507.88
385.787	494.88
386.013	518.88
386.238	502.88
386.463	516.88
386.688	467.88
386.913	468.88
387.138	484.88
387.363	492.88
387.588	485.88
387.813	482.88
388.038	497.88
388.263	473.88
388.488	489.88
388.713	491.88
388.938	489.88
389.163	484.88
389.387	491.88
389.612	468.88
389.837	485.88
390.062	490.88
390.287	489.88
390.512	500.88
390.736	480.88
390.961	508.88
391.186	493.88
391.411	496.88
391.636	478.88
391.86	516.88
392.085	533.88
392.31	533.88
392.534	518.88
392.759	505.88
392.984	509.88
393.208	499.88
393.433	510.88
393.658	499.88
393.882	494.88
394.107	507.88
394.331	490.88
394.556	479.88
394.78	507.88
395.005	497.88
395.229	514.88
395.454	526.88
395.678	529.88
395.903	551.88
396.127	575.88
396.352	528.88
396.576	542.88
396.801	518.88
397.025	532.88
397.249	505.88
397.474	515.88
397.698	546.88
397.922	560.88
398.147	571.88
398.371	578.88
398.595	549.88
398.82	560.88
399.044	596.88
399.268	639.88
399.492	665.88
399.717	731.88
399.941	753.88
400.165	758.88
400.389	714.88
400.613	643.88
400.837	612.88
401.062	591.88
401.286	599.88
401.51	552.88
401.734	583.88
401.958	598.88
402.182	587.88
402.406	594.88
402.63	608.88
402.854	613.88
403.078	590.88
403.302	604.88
403.526	603.88
403.75	606.88
403.974	622.88
404.198	606.88
404.422	623.88
404.645	617.88
404.869	603.88
405.093	643.88
405.317	676.88
405.541	721.88
405.765	662.88
405.988	624.88
406.212	637.88
406.436	647.88
406.66	650.88
406.883	662.88
407.107	674.88
407.331	721.88
407.555	801.88
407.778	776.88
408.002	716.88
408.226	643.88
408.449	643.88
408.673	633.88
408.896	679.88
409.12	698.88
409.344	655.88
409.567	632.88
409.791	615.88
410.014	586.88
410.238	613.88
410.461	606.88
410.685	605.88
410.908	613.88
411.132	655.88
411.355	653.88
411.578	635.88
411.802	617.88
412.025	591.88
412.249	580.88
412.472	640.88
412.695	663.88
412.919	645.88
413.142	588.88
413.365	590.88
413.589	598.88
413.812	554.88
414.035	588.88
414.258	581.88
414.482	577.88
414.705	570.88
414.928	586.88
415.151	571.88
415.374	570.88
415.597	563.88
415.821	561.88
416.044	577.88
416.267	574.88
416.49	562.88
416.713	573.88
416.936	544.88
417.159	570.88
417.382	573.88
417.605	576.88
417.828	574.88
418.051	598.88
418.274	574.88
418.497	585.88
418.72	578.88
418.943	559.88
419.166	616.88
419.389	618.88
419.611	619.88
419.834	617.88
420.057	608.88
420.28	608.88
420.503	578.88
420.726	568.88
420.948	596.88
421.171	633.88
421.394	666.88
421.617	598.88
421.839	590.88
422.062	599.88
422.285	592.88
422.507	650.88
422.73	702.88
422.953	696.88
423.175	632.88
423.398	614.88
423.621	593.88
423.843	645.88
424.066	632.88
424.288	641.88
424.511	640.88
424.733	689.88
424.956	756.88
425.178	727.88
425.401	700.88
425.623	693.88
425.846	645.88
426.068	619.88
426.291	576.88
426.513	583.88
426.735	614.88
426.958	636.88
427.18	701.88
427.402	814.88
427.625	891.88
427.847	743.88
428.069	686.88
428.292	638.88
428.514	584.88
428.736	581.88
428.958	582.88
429.181	549.88
429.403	561.88
429.625	545.88
429.847	585.88
430.069	617.88
430.292	659.88
430.514	583.88
430.736	551.88
430.958	553.88
431.18	571.88
431.402	533.88
431.624	538.88
431.846	524.88
432.068	530.88
432.29	530.88
432.512	537.88
432.734	560.88
432.956	561.88
433.178	541.88
433.4	512.88
433.622	541.88
433.844	521.88
434.066	533.88
434.287	533.88
434.509	550.88
434.731	577.88
434.953	568.88
435.175	561.88
435.397	600.88
435.618	604.88
435.84	632.88
436.062	705.88
436.284	764.88
436.505	658.88
436.727	604.88
436.949	570.88
437.17	552.88
437.392	541.88
437.614	558.88
437.835	583.88
438.057	653.88
438.278	734.88
438.5	738.88
438.721	821.88
438.943	767.88
439.165	636.88
439.386	587.88
439.608	610.88
439.829	595.88
440.05	606.88
440.272	644.88
440.493	620.88
440.715	604.88
440.936	609.88
441.158	586.88
441.379	551.88
441.6	596.88
441.822	621.88
442.043	665.88
442.264	692.88
442.486	750.88
442.707	650.88
442.928	609.88
443.149	613.88
443.371	619.88
443.592	680.88
443.813	735.88
444.034	823.88
444.255	701.88
444.476	662.88
444.698	632.88
444.919	642.88
445.14	769.88
445.361	702.88
445.582	653.88
445.803	684.88
446.024	784.88
446.245	754.88
446.466	693.88
446.687	625.88
446.908	582.88
447.129	578.88
447.35	541.88
447.571	523.88
447.792	524.88
448.013	553.88
448.234	548.88
448.455	598.88
448.675	692.88
448.896	770.88
449.117	677.88
449.338	638.88
449.559	752.88
449.779	851.88
450	680.88
450.221	586.88
450.442	535.88
450.662	536.88
450.883	553.88
451.104	564.88
451.324	516.88
451.545	518.88
451.766	520.88
451.986	502.88
452.207	488.88
452.428	481.88
452.648	480.88
452.869	483.88
453.089	496.88
453.31	509.88
453.53	486.88
453.751	481.88
453.971	477.88
454.192	485.88
454.412	462.88
454.633	472.88
454.853	484.88
455.073	502.88
455.294	508.88
455.514	583.88
455.734	558.88
455.955	488.88
456.175	473.88
456.395	459.88
456.616	469.88
456.836	476.88
457.056	454.88
457.276	469.88
457.497	460.88
457.717	462.88
457.937	467.88
458.157	486.88
458.377	490.88
458.598	510.88
458.818	527.88
459.038	598.88
459.258	620.88
459.478	566.88
459.698	544.88
459.918	542.88
460.138	556.88
460.358	581.88
460.578	585.88
460.798	577.88
461.018	586.88
461.238	561.88
461.458	572.88
461.678	557.88
461.898	565.88
462.118	591.88
462.338	622.88
462.558	605.88
462.777	622.88
462.997	637.88
463.217	666.88
463.437	658.88
463.657	630.88
463.876	638.88
464.096	610.88
464.316	634.88
464.536	647.88
464.755	648.88
464.975	600.88
465.195	621.88
465.414	656.88
465.634	590.88
465.854	575.88
466.073	525.88
466.293	536.88
466.512	535.88
466.732	520.88
466.951	493.88
467.171	493.88
467.391	508.88
467.61	534.88
467.829	534.88
468.049	521.88
468.268	527.88
468.488	502.88
468.707	483.88
468.927	521.88
469.146	467.88
469.365	489.88
469.585	488.88
469.804	529.88
470.023	498.88
470.243	525.88
470.462	526.88
470.681	529.88
470.901	537.88
471.12	527.88
471.339	482.88
471.558	513.88
471.777	504.88
471.997	507.88
472.216	512.88
472.435	524.88
472.654	489.88
472.873	484.88
473.092	490.88
473.311	492.88
473.53	530.88
473.749	518.88
473.968	529.88
474.187	620.88
474.406	655.88
474.625	545.88
474.844	517.88
475.063	502.88
475.282	515.88
475.501	532.88
475.72	512.88
475.939	521.88
476.158	532.88
476.377	524.88
476.596	503.88
476.814	526.88
477.033	542.88
477.252	544.88
477.471	553.88
477.69	582.88
477.908	549.88
478.127	567.88
478.346	573.88
478.564	582.88
478.783	582.88
479.002	585.88
479.22	612.88
479.439	617.88
479.658	644.88
479.876	630.88
480.095	628.88
480.313	638.88
480.532	653.88
480.751	653.88
480.969	632.88
481.188	679.88
481.406	677.88
481.624	634.88
481.843	602.88
482.061	605.88
482.28	595.88
482.498	612.88
482.717	603.88
482.935	595.88
483.153	588.88
483.372	592.88
483.59	614.88
483.808	578.88
484.027	606.88
484.245	593.88
484.463	601.88
484.681	604.88
484.9	591.88
485.118	599.88
485.336	599.88
485.554	614.88
485.772	597.88
485.99	624.88
486.209	621.88
486.427	638.88
486.645	618.88
486.863	614.88
487.081	641.88
487.299	628.88
487.517	623.88
487.735	632.88
487.953	622.88
488.171	623.88
488.389	605.88
488.607	639.88
488.825	612.88
489.043	609.88
489.261	616.88
489.479	674.88
489.696	658.88
489.914	629.88
490.132	648.88
490.35	644.88
490.568	658.88
490.786	678.88
491.003	686.88
491.221	690.88
491.439	700.88
491.657	705.88
491.874	729.88
492.092	726.88
492.31	699.88
492.527	729.88
492.745	728.88
492.963	735.88
493.18	738.88
493.398	712.88
493.615	723.88
493.833	737.88
494.05	748.88
494.268	721.88
494.485	747.88
494.703	746.88
494.92	728.88
495.138	739.88
495.355	741.88
495.573	745.88
495.79	751.88
496.008	754.88
496.225	729.88
496.442	733.88
496.66	776.88
496.877	756.88
497.094	760.88
497.312	761.88
497.529	774.88
497.746	823.88
497.963	806.88
498.181	817.88
498.398	847.88
498.615	881.88
498.832	872.88
499.049	928.88
499.267	935.88
499.484	989.88
499.701	1021.88
499.918	1092.88
500.135	1192.88
500.352	1277.88
500.569	1352.88
500.786	1326.88
501.003	1275.88
501.22	1221.88
501.437	1152.88
501.654	1078.88
501.871	1036.88
502.088	1008.88
502.305	915.88
502.522	912.88
502.739	888.88
502.956	815.88
503.172	834.88
503.389	798.88
503.606	813.88
503.823	770.88
504.04	776.88
504.256	776.88
504.473	782.88
504.69	785.88
504.907	765.88
505.123	765.88
505.34	721.88
505.557	717.88
505.773	720.88
505.99	729.88
506.207	698.88
506.423	708.88
506.64	692.88
506.856	687.88
507.073	689.88
507.289	677.88
507.506	653.88
507.722	680.88
507.939	676.88
508.155	662.88
508.372	651.88
508.588	652.88
508.805	657.88
509.021	648.88
509.238	657.88
509.454	671.88
509.67	665.88
509.887	632.88
510.103	639.88
510.319	626.88
510.536	696.88
510.752	996.88
510.968	832.88
511.184	628.88
511.401	612.88
511.617	608.88
511.833	590.88
512.049	586.88
512.265	593.88
512.481	601.88
512.698	602.88
512.914	590.88
513.13	615.88
513.346	590.88
513.562	612.88
513.778	601.88
513.994	621.88
514.21	637.88
514.426	642.88
514.642	655.88
514.858	642.88
515.074	697.88
515.29	767.88
515.506	1007.88
515.721	874.88
515.937	716.88
516.153	644.88
516.369	649.88
516.585	666.88
516.801	677.88
517.016	678.88
517.232	680.88
517.448	687.88
517.664	681.88
517.879	693.88
518.095	699.88
518.311	710.88
518.527	678.88
518.742	657.88
518.958	642.88
519.173	654.88
519.389	639.88
519.605	636.88
519.82	646.88
520.036	625.88
520.251	616.88
520.467	652.88
520.682	644.88
520.898	626.88
521.113	641.88
521.329	657.88
521.544	684.88
521.76	845.88
521.975	1241.88
522.19	1228.88
522.406	754.88
522.621	646.88
522.836	604.88
523.052	578.88
523.267	574.88
523.482	560.88
523.698	578.88
523.913	553.88
524.128	546.88
524.343	553.88
524.559	533.88
524.774	528.88
524.989	529.88
525.204	543.88
525.419	532.88
525.634	520.88
525.849	525.88
526.064	506.88
526.28	524.88
526.495	508.88
526.71	517.88
526.925	497.88
527.14	500.88
527.355	485.88
527.57	522.88
527.785	494.88
527.999	546.88
528.214	518.88
528.429	512.88
528.644	516.88
528.859	502.88
529.074	529.88
529.289	534.88
529.503	568.88
529.718	553.88
529.933	524.88
530.148	534.88
530.363	516.88
530.577	521.88
530.792	501.88
531.007	486.88
531.221	497.88
531.436	500.88
531.651	482.88
531.865	478.88
532.08	485.88
532.295	491.88
532.509	492.88
532.724	506.88
532.938	502.88
533.153	492.88
533.367	516.88
533.582	509.88
533.796	510.88
534.011	482.88
534.225	484.88
534.44	502.88
534.654	487.88
534.868	475.88
535.083	500.88
535.297	485.88
535.511	502.88
535.726	497.88
535.94	505.88
536.154	462.88
536.369	481.88
536.583	484.88
536.797	492.88
537.011	492.88
537.225	479.88
537.44	475.88
537.654	488.88
537.868	480.88
538.082	492.88
538.296	492.88
538.51	466.88
538.724	491.88
538.938	458.88
539.153	482.88
539.367	493.88
539.581	483.88
539.795	477.88
540.009	488.88
540.222	474.88
540.436	464.88
540.65	475.88
540.864	481.88
541.078	477.88
541.292	486.88
541.506	477.88
541.72	480.88
541.934	502.88
542.147	471.88
542.361	482.88
542.575	497.88
542.789	494.88
543.002	461.88
543.216	482.88
543.43	495.88
543.644	475.88
543.857	468.88
544.071	465.88
544.285	484.88
544.498	482.88
544.712	478.88
544.925	472.88
545.139	445.88
545.352	475.88
545.566	497.88
545.779	462.88
545.993	477.88
546.206	480.88
546.42	472.88
546.633	468.88
546.847	469.88
547.06	484.88
547.274	474.88
547.487	473.88
547.7	461.88
547.914	476.88
548.127	474.88
548.34	482.88
548.554	470.88
548.767	487.88
548.98	458.88
549.193	449.88
549.407	484.88
549.62	478.88
549.833	478.88
550.046	459.88
550.259	455.88
550.473	465.88
550.686	445.88
550.899	461.88
551.112	460.88
551.325	470.88
551.538	480.88
551.751	484.88
551.964	445.88
552.177	474.88
552.39	471.88
552.603	461.88
552.816	486.88
553.029	468.88
553.242	481.88
553.455	477.88
553.667	492.88
553.88	496.88
554.093	491.88
554.306	509.88
554.519	487.88
554.732	482.88
554.944	462.88
555.157	459.88
555.37	448.88
555.583	444.88
555.795	453.88
556.008	416.88
556.221	430.88
556.433	425.88
556.646	415.88
556.859	432.88
557.071	406.88
557.284	422.88
557.496	425.88
557.709	398.88
557.921	420.88
558.134	425.88
558.346	411.88
558.559	422.88
558.771	409.88
558.984	416.88
559.196	391.88
559.409	393.88
559.621	419.88
559.833	420.88
560.046	403.88
560.258	407.88
560.47	410.88
560.683	410.88
560.895	406.88
561.107	408.88
561.32	408.88
561.532	411.88
561.744	384.88
561.956	426.88
562.168	409.88
562.381	396.88
562.593	412.88
562.805	407.88
563.017	421.88
563.229	412.88
563.441	422.88
563.653	430.88
563.865	439.88
564.077	423.88
564.289	450.88
564.501	429.88
564.713	442.88
564.925	460.88
565.137	444.88
565.349	480.88
565.561	469.88
565.773	478.88
565.985	471.88
566.197	495.88
566.408	534.88
566.62	547.88
566.832	572.88
567.044	569.88
567.255	585.88
567.467	583.88
567.679	604.88
567.891	616.88
568.102	616.88
568.314	597.88
568.526	584.88
568.737	538.88
568.949	518.88
569.161	476.88
569.372	479.88
569.584	448.88
569.795	441.88
570.007	444.88
570.218	471.88
570.43	465.88
570.641	442.88
570.853	424.88
571.064	421.88
571.276	418.88
571.487	403.88
571.698	418.88
571.91	401.88
572.121	394.88
572.333	402.88
572.544	400.88
572.755	389.88
572.966	400.88
573.178	380.88
573.389	390.88
573.6	376.88
573.811	359.88
574.023	370.88
574.234	376.88
574.445	358.88
574.656	357.88
574.867	370.88
575.078	350.88
575.289	362.88
575.501	362.88
575.712	351.88
575.923	354.88
576.134	362.88
576.345	370.88
576.556	346.88
576.767	368.88
576.978	365.88
577.188	364.88
577.399	341.88
577.61	351.88
577.821	342.88
578.032	339.88
578.243	359.88
578.454	479.88
578.665	388.88
578.875	309.88
579.086	332.88
579.297	330.88
579.508	327.88
579.718	316.88
579.929	332.88
580.14	324.88
580.35	325.88
580.561	324.88
580.772	325.88
580.982	336.88
581.193	350.88
581.403	318.88
581.614	331.88
581.825	319.88
582.035	315.88
582.246	335.88
582.456	328.88
582.667	317.88
582.877	320.88
583.087	330.88
583.298	328.88
583.508	324.88
583.719	330.88
583.929	309.88
584.139	313.88
584.35	327.88
584.56	316.88
584.77	314.88
584.981	317.88
585.191	304.88
585.401	293.88
585.611	315.88
585.821	300.88
586.032	314.88
586.242	314.88
586.452	309.88
586.662	304.88
586.872	324.88
587.082	323.88
587.292	323.88
587.502	315.88
587.713	315.88
587.923	324.88
588.133	319.88
588.343	299.88
588.553	327.88
588.762	316.88
588.972	327.88
589.182	298.88
589.392	311.88
589.602	322.88
589.812	301.88
590.022	317.88
590.232	308.88
590.441	309.88
590.651	319.88
590.861	327.88
591.071	326.88
591.281	325.88
591.49	318.88
591.7	318.88
591.91	313.88
592.119	337.88
592.329	334.88
592.539	334.88
592.748	340.88
592.958	365.88
593.167	340.88
593.377	348.88
593.587	365.88
593.796	361.88
594.006	385.88
594.215	361.88
594.424	342.88
594.634	350.88
594.843	351.88
595.053	330.88
595.262	329.88
595.472	327.88
595.681	329.88
595.89	329.88
596.1	319.88
596.309	304.88
596.518	311.88
596.727	297.88
596.937	308.88
597.146	294.88
597.355	281.88
597.564	310.88
597.774	298.88
597.983	290.88
598.192	306.88
598.401	289.88
598.61	310.88
598.819	284.88
599.028	286.88
599.237	266.88
599.446	280.88
599.655	265.88
599.864	284.88
600.073	290.88
600.282	289.88
600.491	286.88
600.7	263.88
600.909	265.88
601.118	266.88
601.327	275.88
601.536	284.88
601.745	283.88
601.953	265.88
602.162	285.88
602.371	274.88
602.58	274.88
602.789	264.88
602.997	280.88
603.206	267.88
603.415	274.88
603.623	286.88
603.832	270.88
604.041	256.88
604.249	269.88
604.458	256.88
604.666	256.88
604.875	253.88
605.084	260.88
605.292	271.88
605.501	269.88
605.709	266.88
605.918	278.88
606.126	269.88
606.334	270.88
606.543	251.88
606.751	260.88
606.96	238.88
607.168	280.88
607.376	275.88
607.585	271.88
607.793	260.88
608.001	258.88
608.21	250.88
608.418	239.88
608.626	253.88
608.834	256.88
609.043	251.88
609.251	260.88
609.459	257.88
609.667	263.88
609.875	237.88
610.083	250.88
610.291	266.88
610.499	244.88
610.707	254.88
610.916	259.88
611.124	253.88
611.332	262.88
611.54	266.88
611.748	277.88
611.955	258.88
612.163	254.88
612.371	262.88
612.579	258.88
612.787	246.88
612.995	259.88
613.203	252.88
613.411	238.88
613.618	257.88
613.826	254.88
614.034	242.88
614.242	248.88
614.449	257.88
614.657	249.88
614.865	239.88
615.072	265.88
615.28	283.88
615.488	257.88
615.695	253.88
615.903	241.88
616.111	254.88
616.318	257.88
616.526	268.88
616.733	253.88
616.941	258.88
617.148	251.88
617.356	244.88
617.563	246.88
617.771	240.88
617.978	254.88
618.185	255.88
618.393	253.88
618.6	238.88
618.807	260.88
619.015	240.88
619.222	235.88
619.429	253.88
619.637	238.88
619.844	244.88
620.051	238.88
620.258	258.88
620.466	239.88
620.673	234.88
620.88	232.88
621.087	242.88
621.294	227.88
621.501	249.88
621.708	241.88
621.915	238.88
622.122	224.88
622.329	230.88
622.536	239.88
622.743	234.88
622.95	234.88
623.157	236.88
623.364	217.88
623.571	237.88
623.778	239.88
623.985	241.88
624.192	224.88
624.399	230.88
624.606	223.88
624.812	248.88
625.019	224.88
625.226	224.88
625.433	225.88
625.639	217.88
625.846	220.88
626.053	223.88
626.259	219.88
626.466	222.88
626.673	216.88
626.879	217.88
627.086	228.88
627.293	224.88
627.499	215.88
627.706	210.88
627.912	221.88
628.119	206.88
628.325	209.88
628.532	217.88
628.738	217.88
628.945	212.88
629.151	190.88
629.357	205.88
629.564	205.88
629.77	226.88
629.976	198.88
630.183	213.88
630.389	215.88
630.595	220.88
630.802	201.88
631.008	196.88
631.214	203.88
631.42	201.88
631.627	207.88
631.833	213.88
632.039	196.88
632.245	206.88
632.451	207.88
632.657	200.88
632.863	216.88
633.069	198.88
633.275	201.88
633.481	200.88
633.688	191.88
633.893	180.88
634.099	193.88
634.305	192.88
634.511	208.88
634.717	197.88
634.923	196.88
635.129	190.88
635.335	197.88
635.541	194.88
635.747	196.88
635.952	192.88
636.158	184.88
636.364	190.88
636.57	210.88
636.775	189.88
636.981	196.88
637.187	180.88
637.392	183.88
637.598	181.88
637.804	194.88
638.009	189.88
638.215	188.88
638.421	188.88
638.626	186.88
638.832	176.88
639.037	182.88
639.243	191.88
639.448	161.88
639.654	184.88
639.859	184.88
640.065	194.88
640.27	185.88
640.475	174.88
640.681	185.88
640.886	177.88
641.091	168.88
641.297	194.88
641.502	178.88
641.707	170.88
641.913	178.88
642.118	189.88
642.323	185.88
642.528	176.88
642.733	180.88
642.939	165.88
643.144	166.88
643.349	171.88
643.554	176.88
643.759	184.88
643.964	182.88
644.169	177.88
644.374	194.88
644.579	185.88
644.784	170.88
644.989	190.88
645.194	173.88
645.399	168.88
645.604	170.88
645.809	177.88
646.014	162.88
646.219	182.88
646.423	180.88
646.628	165.88
646.833	164.88
647.038	173.88
647.243	201.88
647.447	170.88
647.652	191.88
647.857	161.88
648.062	184.88
648.266	177.88
648.471	174.88
648.676	188.88
648.88	162.88
649.085	177.88
649.289	184.88
649.494	198.88
649.698	194.88
649.903	184.88
650.107	176.88
650.312	165.88
650.516	169.88
650.721	161.88
650.925	163.88
651.13	154.88
651.334	158.88
651.539	153.88
651.743	148.88
651.947	151.88
652.152	158.88
652.356	160.88
652.56	163.88
652.764	156.88
652.969	150.88
653.173	157.88
653.377	138.88
653.581	135.88
653.785	147.88
653.99	152.88
654.194	133.88
654.398	150.88
654.602	132.88
654.806	139.88
655.01	142.88
655.214	144.88
655.418	163.88
655.622	145.88
655.826	139.88
656.03	145.88
656.234	145.88
656.438	144.88
656.642	154.88
656.846	145.88
657.049	137.88
657.253	142.88
657.457	122.88
657.661	135.88
657.865	140.88
658.068	127.88
658.272	124.88
658.476	108.88
658.68	118.88
658.883	120.88
659.087	113.88
659.291	110.88
659.494	95.88
659.698	111.88
659.901	87.88
660.105	97.88
660.309	100.88
660.512	100.88
660.716	100.88
660.919	104.88
661.123	103.88
661.326	101.88
661.53	81.88
661.733	94.88
661.936	107.88
662.14	91.88
662.343	90.88
662.546	85.88
662.75	84.88
662.953	84.88
663.156	89.88
663.36	98.88
663.563	98.88
663.766	87.88
663.969	96.88
664.173	69.88
664.376	80.88
664.579	78.88
664.782	96.88
664.985	86.88
665.188	86.88
665.391	92.88
665.594	88.88
665.797	87.88
666	81.88
666.203	88.88
666.406	90.88
666.609	93.88
666.812	89.88
667.015	80.88
667.218	88.88
667.421	92.88
667.624	92.88
667.827	94.88
668.03	83.88
668.232	85.88
668.435	82.88
668.638	98.88
668.841	87.88
669.043	79.88
669.246	80.88
669.449	86.88
669.651	74.88
669.854	82.88
670.057	75.88
670.259	72.88
670.462	74.88
670.665	78.88
670.867	101.88
671.07	78.88
671.272	72.88
671.475	82.88
671.677	93.88
671.88	79.88
672.082	71.88
672.284	84.88
672.487	89.88
672.689	87.88
672.892	90.88
