Data from 1973.PennyLincolnUp.Lamp.En5.5.200Scan.071719.P1.Changed Mount._HRD10591_15-45-19-853.txt Node
Date: Thu Jul 18 15:45:19 EDT 2019
User: cochatt
Spectrometer: HR+D1059
Trigger mode: 1
Integration Time (sec): 1.000000E-1
Scans to average: 1
Electric dark correction enabled: true
Nonlinearity correction enabled: false
Boxcar width: 0
XAxis mode: Wavelengths
Number of Pixels in Spectrum: 2048
>>>>>Begin Spectral Data<<<<<
223.165	-12.44
223.4	-12.44
223.635	-12.44
223.869	-15.44
224.104	-30.44
224.338	-20.44
224.573	-20.44
224.808	-22.44
225.042	2.56
225.277	-11.44
225.511	-8.44
225.746	5.56
225.98	5.56
226.215	9.56
226.449	14.56
226.683	41.56
226.918	29.56
227.152	32.56
227.387	28.56
227.621	45.56
227.856	55.56
228.09	45.56
228.324	55.56
228.559	58.56
228.793	56.56
229.027	98.56
229.262	104.56
229.496	115.56
229.73	131.56
229.964	150.56
230.199	122.56
230.433	111.56
230.667	103.56
230.901	110.56
231.136	122.56
231.37	115.56
231.604	115.56
231.838	101.56
232.072	106.56
232.306	123.56
232.541	107.56
232.775	124.56
233.009	135.56
233.243	114.56
233.477	107.56
233.711	113.56
233.945	124.56
234.179	121.56
234.413	117.56
234.647	115.56
234.881	125.56
235.115	109.56
235.349	116.56
235.583	119.56
235.817	119.56
236.051	135.56
236.285	118.56
236.519	130.56
236.753	123.56
236.987	156.56
237.221	158.56
237.455	224.56
237.689	177.56
237.922	136.56
238.156	139.56
238.39	131.56
238.624	126.56
238.858	147.56
239.091	127.56
239.325	134.56
239.559	139.56
239.793	126.56
240.027	141.56
240.26	147.56
240.494	160.56
240.728	152.56
240.961	165.56
241.195	135.56
241.429	147.56
241.662	131.56
241.896	134.56
242.13	149.56
242.363	129.56
242.597	136.56
242.83	139.56
243.064	143.56
243.298	131.56
243.531	141.56
243.765	151.56
243.998	146.56
244.232	147.56
244.465	150.56
244.699	150.56
244.932	165.56
245.166	161.56
245.399	144.56
245.633	164.56
245.866	139.56
246.099	161.56
246.333	157.56
246.566	146.56
246.8	153.56
247.033	161.56
247.266	153.56
247.5	178.56
247.733	179.56
247.966	184.56
248.2	179.56
248.433	181.56
248.666	177.56
248.899	190.56
249.133	202.56
249.366	226.56
249.599	203.56
249.832	189.56
250.066	163.56
250.299	195.56
250.532	160.56
250.765	185.56
250.998	223.56
251.231	226.56
251.465	208.56
251.698	214.56
251.931	199.56
252.164	185.56
252.397	203.56
252.63	207.56
252.863	216.56
253.096	197.56
253.329	223.56
253.562	227.56
253.795	222.56
254.028	219.56
254.261	220.56
254.494	212.56
254.727	246.56
254.96	284.56
255.193	246.56
255.426	249.56
255.659	233.56
255.892	243.56
256.124	233.56
256.357	232.56
256.59	218.56
256.823	227.56
257.056	222.56
257.289	205.56
257.521	223.56
257.754	212.56
257.987	221.56
258.22	215.56
258.452	227.56
258.685	202.56
258.918	225.56
259.151	218.56
259.383	226.56
259.616	231.56
259.849	226.56
260.081	237.56
260.314	241.56
260.547	250.56
260.779	265.56
261.012	238.56
261.244	233.56
261.477	227.56
261.71	241.56
261.942	217.56
262.175	231.56
262.407	230.56
262.64	246.56
262.872	227.56
263.105	239.56
263.337	229.56
263.57	238.56
263.802	234.56
264.035	239.56
264.267	222.56
264.499	227.56
264.732	240.56
264.964	217.56
265.197	243.56
265.429	238.56
265.661	221.56
265.894	232.56
266.126	225.56
266.358	237.56
266.591	235.56
266.823	242.56
267.055	243.56
267.287	233.56
267.52	243.56
267.752	247.56
267.984	244.56
268.216	247.56
268.448	258.56
268.681	255.56
268.913	257.56
269.145	264.56
269.377	295.56
269.609	312.56
269.841	272.56
270.073	285.56
270.306	309.56
270.538	336.56
270.77	323.56
271.002	308.56
271.234	313.56
271.466	297.56
271.698	326.56
271.93	328.56
272.162	329.56
272.394	321.56
272.626	322.56
272.858	327.56
273.09	306.56
273.322	298.56
273.553	293.56
273.785	286.56
274.017	289.56
274.249	279.56
274.481	291.56
274.713	281.56
274.945	279.56
275.176	305.56
275.408	277.56
275.64	295.56
275.872	260.56
276.104	275.56
276.335	285.56
276.567	286.56
276.799	288.56
277.031	320.56
277.262	335.56
277.494	325.56
277.726	329.56
277.957	316.56
278.189	318.56
278.421	306.56
278.652	298.56
278.884	306.56
279.115	282.56
279.347	303.56
279.579	283.56
279.81	306.56
280.042	301.56
280.273	303.56
280.505	305.56
280.736	297.56
280.968	307.56
281.199	300.56
281.431	299.56
281.662	291.56
281.894	297.56
282.125	300.56
282.356	326.56
282.588	326.56
282.819	320.56
283.051	303.56
283.282	319.56
283.513	320.56
283.745	301.56
283.976	294.56
284.207	303.56
284.439	318.56
284.67	301.56
284.901	332.56
285.132	322.56
285.364	303.56
285.595	322.56
285.826	299.56
286.057	328.56
286.288	327.56
286.52	310.56
286.751	321.56
286.982	310.56
287.213	309.56
287.444	325.56
287.675	321.56
287.906	317.56
288.138	333.56
288.369	345.56
288.6	341.56
288.831	342.56
289.062	331.56
289.293	337.56
289.524	334.56
289.755	318.56
289.986	342.56
290.217	330.56
290.448	314.56
290.679	327.56
290.91	310.56
291.141	329.56
291.371	330.56
291.602	353.56
291.833	337.56
292.064	360.56
292.295	315.56
292.526	335.56
292.757	333.56
292.987	317.56
293.218	322.56
293.449	334.56
293.68	334.56
293.91	330.56
294.141	330.56
294.372	321.56
294.603	305.56
294.833	324.56
295.064	336.56
295.295	337.56
295.525	323.56
295.756	319.56
295.987	342.56
296.217	357.56
296.448	340.56
296.679	362.56
296.909	346.56
297.14	352.56
297.37	355.56
297.601	337.56
297.831	330.56
298.062	342.56
298.292	346.56
298.523	339.56
298.753	338.56
298.984	354.56
299.214	345.56
299.445	356.56
299.675	354.56
299.905	358.56
300.136	364.56
300.366	381.56
300.597	364.56
300.827	368.56
301.057	359.56
301.288	364.56
301.518	379.56
301.748	379.56
301.979	375.56
302.209	371.56
302.439	374.56
302.669	371.56
302.9	362.56
303.13	391.56
303.36	372.56
303.59	390.56
303.82	383.56
304.051	391.56
304.281	365.56
304.511	361.56
304.741	358.56
304.971	385.56
305.201	383.56
305.431	345.56
305.661	361.56
305.891	365.56
306.121	359.56
306.352	365.56
306.582	380.56
306.812	375.56
307.042	372.56
307.272	351.56
307.502	375.56
307.731	358.56
307.961	361.56
308.191	379.56
308.421	381.56
308.651	362.56
308.881	399.56
309.111	389.56
309.341	380.56
309.571	386.56
309.8	393.56
310.03	385.56
310.26	399.56
310.49	393.56
310.72	399.56
310.949	384.56
311.179	411.56
311.409	422.56
311.639	424.56
311.868	417.56
312.098	409.56
312.328	403.56
312.557	417.56
312.787	403.56
313.017	405.56
313.246	397.56
313.476	421.56
313.706	423.56
313.935	389.56
314.165	426.56
314.394	434.56
314.624	420.56
314.853	416.56
315.083	397.56
315.312	416.56
315.542	403.56
315.771	419.56
316.001	426.56
316.23	408.56
316.46	392.56
316.689	428.56
316.919	402.56
317.148	412.56
317.377	429.56
317.607	394.56
317.836	422.56
318.065	407.56
318.295	407.56
318.524	398.56
318.753	388.56
318.983	392.56
319.212	404.56
319.441	410.56
319.67	426.56
319.9	422.56
320.129	426.56
320.358	425.56
320.587	397.56
320.816	432.56
321.046	439.56
321.275	426.56
321.504	425.56
321.733	424.56
321.962	440.56
322.191	434.56
322.42	436.56
322.649	460.56
322.878	441.56
323.108	459.56
323.337	474.56
323.566	482.56
323.795	505.56
324.024	509.56
324.253	607.56
324.482	776.56
324.71	1141.56
324.939	1621.56
325.168	1400.56
325.397	793.56
325.626	602.56
325.855	511.56
326.084	504.56
326.313	491.56
326.542	493.56
326.77	532.56
326.999	579.56
327.228	739.56
327.457	1045.56
327.686	1254.56
327.914	860.56
328.143	626.56
328.372	592.56
328.6	543.56
328.829	543.56
329.058	557.56
329.287	558.56
329.515	520.56
329.744	517.56
329.972	512.56
330.201	507.56
330.43	559.56
330.658	564.56
330.887	578.56
331.115	571.56
331.344	524.56
331.572	495.56
331.801	515.56
332.03	521.56
332.258	492.56
332.486	524.56
332.715	494.56
332.943	497.56
333.172	503.56
333.4	516.56
333.629	520.56
333.857	542.56
334.085	538.56
334.314	563.56
334.542	558.56
334.771	564.56
334.999	552.56
335.227	535.56
335.455	520.56
335.684	499.56
335.912	504.56
336.14	489.56
336.369	489.56
336.597	503.56
336.825	485.56
337.053	490.56
337.281	492.56
337.51	499.56
337.738	489.56
337.966	484.56
338.194	498.56
338.422	477.56
338.65	479.56
338.878	459.56
339.106	489.56
339.334	477.56
339.562	471.56
339.79	454.56
340.018	455.56
340.246	461.56
340.474	466.56
340.702	455.56
340.93	466.56
341.158	463.56
341.386	471.56
341.614	478.56
341.842	486.56
342.07	465.56
342.298	441.56
342.526	441.56
342.754	456.56
342.981	462.56
343.209	458.56
343.437	466.56
343.665	472.56
343.893	485.56
344.12	488.56
344.348	509.56
344.576	480.56
344.804	490.56
345.031	479.56
345.259	486.56
345.487	468.56
345.714	465.56
345.942	441.56
346.17	474.56
346.397	451.56
346.625	451.56
346.853	435.56
347.08	438.56
347.308	441.56
347.535	429.56
347.763	453.56
347.99	467.56
348.218	469.56
348.445	454.56
348.673	434.56
348.9	433.56
349.128	445.56
349.355	429.56
349.583	440.56
349.81	425.56
350.037	437.56
350.265	428.56
350.492	429.56
350.72	461.56
350.947	446.56
351.174	457.56
351.402	445.56
351.629	422.56
351.856	439.56
352.083	453.56
352.311	461.56
352.538	437.56
352.765	437.56
352.992	451.56
353.22	455.56
353.447	434.56
353.674	445.56
353.901	439.56
354.128	438.56
354.355	402.56
354.583	421.56
354.81	424.56
355.037	410.56
355.264	423.56
355.491	417.56
355.718	399.56
355.945	428.56
356.172	419.56
356.399	409.56
356.626	429.56
356.853	421.56
357.08	414.56
357.307	410.56
357.534	408.56
357.761	429.56
357.988	412.56
358.215	395.56
358.441	412.56
358.668	429.56
358.895	431.56
359.122	419.56
359.349	426.56
359.576	428.56
359.802	433.56
360.029	445.56
360.256	452.56
360.483	451.56
360.709	445.56
360.936	444.56
361.163	446.56
361.39	442.56
361.616	437.56
361.843	438.56
362.07	421.56
362.296	449.56
362.523	439.56
362.749	436.56
362.976	435.56
363.203	453.56
363.429	403.56
363.656	434.56
363.882	446.56
364.109	426.56
364.335	417.56
364.562	418.56
364.788	429.56
365.015	428.56
365.241	428.56
365.468	431.56
365.694	447.56
365.92	408.56
366.147	421.56
366.373	417.56
366.599	427.56
366.826	415.56
367.052	413.56
367.278	399.56
367.505	439.56
367.731	412.56
367.957	411.56
368.184	433.56
368.41	426.56
368.636	424.56
368.862	436.56
369.089	424.56
369.315	430.56
369.541	435.56
369.767	438.56
369.993	421.56
370.219	439.56
370.445	445.56
370.672	425.56
370.898	415.56
371.124	413.56
371.35	434.56
371.576	447.56
371.802	452.56
372.028	429.56
372.254	438.56
372.48	442.56
372.706	424.56
372.932	431.56
373.158	430.56
373.384	439.56
373.61	433.56
373.835	431.56
374.061	438.56
374.287	435.56
374.513	436.56
374.739	451.56
374.965	451.56
375.191	478.56
375.416	457.56
375.642	447.56
375.868	446.56
376.094	451.56
376.319	411.56
376.545	453.56
376.771	453.56
376.997	450.56
377.222	435.56
377.448	461.56
377.674	438.56
377.899	417.56
378.125	435.56
378.35	438.56
378.576	429.56
378.802	430.56
379.027	443.56
379.253	451.56
379.478	427.56
379.704	406.56
379.929	435.56
380.155	427.56
380.38	435.56
380.606	441.56
380.831	436.56
381.057	435.56
381.282	426.56
381.507	447.56
381.733	440.56
381.958	444.56
382.184	430.56
382.409	424.56
382.634	443.56
382.86	439.56
383.085	454.56
383.31	456.56
383.535	475.56
383.761	456.56
383.986	461.56
384.211	451.56
384.436	490.56
384.662	476.56
384.887	478.56
385.112	486.56
385.337	471.56
385.562	482.56
385.787	467.56
386.013	503.56
386.238	489.56
386.463	498.56
386.688	504.56
386.913	490.56
387.138	498.56
387.363	499.56
387.588	506.56
387.813	507.56
388.038	492.56
388.263	491.56
388.488	470.56
388.713	482.56
388.938	488.56
389.163	486.56
389.387	502.56
389.612	503.56
389.837	484.56
390.062	485.56
390.287	492.56
390.512	468.56
390.736	485.56
390.961	507.56
391.186	507.56
391.411	498.56
391.636	519.56
391.86	540.56
392.085	505.56
392.31	502.56
392.534	524.56
392.759	511.56
392.984	503.56
393.208	498.56
393.433	517.56
393.658	490.56
393.882	518.56
394.107	499.56
394.331	491.56
394.556	502.56
394.78	489.56
395.005	489.56
395.229	515.56
395.454	525.56
395.678	511.56
395.903	524.56
396.127	568.56
396.352	543.56
396.576	527.56
396.801	508.56
397.025	518.56
397.249	532.56
397.474	533.56
397.698	517.56
397.922	546.56
398.147	557.56
398.371	567.56
398.595	568.56
398.82	570.56
399.044	601.56
399.268	631.56
399.492	693.56
399.717	710.56
399.941	746.56
400.165	734.56
400.389	715.56
400.613	682.56
400.837	615.56
401.062	596.56
401.286	592.56
401.51	572.56
401.734	566.56
401.958	583.56
402.182	587.56
402.406	598.56
402.63	587.56
402.854	596.56
403.078	593.56
403.302	609.56
403.526	612.56
403.75	636.56
403.974	620.56
404.198	613.56
404.422	626.56
404.645	613.56
404.869	620.56
405.093	645.56
405.317	667.56
405.541	715.56
405.765	680.56
405.988	614.56
406.212	647.56
406.436	653.56
406.66	664.56
406.883	637.56
407.107	684.56
407.331	735.56
407.555	791.56
407.778	774.56
408.002	704.56
408.226	674.56
408.449	662.56
408.673	665.56
408.896	668.56
409.12	698.56
409.344	664.56
409.567	634.56
409.791	605.56
410.014	604.56
410.238	615.56
410.461	606.56
410.685	623.56
410.908	626.56
411.132	633.56
411.355	667.56
411.578	649.56
411.802	604.56
412.025	594.56
412.249	596.56
412.472	609.56
412.695	669.56
412.919	656.56
413.142	603.56
413.365	590.56
413.589	591.56
413.812	574.56
414.035	579.56
414.258	559.56
414.482	546.56
414.705	579.56
414.928	572.56
415.151	566.56
415.374	558.56
415.597	564.56
415.821	563.56
416.044	571.56
416.267	556.56
416.49	569.56
416.713	580.56
416.936	563.56
417.159	571.56
417.382	562.56
417.605	569.56
417.828	563.56
418.051	561.56
418.274	575.56
418.497	570.56
418.72	586.56
418.943	590.56
419.166	607.56
419.389	622.56
419.611	587.56
419.834	598.56
420.057	618.56
420.28	592.56
420.503	586.56
420.726	568.56
420.948	608.56
421.171	616.56
421.394	664.56
421.617	609.56
421.839	580.56
422.062	601.56
422.285	596.56
422.507	619.56
422.73	713.56
422.953	710.56
423.175	641.56
423.398	614.56
423.621	619.56
423.843	642.56
424.066	636.56
424.288	635.56
424.511	649.56
424.733	687.56
424.956	738.56
425.178	726.56
425.401	724.56
425.623	747.56
425.846	656.56
426.068	613.56
426.291	606.56
426.513	586.56
426.735	614.56
426.958	647.56
427.18	712.56
427.402	825.56
427.625	920.56
427.847	770.56
428.069	682.56
428.292	618.56
428.514	590.56
428.736	573.56
428.958	569.56
429.181	569.56
429.403	549.56
429.625	556.56
429.847	599.56
430.069	639.56
430.292	649.56
430.514	567.56
430.736	572.56
430.958	561.56
431.18	556.56
431.402	542.56
431.624	516.56
431.846	525.56
432.068	539.56
432.29	548.56
432.512	538.56
432.734	547.56
432.956	534.56
433.178	551.56
433.4	542.56
433.622	532.56
433.844	548.56
434.066	548.56
434.287	536.56
434.509	557.56
434.731	570.56
434.953	579.56
435.175	565.56
435.397	598.56
435.618	619.56
435.84	636.56
436.062	687.56
436.284	755.56
436.505	648.56
436.727	617.56
436.949	582.56
437.17	555.56
437.392	567.56
437.614	582.56
437.835	586.56
438.057	662.56
438.278	734.56
438.5	765.56
438.721	806.56
438.943	791.56
439.165	634.56
439.386	607.56
439.608	589.56
439.829	596.56
440.05	619.56
440.272	641.56
440.493	603.56
440.715	593.56
440.936	584.56
441.158	575.56
441.379	572.56
441.6	585.56
441.822	624.56
442.043	642.56
442.264	691.56
442.486	721.56
442.707	653.56
442.928	634.56
443.149	632.56
443.371	636.56
443.592	656.56
443.813	742.56
444.034	790.56
444.255	705.56
444.476	657.56
444.698	641.56
444.919	654.56
445.14	701.56
445.361	677.56
445.582	631.56
445.803	678.56
446.024	757.56
446.245	760.56
446.466	734.56
446.687	637.56
446.908	599.56
447.129	574.56
447.35	554.56
447.571	545.56
447.792	522.56
448.013	549.56
448.234	558.56
448.455	617.56
448.675	676.56
448.896	783.56
449.117	686.56
449.338	657.56
449.559	727.56
449.779	803.56
450	675.56
450.221	591.56
450.442	565.56
450.662	544.56
450.883	522.56
451.104	523.56
451.324	524.56
451.545	526.56
451.766	498.56
451.986	483.56
452.207	469.56
452.428	495.56
452.648	488.56
452.869	498.56
453.089	499.56
453.31	510.56
453.53	509.56
453.751	515.56
453.971	489.56
454.192	504.56
454.412	493.56
454.633	474.56
454.853	490.56
455.073	463.56
455.294	489.56
455.514	541.56
455.734	550.56
455.955	493.56
456.175	450.56
456.395	465.56
456.616	449.56
456.836	475.56
457.056	468.56
457.276	462.56
457.497	468.56
457.717	466.56
457.937	462.56
458.157	476.56
458.377	481.56
458.598	497.56
458.818	564.56
459.038	593.56
459.258	645.56
459.478	553.56
459.698	553.56
459.918	535.56
460.138	552.56
460.358	559.56
460.578	563.56
460.798	579.56
461.018	554.56
461.238	581.56
461.458	562.56
461.678	562.56
461.898	550.56
462.118	571.56
462.338	574.56
462.558	620.56
462.777	605.56
462.997	631.56
463.217	669.56
463.437	652.56
463.657	661.56
463.876	625.56
464.096	638.56
464.316	641.56
464.536	621.56
464.755	614.56
464.975	610.56
465.195	634.56
465.414	653.56
465.634	593.56
465.854	579.56
466.073	540.56
466.293	534.56
466.512	517.56
466.732	526.56
466.951	509.56
467.171	510.56
467.391	539.56
467.61	510.56
467.829	527.56
468.049	525.56
468.268	502.56
468.488	508.56
468.707	489.56
468.927	523.56
469.146	503.56
469.365	499.56
469.585	485.56
469.804	502.56
470.023	498.56
470.243	509.56
470.462	521.56
470.681	521.56
470.901	547.56
471.12	503.56
471.339	525.56
471.558	497.56
471.777	524.56
471.997	502.56
472.216	520.56
472.435	537.56
472.654	501.56
472.873	497.56
473.092	512.56
473.311	515.56
473.53	489.56
473.749	522.56
473.968	545.56
474.187	635.56
474.406	648.56
474.625	559.56
474.844	506.56
475.063	523.56
475.282	514.56
475.501	501.56
475.72	518.56
475.939	506.56
476.158	532.56
476.377	550.56
476.596	505.56
476.814	535.56
477.033	521.56
477.252	533.56
477.471	541.56
477.69	565.56
477.908	558.56
478.127	555.56
478.346	573.56
478.564	590.56
478.783	589.56
479.002	592.56
479.22	613.56
479.439	614.56
479.658	618.56
479.876	616.56
480.095	638.56
480.313	647.56
480.532	662.56
480.751	651.56
480.969	636.56
481.188	669.56
481.406	683.56
481.624	630.56
481.843	612.56
482.061	602.56
482.28	566.56
482.498	600.56
482.717	580.56
482.935	582.56
483.153	586.56
483.372	587.56
483.59	569.56
483.808	574.56
484.027	585.56
484.245	607.56
484.463	580.56
484.681	619.56
484.9	612.56
485.118	607.56
485.336	595.56
485.554	609.56
485.772	619.56
485.99	612.56
486.209	635.56
486.427	617.56
486.645	619.56
486.863	634.56
487.081	639.56
487.299	611.56
487.517	629.56
487.735	625.56
487.953	629.56
488.171	634.56
488.389	634.56
488.607	618.56
488.825	613.56
489.043	643.56
489.261	629.56
489.479	623.56
489.696	635.56
489.914	657.56
490.132	654.56
490.35	649.56
490.568	687.56
490.786	681.56
491.003	706.56
491.221	685.56
491.439	695.56
491.657	698.56
491.874	706.56
492.092	701.56
492.31	741.56
492.527	729.56
492.745	709.56
492.963	727.56
493.18	718.56
493.398	743.56
493.615	748.56
493.833	719.56
494.05	717.56
494.268	744.56
494.485	722.56
494.703	724.56
494.92	739.56
495.138	743.56
495.355	748.56
495.573	736.56
495.79	714.56
496.008	726.56
496.225	738.56
496.442	763.56
496.66	747.56
496.877	766.56
497.094	760.56
497.312	766.56
497.529	795.56
497.746	797.56
497.963	805.56
498.181	852.56
498.398	841.56
498.615	866.56
498.832	890.56
499.049	918.56
499.267	969.56
499.484	1020.56
499.701	1059.56
499.918	1112.56
500.135	1201.56
500.352	1276.56
500.569	1315.56
500.786	1295.56
501.003	1269.56
501.22	1229.56
501.437	1146.56
501.654	1103.56
501.871	1044.56
502.088	989.56
502.305	935.56
502.522	938.56
502.739	886.56
502.956	811.56
503.172	843.56
503.389	791.56
503.606	802.56
503.823	788.56
504.04	750.56
504.256	778.56
504.473	794.56
504.69	784.56
504.907	768.56
505.123	768.56
505.34	733.56
505.557	726.56
505.773	728.56
505.99	729.56
506.207	690.56
506.423	701.56
506.64	679.56
506.856	689.56
507.073	695.56
507.289	682.56
507.506	665.56
507.722	650.56
507.939	673.56
508.155	663.56
508.372	641.56
508.588	641.56
508.805	657.56
509.021	649.56
509.238	672.56
509.454	661.56
509.67	665.56
509.887	653.56
510.103	657.56
510.319	652.56
510.536	677.56
510.752	965.56
510.968	829.56
511.184	636.56
511.401	609.56
511.617	625.56
511.833	630.56
512.049	603.56
512.265	605.56
512.481	598.56
512.698	603.56
512.914	597.56
513.13	592.56
513.346	599.56
513.562	618.56
513.778	614.56
513.994	616.56
514.21	599.56
514.426	633.56
514.642	665.56
514.858	666.56
515.074	685.56
515.29	755.56
515.506	1027.56
515.721	877.56
515.937	671.56
516.153	645.56
516.369	651.56
516.585	642.56
516.801	650.56
517.016	676.56
517.232	686.56
517.448	717.56
517.664	692.56
517.879	701.56
518.095	694.56
518.311	697.56
518.527	670.56
518.742	669.56
518.958	653.56
519.173	630.56
519.389	635.56
519.605	613.56
519.82	606.56
520.036	609.56
520.251	625.56
520.467	634.56
520.682	621.56
520.898	626.56
521.113	647.56
521.329	690.56
521.544	665.56
521.76	812.56
521.975	1192.56
522.19	1144.56
522.406	770.56
522.621	641.56
522.836	629.56
523.052	577.56
523.267	566.56
523.482	572.56
523.698	547.56
523.913	563.56
524.128	568.56
524.343	567.56
524.559	534.56
524.774	535.56
524.989	541.56
525.204	555.56
525.419	543.56
525.634	530.56
525.849	529.56
526.064	521.56
526.28	532.56
526.495	529.56
526.71	493.56
526.925	506.56
527.14	495.56
527.355	491.56
527.57	522.56
527.785	527.56
527.999	499.56
528.214	513.56
528.429	517.56
528.644	514.56
528.859	516.56
529.074	521.56
529.289	548.56
529.503	592.56
529.718	556.56
529.933	515.56
530.148	492.56
530.363	513.56
530.577	506.56
530.792	522.56
531.007	483.56
531.221	505.56
531.436	494.56
531.651	501.56
531.865	520.56
532.08	503.56
532.295	492.56
532.509	455.56
532.724	472.56
532.938	516.56
533.153	492.56
533.367	493.56
533.582	490.56
533.796	493.56
534.011	495.56
534.225	484.56
534.44	484.56
534.654	504.56
534.868	487.56
535.083	483.56
535.297	479.56
535.511	493.56
535.726	497.56
535.94	523.56
536.154	483.56
536.369	468.56
536.583	470.56
536.797	461.56
537.011	469.56
537.225	489.56
537.44	474.56
537.654	482.56
537.868	495.56
538.082	473.56
538.296	465.56
538.51	450.56
538.724	466.56
538.938	483.56
539.153	481.56
539.367	499.56
539.581	490.56
539.795	489.56
540.009	457.56
540.222	469.56
540.436	460.56
540.65	490.56
540.864	466.56
541.078	484.56
541.292	499.56
541.506	490.56
541.72	476.56
541.934	477.56
542.147	482.56
542.361	493.56
542.575	484.56
542.789	466.56
543.002	469.56
543.216	460.56
543.43	484.56
543.644	456.56
543.857	461.56
544.071	499.56
544.285	473.56
544.498	468.56
544.712	463.56
544.925	482.56
545.139	484.56
545.352	482.56
545.566	476.56
545.779	467.56
545.993	474.56
546.206	475.56
546.42	482.56
546.633	481.56
546.847	461.56
547.06	463.56
547.274	473.56
547.487	474.56
547.7	449.56
547.914	472.56
548.127	460.56
548.34	483.56
548.554	477.56
548.767	458.56
548.98	469.56
549.193	448.56
549.407	471.56
549.62	476.56
549.833	469.56
550.046	474.56
550.259	478.56
550.473	477.56
550.686	453.56
550.899	447.56
551.112	462.56
551.325	451.56
551.538	454.56
551.751	475.56
551.964	463.56
552.177	459.56
552.39	470.56
552.603	475.56
552.816	493.56
553.029	494.56
553.242	488.56
553.455	491.56
553.667	506.56
553.88	489.56
554.093	472.56
554.306	484.56
554.519	466.56
554.732	466.56
554.944	460.56
555.157	457.56
555.37	464.56
555.583	454.56
555.795	432.56
556.008	420.56
556.221	428.56
556.433	426.56
556.646	446.56
556.859	443.56
557.071	423.56
557.284	407.56
557.496	421.56
557.709	417.56
557.921	425.56
558.134	427.56
558.346	431.56
558.559	412.56
558.771	424.56
558.984	412.56
559.196	429.56
559.409	412.56
559.621	411.56
559.833	415.56
560.046	411.56
560.258	407.56
560.47	402.56
560.683	396.56
560.895	399.56
561.107	433.56
561.32	408.56
561.532	409.56
561.744	414.56
561.956	410.56
562.168	413.56
562.381	413.56
562.593	430.56
562.805	415.56
563.017	407.56
563.229	423.56
563.441	420.56
563.653	428.56
563.865	418.56
564.077	412.56
564.289	411.56
564.501	419.56
564.713	432.56
564.925	434.56
565.137	448.56
565.349	453.56
565.561	467.56
565.773	479.56
565.985	483.56
566.197	507.56
566.408	535.56
566.62	534.56
566.832	555.56
567.044	558.56
567.255	576.56
567.467	579.56
567.679	597.56
567.891	636.56
568.102	635.56
568.314	613.56
568.526	571.56
568.737	532.56
568.949	494.56
569.161	488.56
569.372	476.56
569.584	481.56
569.795	467.56
570.007	442.56
570.218	447.56
570.43	462.56
570.641	418.56
570.853	425.56
571.064	425.56
571.276	410.56
571.487	419.56
571.698	388.56
571.91	417.56
572.121	387.56
572.333	393.56
572.544	388.56
572.755	379.56
572.966	385.56
573.178	378.56
573.389	381.56
573.6	383.56
573.811	379.56
574.023	377.56
574.234	364.56
574.445	346.56
574.656	348.56
574.867	366.56
575.078	377.56
575.289	360.56
575.501	377.56
575.712	350.56
575.923	349.56
576.134	355.56
576.345	338.56
576.556	349.56
576.767	341.56
576.978	331.56
577.188	339.56
577.399	354.56
577.61	349.56
577.821	338.56
578.032	334.56
578.243	380.56
578.454	473.56
578.665	389.56
578.875	332.56
579.086	335.56
579.297	326.56
579.508	335.56
579.718	323.56
579.929	348.56
580.14	332.56
580.35	320.56
580.561	335.56
580.772	321.56
580.982	333.56
581.193	339.56
581.403	325.56
581.614	319.56
581.825	329.56
582.035	322.56
582.246	327.56
582.456	313.56
582.667	320.56
582.877	307.56
583.087	323.56
583.298	333.56
583.508	313.56
583.719	319.56
583.929	316.56
584.139	301.56
584.35	340.56
584.56	316.56
584.77	321.56
584.981	299.56
585.191	324.56
585.401	311.56
585.611	294.56
585.821	324.56
586.032	312.56
586.242	319.56
586.452	321.56
586.662	333.56
586.872	306.56
587.082	319.56
587.292	321.56
587.502	327.56
587.713	293.56
587.923	317.56
588.133	296.56
588.343	321.56
588.553	308.56
588.762	303.56
588.972	310.56
589.182	305.56
589.392	309.56
589.602	332.56
589.812	303.56
590.022	328.56
590.232	307.56
590.441	315.56
590.651	308.56
590.861	325.56
591.071	329.56
591.281	308.56
591.49	321.56
591.7	336.56
591.91	333.56
592.119	307.56
592.329	325.56
592.539	343.56
592.748	353.56
592.958	347.56
593.167	356.56
593.377	350.56
593.587	345.56
593.796	366.56
594.006	351.56
594.215	375.56
594.424	371.56
594.634	350.56
594.843	335.56
595.053	327.56
595.262	328.56
595.472	328.56
595.681	306.56
595.89	322.56
596.1	322.56
596.309	292.56
596.518	306.56
596.727	326.56
596.937	319.56
597.146	293.56
597.355	300.56
597.564	306.56
597.774	287.56
597.983	289.56
598.192	297.56
598.401	285.56
598.61	284.56
598.819	285.56
599.028	301.56
599.237	276.56
599.446	285.56
599.655	261.56
599.864	273.56
600.073	279.56
600.282	276.56
600.491	263.56
600.7	271.56
600.909	281.56
601.118	285.56
601.327	264.56
601.536	257.56
601.745	260.56
601.953	278.56
602.162	262.56
602.371	279.56
602.58	255.56
602.789	265.56
602.997	265.56
603.206	276.56
603.415	277.56
603.623	249.56
603.832	275.56
604.041	276.56
604.249	275.56
604.458	249.56
604.666	250.56
604.875	253.56
605.084	258.56
605.292	270.56
605.501	252.56
605.709	267.56
605.918	271.56
606.126	254.56
606.334	263.56
606.543	245.56
606.751	245.56
606.96	250.56
607.168	254.56
607.376	271.56
607.585	266.56
607.793	252.56
608.001	262.56
608.21	255.56
608.418	262.56
608.626	265.56
608.834	281.56
609.043	250.56
609.251	248.56
609.459	261.56
609.667	247.56
609.875	258.56
610.083	260.56
610.291	263.56
610.499	271.56
610.707	247.56
610.916	265.56
611.124	264.56
611.332	264.56
611.54	267.56
611.748	245.56
611.955	243.56
612.163	254.56
612.371	272.56
612.579	257.56
612.787	267.56
612.995	257.56
613.203	267.56
613.411	258.56
613.618	260.56
613.826	253.56
614.034	274.56
614.242	259.56
614.449	239.56
614.657	251.56
614.865	235.56
615.072	246.56
615.28	269.56
615.488	247.56
615.695	252.56
615.903	262.56
616.111	236.56
616.318	265.56
616.526	245.56
616.733	260.56
616.941	237.56
617.148	252.56
617.356	243.56
617.563	260.56
617.771	255.56
617.978	235.56
618.185	242.56
618.393	237.56
618.6	257.56
618.807	253.56
619.015	237.56
619.222	245.56
619.429	233.56
619.637	223.56
619.844	238.56
620.051	245.56
620.258	242.56
620.466	243.56
620.673	221.56
620.88	233.56
621.087	253.56
621.294	250.56
621.501	224.56
621.708	261.56
621.915	238.56
622.122	236.56
622.329	222.56
622.536	224.56
622.743	223.56
622.95	233.56
623.157	224.56
623.364	247.56
623.571	225.56
623.778	216.56
623.985	233.56
624.192	239.56
624.399	226.56
624.606	224.56
624.812	234.56
625.019	222.56
625.226	225.56
625.433	241.56
625.639	230.56
625.846	213.56
626.053	217.56
626.259	222.56
626.466	216.56
626.673	216.56
626.879	211.56
627.086	218.56
627.293	220.56
627.499	213.56
627.706	233.56
627.912	201.56
628.119	216.56
628.325	210.56
628.532	219.56
628.738	217.56
628.945	205.56
629.151	211.56
629.357	204.56
629.564	217.56
629.77	208.56
629.976	214.56
630.183	200.56
630.389	203.56
630.595	200.56
630.802	211.56
631.008	207.56
631.214	209.56
631.42	206.56
631.627	215.56
631.833	205.56
632.039	210.56
632.245	184.56
632.451	210.56
632.657	211.56
632.863	204.56
633.069	190.56
633.275	195.56
633.481	214.56
633.688	193.56
633.893	181.56
634.099	198.56
634.305	181.56
634.511	202.56
634.717	193.56
634.923	205.56
635.129	219.56
635.335	193.56
635.541	198.56
635.747	201.56
635.952	181.56
636.158	189.56
636.364	204.56
636.57	198.56
636.775	195.56
636.981	194.56
637.187	190.56
637.392	186.56
637.598	172.56
637.804	193.56
638.009	190.56
638.215	198.56
638.421	194.56
638.626	176.56
638.832	181.56
639.037	180.56
639.243	180.56
639.448	173.56
639.654	187.56
639.859	173.56
640.065	169.56
640.27	178.56
640.475	180.56
640.681	181.56
640.886	180.56
641.091	185.56
641.297	183.56
641.502	204.56
641.707	202.56
641.913	191.56
642.118	187.56
642.323	182.56
642.528	179.56
642.733	174.56
642.939	178.56
643.144	164.56
643.349	177.56
643.554	163.56
643.759	181.56
643.964	167.56
644.169	193.56
644.374	181.56
644.579	172.56
644.784	185.56
644.989	190.56
645.194	171.56
645.399	181.56
645.604	166.56
645.809	181.56
646.014	166.56
646.219	162.56
646.423	175.56
646.628	180.56
646.833	166.56
647.038	181.56
647.243	179.56
647.447	168.56
647.652	179.56
647.857	173.56
648.062	188.56
648.266	161.56
648.471	185.56
648.676	193.56
648.88	182.56
649.085	173.56
649.289	180.56
649.494	196.56
649.698	213.56
649.903	198.56
650.107	186.56
650.312	157.56
650.516	176.56
650.721	156.56
650.925	148.56
651.13	165.56
651.334	155.56
651.539	151.56
651.743	154.56
651.947	154.56
652.152	157.56
652.356	162.56
652.56	156.56
652.764	122.56
652.969	144.56
653.173	155.56
653.377	131.56
653.581	155.56
653.785	160.56
653.99	143.56
654.194	143.56
654.398	136.56
654.602	133.56
654.806	151.56
655.01	142.56
655.214	141.56
655.418	151.56
655.622	142.56
655.826	137.56
656.03	143.56
656.234	152.56
656.438	130.56
656.642	148.56
656.846	137.56
657.049	150.56
657.253	126.56
657.457	120.56
657.661	127.56
657.865	121.56
658.068	117.56
658.272	123.56
658.476	128.56
658.68	116.56
658.883	121.56
659.087	101.56
659.291	110.56
659.494	113.56
659.698	93.56
659.901	113.56
660.105	92.56
660.309	97.56
660.512	88.56
660.716	107.56
660.919	74.56
661.123	100.56
661.326	88.56
661.53	99.56
661.733	88.56
661.936	93.56
662.14	91.56
662.343	96.56
662.546	85.56
662.75	91.56
662.953	83.56
663.156	84.56
663.36	70.56
663.563	85.56
663.766	82.56
663.969	89.56
664.173	87.56
664.376	83.56
664.579	91.56
664.782	83.56
664.985	83.56
665.188	79.56
665.391	93.56
665.594	93.56
665.797	80.56
666	88.56
666.203	74.56
666.406	79.56
666.609	69.56
666.812	89.56
667.015	84.56
667.218	88.56
667.421	68.56
667.624	76.56
667.827	87.56
668.03	91.56
668.232	84.56
668.435	86.56
668.638	77.56
668.841	76.56
669.043	69.56
669.246	76.56
669.449	84.56
669.651	87.56
669.854	79.56
670.057	79.56
670.259	86.56
670.462	89.56
670.665	78.56
670.867	78.56
671.07	98.56
671.272	83.56
671.475	91.56
671.677	98.56
671.88	83.56
672.082	91.56
672.284	78.56
672.487	99.56
672.689	85.56
672.892	89.56
