Data from 1973.PennyLincolnUp.Lamp.En5.5.200Scan.071719.P1.Changed Mount._HRD10591_15-45-58-852.txt Node
Date: Thu Jul 18 15:45:58 EDT 2019
User: cochatt
Spectrometer: HR+D1059
Trigger mode: 1
Integration Time (sec): 1.000000E-1
Scans to average: 1
Electric dark correction enabled: true
Nonlinearity correction enabled: false
Boxcar width: 0
XAxis mode: Wavelengths
Number of Pixels in Spectrum: 2048
>>>>>Begin Spectral Data<<<<<
223.165	-12.19
223.4	-12.19
223.635	-12.19
223.869	-12.19
224.104	-16.19
224.338	-32.19
224.573	-33.19
224.808	-15.19
225.042	-17.19
225.277	2.81
225.511	-0.19
225.746	-1.19
225.98	14.81
226.215	21.81
226.449	11.81
226.683	34.81
226.918	24.81
227.152	28.81
227.387	32.81
227.621	42.81
227.856	34.81
228.09	31.81
228.324	40.81
228.559	67.81
228.793	75.81
229.027	98.81
229.262	71.81
229.496	93.81
229.73	127.81
229.964	147.81
230.199	112.81
230.433	108.81
230.667	100.81
230.901	114.81
231.136	98.81
231.37	94.81
231.604	115.81
231.838	101.81
232.072	110.81
232.306	85.81
232.541	97.81
232.775	117.81
233.009	110.81
233.243	115.81
233.477	114.81
233.711	111.81
233.945	103.81
234.179	122.81
234.413	126.81
234.647	108.81
234.881	111.81
235.115	122.81
235.349	118.81
235.583	118.81
235.817	117.81
236.051	112.81
236.285	128.81
236.519	128.81
236.753	125.81
236.987	133.81
237.221	149.81
237.455	198.81
237.689	165.81
237.922	131.81
238.156	131.81
238.39	137.81
238.624	110.81
238.858	113.81
239.091	118.81
239.325	123.81
239.559	118.81
239.793	102.81
240.027	118.81
240.26	137.81
240.494	165.81
240.728	136.81
240.961	129.81
241.195	144.81
241.429	119.81
241.662	125.81
241.896	130.81
242.13	119.81
242.363	133.81
242.597	134.81
242.83	122.81
243.064	138.81
243.298	144.81
243.531	136.81
243.765	146.81
243.998	130.81
244.232	139.81
244.465	140.81
244.699	142.81
244.932	138.81
245.166	153.81
245.399	149.81
245.633	157.81
245.866	151.81
246.099	148.81
246.333	149.81
246.566	142.81
246.8	146.81
247.033	154.81
247.266	146.81
247.5	151.81
247.733	173.81
247.966	146.81
248.2	170.81
248.433	167.81
248.666	170.81
248.899	202.81
249.133	201.81
249.366	215.81
249.599	200.81
249.832	191.81
250.066	172.81
250.299	192.81
250.532	179.81
250.765	195.81
250.998	212.81
251.231	215.81
251.465	204.81
251.698	191.81
251.931	206.81
252.164	195.81
252.397	213.81
252.63	185.81
252.863	192.81
253.096	199.81
253.329	208.81
253.562	223.81
253.795	212.81
254.028	189.81
254.261	208.81
254.494	223.81
254.727	241.81
254.96	272.81
255.193	247.81
255.426	214.81
255.659	222.81
255.892	219.81
256.124	222.81
256.357	224.81
256.59	227.81
256.823	200.81
257.056	229.81
257.289	216.81
257.521	212.81
257.754	228.81
257.987	209.81
258.22	218.81
258.452	212.81
258.685	200.81
258.918	199.81
259.151	213.81
259.383	229.81
259.616	208.81
259.849	229.81
260.081	224.81
260.314	242.81
260.547	242.81
260.779	231.81
261.012	229.81
261.244	224.81
261.477	230.81
261.71	210.81
261.942	227.81
262.175	231.81
262.407	230.81
262.64	236.81
262.872	220.81
263.105	219.81
263.337	225.81
263.57	223.81
263.802	220.81
264.035	218.81
264.267	212.81
264.499	218.81
264.732	213.81
264.964	227.81
265.197	226.81
265.429	214.81
265.661	209.81
265.894	230.81
266.126	215.81
266.358	220.81
266.591	211.81
266.823	221.81
267.055	229.81
267.287	233.81
267.52	243.81
267.752	235.81
267.984	232.81
268.216	235.81
268.448	236.81
268.681	228.81
268.913	243.81
269.145	274.81
269.377	285.81
269.609	268.81
269.841	271.81
270.073	272.81
270.306	279.81
270.538	298.81
270.77	316.81
271.002	308.81
271.234	297.81
271.466	302.81
271.698	332.81
271.93	304.81
272.162	302.81
272.394	327.81
272.626	300.81
272.858	287.81
273.09	268.81
273.322	277.81
273.553	275.81
273.785	287.81
274.017	300.81
274.249	280.81
274.481	288.81
274.713	257.81
274.945	283.81
275.176	264.81
275.408	295.81
275.64	280.81
275.872	254.81
276.104	280.81
276.335	289.81
276.567	282.81
276.799	286.81
277.031	297.81
277.262	306.81
277.494	314.81
277.726	310.81
277.957	302.81
278.189	285.81
278.421	307.81
278.652	287.81
278.884	290.81
279.115	257.81
279.347	289.81
279.579	282.81
279.81	273.81
280.042	270.81
280.273	292.81
280.505	275.81
280.736	293.81
280.968	286.81
281.199	290.81
281.431	302.81
281.662	286.81
281.894	302.81
282.125	274.81
282.356	297.81
282.588	322.81
282.819	294.81
283.051	296.81
283.282	283.81
283.513	284.81
283.745	286.81
283.976	296.81
284.207	278.81
284.439	293.81
284.67	293.81
284.901	304.81
285.132	291.81
285.364	287.81
285.595	289.81
285.826	315.81
286.057	300.81
286.288	329.81
286.52	312.81
286.751	318.81
286.982	301.81
287.213	304.81
287.444	296.81
287.675	296.81
287.906	305.81
288.138	319.81
288.369	334.81
288.6	330.81
288.831	301.81
289.062	326.81
289.293	331.81
289.524	306.81
289.755	327.81
289.986	316.81
290.217	300.81
290.448	326.81
290.679	314.81
290.91	324.81
291.141	308.81
291.371	317.81
291.602	319.81
291.833	308.81
292.064	291.81
292.295	296.81
292.526	331.81
292.757	318.81
292.987	313.81
293.218	309.81
293.449	314.81
293.68	298.81
293.91	332.81
294.141	316.81
294.372	315.81
294.603	303.81
294.833	310.81
295.064	316.81
295.295	337.81
295.525	327.81
295.756	330.81
295.987	327.81
296.217	352.81
296.448	365.81
296.679	322.81
296.909	318.81
297.14	330.81
297.37	349.81
297.601	329.81
297.831	330.81
298.062	330.81
298.292	322.81
298.523	338.81
298.753	324.81
298.984	314.81
299.214	338.81
299.445	329.81
299.675	340.81
299.905	351.81
300.136	326.81
300.366	324.81
300.597	341.81
300.827	352.81
301.057	352.81
301.288	364.81
301.518	370.81
301.748	355.81
301.979	325.81
302.209	360.81
302.439	362.81
302.669	358.81
302.9	340.81
303.13	371.81
303.36	362.81
303.59	371.81
303.82	354.81
304.051	364.81
304.281	364.81
304.511	355.81
304.741	340.81
304.971	355.81
305.201	359.81
305.431	363.81
305.661	362.81
305.891	351.81
306.121	366.81
306.352	388.81
306.582	358.81
306.812	354.81
307.042	362.81
307.272	334.81
307.502	357.81
307.731	385.81
307.961	357.81
308.191	340.81
308.421	366.81
308.651	370.81
308.881	353.81
309.111	366.81
309.341	374.81
309.571	366.81
309.8	374.81
310.03	383.81
310.26	384.81
310.49	373.81
310.72	390.81
310.949	388.81
311.179	413.81
311.409	380.81
311.639	389.81
311.868	386.81
312.098	385.81
312.328	372.81
312.557	374.81
312.787	403.81
313.017	404.81
313.246	378.81
313.476	405.81
313.706	419.81
313.935	394.81
314.165	414.81
314.394	392.81
314.624	426.81
314.853	402.81
315.083	389.81
315.312	386.81
315.542	392.81
315.771	402.81
316.001	410.81
316.23	378.81
316.46	392.81
316.689	390.81
316.919	385.81
317.148	404.81
317.377	408.81
317.607	416.81
317.836	414.81
318.065	395.81
318.295	406.81
318.524	386.81
318.753	407.81
318.983	382.81
319.212	392.81
319.441	413.81
319.67	398.81
319.9	391.81
320.129	391.81
320.358	406.81
320.587	411.81
320.816	409.81
321.046	399.81
321.275	399.81
321.504	427.81
321.733	416.81
321.962	412.81
322.191	431.81
322.42	423.81
322.649	457.81
322.878	423.81
323.108	442.81
323.337	458.81
323.566	484.81
323.795	500.81
324.024	504.81
324.253	595.81
324.482	774.81
324.71	1134.81
324.939	1605.81
325.168	1415.81
325.397	775.81
325.626	599.81
325.855	518.81
326.084	477.81
326.313	474.81
326.542	465.81
326.77	502.81
326.999	580.81
327.228	706.81
327.457	1023.81
327.686	1221.81
327.914	852.81
328.143	624.81
328.372	564.81
328.6	538.81
328.829	523.81
329.058	520.81
329.287	541.81
329.515	510.81
329.744	505.81
329.972	482.81
330.201	492.81
330.43	504.81
330.658	523.81
330.887	577.81
331.115	566.81
331.344	518.81
331.572	489.81
331.801	494.81
332.03	486.81
332.258	486.81
332.486	494.81
332.715	486.81
332.943	483.81
333.172	512.81
333.4	524.81
333.629	530.81
333.857	524.81
334.085	541.81
334.314	546.81
334.542	551.81
334.771	557.81
334.999	540.81
335.227	528.81
335.455	505.81
335.684	491.81
335.912	460.81
336.14	487.81
336.369	493.81
336.597	472.81
336.825	466.81
337.053	493.81
337.281	460.81
337.51	458.81
337.738	459.81
337.966	454.81
338.194	457.81
338.422	458.81
338.65	453.81
338.878	464.81
339.106	450.81
339.334	453.81
339.562	450.81
339.79	434.81
340.018	458.81
340.246	457.81
340.474	464.81
340.702	452.81
340.93	450.81
341.158	448.81
341.386	455.81
341.614	451.81
341.842	464.81
342.07	464.81
342.298	430.81
342.526	448.81
342.754	449.81
342.981	431.81
343.209	452.81
343.437	467.81
343.665	453.81
343.893	491.81
344.12	510.81
344.348	494.81
344.576	487.81
344.804	473.81
345.031	467.81
345.259	460.81
345.487	455.81
345.714	419.81
345.942	430.81
346.17	413.81
346.397	431.81
346.625	434.81
346.853	424.81
347.08	428.81
347.308	428.81
347.535	450.81
347.763	430.81
347.99	427.81
348.218	462.81
348.445	438.81
348.673	431.81
348.9	431.81
349.128	443.81
349.355	420.81
349.583	427.81
349.81	429.81
350.037	423.81
350.265	426.81
350.492	428.81
350.72	412.81
350.947	436.81
351.174	444.81
351.402	450.81
351.629	407.81
351.856	441.81
352.083	457.81
352.311	423.81
352.538	411.81
352.765	414.81
352.992	438.81
353.22	433.81
353.447	428.81
353.674	431.81
353.901	399.81
354.128	418.81
354.355	406.81
354.583	415.81
354.81	404.81
355.037	410.81
355.264	405.81
355.491	392.81
355.718	416.81
355.945	404.81
356.172	403.81
356.399	415.81
356.626	420.81
356.853	420.81
357.08	429.81
357.307	404.81
357.534	380.81
357.761	418.81
357.988	390.81
358.215	418.81
358.441	395.81
358.668	396.81
358.895	416.81
359.122	403.81
359.349	422.81
359.576	421.81
359.802	435.81
360.029	450.81
360.256	462.81
360.483	436.81
360.709	432.81
360.936	419.81
361.163	431.81
361.39	437.81
361.616	444.81
361.843	436.81
362.07	434.81
362.296	424.81
362.523	433.81
362.749	416.81
362.976	426.81
363.203	424.81
363.429	400.81
363.656	406.81
363.882	414.81
364.109	393.81
364.335	410.81
364.562	400.81
364.788	418.81
365.015	403.81
365.241	405.81
365.468	401.81
365.694	435.81
365.92	417.81
366.147	406.81
366.373	414.81
366.599	402.81
366.826	415.81
367.052	404.81
367.278	412.81
367.505	403.81
367.731	415.81
367.957	400.81
368.184	410.81
368.41	417.81
368.636	424.81
368.862	444.81
369.089	404.81
369.315	424.81
369.541	423.81
369.767	418.81
369.993	415.81
370.219	408.81
370.445	421.81
370.672	408.81
370.898	392.81
371.124	418.81
371.35	418.81
371.576	431.81
371.802	427.81
372.028	420.81
372.254	424.81
372.48	415.81
372.706	418.81
372.932	436.81
373.158	435.81
373.384	432.81
373.61	415.81
373.835	410.81
374.061	422.81
374.287	418.81
374.513	429.81
374.739	430.81
374.965	445.81
375.191	438.81
375.416	447.81
375.642	422.81
375.868	425.81
376.094	446.81
376.319	421.81
376.545	421.81
376.771	412.81
376.997	432.81
377.222	419.81
377.448	426.81
377.674	427.81
377.899	404.81
378.125	437.81
378.35	410.81
378.576	389.81
378.802	420.81
379.027	412.81
379.253	415.81
379.478	407.81
379.704	426.81
379.929	419.81
380.155	430.81
380.38	431.81
380.606	420.81
380.831	434.81
381.057	428.81
381.282	430.81
381.507	420.81
381.733	420.81
381.958	439.81
382.184	411.81
382.409	438.81
382.634	421.81
382.86	441.81
383.085	460.81
383.31	460.81
383.535	454.81
383.761	426.81
383.986	436.81
384.211	454.81
384.436	433.81
384.662	458.81
384.887	478.81
385.112	440.81
385.337	467.81
385.562	482.81
385.787	472.81
386.013	489.81
386.238	468.81
386.463	481.81
386.688	469.81
386.913	470.81
387.138	474.81
387.363	464.81
387.588	480.81
387.813	478.81
388.038	447.81
388.263	487.81
388.488	474.81
388.713	454.81
388.938	482.81
389.163	468.81
389.387	471.81
389.612	461.81
389.837	476.81
390.062	459.81
390.287	455.81
390.512	475.81
390.736	454.81
390.961	481.81
391.186	490.81
391.411	496.81
391.636	499.81
391.86	511.81
392.085	499.81
392.31	520.81
392.534	492.81
392.759	504.81
392.984	520.81
393.208	483.81
393.433	487.81
393.658	487.81
393.882	494.81
394.107	470.81
394.331	487.81
394.556	483.81
394.78	501.81
395.005	518.81
395.229	510.81
395.454	488.81
395.678	528.81
395.903	510.81
396.127	528.81
396.352	526.81
396.576	494.81
396.801	496.81
397.025	484.81
397.249	500.81
397.474	511.81
397.698	509.81
397.922	527.81
398.147	532.81
398.371	550.81
398.595	544.81
398.82	558.81
399.044	570.81
399.268	595.81
399.492	663.81
399.717	687.81
399.941	720.81
400.165	730.81
400.389	701.81
400.613	646.81
400.837	589.81
401.062	598.81
401.286	564.81
401.51	547.81
401.734	547.81
401.958	575.81
402.182	564.81
402.406	553.81
402.63	570.81
402.854	574.81
403.078	590.81
403.302	596.81
403.526	598.81
403.75	600.81
403.974	605.81
404.198	592.81
404.422	611.81
404.645	594.81
404.869	612.81
405.093	599.81
405.317	639.81
405.541	675.81
405.765	643.81
405.988	623.81
406.212	611.81
406.436	636.81
406.66	633.81
406.883	644.81
407.107	652.81
407.331	672.81
407.555	774.81
407.778	762.81
408.002	691.81
408.226	655.81
408.449	632.81
408.673	631.81
408.896	647.81
409.12	678.81
409.344	652.81
409.567	620.81
409.791	610.81
410.014	574.81
410.238	580.81
410.461	566.81
410.685	567.81
410.908	579.81
411.132	630.81
411.355	644.81
411.578	621.81
411.802	604.81
412.025	574.81
412.249	591.81
412.472	591.81
412.695	651.81
412.919	631.81
413.142	582.81
413.365	584.81
413.589	580.81
413.812	546.81
414.035	538.81
414.258	526.81
414.482	574.81
414.705	539.81
414.928	536.81
415.151	554.81
415.374	563.81
415.597	554.81
415.821	551.81
416.044	544.81
416.267	559.81
416.49	558.81
416.713	530.81
416.936	549.81
417.159	544.81
417.382	558.81
417.605	541.81
417.828	572.81
418.051	564.81
418.274	564.81
418.497	555.81
418.72	557.81
418.943	560.81
419.166	573.81
419.389	607.81
419.611	602.81
419.834	608.81
420.057	579.81
420.28	576.81
420.503	575.81
420.726	569.81
420.948	575.81
421.171	591.81
421.394	609.81
421.617	571.81
421.839	556.81
422.062	549.81
422.285	583.81
422.507	617.81
422.73	686.81
422.953	667.81
423.175	606.81
423.398	606.81
423.621	607.81
423.843	613.81
424.066	607.81
424.288	598.81
424.511	603.81
424.733	676.81
424.956	712.81
425.178	703.81
425.401	677.81
425.623	718.81
425.846	607.81
426.068	572.81
426.291	566.81
426.513	590.81
426.735	578.81
426.958	622.81
427.18	666.81
427.402	786.81
427.625	841.81
427.847	752.81
428.069	654.81
428.292	606.81
428.514	570.81
428.736	568.81
428.958	542.81
429.181	549.81
429.403	544.81
429.625	548.81
429.847	559.81
430.069	652.81
430.292	624.81
430.514	555.81
430.736	542.81
430.958	543.81
431.18	513.81
431.402	521.81
431.624	506.81
431.846	499.81
432.068	526.81
432.29	509.81
432.512	526.81
432.734	517.81
432.956	510.81
433.178	532.81
433.4	558.81
433.622	529.81
433.844	528.81
434.066	524.81
434.287	538.81
434.509	519.81
434.731	541.81
434.953	576.81
435.175	560.81
435.397	590.81
435.618	586.81
435.84	608.81
436.062	700.81
436.284	728.81
436.505	643.81
436.727	552.81
436.949	556.81
437.17	536.81
437.392	517.81
437.614	547.81
437.835	568.81
438.057	642.81
438.278	697.81
438.5	734.81
438.721	773.81
438.943	748.81
439.165	610.81
439.386	574.81
439.608	593.81
439.829	598.81
440.05	578.81
440.272	613.81
440.493	592.81
440.715	560.81
440.936	556.81
441.158	544.81
441.379	575.81
441.6	571.81
441.822	584.81
442.043	640.81
442.264	691.81
442.486	675.81
442.707	632.81
442.928	611.81
443.149	588.81
443.371	618.81
443.592	690.81
443.813	722.81
444.034	768.81
444.255	678.81
444.476	633.81
444.698	649.81
444.919	662.81
445.14	727.81
445.361	672.81
445.582	622.81
445.803	656.81
446.024	746.81
446.245	750.81
446.466	709.81
446.687	590.81
446.908	573.81
447.129	546.81
447.35	526.81
447.571	531.81
447.792	545.81
448.013	551.81
448.234	542.81
448.455	558.81
448.675	663.81
448.896	742.81
449.117	669.81
449.338	620.81
449.559	702.81
449.779	802.81
450	627.81
450.221	558.81
450.442	556.81
450.662	521.81
450.883	508.81
451.104	516.81
451.324	512.81
451.545	509.81
451.766	510.81
451.986	471.81
452.207	493.81
452.428	469.81
452.648	468.81
452.869	485.81
453.089	476.81
453.31	488.81
453.53	483.81
453.751	473.81
453.971	469.81
454.192	467.81
454.412	469.81
454.633	464.81
454.853	472.81
455.073	462.81
455.294	471.81
455.514	541.81
455.734	529.81
455.955	478.81
456.175	455.81
456.395	458.81
456.616	446.81
456.836	452.81
457.056	445.81
457.276	428.81
457.497	453.81
457.717	442.81
457.937	455.81
458.157	470.81
458.377	469.81
458.598	487.81
458.818	524.81
459.038	584.81
459.258	598.81
459.478	546.81
459.698	539.81
459.918	523.81
460.138	531.81
460.358	535.81
460.578	542.81
460.798	552.81
461.018	561.81
461.238	562.81
461.458	553.81
461.678	557.81
461.898	585.81
462.118	547.81
462.338	583.81
462.558	602.81
462.777	600.81
462.997	642.81
463.217	650.81
463.437	653.81
463.657	628.81
463.876	623.81
464.096	618.81
464.316	607.81
464.536	598.81
464.755	613.81
464.975	593.81
465.195	603.81
465.414	627.81
465.634	587.81
465.854	534.81
466.073	522.81
466.293	509.81
466.512	484.81
466.732	490.81
466.951	471.81
467.171	496.81
467.391	490.81
467.61	495.81
467.829	496.81
468.049	522.81
468.268	480.81
468.488	481.81
468.707	500.81
468.927	483.81
469.146	494.81
469.365	508.81
469.585	512.81
469.804	495.81
470.023	508.81
470.243	513.81
470.462	502.81
470.681	554.81
470.901	531.81
471.12	516.81
471.339	503.81
471.558	496.81
471.777	499.81
471.997	509.81
472.216	496.81
472.435	532.81
472.654	497.81
472.873	484.81
473.092	490.81
473.311	508.81
473.53	488.81
473.749	498.81
473.968	529.81
474.187	597.81
474.406	631.81
474.625	529.81
474.844	527.81
475.063	504.81
475.282	494.81
475.501	477.81
475.72	511.81
475.939	522.81
476.158	510.81
476.377	513.81
476.596	507.81
476.814	529.81
477.033	524.81
477.252	517.81
477.471	534.81
477.69	541.81
477.908	575.81
478.127	552.81
478.346	572.81
478.564	586.81
478.783	575.81
479.002	570.81
479.22	578.81
479.439	573.81
479.658	597.81
479.876	588.81
480.095	588.81
480.313	620.81
480.532	626.81
480.751	620.81
480.969	632.81
481.188	661.81
481.406	654.81
481.624	608.81
481.843	608.81
482.061	570.81
482.28	575.81
482.498	566.81
482.717	552.81
482.935	570.81
483.153	560.81
483.372	584.81
483.59	574.81
483.808	578.81
484.027	576.81
484.245	590.81
484.463	554.81
484.681	589.81
484.9	588.81
485.118	588.81
485.336	590.81
485.554	589.81
485.772	585.81
485.99	588.81
486.209	615.81
486.427	610.81
486.645	590.81
486.863	618.81
487.081	620.81
487.299	614.81
487.517	614.81
487.735	585.81
487.953	604.81
488.171	605.81
488.389	597.81
488.607	597.81
488.825	605.81
489.043	607.81
489.261	623.81
489.479	622.81
489.696	620.81
489.914	635.81
490.132	632.81
490.35	654.81
490.568	655.81
490.786	652.81
491.003	647.81
491.221	644.81
491.439	659.81
491.657	682.81
491.874	703.81
492.092	680.81
492.31	686.81
492.527	687.81
492.745	703.81
492.963	696.81
493.18	704.81
493.398	686.81
493.615	708.81
493.833	698.81
494.05	704.81
494.268	698.81
494.485	700.81
494.703	710.81
494.92	705.81
495.138	717.81
495.355	704.81
495.573	716.81
495.79	704.81
496.008	718.81
496.225	719.81
496.442	712.81
496.66	734.81
496.877	720.81
497.094	736.81
497.312	717.81
497.529	746.81
497.746	751.81
497.963	755.81
498.181	808.81
498.398	832.81
498.615	842.81
498.832	835.81
499.049	915.81
499.267	959.81
499.484	968.81
499.701	1023.81
499.918	1096.81
500.135	1186.81
500.352	1249.81
500.569	1293.81
500.786	1253.81
501.003	1225.81
501.22	1202.81
501.437	1109.81
501.654	1050.81
501.871	1007.81
502.088	946.81
502.305	920.81
502.522	891.81
502.739	850.81
502.956	810.81
503.172	798.81
503.389	772.81
503.606	786.81
503.823	784.81
504.04	732.81
504.256	748.81
504.473	756.81
504.69	758.81
504.907	734.81
505.123	712.81
505.34	736.81
505.557	689.81
505.773	698.81
505.99	664.81
506.207	662.81
506.423	656.81
506.64	644.81
506.856	665.81
507.073	676.81
507.289	647.81
507.506	643.81
507.722	647.81
507.939	669.81
508.155	643.81
508.372	640.81
508.588	652.81
508.805	620.81
509.021	624.81
509.238	644.81
509.454	647.81
509.67	632.81
509.887	597.81
510.103	636.81
510.319	620.81
510.536	699.81
510.752	988.81
510.968	845.81
511.184	621.81
511.401	618.81
511.617	590.81
511.833	592.81
512.049	612.81
512.265	595.81
512.481	592.81
512.698	587.81
512.914	591.81
513.13	595.81
513.346	575.81
513.562	562.81
513.778	601.81
513.994	606.81
514.21	604.81
514.426	616.81
514.642	624.81
514.858	642.81
515.074	677.81
515.29	751.81
515.506	1013.81
515.721	871.81
515.937	679.81
516.153	620.81
516.369	630.81
516.585	611.81
516.801	620.81
517.016	646.81
517.232	653.81
517.448	655.81
517.664	679.81
517.879	682.81
518.095	676.81
518.311	682.81
518.527	668.81
518.742	647.81
518.958	615.81
519.173	622.81
519.389	623.81
519.605	591.81
519.82	606.81
520.036	607.81
520.251	613.81
520.467	618.81
520.682	645.81
520.898	640.81
521.113	618.81
521.329	640.81
521.544	690.81
521.76	805.81
521.975	1254.81
522.19	1209.81
522.406	752.81
522.621	618.81
522.836	565.81
523.052	562.81
523.267	558.81
523.482	531.81
523.698	524.81
523.913	508.81
524.128	518.81
524.343	551.81
524.559	559.81
524.774	523.81
524.989	533.81
525.204	517.81
525.419	518.81
525.634	526.81
525.849	535.81
526.064	505.81
526.28	496.81
526.495	469.81
526.71	486.81
526.925	496.81
527.14	512.81
527.355	478.81
527.57	502.81
527.785	485.81
527.999	509.81
528.214	504.81
528.429	519.81
528.644	508.81
528.859	510.81
529.074	526.81
529.289	526.81
529.503	572.81
529.718	546.81
529.933	529.81
530.148	519.81
530.363	485.81
530.577	483.81
530.792	471.81
531.007	481.81
531.221	498.81
531.436	475.81
531.651	482.81
531.865	474.81
532.08	485.81
532.295	480.81
532.509	495.81
532.724	477.81
532.938	494.81
533.153	464.81
533.367	472.81
533.582	469.81
533.796	490.81
534.011	477.81
534.225	463.81
534.44	486.81
534.654	466.81
534.868	472.81
535.083	481.81
535.297	486.81
535.511	465.81
535.726	504.81
535.94	472.81
536.154	453.81
536.369	468.81
536.583	481.81
536.797	464.81
537.011	447.81
537.225	470.81
537.44	458.81
537.654	472.81
537.868	459.81
538.082	448.81
538.296	456.81
538.51	442.81
538.724	460.81
538.938	471.81
539.153	445.81
539.367	455.81
539.581	464.81
539.795	440.81
540.009	467.81
540.222	432.81
540.436	455.81
540.65	436.81
540.864	443.81
541.078	463.81
541.292	457.81
541.506	459.81
541.72	448.81
541.934	454.81
542.147	454.81
542.361	452.81
542.575	462.81
542.789	469.81
543.002	474.81
543.216	473.81
543.43	459.81
543.644	451.81
543.857	467.81
544.071	465.81
544.285	459.81
544.498	438.81
544.712	453.81
544.925	467.81
545.139	459.81
545.352	470.81
545.566	461.81
545.779	464.81
545.993	455.81
546.206	461.81
546.42	465.81
546.633	455.81
546.847	442.81
547.06	445.81
547.274	458.81
547.487	475.81
547.7	472.81
547.914	466.81
548.127	456.81
548.34	448.81
548.554	434.81
548.767	455.81
548.98	466.81
549.193	459.81
549.407	457.81
549.62	452.81
549.833	470.81
550.046	457.81
550.259	469.81
550.473	449.81
550.686	435.81
550.899	451.81
551.112	434.81
551.325	446.81
551.538	444.81
551.751	471.81
551.964	437.81
552.177	442.81
552.39	459.81
552.603	441.81
552.816	455.81
553.029	480.81
553.242	474.81
553.455	480.81
553.667	486.81
553.88	475.81
554.093	485.81
554.306	460.81
554.519	460.81
554.732	466.81
554.944	452.81
555.157	446.81
555.37	454.81
555.583	429.81
555.795	421.81
556.008	426.81
556.221	423.81
556.433	415.81
556.646	426.81
556.859	422.81
557.071	410.81
557.284	408.81
557.496	391.81
557.709	419.81
557.921	407.81
558.134	406.81
558.346	413.81
558.559	410.81
558.771	407.81
558.984	394.81
559.196	381.81
559.409	413.81
559.621	402.81
559.833	403.81
560.046	375.81
560.258	398.81
560.47	413.81
560.683	413.81
560.895	386.81
561.107	403.81
561.32	399.81
561.532	406.81
561.744	398.81
561.956	387.81
562.168	382.81
562.381	414.81
562.593	422.81
562.805	417.81
563.017	392.81
563.229	401.81
563.441	412.81
563.653	414.81
563.865	400.81
564.077	403.81
564.289	410.81
564.501	417.81
564.713	412.81
564.925	455.81
565.137	432.81
565.349	430.81
565.561	450.81
565.773	455.81
565.985	483.81
566.197	476.81
566.408	507.81
566.62	535.81
566.832	560.81
567.044	550.81
567.255	557.81
567.467	562.81
567.679	588.81
567.891	624.81
568.102	624.81
568.314	598.81
568.526	571.81
568.737	540.81
568.949	505.81
569.161	468.81
569.372	456.81
569.584	441.81
569.795	454.81
570.007	432.81
570.218	435.81
570.43	427.81
570.641	413.81
570.853	412.81
571.064	392.81
571.276	400.81
571.487	401.81
571.698	400.81
571.91	370.81
572.121	383.81
572.333	368.81
572.544	371.81
572.755	363.81
572.966	371.81
573.178	359.81
573.389	347.81
573.6	342.81
573.811	362.81
574.023	351.81
574.234	354.81
574.445	341.81
574.656	346.81
574.867	348.81
575.078	356.81
575.289	344.81
575.501	360.81
575.712	351.81
575.923	317.81
576.134	338.81
576.345	343.81
576.556	341.81
576.767	342.81
576.978	335.81
577.188	340.81
577.399	329.81
577.61	344.81
577.821	319.81
578.032	326.81
578.243	347.81
578.454	456.81
578.665	380.81
578.875	322.81
579.086	325.81
579.297	332.81
579.508	321.81
579.718	309.81
579.929	329.81
580.14	308.81
580.35	308.81
580.561	305.81
580.772	311.81
580.982	304.81
581.193	309.81
581.403	310.81
581.614	306.81
581.825	319.81
582.035	299.81
582.246	313.81
582.456	294.81
582.667	292.81
582.877	317.81
583.087	315.81
583.298	302.81
583.508	313.81
583.719	315.81
583.929	311.81
584.139	306.81
584.35	302.81
584.56	307.81
584.77	308.81
584.981	307.81
585.191	288.81
585.401	299.81
585.611	310.81
585.821	290.81
586.032	294.81
586.242	293.81
586.452	306.81
586.662	303.81
586.872	303.81
587.082	291.81
587.292	304.81
587.502	290.81
587.713	317.81
587.923	288.81
588.133	293.81
588.343	282.81
588.553	298.81
588.762	310.81
588.972	306.81
589.182	299.81
589.392	298.81
589.602	302.81
589.812	305.81
590.022	293.81
590.232	294.81
590.441	299.81
590.651	325.81
590.861	305.81
591.071	293.81
591.281	300.81
591.49	299.81
591.7	315.81
591.91	328.81
592.119	315.81
592.329	311.81
592.539	320.81
592.748	334.81
592.958	349.81
593.167	334.81
593.377	342.81
593.587	362.81
593.796	353.81
594.006	357.81
594.215	341.81
594.424	349.81
594.634	337.81
594.843	352.81
595.053	340.81
595.262	320.81
595.472	320.81
595.681	322.81
595.89	309.81
596.1	294.81
596.309	290.81
596.518	301.81
596.727	300.81
596.937	292.81
597.146	286.81
597.355	280.81
597.564	279.81
597.774	262.81
597.983	285.81
598.192	267.81
598.401	305.81
598.61	279.81
598.819	264.81
599.028	268.81
599.237	275.81
599.446	274.81
599.655	263.81
599.864	273.81
600.073	261.81
600.282	256.81
600.491	271.81
600.7	252.81
600.909	266.81
601.118	257.81
601.327	268.81
601.536	261.81
601.745	247.81
601.953	265.81
602.162	258.81
602.371	271.81
602.58	277.81
602.789	269.81
602.997	282.81
603.206	257.81
603.415	257.81
603.623	254.81
603.832	247.81
604.041	243.81
604.249	248.81
604.458	257.81
604.666	247.81
604.875	260.81
605.084	252.81
605.292	242.81
605.501	245.81
605.709	258.81
605.918	254.81
606.126	237.81
606.334	246.81
606.543	238.81
606.751	258.81
606.96	254.81
607.168	227.81
607.376	228.81
607.585	238.81
607.793	257.81
608.001	234.81
608.21	260.81
608.418	246.81
608.626	249.81
608.834	237.81
609.043	234.81
609.251	253.81
609.459	250.81
609.667	252.81
609.875	255.81
610.083	238.81
610.291	244.81
610.499	249.81
610.707	260.81
610.916	239.81
611.124	255.81
611.332	247.81
611.54	246.81
611.748	238.81
611.955	239.81
612.163	235.81
612.371	234.81
612.579	236.81
612.787	243.81
612.995	254.81
613.203	250.81
613.411	232.81
613.618	234.81
613.826	222.81
614.034	239.81
614.242	243.81
614.449	223.81
614.657	254.81
614.865	227.81
615.072	233.81
615.28	244.81
615.488	251.81
615.695	217.81
615.903	236.81
616.111	240.81
616.318	250.81
616.526	241.81
616.733	237.81
616.941	231.81
617.148	229.81
617.356	248.81
617.563	255.81
617.771	246.81
617.978	239.81
618.185	243.81
618.393	228.81
618.6	265.81
618.807	255.81
619.015	239.81
619.222	248.81
619.429	236.81
619.637	222.81
619.844	230.81
620.051	234.81
620.258	212.81
620.466	220.81
620.673	211.81
620.88	220.81
621.087	218.81
621.294	230.81
621.501	242.81
621.708	204.81
621.915	210.81
622.122	214.81
622.329	232.81
622.536	210.81
622.743	211.81
622.95	210.81
623.157	212.81
623.364	198.81
623.571	213.81
623.778	211.81
623.985	201.81
624.192	211.81
624.399	198.81
624.606	214.81
624.812	203.81
625.019	225.81
625.226	222.81
625.433	199.81
625.639	204.81
625.846	215.81
626.053	206.81
626.259	221.81
626.466	205.81
626.673	212.81
626.879	202.81
627.086	198.81
627.293	199.81
627.499	209.81
627.706	205.81
627.912	201.81
628.119	193.81
628.325	210.81
628.532	198.81
628.738	192.81
628.945	208.81
629.151	191.81
629.357	203.81
629.564	204.81
629.77	206.81
629.976	202.81
630.183	201.81
630.389	207.81
630.595	186.81
630.802	186.81
631.008	192.81
631.214	192.81
631.42	181.81
631.627	198.81
631.833	195.81
632.039	191.81
632.245	189.81
632.451	190.81
632.657	187.81
632.863	188.81
633.069	189.81
633.275	195.81
633.481	178.81
633.688	175.81
633.893	180.81
634.099	180.81
634.305	183.81
634.511	173.81
634.717	203.81
634.923	183.81
635.129	186.81
635.335	183.81
635.541	198.81
635.747	191.81
635.952	163.81
636.158	193.81
636.364	179.81
636.57	175.81
636.775	184.81
636.981	182.81
637.187	187.81
637.392	176.81
637.598	173.81
637.804	178.81
638.009	172.81
638.215	184.81
638.421	176.81
638.626	183.81
638.832	165.81
639.037	170.81
639.243	175.81
639.448	176.81
639.654	174.81
639.859	167.81
640.065	176.81
640.27	172.81
640.475	173.81
640.681	161.81
640.886	166.81
641.091	179.81
641.297	164.81
641.502	168.81
641.707	172.81
641.913	164.81
642.118	172.81
642.323	178.81
642.528	157.81
642.733	180.81
642.939	167.81
643.144	190.81
643.349	150.81
643.554	169.81
643.759	176.81
643.964	178.81
644.169	172.81
644.374	163.81
644.579	172.81
644.784	163.81
644.989	148.81
645.194	164.81
645.399	168.81
645.604	174.81
645.809	159.81
646.014	169.81
646.219	143.81
646.423	160.81
646.628	172.81
646.833	154.81
647.038	157.81
647.243	146.81
647.447	154.81
647.652	158.81
647.857	160.81
648.062	161.81
648.266	174.81
648.471	176.81
648.676	177.81
648.88	163.81
649.085	162.81
649.289	162.81
649.494	161.81
649.698	172.81
649.903	179.81
650.107	164.81
650.312	152.81
650.516	155.81
650.721	163.81
650.925	153.81
651.13	152.81
651.334	147.81
651.539	160.81
651.743	172.81
651.947	144.81
652.152	163.81
652.356	142.81
652.56	153.81
652.764	144.81
652.969	136.81
653.173	115.81
653.377	145.81
653.581	149.81
653.785	137.81
653.99	126.81
654.194	140.81
654.398	136.81
654.602	132.81
654.806	135.81
655.01	126.81
655.214	122.81
655.418	135.81
655.622	132.81
655.826	140.81
656.03	153.81
656.234	135.81
656.438	132.81
656.642	146.81
656.846	127.81
657.049	134.81
657.253	130.81
657.457	128.81
657.661	118.81
657.865	109.81
658.068	116.81
658.272	104.81
658.476	100.81
658.68	92.81
658.883	97.81
659.087	86.81
659.291	87.81
659.494	97.81
659.698	93.81
659.901	77.81
660.105	103.81
660.309	92.81
660.512	87.81
660.716	97.81
660.919	89.81
661.123	78.81
661.326	86.81
661.53	77.81
661.733	78.81
661.936	82.81
662.14	77.81
662.343	78.81
662.546	73.81
662.75	68.81
662.953	93.81
663.156	77.81
663.36	74.81
663.563	75.81
663.766	72.81
663.969	90.81
664.173	87.81
664.376	76.81
664.579	67.81
664.782	72.81
664.985	76.81
665.188	65.81
665.391	68.81
665.594	68.81
665.797	73.81
666	77.81
666.203	68.81
666.406	63.81
666.609	73.81
666.812	60.81
667.015	78.81
667.218	68.81
667.421	76.81
667.624	68.81
667.827	70.81
668.03	68.81
668.232	72.81
668.435	72.81
668.638	63.81
668.841	70.81
669.043	82.81
669.246	83.81
669.449	71.81
669.651	85.81
669.854	83.81
670.057	84.81
670.259	74.81
670.462	79.81
670.665	78.81
670.867	60.81
671.07	80.81
671.272	94.81
671.475	74.81
671.677	84.81
671.88	81.81
672.082	67.81
672.284	85.81
672.487	80.81
672.689	74.81
672.892	71.81
