Data from 1973.PennyLincolnUp.Lamp.En5.5.200Scan.071719.P1.Changed Mount._HRD10591_15-46-05-852.txt Node
Date: Thu Jul 18 15:46:05 EDT 2019
User: cochatt
Spectrometer: HR+D1059
Trigger mode: 1
Integration Time (sec): 1.000000E-1
Scans to average: 1
Electric dark correction enabled: true
Nonlinearity correction enabled: false
Boxcar width: 0
XAxis mode: Wavelengths
Number of Pixels in Spectrum: 2048
>>>>>Begin Spectral Data<<<<<
223.165	-10.12
223.4	-10.12
223.635	-10.12
223.869	-29.12
224.104	-21.12
224.338	-13.12
224.573	-21.12
224.808	-3.12
225.042	2.88
225.277	-13.12
225.511	-1.12
225.746	-15.12
225.98	0.88
226.215	22.88
226.449	24.88
226.683	30.88
226.918	17.88
227.152	26.88
227.387	29.88
227.621	29.88
227.856	26.88
228.09	42.88
228.324	48.88
228.559	55.88
228.793	76.88
229.027	88.88
229.262	99.88
229.496	112.88
229.73	116.88
229.964	144.88
230.199	109.88
230.433	108.88
230.667	97.88
230.901	113.88
231.136	93.88
231.37	117.88
231.604	109.88
231.838	122.88
232.072	109.88
232.306	117.88
232.541	109.88
232.775	118.88
233.009	123.88
233.243	117.88
233.477	113.88
233.711	130.88
233.945	137.88
234.179	133.88
234.413	124.88
234.647	108.88
234.881	109.88
235.115	118.88
235.349	115.88
235.583	121.88
235.817	114.88
236.051	123.88
236.285	138.88
236.519	108.88
236.753	137.88
236.987	136.88
237.221	169.88
237.455	190.88
237.689	183.88
237.922	143.88
238.156	135.88
238.39	133.88
238.624	101.88
238.858	135.88
239.091	123.88
239.325	129.88
239.559	127.88
239.793	124.88
240.027	136.88
240.26	143.88
240.494	159.88
240.728	149.88
240.961	153.88
241.195	133.88
241.429	128.88
241.662	148.88
241.896	141.88
242.13	146.88
242.363	122.88
242.597	142.88
242.83	142.88
243.064	135.88
243.298	142.88
243.531	129.88
243.765	140.88
243.998	132.88
244.232	151.88
244.465	136.88
244.699	134.88
244.932	142.88
245.166	146.88
245.399	156.88
245.633	155.88
245.866	141.88
246.099	150.88
246.333	156.88
246.566	146.88
246.8	146.88
247.033	165.88
247.266	146.88
247.5	155.88
247.733	164.88
247.966	181.88
248.2	165.88
248.433	165.88
248.666	178.88
248.899	189.88
249.133	197.88
249.366	209.88
249.599	198.88
249.832	185.88
250.066	187.88
250.299	187.88
250.532	184.88
250.765	203.88
250.998	213.88
251.231	217.88
251.465	216.88
251.698	220.88
251.931	185.88
252.164	204.88
252.397	193.88
252.63	182.88
252.863	210.88
253.096	200.88
253.329	233.88
253.562	230.88
253.795	214.88
254.028	210.88
254.261	192.88
254.494	216.88
254.727	238.88
254.96	282.88
255.193	259.88
255.426	236.88
255.659	213.88
255.892	220.88
256.124	232.88
256.357	237.88
256.59	221.88
256.823	216.88
257.056	220.88
257.289	198.88
257.521	220.88
257.754	195.88
257.987	208.88
258.22	197.88
258.452	219.88
258.685	214.88
258.918	212.88
259.151	224.88
259.383	218.88
259.616	219.88
259.849	227.88
260.081	247.88
260.314	269.88
260.547	253.88
260.779	243.88
261.012	231.88
261.244	242.88
261.477	231.88
261.71	244.88
261.942	227.88
262.175	252.88
262.407	231.88
262.64	205.88
262.872	223.88
263.105	235.88
263.337	238.88
263.57	215.88
263.802	209.88
264.035	213.88
264.267	219.88
264.499	217.88
264.732	226.88
264.964	209.88
265.197	221.88
265.429	222.88
265.661	226.88
265.894	220.88
266.126	233.88
266.358	231.88
266.591	227.88
266.823	229.88
267.055	224.88
267.287	231.88
267.52	237.88
267.752	251.88
267.984	238.88
268.216	224.88
268.448	258.88
268.681	242.88
268.913	277.88
269.145	285.88
269.377	297.88
269.609	275.88
269.841	278.88
270.073	294.88
270.306	282.88
270.538	311.88
270.77	319.88
271.002	312.88
271.234	316.88
271.466	310.88
271.698	313.88
271.93	323.88
272.162	332.88
272.394	319.88
272.626	319.88
272.858	295.88
273.09	265.88
273.322	286.88
273.553	278.88
273.785	286.88
274.017	261.88
274.249	266.88
274.481	264.88
274.713	287.88
274.945	275.88
275.176	283.88
275.408	287.88
275.64	269.88
275.872	277.88
276.104	276.88
276.335	275.88
276.567	300.88
276.799	278.88
277.031	304.88
277.262	325.88
277.494	348.88
277.726	317.88
277.957	325.88
278.189	305.88
278.421	275.88
278.652	282.88
278.884	267.88
279.115	310.88
279.347	298.88
279.579	297.88
279.81	289.88
280.042	269.88
280.273	283.88
280.505	294.88
280.736	287.88
280.968	275.88
281.199	295.88
281.431	283.88
281.662	289.88
281.894	307.88
282.125	285.88
282.356	312.88
282.588	317.88
282.819	307.88
283.051	299.88
283.282	299.88
283.513	308.88
283.745	311.88
283.976	306.88
284.207	313.88
284.439	323.88
284.67	308.88
284.901	327.88
285.132	323.88
285.364	299.88
285.595	308.88
285.826	305.88
286.057	330.88
286.288	307.88
286.52	311.88
286.751	298.88
286.982	313.88
287.213	319.88
287.444	303.88
287.675	314.88
287.906	330.88
288.138	335.88
288.369	321.88
288.6	333.88
288.831	319.88
289.062	321.88
289.293	330.88
289.524	319.88
289.755	330.88
289.986	313.88
290.217	309.88
290.448	304.88
290.679	321.88
290.91	321.88
291.141	306.88
291.371	324.88
291.602	309.88
291.833	315.88
292.064	301.88
292.295	333.88
292.526	313.88
292.757	338.88
292.987	311.88
293.218	308.88
293.449	323.88
293.68	324.88
293.91	307.88
294.141	320.88
294.372	332.88
294.603	319.88
294.833	329.88
295.064	346.88
295.295	335.88
295.525	322.88
295.756	353.88
295.987	312.88
296.217	344.88
296.448	363.88
296.679	331.88
296.909	342.88
297.14	324.88
297.37	340.88
297.601	346.88
297.831	324.88
298.062	342.88
298.292	349.88
298.523	345.88
298.753	339.88
298.984	335.88
299.214	346.88
299.445	350.88
299.675	361.88
299.905	345.88
300.136	351.88
300.366	331.88
300.597	350.88
300.827	345.88
301.057	342.88
301.288	375.88
301.518	346.88
301.748	355.88
301.979	368.88
302.209	364.88
302.439	373.88
302.669	362.88
302.9	356.88
303.13	354.88
303.36	371.88
303.59	356.88
303.82	380.88
304.051	350.88
304.281	346.88
304.511	373.88
304.741	345.88
304.971	372.88
305.201	362.88
305.431	354.88
305.661	384.88
305.891	369.88
306.121	349.88
306.352	350.88
306.582	371.88
306.812	357.88
307.042	364.88
307.272	346.88
307.502	370.88
307.731	378.88
307.961	376.88
308.191	356.88
308.421	352.88
308.651	373.88
308.881	368.88
309.111	358.88
309.341	386.88
309.571	385.88
309.8	395.88
310.03	399.88
310.26	378.88
310.49	388.88
310.72	402.88
310.949	410.88
311.179	422.88
311.409	391.88
311.639	391.88
311.868	417.88
312.098	398.88
312.328	393.88
312.557	404.88
312.787	407.88
313.017	405.88
313.246	405.88
313.476	381.88
313.706	399.88
313.935	408.88
314.165	400.88
314.394	417.88
314.624	420.88
314.853	407.88
315.083	398.88
315.312	395.88
315.542	396.88
315.771	398.88
316.001	421.88
316.23	408.88
316.46	394.88
316.689	406.88
316.919	395.88
317.148	413.88
317.377	413.88
317.607	406.88
317.836	412.88
318.065	398.88
318.295	418.88
318.524	395.88
318.753	414.88
318.983	398.88
319.212	390.88
319.441	394.88
319.67	424.88
319.9	393.88
320.129	395.88
320.358	405.88
320.587	383.88
320.816	411.88
321.046	429.88
321.275	438.88
321.504	408.88
321.733	425.88
321.962	432.88
322.191	438.88
322.42	399.88
322.649	456.88
322.878	453.88
323.108	442.88
323.337	457.88
323.566	489.88
323.795	483.88
324.024	524.88
324.253	615.88
324.482	788.88
324.71	1134.88
324.939	1630.88
325.168	1427.88
325.397	788.88
325.626	571.88
325.855	530.88
326.084	494.88
326.313	491.88
326.542	474.88
326.77	541.88
326.999	578.88
327.228	726.88
327.457	1046.88
327.686	1261.88
327.914	900.88
328.143	636.88
328.372	580.88
328.6	556.88
328.829	535.88
329.058	522.88
329.287	538.88
329.515	515.88
329.744	503.88
329.972	504.88
330.201	517.88
330.43	535.88
330.658	544.88
330.887	544.88
331.115	550.88
331.344	531.88
331.572	518.88
331.801	517.88
332.03	494.88
332.258	524.88
332.486	491.88
332.715	502.88
332.943	506.88
333.172	505.88
333.4	499.88
333.629	525.88
333.857	524.88
334.085	549.88
334.314	538.88
334.542	548.88
334.771	564.88
334.999	544.88
335.227	521.88
335.455	501.88
335.684	499.88
335.912	492.88
336.14	491.88
336.369	482.88
336.597	485.88
336.825	466.88
337.053	493.88
337.281	469.88
337.51	462.88
337.738	488.88
337.966	474.88
338.194	455.88
338.422	469.88
338.65	460.88
338.878	482.88
339.106	457.88
339.334	469.88
339.562	450.88
339.79	452.88
340.018	441.88
340.246	450.88
340.474	445.88
340.702	456.88
340.93	449.88
341.158	436.88
341.386	446.88
341.614	465.88
341.842	446.88
342.07	448.88
342.298	438.88
342.526	459.88
342.754	421.88
342.981	445.88
343.209	453.88
343.437	460.88
343.665	465.88
343.893	496.88
344.12	496.88
344.348	478.88
344.576	472.88
344.804	480.88
345.031	467.88
345.259	481.88
345.487	472.88
345.714	455.88
345.942	447.88
346.17	448.88
346.397	422.88
346.625	445.88
346.853	435.88
347.08	440.88
347.308	444.88
347.535	438.88
347.763	455.88
347.99	440.88
348.218	458.88
348.445	442.88
348.673	445.88
348.9	424.88
349.128	444.88
349.355	423.88
349.583	431.88
349.81	402.88
350.037	406.88
350.265	422.88
350.492	438.88
350.72	417.88
350.947	424.88
351.174	444.88
351.402	452.88
351.629	434.88
351.856	416.88
352.083	418.88
352.311	420.88
352.538	444.88
352.765	453.88
352.992	426.88
353.22	416.88
353.447	432.88
353.674	427.88
353.901	418.88
354.128	435.88
354.355	414.88
354.583	413.88
354.81	395.88
355.037	405.88
355.264	426.88
355.491	414.88
355.718	420.88
355.945	394.88
356.172	406.88
356.399	419.88
356.626	402.88
356.853	416.88
357.08	409.88
357.307	414.88
357.534	400.88
357.761	409.88
357.988	411.88
358.215	412.88
358.441	432.88
358.668	410.88
358.895	425.88
359.122	396.88
359.349	419.88
359.576	452.88
359.802	449.88
360.029	456.88
360.256	453.88
360.483	459.88
360.709	416.88
360.936	436.88
361.163	423.88
361.39	440.88
361.616	453.88
361.843	413.88
362.07	450.88
362.296	424.88
362.523	427.88
362.749	427.88
362.976	424.88
363.203	414.88
363.429	406.88
363.656	408.88
363.882	427.88
364.109	422.88
364.335	421.88
364.562	418.88
364.788	418.88
365.015	396.88
365.241	407.88
365.468	416.88
365.694	417.88
365.92	419.88
366.147	416.88
366.373	400.88
366.599	409.88
366.826	428.88
367.052	410.88
367.278	398.88
367.505	413.88
367.731	418.88
367.957	407.88
368.184	407.88
368.41	427.88
368.636	426.88
368.862	412.88
369.089	422.88
369.315	425.88
369.541	402.88
369.767	422.88
369.993	441.88
370.219	418.88
370.445	425.88
370.672	408.88
370.898	402.88
371.124	428.88
371.35	422.88
371.576	418.88
371.802	414.88
372.028	420.88
372.254	424.88
372.48	442.88
372.706	418.88
372.932	433.88
373.158	429.88
373.384	447.88
373.61	416.88
373.835	429.88
374.061	411.88
374.287	431.88
374.513	445.88
374.739	440.88
374.965	457.88
375.191	429.88
375.416	435.88
375.642	432.88
375.868	444.88
376.094	452.88
376.319	423.88
376.545	438.88
376.771	414.88
376.997	420.88
377.222	427.88
377.448	412.88
377.674	432.88
377.899	434.88
378.125	410.88
378.35	409.88
378.576	416.88
378.802	422.88
379.027	417.88
379.253	406.88
379.478	407.88
379.704	413.88
379.929	424.88
380.155	433.88
380.38	420.88
380.606	425.88
380.831	411.88
381.057	433.88
381.282	422.88
381.507	436.88
381.733	428.88
381.958	409.88
382.184	437.88
382.409	419.88
382.634	451.88
382.86	425.88
383.085	462.88
383.31	453.88
383.535	455.88
383.761	454.88
383.986	450.88
384.211	454.88
384.436	449.88
384.662	462.88
384.887	472.88
385.112	472.88
385.337	460.88
385.562	484.88
385.787	487.88
386.013	499.88
386.238	487.88
386.463	488.88
386.688	467.88
386.913	468.88
387.138	472.88
387.363	499.88
387.588	465.88
387.813	466.88
388.038	457.88
388.263	484.88
388.488	481.88
388.713	464.88
388.938	462.88
389.163	480.88
389.387	472.88
389.612	477.88
389.837	447.88
390.062	454.88
390.287	487.88
390.512	492.88
390.736	479.88
390.961	469.88
391.186	483.88
391.411	479.88
391.636	501.88
391.86	522.88
392.085	510.88
392.31	517.88
392.534	500.88
392.759	485.88
392.984	508.88
393.208	498.88
393.433	490.88
393.658	487.88
393.882	482.88
394.107	479.88
394.331	495.88
394.556	489.88
394.78	500.88
395.005	486.88
395.229	489.88
395.454	495.88
395.678	510.88
395.903	522.88
396.127	503.88
396.352	526.88
396.576	485.88
396.801	504.88
397.025	490.88
397.249	503.88
397.474	525.88
397.698	535.88
397.922	538.88
398.147	528.88
398.371	566.88
398.595	539.88
398.82	568.88
399.044	578.88
399.268	611.88
399.492	661.88
399.717	721.88
399.941	772.88
400.165	745.88
400.389	716.88
400.613	643.88
400.837	587.88
401.062	584.88
401.286	573.88
401.51	551.88
401.734	560.88
401.958	556.88
402.182	573.88
402.406	568.88
402.63	566.88
402.854	585.88
403.078	579.88
403.302	581.88
403.526	592.88
403.75	594.88
403.974	576.88
404.198	604.88
404.422	601.88
404.645	616.88
404.869	617.88
405.093	646.88
405.317	632.88
405.541	693.88
405.765	638.88
405.988	634.88
406.212	636.88
406.436	642.88
406.66	631.88
406.883	651.88
407.107	630.88
407.331	705.88
407.555	758.88
407.778	742.88
408.002	694.88
408.226	654.88
408.449	633.88
408.673	653.88
408.896	679.88
409.12	680.88
409.344	653.88
409.567	628.88
409.791	596.88
410.014	578.88
410.238	584.88
410.461	574.88
410.685	579.88
410.908	605.88
411.132	624.88
411.355	639.88
411.578	626.88
411.802	584.88
412.025	581.88
412.249	586.88
412.472	603.88
412.695	652.88
412.919	616.88
413.142	604.88
413.365	593.88
413.589	568.88
413.812	583.88
414.035	554.88
414.258	532.88
414.482	554.88
414.705	568.88
414.928	568.88
415.151	558.88
415.374	564.88
415.597	544.88
415.821	537.88
416.044	553.88
416.267	550.88
416.49	576.88
416.713	534.88
416.936	556.88
417.159	544.88
417.382	560.88
417.605	546.88
417.828	549.88
418.051	582.88
418.274	552.88
418.497	566.88
418.72	555.88
418.943	562.88
419.166	601.88
419.389	634.88
419.611	597.88
419.834	569.88
420.057	581.88
420.28	593.88
420.503	568.88
420.726	572.88
420.948	591.88
421.171	620.88
421.394	627.88
421.617	588.88
421.839	568.88
422.062	550.88
422.285	585.88
422.507	616.88
422.73	694.88
422.953	681.88
423.175	606.88
423.398	594.88
423.621	590.88
423.843	606.88
424.066	609.88
424.288	610.88
424.511	620.88
424.733	673.88
424.956	724.88
425.178	696.88
425.401	713.88
425.623	733.88
425.846	644.88
426.068	601.88
426.291	592.88
426.513	585.88
426.735	593.88
426.958	610.88
427.18	712.88
427.402	804.88
427.625	843.88
427.847	765.88
428.069	649.88
428.292	608.88
428.514	570.88
428.736	556.88
428.958	570.88
429.181	542.88
429.403	552.88
429.625	541.88
429.847	588.88
430.069	614.88
430.292	610.88
430.514	564.88
430.736	542.88
430.958	533.88
431.18	533.88
431.402	517.88
431.624	532.88
431.846	520.88
432.068	512.88
432.29	540.88
432.512	526.88
432.734	503.88
432.956	526.88
433.178	552.88
433.4	550.88
433.622	544.88
433.844	516.88
434.066	535.88
434.287	534.88
434.509	549.88
434.731	549.88
434.953	564.88
435.175	577.88
435.397	602.88
435.618	593.88
435.84	621.88
436.062	699.88
436.284	766.88
436.505	600.88
436.727	592.88
436.949	565.88
437.17	538.88
437.392	540.88
437.614	546.88
437.835	566.88
438.057	629.88
438.278	711.88
438.5	720.88
438.721	768.88
438.943	747.88
439.165	622.88
439.386	573.88
439.608	587.88
439.829	589.88
440.05	605.88
440.272	615.88
440.493	578.88
440.715	566.88
440.936	570.88
441.158	558.88
441.379	565.88
441.6	578.88
441.822	582.88
442.043	628.88
442.264	684.88
442.486	723.88
442.707	629.88
442.928	602.88
443.149	611.88
443.371	612.88
443.592	670.88
443.813	758.88
444.034	801.88
444.255	682.88
444.476	636.88
444.698	642.88
444.919	618.88
445.14	731.88
445.361	666.88
445.582	647.88
445.803	680.88
446.024	769.88
446.245	760.88
446.466	706.88
446.687	595.88
446.908	596.88
447.129	540.88
447.35	534.88
447.571	562.88
447.792	518.88
448.013	512.88
448.234	523.88
448.455	578.88
448.675	688.88
448.896	759.88
449.117	672.88
449.338	641.88
449.559	725.88
449.779	792.88
450	665.88
450.221	557.88
450.442	538.88
450.662	509.88
450.883	526.88
451.104	555.88
451.324	536.88
451.545	493.88
451.766	490.88
451.986	514.88
452.207	502.88
452.428	472.88
452.648	500.88
452.869	472.88
453.089	483.88
453.31	509.88
453.53	484.88
453.751	475.88
453.971	494.88
454.192	491.88
454.412	481.88
454.633	498.88
454.853	452.88
455.073	485.88
455.294	514.88
455.514	553.88
455.734	546.88
455.955	461.88
456.175	486.88
456.395	456.88
456.616	448.88
456.836	459.88
457.056	484.88
457.276	421.88
457.497	475.88
457.717	469.88
457.937	478.88
458.157	476.88
458.377	483.88
458.598	506.88
458.818	548.88
459.038	582.88
459.258	616.88
459.478	568.88
459.698	535.88
459.918	521.88
460.138	530.88
460.358	556.88
460.578	570.88
460.798	557.88
461.018	568.88
461.238	568.88
461.458	554.88
461.678	566.88
461.898	565.88
462.118	563.88
462.338	579.88
462.558	571.88
462.777	609.88
462.997	601.88
463.217	632.88
463.437	672.88
463.657	629.88
463.876	620.88
464.096	602.88
464.316	605.88
464.536	617.88
464.755	614.88
464.975	614.88
465.195	584.88
465.414	624.88
465.634	554.88
465.854	578.88
466.073	542.88
466.293	504.88
466.512	501.88
466.732	510.88
466.951	512.88
467.171	489.88
467.391	502.88
467.61	509.88
467.829	514.88
468.049	516.88
468.268	500.88
468.488	495.88
468.707	493.88
468.927	473.88
469.146	455.88
469.365	482.88
469.585	490.88
469.804	493.88
470.023	516.88
470.243	520.88
470.462	508.88
470.681	530.88
470.901	530.88
471.12	493.88
471.339	504.88
471.558	500.88
471.777	517.88
471.997	500.88
472.216	502.88
472.435	536.88
472.654	492.88
472.873	502.88
473.092	515.88
473.311	481.88
473.53	502.88
473.749	501.88
473.968	522.88
474.187	614.88
474.406	639.88
474.625	549.88
474.844	497.88
475.063	497.88
475.282	497.88
475.501	497.88
475.72	505.88
475.939	514.88
476.158	524.88
476.377	526.88
476.596	513.88
476.814	522.88
477.033	525.88
477.252	556.88
477.471	541.88
477.69	538.88
477.908	571.88
478.127	572.88
478.346	561.88
478.564	567.88
478.783	567.88
479.002	588.88
479.22	591.88
479.439	576.88
479.658	588.88
479.876	619.88
480.095	634.88
480.313	642.88
480.532	620.88
480.751	629.88
480.969	622.88
481.188	656.88
481.406	666.88
481.624	637.88
481.843	594.88
482.061	574.88
482.28	584.88
482.498	559.88
482.717	574.88
482.935	577.88
483.153	586.88
483.372	577.88
483.59	571.88
483.808	558.88
484.027	573.88
484.245	568.88
484.463	587.88
484.681	569.88
484.9	576.88
485.118	603.88
485.336	591.88
485.554	596.88
485.772	607.88
485.99	617.88
486.209	610.88
486.427	581.88
486.645	614.88
486.863	607.88
487.081	626.88
487.299	632.88
487.517	634.88
487.735	597.88
487.953	617.88
488.171	592.88
488.389	611.88
488.607	634.88
488.825	619.88
489.043	640.88
489.261	611.88
489.479	638.88
489.696	626.88
489.914	619.88
490.132	640.88
490.35	633.88
490.568	636.88
490.786	641.88
491.003	668.88
491.221	670.88
491.439	695.88
491.657	673.88
491.874	686.88
492.092	700.88
492.31	710.88
492.527	714.88
492.745	680.88
492.963	702.88
493.18	714.88
493.398	730.88
493.615	714.88
493.833	725.88
494.05	706.88
494.268	723.88
494.485	715.88
494.703	699.88
494.92	718.88
495.138	719.88
495.355	710.88
495.573	735.88
495.79	720.88
496.008	738.88
496.225	723.88
496.442	732.88
496.66	739.88
496.877	756.88
497.094	752.88
497.312	749.88
497.529	749.88
497.746	777.88
497.963	789.88
498.181	822.88
498.398	832.88
498.615	841.88
498.832	879.88
499.049	892.88
499.267	945.88
499.484	969.88
499.701	1068.88
499.918	1082.88
500.135	1156.88
500.352	1258.88
500.569	1302.88
500.786	1276.88
501.003	1237.88
501.22	1194.88
501.437	1138.88
501.654	1076.88
501.871	1052.88
502.088	963.88
502.305	950.88
502.522	860.88
502.739	877.88
502.956	802.88
503.172	803.88
503.389	788.88
503.606	783.88
503.823	748.88
504.04	759.88
504.256	752.88
504.473	744.88
504.69	749.88
504.907	755.88
505.123	750.88
505.34	728.88
505.557	684.88
505.773	692.88
505.99	684.88
506.207	686.88
506.423	686.88
506.64	683.88
506.856	682.88
507.073	656.88
507.289	664.88
507.506	651.88
507.722	644.88
507.939	683.88
508.155	671.88
508.372	656.88
508.588	639.88
508.805	622.88
509.021	642.88
509.238	652.88
509.454	670.88
509.67	634.88
509.887	621.88
510.103	613.88
510.319	666.88
510.536	682.88
510.752	941.88
510.968	827.88
511.184	644.88
511.401	596.88
511.617	611.88
511.833	609.88
512.049	603.88
512.265	618.88
512.481	589.88
512.698	607.88
512.914	586.88
513.13	568.88
513.346	601.88
513.562	588.88
513.778	591.88
513.994	598.88
514.21	614.88
514.426	605.88
514.642	654.88
514.858	649.88
515.074	669.88
515.29	750.88
515.506	991.88
515.721	856.88
515.937	663.88
516.153	651.88
516.369	661.88
516.585	630.88
516.801	658.88
517.016	683.88
517.232	672.88
517.448	695.88
517.664	683.88
517.879	686.88
518.095	706.88
518.311	663.88
518.527	654.88
518.742	637.88
518.958	630.88
519.173	648.88
519.389	626.88
519.605	635.88
519.82	618.88
520.036	621.88
520.251	619.88
520.467	634.88
520.682	621.88
520.898	628.88
521.113	634.88
521.329	661.88
521.544	683.88
521.76	796.88
521.975	1161.88
522.19	1127.88
522.406	720.88
522.621	615.88
522.836	610.88
523.052	551.88
523.267	578.88
523.482	573.88
523.698	567.88
523.913	552.88
524.128	557.88
524.343	556.88
524.559	510.88
524.774	533.88
524.989	510.88
525.204	539.88
525.419	530.88
525.634	497.88
525.849	528.88
526.064	509.88
526.28	512.88
526.495	504.88
526.71	515.88
526.925	512.88
527.14	500.88
527.355	496.88
527.57	498.88
527.785	498.88
527.999	501.88
528.214	503.88
528.429	516.88
528.644	509.88
528.859	518.88
529.074	521.88
529.289	509.88
529.503	581.88
529.718	555.88
529.933	495.88
530.148	474.88
530.363	494.88
530.577	481.88
530.792	491.88
531.007	499.88
531.221	500.88
531.436	508.88
531.651	506.88
531.865	491.88
532.08	480.88
532.295	473.88
532.509	486.88
532.724	475.88
532.938	493.88
533.153	506.88
533.367	464.88
533.582	511.88
533.796	490.88
534.011	470.88
534.225	481.88
534.44	477.88
534.654	480.88
534.868	486.88
535.083	474.88
535.297	474.88
535.511	483.88
535.726	478.88
535.94	491.88
536.154	487.88
536.369	491.88
536.583	453.88
536.797	468.88
537.011	484.88
537.225	483.88
537.44	455.88
537.654	490.88
537.868	454.88
538.082	452.88
538.296	485.88
538.51	483.88
538.724	470.88
538.938	444.88
539.153	472.88
539.367	486.88
539.581	459.88
539.795	468.88
540.009	458.88
540.222	459.88
540.436	470.88
540.65	456.88
540.864	461.88
541.078	474.88
541.292	480.88
541.506	461.88
541.72	462.88
541.934	477.88
542.147	459.88
542.361	470.88
542.575	460.88
542.789	451.88
543.002	467.88
543.216	466.88
543.43	476.88
543.644	456.88
543.857	471.88
544.071	473.88
544.285	457.88
544.498	463.88
544.712	469.88
544.925	463.88
545.139	470.88
545.352	471.88
545.566	453.88
545.779	470.88
545.993	485.88
546.206	459.88
546.42	475.88
546.633	460.88
546.847	453.88
547.06	444.88
547.274	454.88
547.487	459.88
547.7	462.88
547.914	459.88
548.127	473.88
548.34	432.88
548.554	463.88
548.767	438.88
548.98	460.88
549.193	454.88
549.407	467.88
549.62	450.88
549.833	461.88
550.046	480.88
550.259	465.88
550.473	465.88
550.686	450.88
550.899	432.88
551.112	446.88
551.325	479.88
551.538	478.88
551.751	458.88
551.964	457.88
552.177	464.88
552.39	445.88
552.603	464.88
552.816	471.88
553.029	487.88
553.242	473.88
553.455	467.88
553.667	498.88
553.88	486.88
554.093	487.88
554.306	458.88
554.519	476.88
554.732	426.88
554.944	453.88
555.157	431.88
555.37	439.88
555.583	427.88
555.795	438.88
556.008	434.88
556.221	423.88
556.433	430.88
556.646	421.88
556.859	433.88
557.071	416.88
557.284	408.88
557.496	396.88
557.709	412.88
557.921	411.88
558.134	394.88
558.346	397.88
558.559	399.88
558.771	406.88
558.984	413.88
559.196	395.88
559.409	410.88
559.621	410.88
559.833	405.88
560.046	401.88
560.258	401.88
560.47	410.88
560.683	400.88
560.895	404.88
561.107	401.88
561.32	404.88
561.532	393.88
561.744	388.88
561.956	394.88
562.168	408.88
562.381	412.88
562.593	395.88
562.805	404.88
563.017	399.88
563.229	411.88
563.441	425.88
563.653	380.88
563.865	412.88
564.077	417.88
564.289	412.88
564.501	434.88
564.713	444.88
564.925	435.88
565.137	443.88
565.349	446.88
565.561	453.88
565.773	462.88
565.985	460.88
566.197	463.88
566.408	508.88
566.62	554.88
566.832	547.88
567.044	550.88
567.255	562.88
567.467	568.88
567.679	604.88
567.891	610.88
568.102	634.88
568.314	606.88
568.526	568.88
568.737	544.88
568.949	508.88
569.161	470.88
569.372	461.88
569.584	445.88
569.795	438.88
570.007	432.88
570.218	460.88
570.43	432.88
570.641	405.88
570.853	412.88
571.064	420.88
571.276	424.88
571.487	400.88
571.698	409.88
571.91	372.88
572.121	376.88
572.333	377.88
572.544	373.88
572.755	363.88
572.966	384.88
573.178	366.88
573.389	372.88
573.6	361.88
573.811	352.88
574.023	357.88
574.234	353.88
574.445	358.88
574.656	360.88
574.867	359.88
575.078	354.88
575.289	345.88
575.501	363.88
575.712	337.88
575.923	340.88
576.134	334.88
576.345	316.88
576.556	323.88
576.767	333.88
576.978	354.88
577.188	342.88
577.399	340.88
577.61	353.88
577.821	325.88
578.032	326.88
578.243	361.88
578.454	486.88
578.665	397.88
578.875	326.88
579.086	344.88
579.297	314.88
579.508	329.88
579.718	336.88
579.929	325.88
580.14	314.88
580.35	328.88
580.561	316.88
580.772	319.88
580.982	322.88
581.193	317.88
581.403	323.88
581.614	314.88
581.825	315.88
582.035	326.88
582.246	299.88
582.456	316.88
582.667	308.88
582.877	295.88
583.087	315.88
583.298	308.88
583.508	316.88
583.719	310.88
583.929	313.88
584.139	315.88
584.35	299.88
584.56	308.88
584.77	308.88
584.981	306.88
585.191	296.88
585.401	316.88
585.611	316.88
585.821	308.88
586.032	313.88
586.242	308.88
586.452	316.88
586.662	285.88
586.872	302.88
587.082	307.88
587.292	306.88
587.502	301.88
587.713	276.88
587.923	293.88
588.133	295.88
588.343	293.88
588.553	308.88
588.762	310.88
588.972	299.88
589.182	310.88
589.392	315.88
589.602	294.88
589.812	304.88
590.022	314.88
590.232	302.88
590.441	313.88
590.651	323.88
590.861	307.88
591.071	305.88
591.281	304.88
591.49	300.88
591.7	325.88
591.91	326.88
592.119	320.88
592.329	325.88
592.539	312.88
592.748	345.88
592.958	347.88
593.167	334.88
593.377	359.88
593.587	378.88
593.796	354.88
594.006	340.88
594.215	350.88
594.424	350.88
594.634	371.88
594.843	336.88
595.053	333.88
595.262	327.88
595.472	321.88
595.681	323.88
595.89	316.88
596.1	302.88
596.309	309.88
596.518	294.88
596.727	290.88
596.937	272.88
597.146	291.88
597.355	297.88
597.564	280.88
597.774	294.88
597.983	287.88
598.192	272.88
598.401	268.88
598.61	291.88
598.819	276.88
599.028	271.88
599.237	287.88
599.446	277.88
599.655	274.88
599.864	284.88
600.073	264.88
600.282	263.88
600.491	247.88
600.7	278.88
600.909	264.88
601.118	280.88
601.327	278.88
601.536	281.88
601.745	268.88
601.953	253.88
602.162	273.88
602.371	272.88
602.58	259.88
602.789	274.88
602.997	281.88
603.206	251.88
603.415	256.88
603.623	273.88
603.832	272.88
604.041	266.88
604.249	264.88
604.458	265.88
604.666	253.88
604.875	265.88
605.084	261.88
605.292	241.88
605.501	267.88
605.709	256.88
605.918	268.88
606.126	247.88
606.334	265.88
606.543	236.88
606.751	251.88
606.96	233.88
607.168	242.88
607.376	242.88
607.585	257.88
607.793	250.88
608.001	260.88
608.21	261.88
608.418	257.88
608.626	250.88
608.834	240.88
609.043	270.88
609.251	244.88
609.459	248.88
609.667	245.88
609.875	241.88
610.083	238.88
610.291	234.88
610.499	245.88
610.707	246.88
610.916	251.88
611.124	265.88
611.332	270.88
611.54	251.88
611.748	254.88
611.955	254.88
612.163	256.88
612.371	240.88
612.579	254.88
612.787	244.88
612.995	269.88
613.203	229.88
613.411	249.88
613.618	233.88
613.826	230.88
614.034	242.88
614.242	242.88
614.449	226.88
614.657	242.88
614.865	229.88
615.072	236.88
615.28	213.88
615.488	227.88
615.695	233.88
615.903	236.88
616.111	246.88
616.318	237.88
616.526	240.88
616.733	245.88
616.941	238.88
617.148	241.88
617.356	216.88
617.563	232.88
617.771	259.88
617.978	242.88
618.185	244.88
618.393	240.88
618.6	243.88
618.807	237.88
619.015	218.88
619.222	232.88
619.429	241.88
619.637	260.88
619.844	243.88
620.051	256.88
620.258	250.88
620.466	212.88
620.673	219.88
620.88	238.88
621.087	241.88
621.294	231.88
621.501	244.88
621.708	246.88
621.915	248.88
622.122	237.88
622.329	236.88
622.536	220.88
622.743	233.88
622.95	228.88
623.157	210.88
623.364	215.88
623.571	226.88
623.778	222.88
623.985	233.88
624.192	224.88
624.399	222.88
624.606	226.88
624.812	206.88
625.019	226.88
625.226	224.88
625.433	228.88
625.639	208.88
625.846	219.88
626.053	212.88
626.259	211.88
626.466	217.88
626.673	197.88
626.879	233.88
627.086	224.88
627.293	204.88
627.499	209.88
627.706	205.88
627.912	209.88
628.119	201.88
628.325	226.88
628.532	217.88
628.738	204.88
628.945	190.88
629.151	199.88
629.357	201.88
629.564	199.88
629.77	203.88
629.976	227.88
630.183	216.88
630.389	197.88
630.595	206.88
630.802	206.88
631.008	206.88
631.214	212.88
631.42	188.88
631.627	210.88
631.833	204.88
632.039	202.88
632.245	202.88
632.451	185.88
632.657	189.88
632.863	189.88
633.069	182.88
633.275	193.88
633.481	214.88
633.688	182.88
633.893	190.88
634.099	186.88
634.305	208.88
634.511	193.88
634.717	182.88
634.923	177.88
635.129	178.88
635.335	181.88
635.541	193.88
635.747	190.88
635.952	189.88
636.158	186.88
636.364	186.88
636.57	182.88
636.775	199.88
636.981	203.88
637.187	192.88
637.392	181.88
637.598	203.88
637.804	182.88
638.009	186.88
638.215	191.88
638.421	168.88
638.626	176.88
638.832	185.88
639.037	160.88
639.243	166.88
639.448	156.88
639.654	169.88
639.859	193.88
640.065	164.88
640.27	183.88
640.475	180.88
640.681	162.88
640.886	178.88
641.091	181.88
641.297	177.88
641.502	172.88
641.707	190.88
641.913	163.88
642.118	181.88
642.323	168.88
642.528	183.88
642.733	190.88
642.939	186.88
643.144	173.88
643.349	173.88
643.554	164.88
643.759	168.88
643.964	178.88
644.169	188.88
644.374	185.88
644.579	170.88
644.784	158.88
644.989	170.88
645.194	173.88
645.399	181.88
645.604	168.88
645.809	176.88
646.014	180.88
646.219	165.88
646.423	167.88
646.628	164.88
646.833	167.88
647.038	167.88
647.243	169.88
647.447	178.88
647.652	169.88
647.857	171.88
648.062	171.88
648.266	187.88
648.471	174.88
648.676	177.88
648.88	173.88
649.085	177.88
649.289	176.88
649.494	182.88
649.698	194.88
649.903	200.88
650.107	191.88
650.312	179.88
650.516	167.88
650.721	173.88
650.925	168.88
651.13	158.88
651.334	151.88
651.539	164.88
651.743	130.88
651.947	148.88
652.152	150.88
652.356	140.88
652.56	153.88
652.764	138.88
652.969	150.88
653.173	140.88
653.377	149.88
653.581	147.88
653.785	142.88
653.99	148.88
654.194	142.88
654.398	148.88
654.602	137.88
654.806	144.88
655.01	132.88
655.214	142.88
655.418	137.88
655.622	126.88
655.826	141.88
656.03	143.88
656.234	157.88
656.438	156.88
656.642	139.88
656.846	134.88
657.049	138.88
657.253	133.88
657.457	125.88
657.661	122.88
657.865	110.88
658.068	112.88
658.272	114.88
658.476	108.88
658.68	106.88
658.883	110.88
659.087	104.88
659.291	108.88
659.494	113.88
659.698	95.88
659.901	110.88
660.105	109.88
660.309	101.88
660.512	96.88
660.716	83.88
660.919	91.88
661.123	99.88
661.326	96.88
661.53	89.88
661.733	91.88
661.936	102.88
662.14	62.88
662.343	88.88
662.546	85.88
662.75	88.88
662.953	82.88
663.156	88.88
663.36	82.88
663.563	88.88
663.766	75.88
663.969	93.88
664.173	81.88
664.376	81.88
664.579	84.88
664.782	83.88
664.985	86.88
665.188	91.88
665.391	85.88
665.594	72.88
665.797	78.88
666	65.88
666.203	77.88
666.406	86.88
666.609	86.88
666.812	77.88
667.015	82.88
667.218	78.88
667.421	78.88
667.624	94.88
667.827	72.88
668.03	79.88
668.232	84.88
668.435	87.88
668.638	83.88
668.841	90.88
669.043	85.88
669.246	81.88
669.449	80.88
669.651	81.88
669.854	80.88
670.057	87.88
670.259	82.88
670.462	89.88
670.665	91.88
670.867	74.88
671.07	79.88
671.272	76.88
671.475	97.88
671.677	80.88
671.88	68.88
672.082	75.88
672.284	86.88
672.487	78.88
672.689	83.88
672.892	85.88
