Data from 1973.PennyLincolnUp.Lamp.En5.5.200Scan.071719.P1.Changed Mount._HRD10591_15-43-52-852.txt Node
Date: Thu Jul 18 15:43:52 EDT 2019
User: cochatt
Spectrometer: HR+D1059
Trigger mode: 1
Integration Time (sec): 1.000000E-1
Scans to average: 1
Electric dark correction enabled: true
Nonlinearity correction enabled: false
Boxcar width: 0
XAxis mode: Wavelengths
Number of Pixels in Spectrum: 2048
>>>>>Begin Spectral Data<<<<<
223.165	-6.56
223.4	-6.56
223.635	-6.56
223.869	-10.56
224.104	-4.56
224.338	-7.56
224.573	-11.56
224.808	-14.56
225.042	-18.56
225.277	-20.56
225.511	-7.56
225.746	6.44
225.98	12.44
226.215	2.44
226.449	-1.56
226.683	15.44
226.918	26.44
227.152	40.44
227.387	44.44
227.621	41.44
227.856	54.44
228.09	48.44
228.324	47.44
228.559	65.44
228.793	76.44
229.027	99.44
229.262	101.44
229.496	112.44
229.73	124.44
229.964	135.44
230.199	123.44
230.433	106.44
230.667	102.44
230.901	121.44
231.136	109.44
231.37	103.44
231.604	93.44
231.838	112.44
232.072	96.44
232.306	118.44
232.541	118.44
232.775	131.44
233.009	107.44
233.243	112.44
233.477	118.44
233.711	108.44
233.945	113.44
234.179	117.44
234.413	123.44
234.647	117.44
234.881	114.44
235.115	124.44
235.349	128.44
235.583	119.44
235.817	112.44
236.051	123.44
236.285	138.44
236.519	126.44
236.753	137.44
236.987	139.44
237.221	165.44
237.455	184.44
237.689	171.44
237.922	156.44
238.156	120.44
238.39	136.44
238.624	132.44
238.858	113.44
239.091	116.44
239.325	116.44
239.559	135.44
239.793	134.44
240.027	133.44
240.26	153.44
240.494	155.44
240.728	139.44
240.961	152.44
241.195	144.44
241.429	166.44
241.662	142.44
241.896	137.44
242.13	136.44
242.363	141.44
242.597	151.44
242.83	140.44
243.064	128.44
243.298	132.44
243.531	145.44
243.765	150.44
243.998	142.44
244.232	142.44
244.465	133.44
244.699	168.44
244.932	137.44
245.166	162.44
245.399	161.44
245.633	147.44
245.866	157.44
246.099	156.44
246.333	145.44
246.566	160.44
246.8	134.44
247.033	153.44
247.266	156.44
247.5	137.44
247.733	154.44
247.966	185.44
248.2	175.44
248.433	190.44
248.666	166.44
248.899	179.44
249.133	206.44
249.366	187.44
249.599	182.44
249.832	180.44
250.066	157.44
250.299	184.44
250.532	184.44
250.765	186.44
250.998	203.44
251.231	218.44
251.465	237.44
251.698	196.44
251.931	198.44
252.164	181.44
252.397	194.44
252.63	208.44
252.863	197.44
253.096	209.44
253.329	204.44
253.562	215.44
253.795	215.44
254.028	222.44
254.261	224.44
254.494	228.44
254.727	220.44
254.96	265.44
255.193	244.44
255.426	237.44
255.659	218.44
255.892	225.44
256.124	220.44
256.357	210.44
256.59	213.44
256.823	212.44
257.056	198.44
257.289	195.44
257.521	209.44
257.754	203.44
257.987	215.44
258.22	221.44
258.452	185.44
258.685	190.44
258.918	204.44
259.151	216.44
259.383	224.44
259.616	214.44
259.849	229.44
260.081	229.44
260.314	236.44
260.547	258.44
260.779	236.44
261.012	233.44
261.244	221.44
261.477	206.44
261.71	216.44
261.942	216.44
262.175	219.44
262.407	231.44
262.64	222.44
262.872	222.44
263.105	217.44
263.337	234.44
263.57	203.44
263.802	220.44
264.035	209.44
264.267	219.44
264.499	216.44
264.732	209.44
264.964	232.44
265.197	215.44
265.429	225.44
265.661	217.44
265.894	210.44
266.126	226.44
266.358	217.44
266.591	229.44
266.823	212.44
267.055	231.44
267.287	231.44
267.52	238.44
267.752	240.44
267.984	241.44
268.216	231.44
268.448	236.44
268.681	244.44
268.913	239.44
269.145	251.44
269.377	284.44
269.609	265.44
269.841	268.44
270.073	279.44
270.306	288.44
270.538	282.44
270.77	285.44
271.002	282.44
271.234	283.44
271.466	285.44
271.698	304.44
271.93	298.44
272.162	304.44
272.394	293.44
272.626	303.44
272.858	263.44
273.09	280.44
273.322	264.44
273.553	267.44
273.785	277.44
274.017	256.44
274.249	277.44
274.481	265.44
274.713	247.44
274.945	264.44
275.176	276.44
275.408	269.44
275.64	271.44
275.872	274.44
276.104	254.44
276.335	276.44
276.567	274.44
276.799	284.44
277.031	280.44
277.262	300.44
277.494	316.44
277.726	299.44
277.957	281.44
278.189	281.44
278.421	277.44
278.652	291.44
278.884	261.44
279.115	285.44
279.347	290.44
279.579	278.44
279.81	282.44
280.042	281.44
280.273	277.44
280.505	285.44
280.736	273.44
280.968	281.44
281.199	274.44
281.431	260.44
281.662	275.44
281.894	289.44
282.125	290.44
282.356	300.44
282.588	297.44
282.819	293.44
283.051	294.44
283.282	288.44
283.513	274.44
283.745	290.44
283.976	297.44
284.207	302.44
284.439	289.44
284.67	315.44
284.901	288.44
285.132	289.44
285.364	312.44
285.595	296.44
285.826	305.44
286.057	300.44
286.288	281.44
286.52	309.44
286.751	305.44
286.982	309.44
287.213	280.44
287.444	313.44
287.675	320.44
287.906	331.44
288.138	315.44
288.369	329.44
288.6	311.44
288.831	293.44
289.062	322.44
289.293	312.44
289.524	309.44
289.755	303.44
289.986	305.44
290.217	302.44
290.448	326.44
290.679	309.44
290.91	306.44
291.141	304.44
291.371	305.44
291.602	309.44
291.833	304.44
292.064	302.44
292.295	291.44
292.526	322.44
292.757	327.44
292.987	310.44
293.218	335.44
293.449	317.44
293.68	310.44
293.91	314.44
294.141	316.44
294.372	311.44
294.603	306.44
294.833	312.44
295.064	332.44
295.295	313.44
295.525	316.44
295.756	326.44
295.987	312.44
296.217	333.44
296.448	330.44
296.679	334.44
296.909	295.44
297.14	304.44
297.37	337.44
297.601	330.44
297.831	324.44
298.062	321.44
298.292	320.44
298.523	343.44
298.753	346.44
298.984	345.44
299.214	325.44
299.445	330.44
299.675	336.44
299.905	345.44
300.136	327.44
300.366	332.44
300.597	350.44
300.827	344.44
301.057	345.44
301.288	339.44
301.518	373.44
301.748	359.44
301.979	356.44
302.209	343.44
302.439	336.44
302.669	336.44
302.9	347.44
303.13	339.44
303.36	348.44
303.59	362.44
303.82	357.44
304.051	361.44
304.281	366.44
304.511	353.44
304.741	354.44
304.971	346.44
305.201	359.44
305.431	331.44
305.661	354.44
305.891	351.44
306.121	345.44
306.352	356.44
306.582	361.44
306.812	337.44
307.042	353.44
307.272	338.44
307.502	356.44
307.731	361.44
307.961	346.44
308.191	351.44
308.421	353.44
308.651	345.44
308.881	346.44
309.111	365.44
309.341	358.44
309.571	361.44
309.8	369.44
310.03	337.44
310.26	376.44
310.49	382.44
310.72	364.44
310.949	392.44
311.179	384.44
311.409	361.44
311.639	376.44
311.868	372.44
312.098	374.44
312.328	354.44
312.557	386.44
312.787	390.44
313.017	390.44
313.246	371.44
313.476	372.44
313.706	378.44
313.935	376.44
314.165	383.44
314.394	401.44
314.624	394.44
314.853	393.44
315.083	381.44
315.312	385.44
315.542	378.44
315.771	381.44
316.001	385.44
316.23	377.44
316.46	391.44
316.689	385.44
316.919	373.44
317.148	391.44
317.377	386.44
317.607	395.44
317.836	376.44
318.065	391.44
318.295	380.44
318.524	383.44
318.753	385.44
318.983	374.44
319.212	373.44
319.441	388.44
319.67	368.44
319.9	390.44
320.129	410.44
320.358	385.44
320.587	360.44
320.816	374.44
321.046	376.44
321.275	375.44
321.504	399.44
321.733	384.44
321.962	389.44
322.191	393.44
322.42	411.44
322.649	407.44
322.878	426.44
323.108	439.44
323.337	425.44
323.566	425.44
323.795	441.44
324.024	479.44
324.253	508.44
324.482	676.44
324.71	960.44
324.939	1361.44
325.168	1198.44
325.397	667.44
325.626	496.44
325.855	462.44
326.084	439.44
326.313	447.44
326.542	448.44
326.77	449.44
326.999	520.44
327.228	641.44
327.457	871.44
327.686	1044.44
327.914	745.44
328.143	542.44
328.372	487.44
328.6	494.44
328.829	480.44
329.058	476.44
329.287	483.44
329.515	479.44
329.744	439.44
329.972	474.44
330.201	474.44
330.43	483.44
330.658	509.44
330.887	484.44
331.115	494.44
331.344	476.44
331.572	465.44
331.801	467.44
332.03	465.44
332.258	489.44
332.486	474.44
332.715	463.44
332.943	480.44
333.172	469.44
333.4	513.44
333.629	520.44
333.857	512.44
334.085	505.44
334.314	517.44
334.542	513.44
334.771	525.44
334.999	489.44
335.227	488.44
335.455	487.44
335.684	464.44
335.912	477.44
336.14	465.44
336.369	454.44
336.597	467.44
336.825	436.44
337.053	455.44
337.281	450.44
337.51	454.44
337.738	473.44
337.966	436.44
338.194	436.44
338.422	436.44
338.65	436.44
338.878	445.44
339.106	453.44
339.334	451.44
339.562	441.44
339.79	436.44
340.018	445.44
340.246	421.44
340.474	440.44
340.702	440.44
340.93	436.44
341.158	435.44
341.386	428.44
341.614	420.44
341.842	446.44
342.07	424.44
342.298	426.44
342.526	434.44
342.754	422.44
342.981	440.44
343.209	410.44
343.437	441.44
343.665	455.44
343.893	457.44
344.12	458.44
344.348	478.44
344.576	466.44
344.804	442.44
345.031	443.44
345.259	441.44
345.487	437.44
345.714	439.44
345.942	430.44
346.17	410.44
346.397	405.44
346.625	419.44
346.853	429.44
347.08	399.44
347.308	388.44
347.535	417.44
347.763	426.44
347.99	395.44
348.218	431.44
348.445	416.44
348.673	397.44
348.9	399.44
349.128	412.44
349.355	397.44
349.583	396.44
349.81	405.44
350.037	396.44
350.265	388.44
350.492	400.44
350.72	409.44
350.947	392.44
351.174	416.44
351.402	412.44
351.629	404.44
351.856	420.44
352.083	423.44
352.311	422.44
352.538	418.44
352.765	412.44
352.992	407.44
353.22	412.44
353.447	405.44
353.674	396.44
353.901	392.44
354.128	391.44
354.355	397.44
354.583	401.44
354.81	381.44
355.037	400.44
355.264	394.44
355.491	413.44
355.718	396.44
355.945	385.44
356.172	382.44
356.399	387.44
356.626	409.44
356.853	390.44
357.08	363.44
357.307	415.44
357.534	417.44
357.761	405.44
357.988	391.44
358.215	408.44
358.441	403.44
358.668	406.44
358.895	378.44
359.122	386.44
359.349	412.44
359.576	422.44
359.802	412.44
360.029	425.44
360.256	440.44
360.483	426.44
360.709	401.44
360.936	402.44
361.163	398.44
361.39	410.44
361.616	396.44
361.843	410.44
362.07	406.44
362.296	410.44
362.523	425.44
362.749	400.44
362.976	401.44
363.203	408.44
363.429	397.44
363.656	410.44
363.882	390.44
364.109	414.44
364.335	374.44
364.562	390.44
364.788	412.44
365.015	402.44
365.241	390.44
365.468	379.44
365.694	406.44
365.92	410.44
366.147	377.44
366.373	381.44
366.599	405.44
366.826	386.44
367.052	394.44
367.278	394.44
367.505	399.44
367.731	420.44
367.957	396.44
368.184	413.44
368.41	399.44
368.636	398.44
368.862	413.44
369.089	401.44
369.315	419.44
369.541	397.44
369.767	414.44
369.993	393.44
370.219	416.44
370.445	417.44
370.672	413.44
370.898	386.44
371.124	421.44
371.35	396.44
371.576	417.44
371.802	418.44
372.028	413.44
372.254	422.44
372.48	404.44
372.706	410.44
372.932	402.44
373.158	406.44
373.384	400.44
373.61	420.44
373.835	420.44
374.061	410.44
374.287	406.44
374.513	420.44
374.739	437.44
374.965	443.44
375.191	455.44
375.416	442.44
375.642	422.44
375.868	414.44
376.094	403.44
376.319	415.44
376.545	422.44
376.771	419.44
376.997	416.44
377.222	382.44
377.448	401.44
377.674	400.44
377.899	398.44
378.125	398.44
378.35	421.44
378.576	413.44
378.802	404.44
379.027	419.44
379.253	397.44
379.478	382.44
379.704	406.44
379.929	420.44
380.155	391.44
380.38	386.44
380.606	422.44
380.831	406.44
381.057	416.44
381.282	398.44
381.507	407.44
381.733	422.44
381.958	415.44
382.184	422.44
382.409	424.44
382.634	405.44
382.86	438.44
383.085	423.44
383.31	431.44
383.535	440.44
383.761	431.44
383.986	430.44
384.211	454.44
384.436	433.44
384.662	445.44
384.887	443.44
385.112	462.44
385.337	472.44
385.562	470.44
385.787	467.44
386.013	475.44
386.238	455.44
386.463	463.44
386.688	454.44
386.913	467.44
387.138	479.44
387.363	473.44
387.588	433.44
387.813	469.44
388.038	453.44
388.263	463.44
388.488	469.44
388.713	464.44
388.938	456.44
389.163	476.44
389.387	460.44
389.612	442.44
389.837	439.44
390.062	469.44
390.287	446.44
390.512	457.44
390.736	449.44
390.961	451.44
391.186	456.44
391.411	459.44
391.636	478.44
391.86	475.44
392.085	494.44
392.31	500.44
392.534	494.44
392.759	480.44
392.984	489.44
393.208	465.44
393.433	471.44
393.658	439.44
393.882	473.44
394.107	454.44
394.331	473.44
394.556	474.44
394.78	483.44
395.005	491.44
395.229	485.44
395.454	477.44
395.678	472.44
395.903	505.44
396.127	499.44
396.352	514.44
396.576	481.44
396.801	486.44
397.025	463.44
397.249	489.44
397.474	473.44
397.698	488.44
397.922	501.44
398.147	516.44
398.371	526.44
398.595	536.44
398.82	533.44
399.044	552.44
399.268	592.44
399.492	620.44
399.717	686.44
399.941	709.44
400.165	687.44
400.389	673.44
400.613	608.44
400.837	580.44
401.062	561.44
401.286	546.44
401.51	539.44
401.734	554.44
401.958	552.44
402.182	557.44
402.406	559.44
402.63	532.44
402.854	557.44
403.078	566.44
403.302	553.44
403.526	566.44
403.75	591.44
403.974	571.44
404.198	568.44
404.422	582.44
404.645	573.44
404.869	595.44
405.093	607.44
405.317	624.44
405.541	673.44
405.765	617.44
405.988	603.44
406.212	576.44
406.436	590.44
406.66	610.44
406.883	597.44
407.107	614.44
407.331	669.44
407.555	735.44
407.778	720.44
408.002	667.44
408.226	624.44
408.449	623.44
408.673	618.44
408.896	620.44
409.12	669.44
409.344	620.44
409.567	586.44
409.791	582.44
410.014	570.44
410.238	567.44
410.461	570.44
410.685	558.44
410.908	574.44
411.132	609.44
411.355	642.44
411.578	604.44
411.802	570.44
412.025	570.44
412.249	577.44
412.472	575.44
412.695	608.44
412.919	605.44
413.142	560.44
413.365	567.44
413.589	570.44
413.812	549.44
414.035	526.44
414.258	534.44
414.482	547.44
414.705	558.44
414.928	550.44
415.151	529.44
415.374	549.44
415.597	512.44
415.821	540.44
416.044	512.44
416.267	555.44
416.49	545.44
416.713	520.44
416.936	518.44
417.159	531.44
417.382	538.44
417.605	517.44
417.828	519.44
418.051	537.44
418.274	539.44
418.497	531.44
418.72	562.44
418.943	540.44
419.166	557.44
419.389	595.44
419.611	588.44
419.834	574.44
420.057	543.44
420.28	559.44
420.503	538.44
420.726	542.44
420.948	539.44
421.171	590.44
421.394	609.44
421.617	537.44
421.839	560.44
422.062	534.44
422.285	543.44
422.507	594.44
422.73	663.44
422.953	640.44
423.175	592.44
423.398	576.44
423.621	584.44
423.843	598.44
424.066	593.44
424.288	569.44
424.511	603.44
424.733	610.44
424.956	678.44
425.178	662.44
425.401	666.44
425.623	655.44
425.846	606.44
426.068	553.44
426.291	545.44
426.513	548.44
426.735	558.44
426.958	578.44
427.18	644.44
427.402	738.44
427.625	824.44
427.847	686.44
428.069	622.44
428.292	564.44
428.514	532.44
428.736	522.44
428.958	509.44
429.181	527.44
429.403	537.44
429.625	506.44
429.847	534.44
430.069	614.44
430.292	604.44
430.514	512.44
430.736	524.44
430.958	510.44
431.18	489.44
431.402	493.44
431.624	504.44
431.846	498.44
432.068	501.44
432.29	520.44
432.512	502.44
432.734	499.44
432.956	502.44
433.178	489.44
433.4	518.44
433.622	478.44
433.844	493.44
434.066	507.44
434.287	487.44
434.509	502.44
434.731	540.44
434.953	548.44
435.175	546.44
435.397	560.44
435.618	579.44
435.84	606.44
436.062	644.44
436.284	703.44
436.505	588.44
436.727	573.44
436.949	540.44
437.17	530.44
437.392	497.44
437.614	487.44
437.835	520.44
438.057	591.44
438.278	676.44
438.5	658.44
438.721	778.44
438.943	745.44
439.165	584.44
439.386	535.44
439.608	513.44
439.829	547.44
440.05	562.44
440.272	582.44
440.493	556.44
440.715	555.44
440.936	517.44
441.158	522.44
441.379	513.44
441.6	553.44
441.822	536.44
442.043	602.44
442.264	658.44
442.486	666.44
442.707	594.44
442.928	564.44
443.149	574.44
443.371	589.44
443.592	614.44
443.813	705.44
444.034	761.44
444.255	622.44
444.476	596.44
444.698	586.44
444.919	598.44
445.14	671.44
445.361	624.44
445.582	587.44
445.803	646.44
446.024	681.44
446.245	718.44
446.466	653.44
446.687	583.44
446.908	534.44
447.129	533.44
447.35	496.44
447.571	507.44
447.792	504.44
448.013	503.44
448.234	513.44
448.455	554.44
448.675	655.44
448.896	731.44
449.117	639.44
449.338	606.44
449.559	661.44
449.779	754.44
450	632.44
450.221	528.44
450.442	503.44
450.662	501.44
450.883	491.44
451.104	494.44
451.324	483.44
451.545	472.44
451.766	462.44
451.986	455.44
452.207	465.44
452.428	436.44
452.648	438.44
452.869	462.44
453.089	469.44
453.31	468.44
453.53	453.44
453.751	450.44
453.971	460.44
454.192	462.44
454.412	448.44
454.633	459.44
454.853	454.44
455.073	438.44
455.294	450.44
455.514	503.44
455.734	497.44
455.955	477.44
456.175	453.44
456.395	428.44
456.616	426.44
456.836	425.44
457.056	425.44
457.276	424.44
457.497	450.44
457.717	430.44
457.937	432.44
458.157	444.44
458.377	451.44
458.598	480.44
458.818	490.44
459.038	535.44
459.258	570.44
459.478	516.44
459.698	502.44
459.918	505.44
460.138	495.44
460.358	499.44
460.578	536.44
460.798	522.44
461.018	543.44
461.238	538.44
461.458	526.44
461.678	505.44
461.898	529.44
462.118	545.44
462.338	545.44
462.558	539.44
462.777	578.44
462.997	572.44
463.217	639.44
463.437	615.44
463.657	583.44
463.876	593.44
464.096	608.44
464.316	580.44
464.536	580.44
464.755	593.44
464.975	560.44
465.195	561.44
465.414	606.44
465.634	547.44
465.854	500.44
466.073	516.44
466.293	487.44
466.512	489.44
466.732	478.44
466.951	477.44
467.171	459.44
467.391	476.44
467.61	479.44
467.829	476.44
468.049	491.44
468.268	469.44
468.488	480.44
468.707	470.44
468.927	471.44
469.146	461.44
469.365	469.44
469.585	472.44
469.804	477.44
470.023	477.44
470.243	465.44
470.462	482.44
470.681	494.44
470.901	510.44
471.12	482.44
471.339	478.44
471.558	481.44
471.777	476.44
471.997	469.44
472.216	471.44
472.435	489.44
472.654	486.44
472.873	459.44
473.092	456.44
473.311	452.44
473.53	471.44
473.749	475.44
473.968	495.44
474.187	592.44
474.406	614.44
474.625	515.44
474.844	490.44
475.063	474.44
475.282	480.44
475.501	464.44
475.72	471.44
475.939	484.44
476.158	466.44
476.377	490.44
476.596	475.44
476.814	521.44
477.033	500.44
477.252	487.44
477.471	532.44
477.69	527.44
477.908	537.44
478.127	531.44
478.346	542.44
478.564	549.44
478.783	540.44
479.002	552.44
479.22	557.44
479.439	563.44
479.658	566.44
479.876	586.44
480.095	577.44
480.313	612.44
480.532	596.44
480.751	601.44
480.969	584.44
481.188	633.44
481.406	616.44
481.624	588.44
481.843	543.44
482.061	579.44
482.28	558.44
482.498	545.44
482.717	530.44
482.935	552.44
483.153	532.44
483.372	546.44
483.59	562.44
483.808	560.44
484.027	539.44
484.245	553.44
484.463	555.44
484.681	547.44
484.9	534.44
485.118	560.44
485.336	555.44
485.554	569.44
485.772	573.44
485.99	568.44
486.209	573.44
486.427	563.44
486.645	579.44
486.863	578.44
487.081	570.44
487.299	587.44
487.517	575.44
487.735	589.44
487.953	601.44
488.171	581.44
488.389	589.44
488.607	585.44
488.825	594.44
489.043	550.44
489.261	550.44
489.479	586.44
489.696	608.44
489.914	607.44
490.132	604.44
490.35	606.44
490.568	597.44
490.786	613.44
491.003	624.44
491.221	639.44
491.439	629.44
491.657	622.44
491.874	657.44
492.092	671.44
492.31	675.44
492.527	672.44
492.745	678.44
492.963	647.44
493.18	661.44
493.398	666.44
493.615	650.44
493.833	662.44
494.05	646.44
494.268	689.44
494.485	662.44
494.703	681.44
494.92	694.44
495.138	689.44
495.355	663.44
495.573	666.44
495.79	680.44
496.008	666.44
496.225	663.44
496.442	682.44
496.66	701.44
496.877	670.44
497.094	714.44
497.312	712.44
497.529	696.44
497.746	712.44
497.963	721.44
498.181	748.44
498.398	797.44
498.615	792.44
498.832	849.44
499.049	850.44
499.267	876.44
499.484	946.44
499.701	1015.44
499.918	1036.44
500.135	1101.44
500.352	1196.44
500.569	1216.44
500.786	1215.44
501.003	1210.44
501.22	1106.44
501.437	1100.44
501.654	1034.44
501.871	926.44
502.088	914.44
502.305	873.44
502.522	808.44
502.739	783.44
502.956	781.44
503.172	730.44
503.389	736.44
503.606	735.44
503.823	753.44
504.04	703.44
504.256	729.44
504.473	713.44
504.69	702.44
504.907	696.44
505.123	674.44
505.34	672.44
505.557	650.44
505.773	657.44
505.99	648.44
506.207	624.44
506.423	638.44
506.64	620.44
506.856	637.44
507.073	630.44
507.289	625.44
507.506	652.44
507.722	647.44
507.939	621.44
508.155	616.44
508.372	616.44
508.588	605.44
508.805	610.44
509.021	593.44
509.238	623.44
509.454	601.44
509.67	606.44
509.887	587.44
510.103	558.44
510.319	564.44
510.536	609.44
510.752	816.44
510.968	700.44
511.184	590.44
511.401	550.44
511.617	534.44
511.833	573.44
512.049	588.44
512.265	569.44
512.481	561.44
512.698	564.44
512.914	552.44
513.13	556.44
513.346	536.44
513.562	569.44
513.778	572.44
513.994	557.44
514.21	553.44
514.426	585.44
514.642	572.44
514.858	632.44
515.074	654.44
515.29	676.44
515.506	832.44
515.721	741.44
515.937	612.44
516.153	595.44
516.369	602.44
516.585	605.44
516.801	606.44
517.016	613.44
517.232	623.44
517.448	630.44
517.664	628.44
517.879	617.44
518.095	650.44
518.311	633.44
518.527	631.44
518.742	617.44
518.958	584.44
519.173	605.44
519.389	594.44
519.605	578.44
519.82	572.44
520.036	600.44
520.251	556.44
520.467	585.44
520.682	579.44
520.898	571.44
521.113	568.44
521.329	601.44
521.544	591.44
521.76	680.44
521.975	958.44
522.19	940.44
522.406	671.44
522.621	576.44
522.836	526.44
523.052	530.44
523.267	541.44
523.482	509.44
523.698	510.44
523.913	508.44
524.128	496.44
524.343	505.44
524.559	500.44
524.774	477.44
524.989	505.44
525.204	495.44
525.419	490.44
525.634	488.44
525.849	473.44
526.064	497.44
526.28	481.44
526.495	480.44
526.71	486.44
526.925	472.44
527.14	478.44
527.355	491.44
527.57	493.44
527.785	475.44
527.999	476.44
528.214	482.44
528.429	489.44
528.644	474.44
528.859	485.44
529.074	486.44
529.289	481.44
529.503	523.44
529.718	520.44
529.933	497.44
530.148	473.44
530.363	483.44
530.577	464.44
530.792	464.44
531.007	457.44
531.221	463.44
531.436	473.44
531.651	446.44
531.865	476.44
532.08	484.44
532.295	477.44
532.509	476.44
532.724	478.44
532.938	474.44
533.153	472.44
533.367	468.44
533.582	492.44
533.796	462.44
534.011	465.44
534.225	460.44
534.44	458.44
534.654	491.44
534.868	460.44
535.083	462.44
535.297	454.44
535.511	434.44
535.726	482.44
535.94	453.44
536.154	459.44
536.369	453.44
536.583	448.44
536.797	444.44
537.011	452.44
537.225	446.44
537.44	448.44
537.654	461.44
537.868	451.44
538.082	436.44
538.296	457.44
538.51	455.44
538.724	445.44
538.938	443.44
539.153	428.44
539.367	457.44
539.581	451.44
539.795	445.44
540.009	436.44
540.222	433.44
540.436	468.44
540.65	448.44
540.864	450.44
541.078	455.44
541.292	440.44
541.506	439.44
541.72	445.44
541.934	457.44
542.147	442.44
542.361	436.44
542.575	428.44
542.789	447.44
543.002	456.44
543.216	442.44
543.43	428.44
543.644	460.44
543.857	461.44
544.071	442.44
544.285	459.44
544.498	441.44
544.712	446.44
544.925	433.44
545.139	439.44
545.352	418.44
545.566	434.44
545.779	439.44
545.993	431.44
546.206	437.44
546.42	449.44
546.633	425.44
546.847	433.44
547.06	439.44
547.274	431.44
547.487	426.44
547.7	436.44
547.914	445.44
548.127	447.44
548.34	443.44
548.554	452.44
548.767	419.44
548.98	426.44
549.193	421.44
549.407	423.44
549.62	443.44
549.833	455.44
550.046	439.44
550.259	457.44
550.473	447.44
550.686	452.44
550.899	436.44
551.112	439.44
551.325	423.44
551.538	431.44
551.751	455.44
551.964	444.44
552.177	440.44
552.39	443.44
552.603	456.44
552.816	452.44
553.029	465.44
553.242	466.44
553.455	444.44
553.667	450.44
553.88	480.44
554.093	474.44
554.306	466.44
554.519	457.44
554.732	429.44
554.944	433.44
555.157	423.44
555.37	428.44
555.583	424.44
555.795	441.44
556.008	400.44
556.221	406.44
556.433	407.44
556.646	392.44
556.859	397.44
557.071	421.44
557.284	403.44
557.496	390.44
557.709	385.44
557.921	390.44
558.134	388.44
558.346	379.44
558.559	395.44
558.771	402.44
558.984	385.44
559.196	401.44
559.409	406.44
559.621	384.44
559.833	382.44
560.046	376.44
560.258	387.44
560.47	380.44
560.683	394.44
560.895	394.44
561.107	400.44
561.32	389.44
561.532	398.44
561.744	388.44
561.956	390.44
562.168	389.44
562.381	403.44
562.593	399.44
562.805	408.44
563.017	389.44
563.229	413.44
563.441	395.44
563.653	403.44
563.865	380.44
564.077	435.44
564.289	382.44
564.501	412.44
564.713	411.44
564.925	416.44
565.137	438.44
565.349	444.44
565.561	431.44
565.773	433.44
565.985	439.44
566.197	481.44
566.408	485.44
566.62	525.44
566.832	519.44
567.044	549.44
567.255	545.44
567.467	539.44
567.679	567.44
567.891	586.44
568.102	606.44
568.314	569.44
568.526	529.44
568.737	522.44
568.949	486.44
569.161	469.44
569.372	452.44
569.584	440.44
569.795	441.44
570.007	410.44
570.218	423.44
570.43	411.44
570.641	387.44
570.853	398.44
571.064	403.44
571.276	414.44
571.487	412.44
571.698	380.44
571.91	366.44
572.121	363.44
572.333	362.44
572.544	372.44
572.755	368.44
572.966	359.44
573.178	363.44
573.389	359.44
573.6	350.44
573.811	353.44
574.023	348.44
574.234	335.44
574.445	342.44
574.656	328.44
574.867	349.44
575.078	341.44
575.289	353.44
575.501	336.44
575.712	344.44
575.923	353.44
576.134	325.44
576.345	340.44
576.556	336.44
576.767	332.44
576.978	335.44
577.188	328.44
577.399	344.44
577.61	323.44
577.821	321.44
578.032	322.44
578.243	347.44
578.454	434.44
578.665	372.44
578.875	328.44
579.086	338.44
579.297	320.44
579.508	311.44
579.718	317.44
579.929	305.44
580.14	317.44
580.35	304.44
580.561	310.44
580.772	307.44
580.982	303.44
581.193	312.44
581.403	284.44
581.614	315.44
581.825	321.44
582.035	332.44
582.246	321.44
582.456	302.44
582.667	274.44
582.877	297.44
583.087	296.44
583.298	301.44
583.508	315.44
583.719	296.44
583.929	303.44
584.139	303.44
584.35	286.44
584.56	313.44
584.77	299.44
584.981	294.44
585.191	291.44
585.401	292.44
585.611	309.44
585.821	279.44
586.032	292.44
586.242	316.44
586.452	308.44
586.662	294.44
586.872	293.44
587.082	296.44
587.292	300.44
587.502	301.44
587.713	318.44
587.923	300.44
588.133	326.44
588.343	310.44
588.553	319.44
588.762	308.44
588.972	294.44
589.182	302.44
589.392	314.44
589.602	305.44
589.812	299.44
590.022	306.44
590.232	297.44
590.441	299.44
590.651	313.44
590.861	303.44
591.071	297.44
591.281	317.44
591.49	297.44
591.7	300.44
591.91	318.44
592.119	326.44
592.329	312.44
592.539	312.44
592.748	333.44
592.958	340.44
593.167	335.44
593.377	330.44
593.587	348.44
593.796	346.44
594.006	347.44
594.215	341.44
594.424	346.44
594.634	374.44
594.843	354.44
595.053	330.44
595.262	321.44
595.472	301.44
595.681	322.44
595.89	302.44
596.1	332.44
596.309	313.44
596.518	296.44
596.727	293.44
596.937	297.44
597.146	306.44
597.355	298.44
597.564	279.44
597.774	281.44
597.983	282.44
598.192	270.44
598.401	281.44
598.61	287.44
598.819	287.44
599.028	286.44
599.237	257.44
599.446	252.44
599.655	283.44
599.864	264.44
600.073	270.44
600.282	286.44
600.491	251.44
600.7	264.44
600.909	272.44
601.118	251.44
601.327	269.44
601.536	254.44
601.745	269.44
601.953	260.44
602.162	251.44
602.371	264.44
602.58	246.44
602.789	249.44
602.997	268.44
603.206	258.44
603.415	265.44
603.623	277.44
603.832	250.44
604.041	254.44
604.249	242.44
604.458	251.44
604.666	253.44
604.875	257.44
605.084	257.44
605.292	272.44
605.501	253.44
605.709	247.44
605.918	255.44
606.126	247.44
606.334	232.44
606.543	249.44
606.751	254.44
606.96	234.44
607.168	239.44
607.376	259.44
607.585	252.44
607.793	263.44
608.001	270.44
608.21	258.44
608.418	251.44
608.626	241.44
608.834	245.44
609.043	257.44
609.251	240.44
609.459	254.44
609.667	248.44
609.875	236.44
610.083	252.44
610.291	256.44
610.499	267.44
610.707	250.44
610.916	246.44
611.124	260.44
611.332	252.44
611.54	229.44
611.748	260.44
611.955	237.44
612.163	237.44
612.371	246.44
612.579	236.44
612.787	248.44
612.995	264.44
613.203	250.44
613.411	247.44
613.618	233.44
613.826	230.44
614.034	226.44
614.242	237.44
614.449	243.44
614.657	241.44
614.865	252.44
615.072	250.44
615.28	236.44
615.488	232.44
615.695	235.44
615.903	229.44
616.111	261.44
616.318	246.44
616.526	260.44
616.733	239.44
616.941	225.44
617.148	253.44
617.356	246.44
617.563	238.44
617.771	255.44
617.978	231.44
618.185	242.44
618.393	230.44
618.6	229.44
618.807	236.44
619.015	261.44
619.222	246.44
619.429	250.44
619.637	231.44
619.844	217.44
620.051	227.44
620.258	220.44
620.466	231.44
620.673	229.44
620.88	231.44
621.087	224.44
621.294	230.44
621.501	231.44
621.708	231.44
621.915	225.44
622.122	232.44
622.329	241.44
622.536	214.44
622.743	235.44
622.95	239.44
623.157	222.44
623.364	235.44
623.571	233.44
623.778	220.44
623.985	240.44
624.192	227.44
624.399	213.44
624.606	214.44
624.812	210.44
625.019	227.44
625.226	226.44
625.433	227.44
625.639	206.44
625.846	221.44
626.053	214.44
626.259	216.44
626.466	202.44
626.673	229.44
626.879	193.44
627.086	206.44
627.293	217.44
627.499	214.44
627.706	220.44
627.912	218.44
628.119	220.44
628.325	218.44
628.532	224.44
628.738	219.44
628.945	210.44
629.151	214.44
629.357	221.44
629.564	219.44
629.77	220.44
629.976	195.44
630.183	214.44
630.389	207.44
630.595	197.44
630.802	202.44
631.008	191.44
631.214	200.44
631.42	205.44
631.627	206.44
631.833	199.44
632.039	190.44
632.245	206.44
632.451	184.44
632.657	195.44
632.863	207.44
633.069	202.44
633.275	210.44
633.481	215.44
633.688	192.44
633.893	196.44
634.099	196.44
634.305	188.44
634.511	191.44
634.717	190.44
634.923	182.44
635.129	189.44
635.335	184.44
635.541	180.44
635.747	183.44
635.952	193.44
636.158	189.44
636.364	167.44
636.57	186.44
636.775	182.44
636.981	179.44
637.187	184.44
637.392	180.44
637.598	180.44
637.804	194.44
638.009	173.44
638.215	183.44
638.421	186.44
638.626	173.44
638.832	188.44
639.037	180.44
639.243	185.44
639.448	203.44
639.654	180.44
639.859	170.44
640.065	182.44
640.27	188.44
640.475	175.44
640.681	176.44
640.886	182.44
641.091	180.44
641.297	185.44
641.502	156.44
641.707	177.44
641.913	172.44
642.118	173.44
642.323	160.44
642.528	170.44
642.733	171.44
642.939	169.44
643.144	167.44
643.349	161.44
643.554	180.44
643.759	168.44
643.964	171.44
644.169	181.44
644.374	177.44
644.579	182.44
644.784	168.44
644.989	164.44
645.194	174.44
645.399	168.44
645.604	172.44
645.809	168.44
646.014	187.44
646.219	189.44
646.423	176.44
646.628	185.44
646.833	182.44
647.038	186.44
647.243	170.44
647.447	190.44
647.652	171.44
647.857	168.44
648.062	170.44
648.266	181.44
648.471	168.44
648.676	187.44
648.88	177.44
649.085	186.44
649.289	177.44
649.494	193.44
649.698	209.44
649.903	169.44
650.107	177.44
650.312	166.44
650.516	160.44
650.721	164.44
650.925	172.44
651.13	160.44
651.334	172.44
651.539	166.44
651.743	161.44
651.947	157.44
652.152	156.44
652.356	142.44
652.56	154.44
652.764	156.44
652.969	150.44
653.173	158.44
653.377	159.44
653.581	146.44
653.785	152.44
653.99	142.44
654.194	130.44
654.398	147.44
654.602	143.44
654.806	145.44
655.01	154.44
655.214	149.44
655.418	152.44
655.622	146.44
655.826	138.44
656.03	126.44
656.234	154.44
656.438	145.44
656.642	135.44
656.846	146.44
657.049	130.44
657.253	136.44
657.457	120.44
657.661	134.44
657.865	120.44
658.068	116.44
658.272	119.44
658.476	110.44
658.68	92.44
658.883	112.44
659.087	116.44
659.291	99.44
659.494	103.44
659.698	103.44
659.901	101.44
660.105	98.44
660.309	104.44
660.512	102.44
660.716	100.44
660.919	104.44
661.123	91.44
661.326	102.44
661.53	104.44
661.733	96.44
661.936	95.44
662.14	94.44
662.343	96.44
662.546	95.44
662.75	91.44
662.953	98.44
663.156	91.44
663.36	81.44
663.563	72.44
663.766	100.44
663.969	94.44
664.173	86.44
664.376	89.44
664.579	86.44
664.782	77.44
664.985	94.44
665.188	78.44
665.391	90.44
665.594	83.44
665.797	67.44
666	74.44
666.203	82.44
666.406	98.44
666.609	81.44
666.812	83.44
667.015	72.44
667.218	89.44
667.421	81.44
667.624	79.44
667.827	88.44
668.03	78.44
668.232	88.44
668.435	74.44
668.638	82.44
668.841	79.44
669.043	85.44
669.246	80.44
669.449	96.44
669.651	95.44
669.854	85.44
670.057	80.44
670.259	84.44
670.462	83.44
670.665	84.44
670.867	85.44
671.07	91.44
671.272	78.44
671.475	86.44
671.677	77.44
671.88	89.44
672.082	96.44
672.284	85.44
672.487	82.44
672.689	90.44
672.892	80.44
