Data from 1973.PennyLincolnUp.Lamp.En5.5.200Scan.071719.P1.Changed Mount._HRD10591_15-43-44-852.txt Node
Date: Thu Jul 18 15:43:44 EDT 2019
User: cochatt
Spectrometer: HR+D1059
Trigger mode: 1
Integration Time (sec): 1.000000E-1
Scans to average: 1
Electric dark correction enabled: true
Nonlinearity correction enabled: false
Boxcar width: 0
XAxis mode: Wavelengths
Number of Pixels in Spectrum: 2048
>>>>>Begin Spectral Data<<<<<
223.165	-10.44
223.4	-10.44
223.635	-10.44
223.869	-7.44
224.104	-9.44
224.338	-3.44
224.573	-17.44
224.808	-16.44
225.042	-17.44
225.277	-0.44
225.511	-8.44
225.746	11.56
225.98	1.56
226.215	5.56
226.449	24.56
226.683	14.56
226.918	14.56
227.152	18.56
227.387	30.56
227.621	37.56
227.856	51.56
228.09	56.56
228.324	60.56
228.559	50.56
228.793	63.56
229.027	95.56
229.262	105.56
229.496	103.56
229.73	118.56
229.964	137.56
230.199	113.56
230.433	95.56
230.667	113.56
230.901	97.56
231.136	113.56
231.37	115.56
231.604	94.56
231.838	110.56
232.072	106.56
232.306	126.56
232.541	123.56
232.775	105.56
233.009	117.56
233.243	108.56
233.477	105.56
233.711	115.56
233.945	117.56
234.179	94.56
234.413	126.56
234.647	115.56
234.881	115.56
235.115	138.56
235.349	108.56
235.583	108.56
235.817	121.56
236.051	114.56
236.285	124.56
236.519	132.56
236.753	139.56
236.987	125.56
237.221	154.56
237.455	189.56
237.689	154.56
237.922	135.56
238.156	126.56
238.39	136.56
238.624	120.56
238.858	129.56
239.091	125.56
239.325	117.56
239.559	129.56
239.793	129.56
240.027	130.56
240.26	125.56
240.494	151.56
240.728	145.56
240.961	133.56
241.195	136.56
241.429	146.56
241.662	121.56
241.896	118.56
242.13	124.56
242.363	137.56
242.597	137.56
242.83	133.56
243.064	125.56
243.298	146.56
243.531	136.56
243.765	135.56
243.998	133.56
244.232	143.56
244.465	134.56
244.699	145.56
244.932	129.56
245.166	141.56
245.399	157.56
245.633	140.56
245.866	150.56
246.099	147.56
246.333	146.56
246.566	133.56
246.8	161.56
247.033	139.56
247.266	165.56
247.5	144.56
247.733	162.56
247.966	152.56
248.2	174.56
248.433	165.56
248.666	159.56
248.899	169.56
249.133	171.56
249.366	198.56
249.599	164.56
249.832	185.56
250.066	181.56
250.299	175.56
250.532	181.56
250.765	187.56
250.998	228.56
251.231	206.56
251.465	206.56
251.698	192.56
251.931	181.56
252.164	196.56
252.397	203.56
252.63	188.56
252.863	204.56
253.096	202.56
253.329	216.56
253.562	205.56
253.795	198.56
254.028	193.56
254.261	218.56
254.494	213.56
254.727	232.56
254.96	239.56
255.193	256.56
255.426	222.56
255.659	225.56
255.892	223.56
256.124	211.56
256.357	216.56
256.59	221.56
256.823	202.56
257.056	201.56
257.289	197.56
257.521	209.56
257.754	196.56
257.987	221.56
258.22	202.56
258.452	183.56
258.685	207.56
258.918	214.56
259.151	211.56
259.383	217.56
259.616	221.56
259.849	217.56
260.081	221.56
260.314	238.56
260.547	241.56
260.779	233.56
261.012	225.56
261.244	212.56
261.477	227.56
261.71	219.56
261.942	230.56
262.175	211.56
262.407	211.56
262.64	220.56
262.872	205.56
263.105	200.56
263.337	210.56
263.57	229.56
263.802	209.56
264.035	209.56
264.267	220.56
264.499	213.56
264.732	218.56
264.964	218.56
265.197	210.56
265.429	222.56
265.661	226.56
265.894	219.56
266.126	213.56
266.358	218.56
266.591	215.56
266.823	233.56
267.055	230.56
267.287	232.56
267.52	223.56
267.752	237.56
267.984	224.56
268.216	230.56
268.448	240.56
268.681	230.56
268.913	241.56
269.145	251.56
269.377	273.56
269.609	281.56
269.841	270.56
270.073	279.56
270.306	283.56
270.538	298.56
270.77	298.56
271.002	279.56
271.234	280.56
271.466	285.56
271.698	291.56
271.93	290.56
272.162	276.56
272.394	299.56
272.626	293.56
272.858	269.56
273.09	281.56
273.322	247.56
273.553	276.56
273.785	278.56
274.017	259.56
274.249	266.56
274.481	278.56
274.713	261.56
274.945	261.56
275.176	254.56
275.408	263.56
275.64	278.56
275.872	259.56
276.104	260.56
276.335	253.56
276.567	287.56
276.799	275.56
277.031	304.56
277.262	297.56
277.494	289.56
277.726	283.56
277.957	290.56
278.189	281.56
278.421	273.56
278.652	279.56
278.884	286.56
279.115	262.56
279.347	258.56
279.579	254.56
279.81	271.56
280.042	270.56
280.273	285.56
280.505	278.56
280.736	270.56
280.968	276.56
281.199	290.56
281.431	276.56
281.662	283.56
281.894	287.56
282.125	268.56
282.356	301.56
282.588	294.56
282.819	273.56
283.051	290.56
283.282	277.56
283.513	295.56
283.745	267.56
283.976	281.56
284.207	278.56
284.439	289.56
284.67	310.56
284.901	302.56
285.132	309.56
285.364	293.56
285.595	290.56
285.826	307.56
286.057	290.56
286.288	271.56
286.52	305.56
286.751	303.56
286.982	295.56
287.213	297.56
287.444	313.56
287.675	315.56
287.906	305.56
288.138	312.56
288.369	321.56
288.6	322.56
288.831	297.56
289.062	282.56
289.293	294.56
289.524	301.56
289.755	308.56
289.986	309.56
290.217	330.56
290.448	297.56
290.679	313.56
290.91	315.56
291.141	311.56
291.371	309.56
291.602	308.56
291.833	303.56
292.064	303.56
292.295	331.56
292.526	311.56
292.757	318.56
292.987	319.56
293.218	303.56
293.449	315.56
293.68	314.56
293.91	323.56
294.141	317.56
294.372	301.56
294.603	319.56
294.833	305.56
295.064	321.56
295.295	319.56
295.525	307.56
295.756	321.56
295.987	317.56
296.217	331.56
296.448	334.56
296.679	317.56
296.909	303.56
297.14	338.56
297.37	325.56
297.601	317.56
297.831	312.56
298.062	298.56
298.292	328.56
298.523	329.56
298.753	307.56
298.984	329.56
299.214	326.56
299.445	321.56
299.675	343.56
299.905	351.56
300.136	332.56
300.366	332.56
300.597	326.56
300.827	327.56
301.057	334.56
301.288	347.56
301.518	340.56
301.748	339.56
301.979	341.56
302.209	336.56
302.439	360.56
302.669	352.56
302.9	345.56
303.13	351.56
303.36	339.56
303.59	334.56
303.82	348.56
304.051	343.56
304.281	349.56
304.511	344.56
304.741	325.56
304.971	348.56
305.201	351.56
305.431	339.56
305.661	359.56
305.891	355.56
306.121	357.56
306.352	335.56
306.582	339.56
306.812	326.56
307.042	349.56
307.272	364.56
307.502	339.56
307.731	349.56
307.961	353.56
308.191	335.56
308.421	352.56
308.651	341.56
308.881	325.56
309.111	340.56
309.341	364.56
309.571	361.56
309.8	365.56
310.03	373.56
310.26	368.56
310.49	374.56
310.72	365.56
310.949	368.56
311.179	379.56
311.409	370.56
311.639	362.56
311.868	364.56
312.098	377.56
312.328	400.56
312.557	387.56
312.787	403.56
313.017	419.56
313.246	354.56
313.476	376.56
313.706	382.56
313.935	375.56
314.165	377.56
314.394	399.56
314.624	393.56
314.853	373.56
315.083	366.56
315.312	373.56
315.542	391.56
315.771	385.56
316.001	365.56
316.23	378.56
316.46	369.56
316.689	368.56
316.919	383.56
317.148	406.56
317.377	373.56
317.607	369.56
317.836	363.56
318.065	377.56
318.295	377.56
318.524	375.56
318.753	359.56
318.983	371.56
319.212	364.56
319.441	376.56
319.67	399.56
319.9	387.56
320.129	370.56
320.358	368.56
320.587	388.56
320.816	390.56
321.046	380.56
321.275	389.56
321.504	394.56
321.733	386.56
321.962	390.56
322.191	403.56
322.42	392.56
322.649	407.56
322.878	426.56
323.108	407.56
323.337	423.56
323.566	414.56
323.795	465.56
324.024	465.56
324.253	527.56
324.482	673.56
324.71	958.56
324.939	1287.56
325.168	1131.56
325.397	615.56
325.626	506.56
325.855	465.56
326.084	427.56
326.313	447.56
326.542	435.56
326.77	457.56
326.999	510.56
327.228	619.56
327.457	872.56
327.686	1017.56
327.914	716.56
328.143	525.56
328.372	494.56
328.6	482.56
328.829	446.56
329.058	469.56
329.287	479.56
329.515	461.56
329.744	422.56
329.972	439.56
330.201	449.56
330.43	469.56
330.658	501.56
330.887	484.56
331.115	487.56
331.344	457.56
331.572	463.56
331.801	429.56
332.03	457.56
332.258	458.56
332.486	452.56
332.715	450.56
332.943	453.56
333.172	461.56
333.4	476.56
333.629	491.56
333.857	500.56
334.085	481.56
334.314	492.56
334.542	516.56
334.771	510.56
334.999	490.56
335.227	482.56
335.455	481.56
335.684	461.56
335.912	477.56
336.14	440.56
336.369	461.56
336.597	457.56
336.825	451.56
337.053	454.56
337.281	443.56
337.51	443.56
337.738	444.56
337.966	437.56
338.194	441.56
338.422	427.56
338.65	460.56
338.878	411.56
339.106	435.56
339.334	429.56
339.562	422.56
339.79	425.56
340.018	432.56
340.246	418.56
340.474	427.56
340.702	439.56
340.93	429.56
341.158	443.56
341.386	437.56
341.614	424.56
341.842	417.56
342.07	438.56
342.298	425.56
342.526	439.56
342.754	413.56
342.981	423.56
343.209	441.56
343.437	420.56
343.665	439.56
343.893	458.56
344.12	459.56
344.348	461.56
344.576	457.56
344.804	468.56
345.031	453.56
345.259	430.56
345.487	434.56
345.714	428.56
345.942	406.56
346.17	417.56
346.397	427.56
346.625	429.56
346.853	400.56
347.08	401.56
347.308	411.56
347.535	425.56
347.763	402.56
347.99	410.56
348.218	410.56
348.445	422.56
348.673	399.56
348.9	405.56
349.128	405.56
349.355	397.56
349.583	402.56
349.81	403.56
350.037	413.56
350.265	389.56
350.492	393.56
350.72	381.56
350.947	413.56
351.174	395.56
351.402	421.56
351.629	404.56
351.856	404.56
352.083	419.56
352.311	407.56
352.538	407.56
352.765	413.56
352.992	407.56
353.22	399.56
353.447	397.56
353.674	392.56
353.901	381.56
354.128	406.56
354.355	391.56
354.583	393.56
354.81	388.56
355.037	395.56
355.264	389.56
355.491	398.56
355.718	402.56
355.945	399.56
356.172	379.56
356.399	377.56
356.626	382.56
356.853	373.56
357.08	373.56
357.307	370.56
357.534	386.56
357.761	403.56
357.988	380.56
358.215	394.56
358.441	388.56
358.668	394.56
358.895	392.56
359.122	394.56
359.349	403.56
359.576	411.56
359.802	414.56
360.029	415.56
360.256	427.56
360.483	431.56
360.709	422.56
360.936	393.56
361.163	399.56
361.39	398.56
361.616	402.56
361.843	413.56
362.07	407.56
362.296	407.56
362.523	392.56
362.749	390.56
362.976	385.56
363.203	397.56
363.429	390.56
363.656	381.56
363.882	390.56
364.109	399.56
364.335	393.56
364.562	373.56
364.788	393.56
365.015	385.56
365.241	381.56
365.468	399.56
365.694	407.56
365.92	400.56
366.147	390.56
366.373	412.56
366.599	394.56
366.826	388.56
367.052	382.56
367.278	385.56
367.505	388.56
367.731	393.56
367.957	386.56
368.184	372.56
368.41	388.56
368.636	406.56
368.862	399.56
369.089	389.56
369.315	402.56
369.541	398.56
369.767	405.56
369.993	405.56
370.219	400.56
370.445	397.56
370.672	409.56
370.898	402.56
371.124	391.56
371.35	404.56
371.576	405.56
371.802	400.56
372.028	409.56
372.254	407.56
372.48	403.56
372.706	426.56
372.932	414.56
373.158	419.56
373.384	414.56
373.61	408.56
373.835	411.56
374.061	420.56
374.287	417.56
374.513	433.56
374.739	422.56
374.965	434.56
375.191	435.56
375.416	435.56
375.642	423.56
375.868	418.56
376.094	423.56
376.319	401.56
376.545	400.56
376.771	427.56
376.997	406.56
377.222	414.56
377.448	409.56
377.674	417.56
377.899	414.56
378.125	397.56
378.35	385.56
378.576	403.56
378.802	411.56
379.027	409.56
379.253	416.56
379.478	399.56
379.704	415.56
379.929	414.56
380.155	434.56
380.38	390.56
380.606	405.56
380.831	410.56
381.057	408.56
381.282	409.56
381.507	396.56
381.733	415.56
381.958	417.56
382.184	394.56
382.409	433.56
382.634	415.56
382.86	404.56
383.085	433.56
383.31	425.56
383.535	424.56
383.761	443.56
383.986	445.56
384.211	468.56
384.436	429.56
384.662	445.56
384.887	440.56
385.112	441.56
385.337	451.56
385.562	473.56
385.787	441.56
386.013	457.56
386.238	460.56
386.463	452.56
386.688	456.56
386.913	454.56
387.138	438.56
387.363	470.56
387.588	452.56
387.813	465.56
388.038	465.56
388.263	444.56
388.488	468.56
388.713	467.56
388.938	466.56
389.163	474.56
389.387	454.56
389.612	446.56
389.837	450.56
390.062	449.56
390.287	441.56
390.512	462.56
390.736	444.56
390.961	463.56
391.186	492.56
391.411	474.56
391.636	486.56
391.86	474.56
392.085	492.56
392.31	484.56
392.534	476.56
392.759	474.56
392.984	487.56
393.208	447.56
393.433	469.56
393.658	472.56
393.882	469.56
394.107	473.56
394.331	443.56
394.556	474.56
394.78	442.56
395.005	501.56
395.229	455.56
395.454	487.56
395.678	484.56
395.903	489.56
396.127	516.56
396.352	497.56
396.576	480.56
396.801	473.56
397.025	470.56
397.249	472.56
397.474	491.56
397.698	494.56
397.922	531.56
398.147	473.56
398.371	519.56
398.595	499.56
398.82	540.56
399.044	546.56
399.268	591.56
399.492	631.56
399.717	684.56
399.941	680.56
400.165	682.56
400.389	674.56
400.613	581.56
400.837	570.56
401.062	561.56
401.286	545.56
401.51	554.56
401.734	543.56
401.958	521.56
402.182	556.56
402.406	540.56
402.63	556.56
402.854	552.56
403.078	544.56
403.302	560.56
403.526	552.56
403.75	554.56
403.974	574.56
404.198	569.56
404.422	591.56
404.645	584.56
404.869	583.56
405.093	596.56
405.317	621.56
405.541	652.56
405.765	591.56
405.988	568.56
406.212	580.56
406.436	603.56
406.66	589.56
406.883	603.56
407.107	622.56
407.331	653.56
407.555	723.56
407.778	740.56
408.002	686.56
408.226	633.56
408.449	614.56
408.673	589.56
408.896	614.56
409.12	625.56
409.344	613.56
409.567	599.56
409.791	575.56
410.014	570.56
410.238	539.56
410.461	568.56
410.685	566.56
410.908	574.56
411.132	597.56
411.355	597.56
411.578	577.56
411.802	566.56
412.025	564.56
412.249	553.56
412.472	562.56
412.695	592.56
412.919	585.56
413.142	533.56
413.365	533.56
413.589	543.56
413.812	531.56
414.035	526.56
414.258	548.56
414.482	527.56
414.705	541.56
414.928	519.56
415.151	532.56
415.374	539.56
415.597	537.56
415.821	527.56
416.044	541.56
416.267	533.56
416.49	507.56
416.713	533.56
416.936	497.56
417.159	526.56
417.382	500.56
417.605	506.56
417.828	537.56
418.051	538.56
418.274	551.56
418.497	519.56
418.72	570.56
418.943	534.56
419.166	564.56
419.389	568.56
419.611	583.56
419.834	578.56
420.057	554.56
420.28	560.56
420.503	535.56
420.726	511.56
420.948	553.56
421.171	592.56
421.394	615.56
421.617	539.56
421.839	517.56
422.062	525.56
422.285	575.56
422.507	606.56
422.73	674.56
422.953	613.56
423.175	574.56
423.398	564.56
423.621	574.56
423.843	594.56
424.066	599.56
424.288	578.56
424.511	591.56
424.733	632.56
424.956	693.56
425.178	643.56
425.401	643.56
425.623	660.56
425.846	601.56
426.068	545.56
426.291	558.56
426.513	563.56
426.735	589.56
426.958	599.56
427.18	633.56
427.402	730.56
427.625	823.56
427.847	691.56
428.069	585.56
428.292	547.56
428.514	547.56
428.736	545.56
428.958	504.56
429.181	509.56
429.403	495.56
429.625	513.56
429.847	535.56
430.069	565.56
430.292	599.56
430.514	532.56
430.736	514.56
430.958	501.56
431.18	511.56
431.402	492.56
431.624	474.56
431.846	492.56
432.068	497.56
432.29	489.56
432.512	502.56
432.734	497.56
432.956	488.56
433.178	510.56
433.4	513.56
433.622	482.56
433.844	513.56
434.066	502.56
434.287	494.56
434.509	517.56
434.731	521.56
434.953	553.56
435.175	552.56
435.397	564.56
435.618	554.56
435.84	577.56
436.062	628.56
436.284	712.56
436.505	575.56
436.727	536.56
436.949	501.56
437.17	519.56
437.392	507.56
437.614	526.56
437.835	484.56
438.057	586.56
438.278	703.56
438.5	678.56
438.721	753.56
438.943	721.56
439.165	587.56
439.386	553.56
439.608	547.56
439.829	543.56
440.05	564.56
440.272	568.56
440.493	549.56
440.715	519.56
440.936	507.56
441.158	530.56
441.379	500.56
441.6	528.56
441.822	569.56
442.043	590.56
442.264	650.56
442.486	669.56
442.707	608.56
442.928	582.56
443.149	569.56
443.371	568.56
443.592	593.56
443.813	707.56
444.034	730.56
444.255	643.56
444.476	588.56
444.698	598.56
444.919	585.56
445.14	682.56
445.361	610.56
445.582	609.56
445.803	632.56
446.024	692.56
446.245	698.56
446.466	640.56
446.687	546.56
446.908	541.56
447.129	529.56
447.35	513.56
447.571	490.56
447.792	482.56
448.013	489.56
448.234	490.56
448.455	531.56
448.675	649.56
448.896	726.56
449.117	592.56
449.338	565.56
449.559	649.56
449.779	763.56
450	599.56
450.221	503.56
450.442	511.56
450.662	465.56
450.883	491.56
451.104	480.56
451.324	497.56
451.545	468.56
451.766	457.56
451.986	425.56
452.207	453.56
452.428	451.56
452.648	445.56
452.869	436.56
453.089	429.56
453.31	447.56
453.53	449.56
453.751	476.56
453.971	462.56
454.192	453.56
454.412	428.56
454.633	421.56
454.853	443.56
455.073	446.56
455.294	456.56
455.514	506.56
455.734	506.56
455.955	445.56
456.175	465.56
456.395	411.56
456.616	434.56
456.836	431.56
457.056	433.56
457.276	422.56
457.497	444.56
457.717	439.56
457.937	440.56
458.157	452.56
458.377	427.56
458.598	452.56
458.818	492.56
459.038	541.56
459.258	574.56
459.478	522.56
459.698	511.56
459.918	521.56
460.138	516.56
460.358	548.56
460.578	518.56
460.798	539.56
461.018	543.56
461.238	543.56
461.458	528.56
461.678	503.56
461.898	514.56
462.118	538.56
462.338	569.56
462.558	580.56
462.777	573.56
462.997	606.56
463.217	632.56
463.437	628.56
463.657	577.56
463.876	588.56
464.096	589.56
464.316	584.56
464.536	577.56
464.755	564.56
464.975	563.56
465.195	569.56
465.414	577.56
465.634	538.56
465.854	531.56
466.073	516.56
466.293	491.56
466.512	490.56
466.732	490.56
466.951	479.56
467.171	477.56
467.391	480.56
467.61	474.56
467.829	475.56
468.049	470.56
468.268	461.56
468.488	457.56
468.707	448.56
468.927	461.56
469.146	473.56
469.365	463.56
469.585	477.56
469.804	464.56
470.023	494.56
470.243	497.56
470.462	470.56
470.681	493.56
470.901	498.56
471.12	498.56
471.339	486.56
471.558	489.56
471.777	472.56
471.997	462.56
472.216	477.56
472.435	497.56
472.654	477.56
472.873	463.56
473.092	456.56
473.311	469.56
473.53	456.56
473.749	474.56
473.968	501.56
474.187	563.56
474.406	584.56
474.625	494.56
474.844	470.56
475.063	459.56
475.282	483.56
475.501	485.56
475.72	461.56
475.939	475.56
476.158	482.56
476.377	467.56
476.596	475.56
476.814	507.56
477.033	502.56
477.252	497.56
477.471	514.56
477.69	542.56
477.908	504.56
478.127	526.56
478.346	514.56
478.564	548.56
478.783	532.56
479.002	533.56
479.22	549.56
479.439	564.56
479.658	577.56
479.876	557.56
480.095	566.56
480.313	608.56
480.532	614.56
480.751	598.56
480.969	594.56
481.188	606.56
481.406	617.56
481.624	590.56
481.843	579.56
482.061	549.56
482.28	553.56
482.498	552.56
482.717	583.56
482.935	551.56
483.153	553.56
483.372	541.56
483.59	540.56
483.808	564.56
484.027	541.56
484.245	542.56
484.463	555.56
484.681	555.56
484.9	558.56
485.118	566.56
485.336	549.56
485.554	561.56
485.772	558.56
485.99	585.56
486.209	565.56
486.427	577.56
486.645	584.56
486.863	557.56
487.081	572.56
487.299	561.56
487.517	567.56
487.735	576.56
487.953	581.56
488.171	590.56
488.389	582.56
488.607	553.56
488.825	571.56
489.043	571.56
489.261	568.56
489.479	567.56
489.696	583.56
489.914	597.56
490.132	611.56
490.35	627.56
490.568	609.56
490.786	607.56
491.003	612.56
491.221	633.56
491.439	627.56
491.657	618.56
491.874	654.56
492.092	656.56
492.31	641.56
492.527	657.56
492.745	675.56
492.963	654.56
493.18	717.56
493.398	663.56
493.615	676.56
493.833	669.56
494.05	695.56
494.268	673.56
494.485	660.56
494.703	654.56
494.92	687.56
495.138	679.56
495.355	652.56
495.573	673.56
495.79	669.56
496.008	664.56
496.225	674.56
496.442	663.56
496.66	695.56
496.877	680.56
497.094	701.56
497.312	693.56
497.529	695.56
497.746	729.56
497.963	715.56
498.181	783.56
498.398	791.56
498.615	799.56
498.832	823.56
499.049	846.56
499.267	867.56
499.484	879.56
499.701	999.56
499.918	1026.56
500.135	1131.56
500.352	1196.56
500.569	1237.56
500.786	1246.56
501.003	1203.56
501.22	1116.56
501.437	1060.56
501.654	1011.56
501.871	949.56
502.088	911.56
502.305	857.56
502.522	804.56
502.739	797.56
502.956	780.56
503.172	764.56
503.389	713.56
503.606	721.56
503.823	719.56
504.04	697.56
504.256	700.56
504.473	721.56
504.69	714.56
504.907	714.56
505.123	692.56
505.34	656.56
505.557	646.56
505.773	683.56
505.99	655.56
506.207	641.56
506.423	639.56
506.64	623.56
506.856	612.56
507.073	611.56
507.289	621.56
507.506	603.56
507.722	631.56
507.939	615.56
508.155	593.56
508.372	612.56
508.588	587.56
508.805	587.56
509.021	590.56
509.238	603.56
509.454	604.56
509.67	577.56
509.887	584.56
510.103	574.56
510.319	561.56
510.536	631.56
510.752	802.56
510.968	718.56
511.184	563.56
511.401	565.56
511.617	555.56
511.833	561.56
512.049	551.56
512.265	566.56
512.481	550.56
512.698	562.56
512.914	545.56
513.13	533.56
513.346	533.56
513.562	565.56
513.778	566.56
513.994	552.56
514.21	563.56
514.426	588.56
514.642	581.56
514.858	571.56
515.074	611.56
515.29	658.56
515.506	801.56
515.721	723.56
515.937	597.56
516.153	602.56
516.369	603.56
516.585	606.56
516.801	622.56
517.016	611.56
517.232	634.56
517.448	619.56
517.664	607.56
517.879	637.56
518.095	636.56
518.311	640.56
518.527	636.56
518.742	587.56
518.958	591.56
519.173	598.56
519.389	570.56
519.605	593.56
519.82	557.56
520.036	586.56
520.251	569.56
520.467	562.56
520.682	589.56
520.898	571.56
521.113	581.56
521.329	563.56
521.544	632.56
521.76	666.56
521.975	900.56
522.19	907.56
522.406	661.56
522.621	555.56
522.836	533.56
523.052	547.56
523.267	526.56
523.482	504.56
523.698	493.56
523.913	485.56
524.128	507.56
524.343	513.56
524.559	506.56
524.774	473.56
524.989	475.56
525.204	466.56
525.419	491.56
525.634	491.56
525.849	471.56
526.064	475.56
526.28	460.56
526.495	444.56
526.71	476.56
526.925	482.56
527.14	483.56
527.355	484.56
527.57	477.56
527.785	475.56
527.999	482.56
528.214	478.56
528.429	473.56
528.644	479.56
528.859	443.56
529.074	461.56
529.289	481.56
529.503	501.56
529.718	486.56
529.933	487.56
530.148	472.56
530.363	475.56
530.577	454.56
530.792	463.56
531.007	471.56
531.221	490.56
531.436	442.56
531.651	463.56
531.865	487.56
532.08	463.56
532.295	452.56
532.509	461.56
532.724	476.56
532.938	472.56
533.153	454.56
533.367	461.56
533.582	450.56
533.796	463.56
534.011	474.56
534.225	461.56
534.44	465.56
534.654	469.56
534.868	465.56
535.083	459.56
535.297	457.56
535.511	463.56
535.726	461.56
535.94	471.56
536.154	427.56
536.369	455.56
536.583	454.56
536.797	437.56
537.011	442.56
537.225	448.56
537.44	421.56
537.654	460.56
537.868	441.56
538.082	444.56
538.296	444.56
538.51	445.56
538.724	424.56
538.938	462.56
539.153	436.56
539.367	435.56
539.581	452.56
539.795	444.56
540.009	433.56
540.222	450.56
540.436	442.56
540.65	430.56
540.864	443.56
541.078	446.56
541.292	461.56
541.506	449.56
541.72	456.56
541.934	446.56
542.147	455.56
542.361	450.56
542.575	450.56
542.789	427.56
543.002	452.56
543.216	433.56
543.43	442.56
543.644	437.56
543.857	453.56
544.071	445.56
544.285	436.56
544.498	452.56
544.712	452.56
544.925	443.56
545.139	466.56
545.352	459.56
545.566	442.56
545.779	437.56
545.993	428.56
546.206	464.56
546.42	463.56
546.633	417.56
546.847	443.56
547.06	441.56
547.274	445.56
547.487	442.56
547.7	448.56
547.914	445.56
548.127	436.56
548.34	429.56
548.554	420.56
548.767	461.56
548.98	431.56
549.193	444.56
549.407	426.56
549.62	447.56
549.833	462.56
550.046	466.56
550.259	430.56
550.473	437.56
550.686	447.56
550.899	415.56
551.112	426.56
551.325	428.56
551.538	442.56
551.751	452.56
551.964	441.56
552.177	439.56
552.39	447.56
552.603	457.56
552.816	478.56
553.029	441.56
553.242	443.56
553.455	483.56
553.667	479.56
553.88	474.56
554.093	463.56
554.306	464.56
554.519	441.56
554.732	436.56
554.944	436.56
555.157	437.56
555.37	444.56
555.583	427.56
555.795	422.56
556.008	415.56
556.221	423.56
556.433	409.56
556.646	403.56
556.859	411.56
557.071	395.56
557.284	398.56
557.496	422.56
557.709	402.56
557.921	389.56
558.134	406.56
558.346	390.56
558.559	381.56
558.771	399.56
558.984	391.56
559.196	402.56
559.409	392.56
559.621	387.56
559.833	407.56
560.046	382.56
560.258	366.56
560.47	383.56
560.683	405.56
560.895	395.56
561.107	387.56
561.32	390.56
561.532	392.56
561.744	386.56
561.956	382.56
562.168	369.56
562.381	387.56
562.593	403.56
562.805	378.56
563.017	410.56
563.229	392.56
563.441	392.56
563.653	389.56
563.865	402.56
564.077	391.56
564.289	400.56
564.501	419.56
564.713	425.56
564.925	397.56
565.137	441.56
565.349	424.56
565.561	447.56
565.773	452.56
565.985	485.56
566.197	487.56
566.408	487.56
566.62	516.56
566.832	524.56
567.044	554.56
567.255	539.56
567.467	569.56
567.679	559.56
567.891	567.56
568.102	607.56
568.314	578.56
568.526	543.56
568.737	513.56
568.949	475.56
569.161	467.56
569.372	427.56
569.584	434.56
569.795	433.56
570.007	421.56
570.218	422.56
570.43	417.56
570.641	389.56
570.853	405.56
571.064	403.56
571.276	392.56
571.487	393.56
571.698	390.56
571.91	365.56
572.121	375.56
572.333	361.56
572.544	394.56
572.755	377.56
572.966	372.56
573.178	363.56
573.389	346.56
573.6	349.56
573.811	346.56
574.023	323.56
574.234	325.56
574.445	345.56
574.656	350.56
574.867	323.56
575.078	350.56
575.289	329.56
575.501	351.56
575.712	345.56
575.923	365.56
576.134	336.56
576.345	347.56
576.556	341.56
576.767	336.56
576.978	329.56
577.188	319.56
577.399	334.56
577.61	338.56
577.821	316.56
578.032	339.56
578.243	349.56
578.454	394.56
578.665	369.56
578.875	323.56
579.086	307.56
579.297	323.56
579.508	335.56
579.718	308.56
579.929	334.56
580.14	317.56
580.35	323.56
580.561	320.56
580.772	302.56
580.982	315.56
581.193	319.56
581.403	302.56
581.614	299.56
581.825	296.56
582.035	341.56
582.246	304.56
582.456	297.56
582.667	302.56
582.877	310.56
583.087	309.56
583.298	325.56
583.508	302.56
583.719	305.56
583.929	312.56
584.139	309.56
584.35	300.56
584.56	301.56
584.77	293.56
584.981	305.56
585.191	316.56
585.401	279.56
585.611	304.56
585.821	305.56
586.032	303.56
586.242	297.56
586.452	290.56
586.662	302.56
586.872	285.56
587.082	298.56
587.292	297.56
587.502	297.56
587.713	294.56
587.923	301.56
588.133	299.56
588.343	304.56
588.553	296.56
588.762	305.56
588.972	312.56
589.182	291.56
589.392	296.56
589.602	295.56
589.812	302.56
590.022	306.56
590.232	297.56
590.441	306.56
590.651	294.56
590.861	301.56
591.071	305.56
591.281	306.56
591.49	308.56
591.7	292.56
591.91	321.56
592.119	307.56
592.329	309.56
592.539	323.56
592.748	339.56
592.958	330.56
593.167	338.56
593.377	337.56
593.587	354.56
593.796	354.56
594.006	351.56
594.215	363.56
594.424	358.56
594.634	324.56
594.843	337.56
595.053	329.56
595.262	325.56
595.472	334.56
595.681	313.56
595.89	324.56
596.1	311.56
596.309	307.56
596.518	318.56
596.727	296.56
596.937	307.56
597.146	293.56
597.355	277.56
597.564	299.56
597.774	277.56
597.983	269.56
598.192	272.56
598.401	267.56
598.61	270.56
598.819	268.56
599.028	286.56
599.237	285.56
599.446	277.56
599.655	282.56
599.864	279.56
600.073	250.56
600.282	262.56
600.491	243.56
600.7	266.56
600.909	263.56
601.118	261.56
601.327	258.56
601.536	271.56
601.745	246.56
601.953	286.56
602.162	278.56
602.371	264.56
602.58	261.56
602.789	278.56
602.997	268.56
603.206	236.56
603.415	276.56
603.623	277.56
603.832	258.56
604.041	251.56
604.249	257.56
604.458	247.56
604.666	256.56
604.875	236.56
605.084	252.56
605.292	253.56
605.501	266.56
605.709	250.56
605.918	262.56
606.126	262.56
606.334	244.56
606.543	263.56
606.751	261.56
606.96	254.56
607.168	264.56
607.376	265.56
607.585	244.56
607.793	244.56
608.001	254.56
608.21	259.56
608.418	248.56
608.626	250.56
608.834	259.56
609.043	246.56
609.251	249.56
609.459	240.56
609.667	264.56
609.875	246.56
610.083	248.56
610.291	237.56
610.499	247.56
610.707	243.56
610.916	238.56
611.124	267.56
611.332	256.56
611.54	245.56
611.748	266.56
611.955	253.56
612.163	242.56
612.371	248.56
612.579	255.56
612.787	245.56
612.995	250.56
613.203	230.56
613.411	265.56
613.618	227.56
613.826	241.56
614.034	258.56
614.242	261.56
614.449	231.56
614.657	255.56
614.865	244.56
615.072	230.56
615.28	242.56
615.488	240.56
615.695	255.56
615.903	242.56
616.111	249.56
616.318	243.56
616.526	246.56
616.733	244.56
616.941	242.56
617.148	250.56
617.356	234.56
617.563	231.56
617.771	242.56
617.978	236.56
618.185	237.56
618.393	230.56
618.6	246.56
618.807	263.56
619.015	249.56
619.222	229.56
619.429	240.56
619.637	252.56
619.844	238.56
620.051	231.56
620.258	257.56
620.466	216.56
620.673	226.56
620.88	235.56
621.087	226.56
621.294	227.56
621.501	225.56
621.708	241.56
621.915	243.56
622.122	225.56
622.329	257.56
622.536	236.56
622.743	225.56
622.95	225.56
623.157	222.56
623.364	221.56
623.571	233.56
623.778	227.56
623.985	207.56
624.192	217.56
624.399	227.56
624.606	231.56
624.812	212.56
625.019	221.56
625.226	228.56
625.433	229.56
625.639	225.56
625.846	215.56
626.053	195.56
626.259	201.56
626.466	203.56
626.673	200.56
626.879	213.56
627.086	209.56
627.293	207.56
627.499	221.56
627.706	190.56
627.912	217.56
628.119	210.56
628.325	213.56
628.532	212.56
628.738	206.56
628.945	193.56
629.151	208.56
629.357	185.56
629.564	203.56
629.77	201.56
629.976	215.56
630.183	191.56
630.389	202.56
630.595	205.56
630.802	193.56
631.008	184.56
631.214	193.56
631.42	197.56
631.627	200.56
631.833	205.56
632.039	206.56
632.245	195.56
632.451	203.56
632.657	201.56
632.863	188.56
633.069	195.56
633.275	190.56
633.481	193.56
633.688	187.56
633.893	192.56
634.099	193.56
634.305	206.56
634.511	193.56
634.717	186.56
634.923	197.56
635.129	177.56
635.335	193.56
635.541	172.56
635.747	198.56
635.952	189.56
636.158	196.56
636.364	192.56
636.57	192.56
636.775	189.56
636.981	193.56
637.187	195.56
637.392	202.56
637.598	181.56
637.804	183.56
638.009	175.56
638.215	190.56
638.421	194.56
638.626	177.56
638.832	179.56
639.037	173.56
639.243	175.56
639.448	188.56
639.654	180.56
639.859	197.56
640.065	175.56
640.27	192.56
640.475	183.56
640.681	194.56
640.886	189.56
641.091	179.56
641.297	185.56
641.502	171.56
641.707	181.56
641.913	172.56
642.118	182.56
642.323	174.56
642.528	178.56
642.733	173.56
642.939	175.56
643.144	184.56
643.349	181.56
643.554	187.56
643.759	164.56
643.964	175.56
644.169	161.56
644.374	186.56
644.579	172.56
644.784	177.56
644.989	164.56
645.194	175.56
645.399	179.56
645.604	166.56
645.809	166.56
646.014	165.56
646.219	158.56
646.423	174.56
646.628	178.56
646.833	163.56
647.038	183.56
647.243	179.56
647.447	166.56
647.652	171.56
647.857	185.56
648.062	172.56
648.266	182.56
648.471	193.56
648.676	188.56
648.88	182.56
649.085	184.56
649.289	172.56
649.494	158.56
649.698	186.56
649.903	182.56
650.107	186.56
650.312	165.56
650.516	171.56
650.721	167.56
650.925	170.56
651.13	148.56
651.334	147.56
651.539	155.56
651.743	148.56
651.947	147.56
652.152	155.56
652.356	149.56
652.56	148.56
652.764	135.56
652.969	166.56
653.173	141.56
653.377	140.56
653.581	140.56
653.785	154.56
653.99	144.56
654.194	141.56
654.398	138.56
654.602	131.56
654.806	143.56
655.01	135.56
655.214	150.56
655.418	129.56
655.622	138.56
655.826	139.56
656.03	141.56
656.234	149.56
656.438	145.56
656.642	136.56
656.846	127.56
657.049	119.56
657.253	132.56
657.457	143.56
657.661	133.56
657.865	123.56
658.068	115.56
658.272	115.56
658.476	114.56
658.68	98.56
658.883	103.56
659.087	106.56
659.291	116.56
659.494	100.56
659.698	103.56
659.901	100.56
660.105	97.56
660.309	95.56
660.512	94.56
660.716	90.56
660.919	109.56
661.123	98.56
661.326	104.56
661.53	83.56
661.733	96.56
661.936	94.56
662.14	91.56
662.343	78.56
662.546	93.56
662.75	78.56
662.953	84.56
663.156	78.56
663.36	90.56
663.563	88.56
663.766	83.56
663.969	90.56
664.173	87.56
664.376	97.56
664.579	87.56
664.782	75.56
664.985	76.56
665.188	87.56
665.391	78.56
665.594	90.56
665.797	87.56
666	98.56
666.203	74.56
666.406	86.56
666.609	91.56
666.812	91.56
667.015	79.56
667.218	93.56
667.421	77.56
667.624	70.56
667.827	62.56
668.03	82.56
668.232	90.56
668.435	77.56
668.638	59.56
668.841	85.56
669.043	80.56
669.246	79.56
669.449	73.56
669.651	87.56
669.854	89.56
670.057	99.56
670.259	91.56
670.462	94.56
670.665	73.56
670.867	76.56
671.07	91.56
671.272	76.56
671.475	94.56
671.677	89.56
671.88	94.56
672.082	87.56
672.284	100.56
672.487	81.56
672.689	86.56
672.892	83.56
