Data from 1973.PennyLincolnUp.Lamp.En5.5.200Scan.071719.P1.Changed Mount._HRD10591_15-43-48-851.txt Node
Date: Thu Jul 18 15:43:48 EDT 2019
User: cochatt
Spectrometer: HR+D1059
Trigger mode: 1
Integration Time (sec): 1.000000E-1
Scans to average: 1
Electric dark correction enabled: true
Nonlinearity correction enabled: false
Boxcar width: 0
XAxis mode: Wavelengths
Number of Pixels in Spectrum: 2048
>>>>>Begin Spectral Data<<<<<
223.165	-0.62
223.4	-0.62
223.635	-0.62
223.869	-16.62
224.104	-22.62
224.338	-19.62
224.573	-16.62
224.808	-9.62
225.042	-15.62
225.277	-17.62
225.511	1.38
225.746	2.38
225.98	10.38
226.215	17.38
226.449	8.38
226.683	25.38
226.918	21.38
227.152	32.38
227.387	22.38
227.621	31.38
227.856	54.38
228.09	51.38
228.324	59.38
228.559	60.38
228.793	58.38
229.027	82.38
229.262	106.38
229.496	99.38
229.73	112.38
229.964	129.38
230.199	114.38
230.433	124.38
230.667	111.38
230.901	88.38
231.136	106.38
231.37	111.38
231.604	103.38
231.838	104.38
232.072	116.38
232.306	104.38
232.541	105.38
232.775	113.38
233.009	115.38
233.243	112.38
233.477	115.38
233.711	112.38
233.945	119.38
234.179	107.38
234.413	97.38
234.647	117.38
234.881	125.38
235.115	113.38
235.349	117.38
235.583	119.38
235.817	114.38
236.051	122.38
236.285	119.38
236.519	122.38
236.753	121.38
236.987	126.38
237.221	151.38
237.455	188.38
237.689	153.38
237.922	129.38
238.156	103.38
238.39	131.38
238.624	114.38
238.858	120.38
239.091	124.38
239.325	117.38
239.559	116.38
239.793	123.38
240.027	137.38
240.26	133.38
240.494	148.38
240.728	155.38
240.961	133.38
241.195	141.38
241.429	132.38
241.662	125.38
241.896	138.38
242.13	140.38
242.363	124.38
242.597	128.38
242.83	130.38
243.064	144.38
243.298	143.38
243.531	132.38
243.765	118.38
243.998	147.38
244.232	133.38
244.465	139.38
244.699	147.38
244.932	148.38
245.166	141.38
245.399	136.38
245.633	151.38
245.866	150.38
246.099	143.38
246.333	143.38
246.566	163.38
246.8	139.38
247.033	161.38
247.266	167.38
247.5	171.38
247.733	162.38
247.966	175.38
248.2	162.38
248.433	180.38
248.666	162.38
248.899	173.38
249.133	171.38
249.366	191.38
249.599	183.38
249.832	183.38
250.066	165.38
250.299	176.38
250.532	196.38
250.765	185.38
250.998	187.38
251.231	208.38
251.465	207.38
251.698	196.38
251.931	182.38
252.164	177.38
252.397	191.38
252.63	179.38
252.863	181.38
253.096	214.38
253.329	200.38
253.562	206.38
253.795	201.38
254.028	216.38
254.261	176.38
254.494	208.38
254.727	234.38
254.96	234.38
255.193	242.38
255.426	222.38
255.659	220.38
255.892	218.38
256.124	220.38
256.357	205.38
256.59	202.38
256.823	207.38
257.056	205.38
257.289	192.38
257.521	202.38
257.754	205.38
257.987	194.38
258.22	187.38
258.452	189.38
258.685	213.38
258.918	196.38
259.151	217.38
259.383	195.38
259.616	215.38
259.849	215.38
260.081	209.38
260.314	227.38
260.547	251.38
260.779	234.38
261.012	218.38
261.244	208.38
261.477	207.38
261.71	213.38
261.942	211.38
262.175	218.38
262.407	200.38
262.64	202.38
262.872	225.38
263.105	208.38
263.337	215.38
263.57	202.38
263.802	206.38
264.035	212.38
264.267	215.38
264.499	210.38
264.732	205.38
264.964	216.38
265.197	216.38
265.429	217.38
265.661	202.38
265.894	209.38
266.126	218.38
266.358	211.38
266.591	212.38
266.823	218.38
267.055	223.38
267.287	234.38
267.52	221.38
267.752	216.38
267.984	224.38
268.216	211.38
268.448	230.38
268.681	229.38
268.913	249.38
269.145	253.38
269.377	259.38
269.609	255.38
269.841	260.38
270.073	272.38
270.306	279.38
270.538	296.38
270.77	306.38
271.002	283.38
271.234	280.38
271.466	273.38
271.698	279.38
271.93	276.38
272.162	299.38
272.394	283.38
272.626	285.38
272.858	278.38
273.09	264.38
273.322	251.38
273.553	266.38
273.785	264.38
274.017	259.38
274.249	256.38
274.481	257.38
274.713	271.38
274.945	257.38
275.176	268.38
275.408	244.38
275.64	267.38
275.872	288.38
276.104	268.38
276.335	273.38
276.567	275.38
276.799	266.38
277.031	293.38
277.262	300.38
277.494	294.38
277.726	309.38
277.957	289.38
278.189	278.38
278.421	263.38
278.652	274.38
278.884	265.38
279.115	262.38
279.347	271.38
279.579	261.38
279.81	257.38
280.042	283.38
280.273	282.38
280.505	275.38
280.736	275.38
280.968	271.38
281.199	267.38
281.431	273.38
281.662	285.38
281.894	260.38
282.125	289.38
282.356	288.38
282.588	298.38
282.819	287.38
283.051	297.38
283.282	278.38
283.513	304.38
283.745	272.38
283.976	279.38
284.207	295.38
284.439	274.38
284.67	291.38
284.901	298.38
285.132	285.38
285.364	279.38
285.595	294.38
285.826	294.38
286.057	279.38
286.288	283.38
286.52	287.38
286.751	297.38
286.982	284.38
287.213	281.38
287.444	299.38
287.675	295.38
287.906	309.38
288.138	323.38
288.369	292.38
288.6	305.38
288.831	305.38
289.062	317.38
289.293	303.38
289.524	301.38
289.755	303.38
289.986	293.38
290.217	294.38
290.448	319.38
290.679	302.38
290.91	296.38
291.141	279.38
291.371	303.38
291.602	297.38
291.833	311.38
292.064	313.38
292.295	306.38
292.526	305.38
292.757	297.38
292.987	288.38
293.218	282.38
293.449	292.38
293.68	305.38
293.91	309.38
294.141	317.38
294.372	310.38
294.603	315.38
294.833	313.38
295.064	314.38
295.295	299.38
295.525	298.38
295.756	297.38
295.987	307.38
296.217	318.38
296.448	322.38
296.679	319.38
296.909	297.38
297.14	321.38
297.37	328.38
297.601	328.38
297.831	314.38
298.062	317.38
298.292	305.38
298.523	315.38
298.753	310.38
298.984	317.38
299.214	317.38
299.445	328.38
299.675	305.38
299.905	300.38
300.136	310.38
300.366	314.38
300.597	310.38
300.827	340.38
301.057	348.38
301.288	338.38
301.518	347.38
301.748	348.38
301.979	336.38
302.209	332.38
302.439	348.38
302.669	350.38
302.9	345.38
303.13	335.38
303.36	350.38
303.59	342.38
303.82	362.38
304.051	353.38
304.281	369.38
304.511	336.38
304.741	325.38
304.971	335.38
305.201	325.38
305.431	334.38
305.661	338.38
305.891	334.38
306.121	312.38
306.352	337.38
306.582	331.38
306.812	331.38
307.042	337.38
307.272	344.38
307.502	324.38
307.731	327.38
307.961	342.38
308.191	332.38
308.421	347.38
308.651	330.38
308.881	332.38
309.111	328.38
309.341	340.38
309.571	329.38
309.8	347.38
310.03	348.38
310.26	344.38
310.49	362.38
310.72	361.38
310.949	376.38
311.179	368.38
311.409	352.38
311.639	351.38
311.868	365.38
312.098	360.38
312.328	378.38
312.557	377.38
312.787	395.38
313.017	386.38
313.246	373.38
313.476	355.38
313.706	369.38
313.935	376.38
314.165	385.38
314.394	367.38
314.624	384.38
314.853	390.38
315.083	379.38
315.312	367.38
315.542	374.38
315.771	372.38
316.001	376.38
316.23	360.38
316.46	371.38
316.689	369.38
316.919	397.38
317.148	385.38
317.377	385.38
317.607	393.38
317.836	377.38
318.065	356.38
318.295	369.38
318.524	364.38
318.753	362.38
318.983	391.38
319.212	389.38
319.441	369.38
319.67	369.38
319.9	368.38
320.129	374.38
320.358	380.38
320.587	381.38
320.816	380.38
321.046	389.38
321.275	393.38
321.504	371.38
321.733	407.38
321.962	401.38
322.191	388.38
322.42	400.38
322.649	404.38
322.878	422.38
323.108	408.38
323.337	408.38
323.566	425.38
323.795	426.38
324.024	453.38
324.253	511.38
324.482	669.38
324.71	924.38
324.939	1313.38
325.168	1137.38
325.397	632.38
325.626	482.38
325.855	462.38
326.084	428.38
326.313	415.38
326.542	426.38
326.77	466.38
326.999	525.38
327.228	607.38
327.457	859.38
327.686	1010.38
327.914	712.38
328.143	523.38
328.372	481.38
328.6	481.38
328.829	462.38
329.058	474.38
329.287	464.38
329.515	458.38
329.744	449.38
329.972	439.38
330.201	456.38
330.43	475.38
330.658	502.38
330.887	514.38
331.115	490.38
331.344	462.38
331.572	441.38
331.801	465.38
332.03	453.38
332.258	436.38
332.486	468.38
332.715	464.38
332.943	468.38
333.172	453.38
333.4	479.38
333.629	472.38
333.857	487.38
334.085	495.38
334.314	480.38
334.542	519.38
334.771	522.38
334.999	484.38
335.227	463.38
335.455	485.38
335.684	471.38
335.912	481.38
336.14	436.38
336.369	439.38
336.597	467.38
336.825	456.38
337.053	451.38
337.281	443.38
337.51	427.38
337.738	443.38
337.966	439.38
338.194	427.38
338.422	446.38
338.65	438.38
338.878	441.38
339.106	409.38
339.334	430.38
339.562	423.38
339.79	425.38
340.018	454.38
340.246	406.38
340.474	419.38
340.702	416.38
340.93	415.38
341.158	410.38
341.386	442.38
341.614	419.38
341.842	422.38
342.07	421.38
342.298	405.38
342.526	423.38
342.754	409.38
342.981	405.38
343.209	426.38
343.437	433.38
343.665	429.38
343.893	440.38
344.12	470.38
344.348	448.38
344.576	456.38
344.804	470.38
345.031	447.38
345.259	424.38
345.487	429.38
345.714	424.38
345.942	418.38
346.17	400.38
346.397	412.38
346.625	432.38
346.853	417.38
347.08	401.38
347.308	404.38
347.535	416.38
347.763	392.38
347.99	403.38
348.218	415.38
348.445	404.38
348.673	408.38
348.9	396.38
349.128	404.38
349.355	402.38
349.583	385.38
349.81	398.38
350.037	400.38
350.265	409.38
350.492	392.38
350.72	389.38
350.947	410.38
351.174	407.38
351.402	386.38
351.629	401.38
351.856	393.38
352.083	400.38
352.311	407.38
352.538	406.38
352.765	393.38
352.992	412.38
353.22	388.38
353.447	389.38
353.674	397.38
353.901	373.38
354.128	380.38
354.355	389.38
354.583	381.38
354.81	385.38
355.037	398.38
355.264	383.38
355.491	404.38
355.718	407.38
355.945	378.38
356.172	401.38
356.399	375.38
356.626	397.38
356.853	378.38
357.08	375.38
357.307	387.38
357.534	355.38
357.761	383.38
357.988	406.38
358.215	389.38
358.441	400.38
358.668	384.38
358.895	393.38
359.122	418.38
359.349	387.38
359.576	393.38
359.802	411.38
360.029	426.38
360.256	413.38
360.483	415.38
360.709	411.38
360.936	405.38
361.163	395.38
361.39	391.38
361.616	393.38
361.843	363.38
362.07	379.38
362.296	395.38
362.523	405.38
362.749	391.38
362.976	401.38
363.203	400.38
363.429	380.38
363.656	382.38
363.882	386.38
364.109	384.38
364.335	389.38
364.562	383.38
364.788	392.38
365.015	383.38
365.241	405.38
365.468	389.38
365.694	387.38
365.92	373.38
366.147	410.38
366.373	405.38
366.599	376.38
366.826	387.38
367.052	371.38
367.278	393.38
367.505	375.38
367.731	393.38
367.957	387.38
368.184	386.38
368.41	399.38
368.636	394.38
368.862	399.38
369.089	393.38
369.315	385.38
369.541	387.38
369.767	385.38
369.993	385.38
370.219	370.38
370.445	393.38
370.672	386.38
370.898	396.38
371.124	386.38
371.35	415.38
371.576	384.38
371.802	404.38
372.028	415.38
372.254	425.38
372.48	420.38
372.706	411.38
372.932	387.38
373.158	398.38
373.384	390.38
373.61	405.38
373.835	404.38
374.061	414.38
374.287	415.38
374.513	416.38
374.739	426.38
374.965	421.38
375.191	423.38
375.416	412.38
375.642	406.38
375.868	405.38
376.094	410.38
376.319	409.38
376.545	389.38
376.771	429.38
376.997	407.38
377.222	388.38
377.448	424.38
377.674	413.38
377.899	419.38
378.125	389.38
378.35	412.38
378.576	391.38
378.802	394.38
379.027	395.38
379.253	389.38
379.478	397.38
379.704	391.38
379.929	401.38
380.155	406.38
380.38	402.38
380.606	417.38
380.831	391.38
381.057	395.38
381.282	401.38
381.507	391.38
381.733	405.38
381.958	399.38
382.184	402.38
382.409	415.38
382.634	421.38
382.86	416.38
383.085	410.38
383.31	416.38
383.535	403.38
383.761	427.38
383.986	437.38
384.211	418.38
384.436	427.38
384.662	419.38
384.887	425.38
385.112	450.38
385.337	453.38
385.562	459.38
385.787	474.38
386.013	455.38
386.238	467.38
386.463	460.38
386.688	454.38
386.913	466.38
387.138	454.38
387.363	460.38
387.588	451.38
387.813	451.38
388.038	444.38
388.263	433.38
388.488	438.38
388.713	445.38
388.938	451.38
389.163	438.38
389.387	474.38
389.612	455.38
389.837	444.38
390.062	445.38
390.287	456.38
390.512	460.38
390.736	440.38
390.961	435.38
391.186	447.38
391.411	455.38
391.636	465.38
391.86	483.38
392.085	483.38
392.31	487.38
392.534	480.38
392.759	452.38
392.984	460.38
393.208	472.38
393.433	460.38
393.658	464.38
393.882	460.38
394.107	458.38
394.331	455.38
394.556	454.38
394.78	460.38
395.005	452.38
395.229	466.38
395.454	470.38
395.678	501.38
395.903	493.38
396.127	507.38
396.352	506.38
396.576	479.38
396.801	462.38
397.025	461.38
397.249	478.38
397.474	477.38
397.698	481.38
397.922	490.38
398.147	517.38
398.371	527.38
398.595	513.38
398.82	529.38
399.044	540.38
399.268	567.38
399.492	609.38
399.717	654.38
399.941	677.38
400.165	684.38
400.389	648.38
400.613	605.38
400.837	555.38
401.062	560.38
401.286	537.38
401.51	543.38
401.734	539.38
401.958	513.38
402.182	530.38
402.406	519.38
402.63	519.38
402.854	531.38
403.078	539.38
403.302	555.38
403.526	562.38
403.75	588.38
403.974	572.38
404.198	567.38
404.422	561.38
404.645	568.38
404.869	551.38
405.093	614.38
405.317	605.38
405.541	660.38
405.765	590.38
405.988	564.38
406.212	573.38
406.436	597.38
406.66	588.38
406.883	591.38
407.107	624.38
407.331	672.38
407.555	717.38
407.778	714.38
408.002	650.38
408.226	604.38
408.449	627.38
408.673	611.38
408.896	615.38
409.12	645.38
409.344	610.38
409.567	588.38
409.791	573.38
410.014	569.38
410.238	547.38
410.461	557.38
410.685	531.38
410.908	571.38
411.132	588.38
411.355	600.38
411.578	580.38
411.802	557.38
412.025	550.38
412.249	546.38
412.472	584.38
412.695	585.38
412.919	607.38
413.142	541.38
413.365	531.38
413.589	536.38
413.812	532.38
414.035	524.38
414.258	533.38
414.482	528.38
414.705	519.38
414.928	551.38
415.151	532.38
415.374	514.38
415.597	505.38
415.821	521.38
416.044	534.38
416.267	497.38
416.49	507.38
416.713	499.38
416.936	516.38
417.159	515.38
417.382	520.38
417.605	522.38
417.828	543.38
418.051	559.38
418.274	507.38
418.497	524.38
418.72	520.38
418.943	505.38
419.166	541.38
419.389	585.38
419.611	543.38
419.834	564.38
420.057	554.38
420.28	543.38
420.503	515.38
420.726	547.38
420.948	556.38
421.171	584.38
421.394	596.38
421.617	522.38
421.839	552.38
422.062	539.38
422.285	549.38
422.507	597.38
422.73	684.38
422.953	630.38
423.175	557.38
423.398	522.38
423.621	568.38
423.843	577.38
424.066	598.38
424.288	543.38
424.511	570.38
424.733	609.38
424.956	673.38
425.178	653.38
425.401	657.38
425.623	671.38
425.846	593.38
426.068	538.38
426.291	572.38
426.513	532.38
426.735	547.38
426.958	554.38
427.18	634.38
427.402	745.38
427.625	787.38
427.847	665.38
428.069	607.38
428.292	531.38
428.514	525.38
428.736	497.38
428.958	498.38
429.181	514.38
429.403	535.38
429.625	500.38
429.847	535.38
430.069	589.38
430.292	575.38
430.514	531.38
430.736	485.38
430.958	488.38
431.18	487.38
431.402	498.38
431.624	481.38
431.846	469.38
432.068	471.38
432.29	509.38
432.512	468.38
432.734	497.38
432.956	487.38
433.178	499.38
433.4	504.38
433.622	519.38
433.844	490.38
434.066	491.38
434.287	501.38
434.509	479.38
434.731	519.38
434.953	500.38
435.175	533.38
435.397	537.38
435.618	565.38
435.84	562.38
436.062	643.38
436.284	678.38
436.505	599.38
436.727	528.38
436.949	526.38
437.17	510.38
437.392	500.38
437.614	516.38
437.835	526.38
438.057	591.38
438.278	661.38
438.5	658.38
438.721	728.38
438.943	716.38
439.165	588.38
439.386	548.38
439.608	529.38
439.829	517.38
440.05	545.38
440.272	577.38
440.493	545.38
440.715	539.38
440.936	495.38
441.158	517.38
441.379	502.38
441.6	521.38
441.822	532.38
442.043	572.38
442.264	653.38
442.486	699.38
442.707	604.38
442.928	548.38
443.149	538.38
443.371	565.38
443.592	614.38
443.813	700.38
444.034	724.38
444.255	634.38
444.476	590.38
444.698	586.38
444.919	595.38
445.14	665.38
445.361	614.38
445.582	587.38
445.803	603.38
446.024	673.38
446.245	695.38
446.466	644.38
446.687	585.38
446.908	535.38
447.129	516.38
447.35	487.38
447.571	500.38
447.792	463.38
448.013	467.38
448.234	478.38
448.455	531.38
448.675	607.38
448.896	740.38
449.117	616.38
449.338	572.38
449.559	671.38
449.779	757.38
450	597.38
450.221	504.38
450.442	479.38
450.662	477.38
450.883	476.38
451.104	480.38
451.324	468.38
451.545	465.38
451.766	459.38
451.986	448.38
452.207	428.38
452.428	443.38
452.648	419.38
452.869	461.38
453.089	435.38
453.31	459.38
453.53	430.38
453.751	444.38
453.971	449.38
454.192	428.38
454.412	435.38
454.633	435.38
454.853	434.38
455.073	434.38
455.294	461.38
455.514	499.38
455.734	495.38
455.955	421.38
456.175	427.38
456.395	410.38
456.616	411.38
456.836	417.38
457.056	413.38
457.276	423.38
457.497	435.38
457.717	431.38
457.937	417.38
458.157	449.38
458.377	433.38
458.598	461.38
458.818	475.38
459.038	533.38
459.258	582.38
459.478	536.38
459.698	492.38
459.918	486.38
460.138	504.38
460.358	521.38
460.578	531.38
460.798	500.38
461.018	515.38
461.238	554.38
461.458	528.38
461.678	505.38
461.898	517.38
462.118	522.38
462.338	539.38
462.558	559.38
462.777	554.38
462.997	577.38
463.217	605.38
463.437	615.38
463.657	592.38
463.876	576.38
464.096	587.38
464.316	563.38
464.536	565.38
464.755	560.38
464.975	544.38
465.195	559.38
465.414	575.38
465.634	532.38
465.854	499.38
466.073	487.38
466.293	473.38
466.512	472.38
466.732	496.38
466.951	461.38
467.171	459.38
467.391	470.38
467.61	441.38
467.829	473.38
468.049	481.38
468.268	480.38
468.488	446.38
468.707	457.38
468.927	471.38
469.146	451.38
469.365	456.38
469.585	467.38
469.804	476.38
470.023	491.38
470.243	484.38
470.462	492.38
470.681	479.38
470.901	486.38
471.12	468.38
471.339	459.38
471.558	468.38
471.777	463.38
471.997	450.38
472.216	476.38
472.435	477.38
472.654	467.38
472.873	483.38
473.092	465.38
473.311	476.38
473.53	453.38
473.749	462.38
473.968	496.38
474.187	567.38
474.406	596.38
474.625	503.38
474.844	475.38
475.063	452.38
475.282	471.38
475.501	479.38
475.72	476.38
475.939	470.38
476.158	476.38
476.377	497.38
476.596	498.38
476.814	509.38
477.033	509.38
477.252	492.38
477.471	514.38
477.69	521.38
477.908	497.38
478.127	539.38
478.346	519.38
478.564	535.38
478.783	527.38
479.002	531.38
479.22	550.38
479.439	561.38
479.658	566.38
479.876	564.38
480.095	562.38
480.313	602.38
480.532	596.38
480.751	593.38
480.969	593.38
481.188	582.38
481.406	602.38
481.624	572.38
481.843	562.38
482.061	550.38
482.28	533.38
482.498	518.38
482.717	515.38
482.935	529.38
483.153	529.38
483.372	539.38
483.59	563.38
483.808	548.38
484.027	529.38
484.245	535.38
484.463	540.38
484.681	515.38
484.9	540.38
485.118	559.38
485.336	540.38
485.554	558.38
485.772	560.38
485.99	571.38
486.209	563.38
486.427	554.38
486.645	567.38
486.863	564.38
487.081	569.38
487.299	580.38
487.517	579.38
487.735	572.38
487.953	553.38
488.171	582.38
488.389	576.38
488.607	565.38
488.825	575.38
489.043	587.38
489.261	570.38
489.479	562.38
489.696	594.38
489.914	593.38
490.132	604.38
490.35	614.38
490.568	609.38
490.786	593.38
491.003	611.38
491.221	611.38
491.439	607.38
491.657	628.38
491.874	647.38
492.092	639.38
492.31	661.38
492.527	641.38
492.745	626.38
492.963	659.38
493.18	668.38
493.398	661.38
493.615	637.38
493.833	640.38
494.05	647.38
494.268	662.38
494.485	659.38
494.703	668.38
494.92	649.38
495.138	640.38
495.355	663.38
495.573	669.38
495.79	665.38
496.008	672.38
496.225	678.38
496.442	691.38
496.66	701.38
496.877	684.38
497.094	672.38
497.312	708.38
497.529	698.38
497.746	710.38
497.963	710.38
498.181	726.38
498.398	761.38
498.615	783.38
498.832	798.38
499.049	850.38
499.267	884.38
499.484	900.38
499.701	970.38
499.918	1023.38
500.135	1085.38
500.352	1184.38
500.569	1211.38
500.786	1202.38
501.003	1158.38
501.22	1109.38
501.437	1061.38
501.654	982.38
501.871	944.38
502.088	890.38
502.305	851.38
502.522	808.38
502.739	789.38
502.956	781.38
503.172	765.38
503.389	726.38
503.606	719.38
503.823	705.38
504.04	699.38
504.256	692.38
504.473	708.38
504.69	727.38
504.907	672.38
505.123	698.38
505.34	700.38
505.557	663.38
505.773	651.38
505.99	633.38
506.207	627.38
506.423	625.38
506.64	620.38
506.856	599.38
507.073	611.38
507.289	608.38
507.506	581.38
507.722	594.38
507.939	603.38
508.155	592.38
508.372	599.38
508.588	586.38
508.805	584.38
509.021	599.38
509.238	612.38
509.454	589.38
509.67	580.38
509.887	564.38
510.103	576.38
510.319	568.38
510.536	612.38
510.752	777.38
510.968	708.38
511.184	563.38
511.401	567.38
511.617	529.38
511.833	529.38
512.049	534.38
512.265	539.38
512.481	524.38
512.698	533.38
512.914	556.38
513.13	550.38
513.346	565.38
513.562	540.38
513.778	529.38
513.994	547.38
514.21	531.38
514.426	556.38
514.642	556.38
514.858	592.38
515.074	619.38
515.29	641.38
515.506	791.38
515.721	711.38
515.937	620.38
516.153	569.38
516.369	587.38
516.585	594.38
516.801	575.38
517.016	602.38
517.232	613.38
517.448	642.38
517.664	626.38
517.879	652.38
518.095	645.38
518.311	653.38
518.527	594.38
518.742	615.38
518.958	595.38
519.173	582.38
519.389	563.38
519.605	552.38
519.82	549.38
520.036	554.38
520.251	569.38
520.467	577.38
520.682	559.38
520.898	582.38
521.113	561.38
521.329	568.38
521.544	600.38
521.76	672.38
521.975	953.38
522.19	907.38
522.406	640.38
522.621	557.38
522.836	534.38
523.052	526.38
523.267	498.38
523.482	499.38
523.698	479.38
523.913	491.38
524.128	484.38
524.343	495.38
524.559	511.38
524.774	485.38
524.989	499.38
525.204	491.38
525.419	495.38
525.634	479.38
525.849	485.38
526.064	449.38
526.28	474.38
526.495	478.38
526.71	461.38
526.925	459.38
527.14	464.38
527.355	456.38
527.57	457.38
527.785	474.38
527.999	465.38
528.214	471.38
528.429	473.38
528.644	459.38
528.859	484.38
529.074	472.38
529.289	477.38
529.503	508.38
529.718	491.38
529.933	462.38
530.148	469.38
530.363	476.38
530.577	472.38
530.792	432.38
531.007	452.38
531.221	468.38
531.436	450.38
531.651	461.38
531.865	460.38
532.08	455.38
532.295	456.38
532.509	428.38
532.724	429.38
532.938	448.38
533.153	472.38
533.367	461.38
533.582	449.38
533.796	450.38
534.011	452.38
534.225	450.38
534.44	442.38
534.654	452.38
534.868	453.38
535.083	453.38
535.297	415.38
535.511	455.38
535.726	438.38
535.94	459.38
536.154	462.38
536.369	455.38
536.583	457.38
536.797	436.38
537.011	468.38
537.225	451.38
537.44	437.38
537.654	430.38
537.868	442.38
538.082	421.38
538.296	445.38
538.51	440.38
538.724	441.38
538.938	433.38
539.153	432.38
539.367	438.38
539.581	448.38
539.795	447.38
540.009	441.38
540.222	413.38
540.436	441.38
540.65	425.38
540.864	424.38
541.078	437.38
541.292	441.38
541.506	420.38
541.72	431.38
541.934	419.38
542.147	436.38
542.361	439.38
542.575	423.38
542.789	426.38
543.002	418.38
543.216	440.38
543.43	435.38
543.644	441.38
543.857	465.38
544.071	417.38
544.285	454.38
544.498	415.38
544.712	443.38
544.925	433.38
545.139	436.38
545.352	429.38
545.566	419.38
545.779	419.38
545.993	428.38
546.206	454.38
546.42	439.38
546.633	433.38
546.847	431.38
547.06	410.38
547.274	423.38
547.487	439.38
547.7	434.38
547.914	435.38
548.127	415.38
548.34	424.38
548.554	437.38
548.767	439.38
548.98	444.38
549.193	424.38
549.407	445.38
549.62	429.38
549.833	465.38
550.046	436.38
550.259	434.38
550.473	435.38
550.686	425.38
550.899	423.38
551.112	416.38
551.325	436.38
551.538	434.38
551.751	433.38
551.964	418.38
552.177	428.38
552.39	424.38
552.603	444.38
552.816	434.38
553.029	442.38
553.242	442.38
553.455	450.38
553.667	463.38
553.88	468.38
554.093	433.38
554.306	451.38
554.519	439.38
554.732	421.38
554.944	434.38
555.157	415.38
555.37	415.38
555.583	398.38
555.795	423.38
556.008	388.38
556.221	403.38
556.433	398.38
556.646	377.38
556.859	384.38
557.071	400.38
557.284	371.38
557.496	403.38
557.709	390.38
557.921	397.38
558.134	375.38
558.346	383.38
558.559	391.38
558.771	386.38
558.984	398.38
559.196	380.38
559.409	343.38
559.621	375.38
559.833	377.38
560.046	385.38
560.258	371.38
560.47	371.38
560.683	378.38
560.895	392.38
561.107	369.38
561.32	384.38
561.532	400.38
561.744	388.38
561.956	394.38
562.168	390.38
562.381	389.38
562.593	380.38
562.805	390.38
563.017	394.38
563.229	396.38
563.441	395.38
563.653	410.38
563.865	402.38
564.077	381.38
564.289	403.38
564.501	407.38
564.713	413.38
564.925	417.38
565.137	414.38
565.349	429.38
565.561	419.38
565.773	429.38
565.985	443.38
566.197	453.38
566.408	477.38
566.62	515.38
566.832	528.38
567.044	519.38
567.255	524.38
567.467	536.38
567.679	548.38
567.891	575.38
568.102	576.38
568.314	583.38
568.526	530.38
568.737	512.38
568.949	470.38
569.161	469.38
569.372	448.38
569.584	420.38
569.795	425.38
570.007	413.38
570.218	410.38
570.43	421.38
570.641	384.38
570.853	404.38
571.064	408.38
571.276	389.38
571.487	383.38
571.698	384.38
571.91	384.38
572.121	378.38
572.333	356.38
572.544	367.38
572.755	371.38
572.966	363.38
573.178	345.38
573.389	334.38
573.6	349.38
573.811	343.38
574.023	338.38
574.234	352.38
574.445	333.38
574.656	342.38
574.867	337.38
575.078	331.38
575.289	335.38
575.501	345.38
575.712	334.38
575.923	331.38
576.134	326.38
576.345	336.38
576.556	316.38
576.767	313.38
576.978	336.38
577.188	341.38
577.399	336.38
577.61	333.38
577.821	327.38
578.032	316.38
578.243	328.38
578.454	403.38
578.665	360.38
578.875	316.38
579.086	304.38
579.297	316.38
579.508	331.38
579.718	315.38
579.929	322.38
580.14	307.38
580.35	306.38
580.561	300.38
580.772	307.38
580.982	298.38
581.193	297.38
581.403	307.38
581.614	313.38
581.825	312.38
582.035	283.38
582.246	296.38
582.456	311.38
582.667	300.38
582.877	301.38
583.087	301.38
583.298	300.38
583.508	306.38
583.719	313.38
583.929	300.38
584.139	308.38
584.35	284.38
584.56	306.38
584.77	291.38
584.981	304.38
585.191	307.38
585.401	283.38
585.611	298.38
585.821	304.38
586.032	272.38
586.242	293.38
586.452	303.38
586.662	309.38
586.872	310.38
587.082	307.38
587.292	307.38
587.502	279.38
587.713	290.38
587.923	296.38
588.133	300.38
588.343	293.38
588.553	296.38
588.762	281.38
588.972	307.38
589.182	304.38
589.392	291.38
589.602	291.38
589.812	292.38
590.022	296.38
590.232	308.38
590.441	287.38
590.651	299.38
590.861	308.38
591.071	297.38
591.281	288.38
591.49	307.38
591.7	305.38
591.91	306.38
592.119	312.38
592.329	325.38
592.539	311.38
592.748	341.38
592.958	340.38
593.167	321.38
593.377	351.38
593.587	341.38
593.796	338.38
594.006	334.38
594.215	333.38
594.424	323.38
594.634	346.38
594.843	307.38
595.053	318.38
595.262	300.38
595.472	324.38
595.681	309.38
595.89	299.38
596.1	311.38
596.309	304.38
596.518	282.38
596.727	280.38
596.937	281.38
597.146	267.38
597.355	305.38
597.564	290.38
597.774	285.38
597.983	268.38
598.192	278.38
598.401	279.38
598.61	268.38
598.819	277.38
599.028	255.38
599.237	259.38
599.446	278.38
599.655	266.38
599.864	264.38
600.073	263.38
600.282	258.38
600.491	269.38
600.7	253.38
600.909	256.38
601.118	263.38
601.327	249.38
601.536	242.38
601.745	261.38
601.953	263.38
602.162	252.38
602.371	268.38
602.58	263.38
602.789	282.38
602.997	243.38
603.206	259.38
603.415	256.38
603.623	258.38
603.832	261.38
604.041	253.38
604.249	249.38
604.458	244.38
604.666	235.38
604.875	253.38
605.084	245.38
605.292	248.38
605.501	244.38
605.709	240.38
605.918	257.38
606.126	252.38
606.334	236.38
606.543	235.38
606.751	220.38
606.96	241.38
607.168	241.38
607.376	236.38
607.585	240.38
607.793	232.38
608.001	258.38
608.21	269.38
608.418	234.38
608.626	244.38
608.834	239.38
609.043	241.38
609.251	242.38
609.459	242.38
609.667	232.38
609.875	249.38
610.083	241.38
610.291	238.38
610.499	240.38
610.707	243.38
610.916	258.38
611.124	242.38
611.332	248.38
611.54	248.38
611.748	248.38
611.955	232.38
612.163	239.38
612.371	244.38
612.579	257.38
612.787	239.38
612.995	255.38
613.203	225.38
613.411	237.38
613.618	243.38
613.826	219.38
614.034	230.38
614.242	248.38
614.449	224.38
614.657	232.38
614.865	227.38
615.072	240.38
615.28	239.38
615.488	257.38
615.695	268.38
615.903	259.38
616.111	236.38
616.318	251.38
616.526	239.38
616.733	246.38
616.941	241.38
617.148	228.38
617.356	251.38
617.563	243.38
617.771	255.38
617.978	239.38
618.185	237.38
618.393	233.38
618.6	234.38
618.807	228.38
619.015	244.38
619.222	236.38
619.429	225.38
619.637	232.38
619.844	240.38
620.051	234.38
620.258	212.38
620.466	231.38
620.673	222.38
620.88	227.38
621.087	226.38
621.294	213.38
621.501	219.38
621.708	210.38
621.915	250.38
622.122	220.38
622.329	215.38
622.536	218.38
622.743	210.38
622.95	211.38
623.157	223.38
623.364	227.38
623.571	223.38
623.778	211.38
623.985	223.38
624.192	199.38
624.399	225.38
624.606	226.38
624.812	201.38
625.019	224.38
625.226	213.38
625.433	214.38
625.639	216.38
625.846	229.38
626.053	196.38
626.259	212.38
626.466	196.38
626.673	216.38
626.879	206.38
627.086	199.38
627.293	200.38
627.499	233.38
627.706	219.38
627.912	207.38
628.119	200.38
628.325	208.38
628.532	178.38
628.738	210.38
628.945	202.38
629.151	209.38
629.357	192.38
629.564	191.38
629.77	200.38
629.976	192.38
630.183	199.38
630.389	189.38
630.595	197.38
630.802	202.38
631.008	184.38
631.214	189.38
631.42	192.38
631.627	212.38
631.833	187.38
632.039	215.38
632.245	191.38
632.451	191.38
632.657	198.38
632.863	186.38
633.069	194.38
633.275	192.38
633.481	185.38
633.688	178.38
633.893	186.38
634.099	192.38
634.305	199.38
634.511	182.38
634.717	188.38
634.923	179.38
635.129	195.38
635.335	180.38
635.541	191.38
635.747	191.38
635.952	186.38
636.158	195.38
636.364	200.38
636.57	177.38
636.775	188.38
636.981	187.38
637.187	196.38
637.392	202.38
637.598	192.38
637.804	194.38
638.009	180.38
638.215	180.38
638.421	178.38
638.626	166.38
638.832	187.38
639.037	196.38
639.243	176.38
639.448	173.38
639.654	181.38
639.859	193.38
640.065	171.38
640.27	167.38
640.475	164.38
640.681	174.38
640.886	189.38
641.091	179.38
641.297	185.38
641.502	187.38
641.707	176.38
641.913	166.38
642.118	179.38
642.323	172.38
642.528	163.38
642.733	170.38
642.939	161.38
643.144	178.38
643.349	160.38
643.554	171.38
643.759	162.38
643.964	180.38
644.169	153.38
644.374	189.38
644.579	173.38
644.784	165.38
644.989	181.38
645.194	168.38
645.399	164.38
645.604	160.38
645.809	162.38
646.014	159.38
646.219	179.38
646.423	169.38
646.628	179.38
646.833	181.38
647.038	179.38
647.243	179.38
647.447	170.38
647.652	169.38
647.857	181.38
648.062	172.38
648.266	180.38
648.471	178.38
648.676	172.38
648.88	179.38
649.085	190.38
649.289	169.38
649.494	165.38
649.698	188.38
649.903	180.38
650.107	176.38
650.312	162.38
650.516	153.38
650.721	175.38
650.925	141.38
651.13	153.38
651.334	157.38
651.539	160.38
651.743	134.38
651.947	152.38
652.152	145.38
652.356	132.38
652.56	147.38
652.764	138.38
652.969	141.38
653.173	135.38
653.377	133.38
653.581	146.38
653.785	144.38
653.99	150.38
654.194	134.38
654.398	140.38
654.602	129.38
654.806	132.38
655.01	147.38
655.214	143.38
655.418	131.38
655.622	155.38
655.826	150.38
656.03	131.38
656.234	138.38
656.438	123.38
656.642	145.38
656.846	141.38
657.049	136.38
657.253	149.38
657.457	127.38
657.661	111.38
657.865	115.38
658.068	119.38
658.272	98.38
658.476	119.38
658.68	118.38
658.883	113.38
659.087	102.38
659.291	111.38
659.494	104.38
659.698	108.38
659.901	102.38
660.105	103.38
660.309	104.38
660.512	102.38
660.716	98.38
660.919	98.38
661.123	90.38
661.326	94.38
661.53	98.38
661.733	96.38
661.936	87.38
662.14	96.38
662.343	93.38
662.546	92.38
662.75	84.38
662.953	87.38
663.156	87.38
663.36	88.38
663.563	98.38
663.766	84.38
663.969	85.38
664.173	71.38
664.376	77.38
664.579	80.38
664.782	84.38
664.985	92.38
665.188	83.38
665.391	80.38
665.594	82.38
665.797	89.38
666	92.38
666.203	86.38
666.406	81.38
666.609	80.38
666.812	92.38
667.015	73.38
667.218	71.38
667.421	87.38
667.624	96.38
667.827	81.38
668.03	86.38
668.232	79.38
668.435	88.38
668.638	72.38
668.841	77.38
669.043	86.38
669.246	75.38
669.449	70.38
669.651	87.38
669.854	77.38
670.057	77.38
670.259	87.38
670.462	69.38
670.665	82.38
670.867	88.38
671.07	77.38
671.272	82.38
671.475	97.38
671.677	93.38
671.88	71.38
672.082	81.38
672.284	84.38
672.487	73.38
672.689	69.38
672.892	83.38
