Data from 1973.PennyLincolnUp.Lamp.En5.5.200Scan.071719.P1.Changed Mount._HRD10591_15-44-11-852.txt Node
Date: Thu Jul 18 15:44:11 EDT 2019
User: cochatt
Spectrometer: HR+D1059
Trigger mode: 1
Integration Time (sec): 1.000000E-1
Scans to average: 1
Electric dark correction enabled: true
Nonlinearity correction enabled: false
Boxcar width: 0
XAxis mode: Wavelengths
Number of Pixels in Spectrum: 2048
>>>>>Begin Spectral Data<<<<<
223.165	-21.06
223.4	-21.06
223.635	-21.06
223.869	-10.06
224.104	-30.06
224.338	-6.06
224.573	-14.06
224.808	-3.06
225.042	-9.06
225.277	-19.06
225.511	-15.06
225.746	-3.06
225.98	16.94
226.215	23.94
226.449	14.94
226.683	23.94
226.918	29.94
227.152	20.94
227.387	18.94
227.621	40.94
227.856	48.94
228.09	52.94
228.324	68.94
228.559	60.94
228.793	84.94
229.027	96.94
229.262	110.94
229.496	106.94
229.73	132.94
229.964	144.94
230.199	132.94
230.433	113.94
230.667	109.94
230.901	117.94
231.136	116.94
231.37	121.94
231.604	116.94
231.838	100.94
232.072	114.94
232.306	117.94
232.541	105.94
232.775	114.94
233.009	126.94
233.243	112.94
233.477	122.94
233.711	113.94
233.945	106.94
234.179	119.94
234.413	109.94
234.647	121.94
234.881	131.94
235.115	119.94
235.349	122.94
235.583	127.94
235.817	128.94
236.051	111.94
236.285	126.94
236.519	124.94
236.753	122.94
236.987	151.94
237.221	172.94
237.455	184.94
237.689	175.94
237.922	130.94
238.156	122.94
238.39	129.94
238.624	120.94
238.858	126.94
239.091	138.94
239.325	130.94
239.559	146.94
239.793	141.94
240.027	137.94
240.26	142.94
240.494	157.94
240.728	143.94
240.961	158.94
241.195	161.94
241.429	144.94
241.662	136.94
241.896	135.94
242.13	154.94
242.363	153.94
242.597	129.94
242.83	154.94
243.064	146.94
243.298	148.94
243.531	130.94
243.765	136.94
243.998	149.94
244.232	150.94
244.465	145.94
244.699	166.94
244.932	161.94
245.166	154.94
245.399	152.94
245.633	157.94
245.866	149.94
246.099	152.94
246.333	167.94
246.566	163.94
246.8	167.94
247.033	147.94
247.266	127.94
247.5	150.94
247.733	184.94
247.966	188.94
248.2	183.94
248.433	184.94
248.666	189.94
248.899	185.94
249.133	201.94
249.366	192.94
249.599	193.94
249.832	185.94
250.066	177.94
250.299	189.94
250.532	190.94
250.765	196.94
250.998	212.94
251.231	231.94
251.465	198.94
251.698	206.94
251.931	198.94
252.164	188.94
252.397	191.94
252.63	202.94
252.863	209.94
253.096	214.94
253.329	206.94
253.562	226.94
253.795	200.94
254.028	196.94
254.261	201.94
254.494	239.94
254.727	237.94
254.96	241.94
255.193	252.94
255.426	229.94
255.659	230.94
255.892	226.94
256.124	217.94
256.357	231.94
256.59	212.94
256.823	224.94
257.056	208.94
257.289	206.94
257.521	207.94
257.754	224.94
257.987	210.94
258.22	216.94
258.452	226.94
258.685	211.94
258.918	224.94
259.151	215.94
259.383	213.94
259.616	207.94
259.849	211.94
260.081	239.94
260.314	261.94
260.547	252.94
260.779	237.94
261.012	225.94
261.244	244.94
261.477	234.94
261.71	230.94
261.942	233.94
262.175	231.94
262.407	227.94
262.64	208.94
262.872	229.94
263.105	213.94
263.337	229.94
263.57	212.94
263.802	225.94
264.035	218.94
264.267	219.94
264.499	219.94
264.732	220.94
264.964	228.94
265.197	223.94
265.429	216.94
265.661	229.94
265.894	216.94
266.126	222.94
266.358	215.94
266.591	216.94
266.823	241.94
267.055	225.94
267.287	249.94
267.52	239.94
267.752	228.94
267.984	244.94
268.216	251.94
268.448	238.94
268.681	259.94
268.913	272.94
269.145	270.94
269.377	280.94
269.609	277.94
269.841	274.94
270.073	266.94
270.306	292.94
270.538	290.94
270.77	315.94
271.002	280.94
271.234	275.94
271.466	294.94
271.698	294.94
271.93	301.94
272.162	311.94
272.394	309.94
272.626	294.94
272.858	275.94
273.09	289.94
273.322	275.94
273.553	282.94
273.785	266.94
274.017	262.94
274.249	285.94
274.481	273.94
274.713	273.94
274.945	298.94
275.176	273.94
275.408	274.94
275.64	265.94
275.872	254.94
276.104	284.94
276.335	278.94
276.567	290.94
276.799	303.94
277.031	316.94
277.262	328.94
277.494	311.94
277.726	294.94
277.957	312.94
278.189	281.94
278.421	278.94
278.652	280.94
278.884	294.94
279.115	275.94
279.347	286.94
279.579	297.94
279.81	300.94
280.042	296.94
280.273	285.94
280.505	265.94
280.736	287.94
280.968	308.94
281.199	289.94
281.431	295.94
281.662	305.94
281.894	290.94
282.125	311.94
282.356	311.94
282.588	304.94
282.819	301.94
283.051	304.94
283.282	298.94
283.513	292.94
283.745	293.94
283.976	314.94
284.207	301.94
284.439	309.94
284.67	296.94
284.901	304.94
285.132	307.94
285.364	296.94
285.595	295.94
285.826	302.94
286.057	298.94
286.288	295.94
286.52	313.94
286.751	298.94
286.982	304.94
287.213	312.94
287.444	311.94
287.675	305.94
287.906	313.94
288.138	302.94
288.369	324.94
288.6	338.94
288.831	317.94
289.062	329.94
289.293	328.94
289.524	318.94
289.755	317.94
289.986	315.94
290.217	324.94
290.448	328.94
290.679	315.94
290.91	322.94
291.141	323.94
291.371	318.94
291.602	335.94
291.833	322.94
292.064	334.94
292.295	333.94
292.526	318.94
292.757	323.94
292.987	312.94
293.218	314.94
293.449	323.94
293.68	332.94
293.91	321.94
294.141	330.94
294.372	305.94
294.603	322.94
294.833	323.94
295.064	320.94
295.295	320.94
295.525	321.94
295.756	330.94
295.987	322.94
296.217	337.94
296.448	348.94
296.679	335.94
296.909	315.94
297.14	334.94
297.37	348.94
297.601	328.94
297.831	330.94
298.062	325.94
298.292	321.94
298.523	330.94
298.753	348.94
298.984	340.94
299.214	350.94
299.445	342.94
299.675	335.94
299.905	337.94
300.136	336.94
300.366	353.94
300.597	336.94
300.827	343.94
301.057	359.94
301.288	370.94
301.518	342.94
301.748	364.94
301.979	360.94
302.209	333.94
302.439	374.94
302.669	368.94
302.9	357.94
303.13	361.94
303.36	363.94
303.59	370.94
303.82	362.94
304.051	375.94
304.281	367.94
304.511	340.94
304.741	351.94
304.971	351.94
305.201	363.94
305.431	355.94
305.661	368.94
305.891	347.94
306.121	360.94
306.352	374.94
306.582	367.94
306.812	377.94
307.042	358.94
307.272	352.94
307.502	367.94
307.731	352.94
307.961	366.94
308.191	362.94
308.421	382.94
308.651	361.94
308.881	358.94
309.111	368.94
309.341	380.94
309.571	365.94
309.8	364.94
310.03	384.94
310.26	380.94
310.49	364.94
310.72	392.94
310.949	399.94
311.179	394.94
311.409	383.94
311.639	394.94
311.868	386.94
312.098	364.94
312.328	380.94
312.557	380.94
312.787	401.94
313.017	393.94
313.246	402.94
313.476	400.94
313.706	386.94
313.935	382.94
314.165	416.94
314.394	413.94
314.624	406.94
314.853	398.94
315.083	396.94
315.312	389.94
315.542	394.94
315.771	406.94
316.001	397.94
316.23	394.94
316.46	367.94
316.689	376.94
316.919	385.94
317.148	401.94
317.377	405.94
317.607	386.94
317.836	386.94
318.065	381.94
318.295	392.94
318.524	409.94
318.753	401.94
318.983	406.94
319.212	388.94
319.441	401.94
319.67	414.94
319.9	381.94
320.129	407.94
320.358	402.94
320.587	394.94
320.816	398.94
321.046	418.94
321.275	400.94
321.504	400.94
321.733	410.94
321.962	416.94
322.191	417.94
322.42	437.94
322.649	424.94
322.878	440.94
323.108	444.94
323.337	448.94
323.566	465.94
323.795	450.94
324.024	496.94
324.253	551.94
324.482	729.94
324.71	1032.94
324.939	1427.94
325.168	1284.94
325.397	692.94
325.626	516.94
325.855	466.94
326.084	478.94
326.313	475.94
326.542	471.94
326.77	486.94
326.999	539.94
327.228	650.94
327.457	958.94
327.686	1129.94
327.914	791.94
328.143	568.94
328.372	538.94
328.6	531.94
328.829	506.94
329.058	504.94
329.287	526.94
329.515	492.94
329.744	491.94
329.972	488.94
330.201	481.94
330.43	502.94
330.658	524.94
330.887	543.94
331.115	537.94
331.344	491.94
331.572	476.94
331.801	493.94
332.03	470.94
332.258	499.94
332.486	486.94
332.715	468.94
332.943	478.94
333.172	474.94
333.4	487.94
333.629	512.94
333.857	536.94
334.085	517.94
334.314	540.94
334.542	551.94
334.771	537.94
334.999	527.94
335.227	498.94
335.455	486.94
335.684	487.94
335.912	489.94
336.14	484.94
336.369	480.94
336.597	485.94
336.825	488.94
337.053	472.94
337.281	449.94
337.51	455.94
337.738	472.94
337.966	470.94
338.194	463.94
338.422	460.94
338.65	461.94
338.878	454.94
339.106	461.94
339.334	443.94
339.562	448.94
339.79	449.94
340.018	448.94
340.246	443.94
340.474	433.94
340.702	450.94
340.93	443.94
341.158	441.94
341.386	449.94
341.614	461.94
341.842	439.94
342.07	452.94
342.298	444.94
342.526	415.94
342.754	448.94
342.981	444.94
343.209	440.94
343.437	451.94
343.665	464.94
343.893	467.94
344.12	486.94
344.348	508.94
344.576	468.94
344.804	470.94
345.031	459.94
345.259	444.94
345.487	449.94
345.714	448.94
345.942	448.94
346.17	456.94
346.397	444.94
346.625	406.94
346.853	419.94
347.08	400.94
347.308	438.94
347.535	426.94
347.763	434.94
347.99	439.94
348.218	426.94
348.445	434.94
348.673	424.94
348.9	408.94
349.128	439.94
349.355	415.94
349.583	426.94
349.81	408.94
350.037	424.94
350.265	409.94
350.492	401.94
350.72	408.94
350.947	414.94
351.174	424.94
351.402	406.94
351.629	428.94
351.856	425.94
352.083	430.94
352.311	435.94
352.538	433.94
352.765	420.94
352.992	433.94
353.22	415.94
353.447	405.94
353.674	408.94
353.901	406.94
354.128	422.94
354.355	402.94
354.583	398.94
354.81	403.94
355.037	396.94
355.264	415.94
355.491	397.94
355.718	394.94
355.945	393.94
356.172	410.94
356.399	392.94
356.626	400.94
356.853	378.94
357.08	395.94
357.307	402.94
357.534	400.94
357.761	402.94
357.988	408.94
358.215	394.94
358.441	413.94
358.668	410.94
358.895	411.94
359.122	408.94
359.349	425.94
359.576	419.94
359.802	434.94
360.029	417.94
360.256	428.94
360.483	441.94
360.709	410.94
360.936	410.94
361.163	425.94
361.39	410.94
361.616	395.94
361.843	396.94
362.07	417.94
362.296	432.94
362.523	440.94
362.749	410.94
362.976	413.94
363.203	419.94
363.429	402.94
363.656	398.94
363.882	420.94
364.109	399.94
364.335	410.94
364.562	418.94
364.788	436.94
365.015	396.94
365.241	421.94
365.468	409.94
365.694	411.94
365.92	420.94
366.147	393.94
366.373	411.94
366.599	417.94
366.826	411.94
367.052	410.94
367.278	413.94
367.505	419.94
367.731	426.94
367.957	394.94
368.184	400.94
368.41	415.94
368.636	412.94
368.862	407.94
369.089	417.94
369.315	428.94
369.541	415.94
369.767	424.94
369.993	396.94
370.219	405.94
370.445	424.94
370.672	432.94
370.898	417.94
371.124	403.94
371.35	414.94
371.576	415.94
371.802	414.94
372.028	422.94
372.254	419.94
372.48	436.94
372.706	427.94
372.932	422.94
373.158	420.94
373.384	405.94
373.61	425.94
373.835	436.94
374.061	418.94
374.287	420.94
374.513	409.94
374.739	432.94
374.965	442.94
375.191	430.94
375.416	445.94
375.642	436.94
375.868	431.94
376.094	428.94
376.319	422.94
376.545	421.94
376.771	428.94
376.997	436.94
377.222	416.94
377.448	417.94
377.674	422.94
377.899	410.94
378.125	418.94
378.35	431.94
378.576	430.94
378.802	424.94
379.027	424.94
379.253	409.94
379.478	432.94
379.704	416.94
379.929	403.94
380.155	433.94
380.38	438.94
380.606	420.94
380.831	402.94
381.057	435.94
381.282	428.94
381.507	425.94
381.733	431.94
381.958	435.94
382.184	424.94
382.409	410.94
382.634	449.94
382.86	431.94
383.085	431.94
383.31	424.94
383.535	449.94
383.761	453.94
383.986	444.94
384.211	448.94
384.436	486.94
384.662	454.94
384.887	463.94
385.112	453.94
385.337	462.94
385.562	465.94
385.787	459.94
386.013	486.94
386.238	470.94
386.463	490.94
386.688	471.94
386.913	474.94
387.138	476.94
387.363	483.94
387.588	479.94
387.813	490.94
388.038	464.94
388.263	460.94
388.488	488.94
388.713	457.94
388.938	473.94
389.163	470.94
389.387	468.94
389.612	457.94
389.837	462.94
390.062	459.94
390.287	467.94
390.512	476.94
390.736	468.94
390.961	464.94
391.186	460.94
391.411	499.94
391.636	515.94
391.86	515.94
392.085	503.94
392.31	486.94
392.534	508.94
392.759	501.94
392.984	486.94
393.208	468.94
393.433	489.94
393.658	482.94
393.882	479.94
394.107	486.94
394.331	507.94
394.556	500.94
394.78	476.94
395.005	480.94
395.229	497.94
395.454	520.94
395.678	510.94
395.903	498.94
396.127	520.94
396.352	532.94
396.576	517.94
396.801	503.94
397.025	494.94
397.249	496.94
397.474	517.94
397.698	486.94
397.922	519.94
398.147	530.94
398.371	533.94
398.595	528.94
398.82	558.94
399.044	579.94
399.268	610.94
399.492	666.94
399.717	684.94
399.941	737.94
400.165	705.94
400.389	698.94
400.613	639.94
400.837	585.94
401.062	581.94
401.286	582.94
401.51	561.94
401.734	562.94
401.958	574.94
402.182	567.94
402.406	558.94
402.63	570.94
402.854	574.94
403.078	587.94
403.302	598.94
403.526	581.94
403.75	572.94
403.974	601.94
404.198	584.94
404.422	589.94
404.645	583.94
404.869	621.94
405.093	609.94
405.317	649.94
405.541	683.94
405.765	661.94
405.988	588.94
406.212	619.94
406.436	599.94
406.66	607.94
406.883	616.94
407.107	638.94
407.331	676.94
407.555	742.94
407.778	773.94
408.002	693.94
408.226	642.94
408.449	628.94
408.673	604.94
408.896	645.94
409.12	688.94
409.344	644.94
409.567	600.94
409.791	576.94
410.014	562.94
410.238	578.94
410.461	568.94
410.685	579.94
410.908	600.94
411.132	613.94
411.355	648.94
411.578	639.94
411.802	570.94
412.025	601.94
412.249	605.94
412.472	618.94
412.695	620.94
412.919	613.94
413.142	556.94
413.365	553.94
413.589	559.94
413.812	538.94
414.035	538.94
414.258	558.94
414.482	530.94
414.705	545.94
414.928	557.94
415.151	538.94
415.374	550.94
415.597	541.94
415.821	527.94
416.044	540.94
416.267	552.94
416.49	543.94
416.713	550.94
416.936	549.94
417.159	538.94
417.382	565.94
417.605	556.94
417.828	548.94
418.051	568.94
418.274	573.94
418.497	545.94
418.72	573.94
418.943	548.94
419.166	561.94
419.389	596.94
419.611	604.94
419.834	570.94
420.057	583.94
420.28	585.94
420.503	573.94
420.726	546.94
420.948	582.94
421.171	586.94
421.394	621.94
421.617	569.94
421.839	519.94
422.062	558.94
422.285	574.94
422.507	621.94
422.73	684.94
422.953	646.94
423.175	604.94
423.398	591.94
423.621	575.94
423.843	622.94
424.066	609.94
424.288	606.94
424.511	600.94
424.733	644.94
424.956	718.94
425.178	686.94
425.401	684.94
425.623	689.94
425.846	621.94
426.068	557.94
426.291	587.94
426.513	570.94
426.735	579.94
426.958	603.94
427.18	679.94
427.402	776.94
427.625	842.94
427.847	757.94
428.069	647.94
428.292	585.94
428.514	560.94
428.736	549.94
428.958	545.94
429.181	519.94
429.403	530.94
429.625	517.94
429.847	571.94
430.069	591.94
430.292	601.94
430.514	538.94
430.736	526.94
430.958	510.94
431.18	504.94
431.402	526.94
431.624	487.94
431.846	492.94
432.068	505.94
432.29	504.94
432.512	501.94
432.734	510.94
432.956	522.94
433.178	524.94
433.4	518.94
433.622	539.94
433.844	523.94
434.066	513.94
434.287	494.94
434.509	534.94
434.731	537.94
434.953	545.94
435.175	560.94
435.397	561.94
435.618	567.94
435.84	614.94
436.062	684.94
436.284	718.94
436.505	613.94
436.727	557.94
436.949	539.94
437.17	537.94
437.392	534.94
437.614	525.94
437.835	552.94
438.057	616.94
438.278	690.94
438.5	673.94
438.721	780.94
438.943	751.94
439.165	602.94
439.386	572.94
439.608	560.94
439.829	579.94
440.05	574.94
440.272	586.94
440.493	597.94
440.715	557.94
440.936	549.94
441.158	550.94
441.379	535.94
441.6	576.94
441.822	581.94
442.043	592.94
442.264	658.94
442.486	698.94
442.707	632.94
442.928	581.94
443.149	602.94
443.371	626.94
443.592	652.94
443.813	713.94
444.034	780.94
444.255	679.94
444.476	637.94
444.698	621.94
444.919	631.94
445.14	687.94
445.361	634.94
445.582	619.94
445.803	644.94
446.024	713.94
446.245	731.94
446.466	696.94
446.687	577.94
446.908	560.94
447.129	525.94
447.35	519.94
447.571	533.94
447.792	516.94
448.013	527.94
448.234	510.94
448.455	566.94
448.675	641.94
448.896	759.94
449.117	642.94
449.338	628.94
449.559	700.94
449.779	777.94
450	662.94
450.221	572.94
450.442	538.94
450.662	507.94
450.883	516.94
451.104	519.94
451.324	510.94
451.545	496.94
451.766	478.94
451.986	463.94
452.207	455.94
452.428	474.94
452.648	454.94
452.869	462.94
453.089	472.94
453.31	472.94
453.53	478.94
453.751	462.94
453.971	463.94
454.192	485.94
454.412	470.94
454.633	480.94
454.853	466.94
455.073	477.94
455.294	459.94
455.514	523.94
455.734	520.94
455.955	461.94
456.175	474.94
456.395	452.94
456.616	441.94
456.836	435.94
457.056	456.94
457.276	430.94
457.497	450.94
457.717	460.94
457.937	447.94
458.157	455.94
458.377	452.94
458.598	456.94
458.818	505.94
459.038	548.94
459.258	564.94
459.478	532.94
459.698	509.94
459.918	514.94
460.138	547.94
460.358	517.94
460.578	566.94
460.798	549.94
461.018	549.94
461.238	551.94
461.458	546.94
461.678	554.94
461.898	534.94
462.118	552.94
462.338	566.94
462.558	586.94
462.777	596.94
462.997	604.94
463.217	637.94
463.437	632.94
463.657	622.94
463.876	604.94
464.096	613.94
464.316	583.94
464.536	605.94
464.755	602.94
464.975	605.94
465.195	586.94
465.414	584.94
465.634	563.94
465.854	536.94
466.073	518.94
466.293	504.94
466.512	503.94
466.732	492.94
466.951	490.94
467.171	486.94
467.391	486.94
467.61	478.94
467.829	494.94
468.049	492.94
468.268	484.94
468.488	475.94
468.707	489.94
468.927	481.94
469.146	472.94
469.365	487.94
469.585	475.94
469.804	486.94
470.023	492.94
470.243	494.94
470.462	505.94
470.681	506.94
470.901	534.94
471.12	518.94
471.339	503.94
471.558	489.94
471.777	501.94
471.997	476.94
472.216	471.94
472.435	504.94
472.654	503.94
472.873	498.94
473.092	468.94
473.311	472.94
473.53	477.94
473.749	495.94
473.968	526.94
474.187	586.94
474.406	611.94
474.625	543.94
474.844	478.94
475.063	485.94
475.282	491.94
475.501	488.94
475.72	495.94
475.939	497.94
476.158	492.94
476.377	516.94
476.596	522.94
476.814	519.94
477.033	534.94
477.252	506.94
477.471	506.94
477.69	537.94
477.908	540.94
478.127	546.94
478.346	534.94
478.564	553.94
478.783	559.94
479.002	562.94
479.22	580.94
479.439	582.94
479.658	587.94
479.876	596.94
480.095	610.94
480.313	615.94
480.532	620.94
480.751	604.94
480.969	599.94
481.188	611.94
481.406	644.94
481.624	608.94
481.843	589.94
482.061	557.94
482.28	572.94
482.498	559.94
482.717	551.94
482.935	565.94
483.153	560.94
483.372	557.94
483.59	574.94
483.808	568.94
484.027	553.94
484.245	547.94
484.463	561.94
484.681	572.94
484.9	606.94
485.118	582.94
485.336	576.94
485.554	572.94
485.772	583.94
485.99	581.94
486.209	572.94
486.427	605.94
486.645	591.94
486.863	595.94
487.081	601.94
487.299	583.94
487.517	591.94
487.735	589.94
487.953	606.94
488.171	602.94
488.389	586.94
488.607	581.94
488.825	611.94
489.043	614.94
489.261	602.94
489.479	616.94
489.696	607.94
489.914	631.94
490.132	624.94
490.35	618.94
490.568	667.94
490.786	652.94
491.003	631.94
491.221	663.94
491.439	676.94
491.657	677.94
491.874	682.94
492.092	701.94
492.31	706.94
492.527	692.94
492.745	666.94
492.963	700.94
493.18	703.94
493.398	697.94
493.615	693.94
493.833	712.94
494.05	703.94
494.268	676.94
494.485	686.94
494.703	706.94
494.92	696.94
495.138	720.94
495.355	706.94
495.573	725.94
495.79	708.94
496.008	706.94
496.225	702.94
496.442	717.94
496.66	704.94
496.877	720.94
497.094	720.94
497.312	731.94
497.529	742.94
497.746	748.94
497.963	747.94
498.181	763.94
498.398	800.94
498.615	816.94
498.832	841.94
499.049	892.94
499.267	918.94
499.484	968.94
499.701	1025.94
499.918	1085.94
500.135	1140.94
500.352	1273.94
500.569	1286.94
500.786	1258.94
501.003	1226.94
501.22	1154.94
501.437	1098.94
501.654	1013.94
501.871	1014.94
502.088	920.94
502.305	897.94
502.522	845.94
502.739	864.94
502.956	781.94
503.172	764.94
503.389	752.94
503.606	734.94
503.823	757.94
504.04	733.94
504.256	759.94
504.473	737.94
504.69	740.94
504.907	742.94
505.123	713.94
505.34	709.94
505.557	696.94
505.773	664.94
505.99	698.94
506.207	668.94
506.423	666.94
506.64	655.94
506.856	664.94
507.073	644.94
507.289	639.94
507.506	632.94
507.722	654.94
507.939	637.94
508.155	639.94
508.372	602.94
508.588	607.94
508.805	624.94
509.021	605.94
509.238	624.94
509.454	633.94
509.67	616.94
509.887	596.94
510.103	630.94
510.319	612.94
510.536	660.94
510.752	886.94
510.968	782.94
511.184	618.94
511.401	587.94
511.617	582.94
511.833	572.94
512.049	585.94
512.265	575.94
512.481	565.94
512.698	572.94
512.914	573.94
513.13	578.94
513.346	572.94
513.562	585.94
513.778	593.94
513.994	597.94
514.21	587.94
514.426	604.94
514.642	597.94
514.858	636.94
515.074	606.94
515.29	693.94
515.506	902.94
515.721	787.94
515.937	644.94
516.153	637.94
516.369	604.94
516.585	638.94
516.801	618.94
517.016	655.94
517.232	653.94
517.448	652.94
517.664	651.94
517.879	647.94
518.095	673.94
518.311	652.94
518.527	639.94
518.742	633.94
518.958	624.94
519.173	594.94
519.389	598.94
519.605	596.94
519.82	598.94
520.036	601.94
520.251	581.94
520.467	586.94
520.682	591.94
520.898	594.94
521.113	621.94
521.329	624.94
521.544	642.94
521.76	748.94
521.975	1063.94
522.19	1068.94
522.406	722.94
522.621	588.94
522.836	560.94
523.052	583.94
523.267	542.94
523.482	551.94
523.698	516.94
523.913	531.94
524.128	542.94
524.343	488.94
524.559	494.94
524.774	513.94
524.989	510.94
525.204	514.94
525.419	555.94
525.634	516.94
525.849	510.94
526.064	492.94
526.28	504.94
526.495	493.94
526.71	490.94
526.925	508.94
527.14	501.94
527.355	477.94
527.57	500.94
527.785	489.94
527.999	490.94
528.214	468.94
528.429	472.94
528.644	495.94
528.859	461.94
529.074	489.94
529.289	521.94
529.503	528.94
529.718	518.94
529.933	510.94
530.148	509.94
530.363	506.94
530.577	484.94
530.792	465.94
531.007	473.94
531.221	476.94
531.436	478.94
531.651	492.94
531.865	462.94
532.08	463.94
532.295	455.94
532.509	487.94
532.724	484.94
532.938	484.94
533.153	489.94
533.367	478.94
533.582	477.94
533.796	487.94
534.011	472.94
534.225	481.94
534.44	455.94
534.654	480.94
534.868	479.94
535.083	467.94
535.297	478.94
535.511	485.94
535.726	460.94
535.94	503.94
536.154	474.94
536.369	451.94
536.583	457.94
536.797	441.94
537.011	458.94
537.225	468.94
537.44	435.94
537.654	466.94
537.868	453.94
538.082	438.94
538.296	457.94
538.51	460.94
538.724	454.94
538.938	446.94
539.153	457.94
539.367	470.94
539.581	459.94
539.795	452.94
540.009	447.94
540.222	469.94
540.436	456.94
540.65	456.94
540.864	468.94
541.078	477.94
541.292	469.94
541.506	451.94
541.72	436.94
541.934	445.94
542.147	480.94
542.361	436.94
542.575	460.94
542.789	460.94
543.002	461.94
543.216	450.94
543.43	447.94
543.644	465.94
543.857	473.94
544.071	454.94
544.285	440.94
544.498	467.94
544.712	452.94
544.925	457.94
545.139	471.94
545.352	473.94
545.566	478.94
545.779	464.94
545.993	440.94
546.206	470.94
546.42	457.94
546.633	466.94
546.847	444.94
547.06	449.94
547.274	462.94
547.487	439.94
547.7	452.94
547.914	437.94
548.127	457.94
548.34	459.94
548.554	456.94
548.767	429.94
548.98	462.94
549.193	450.94
549.407	472.94
549.62	458.94
549.833	466.94
550.046	464.94
550.259	453.94
550.473	430.94
550.686	452.94
550.899	434.94
551.112	447.94
551.325	441.94
551.538	443.94
551.751	454.94
551.964	453.94
552.177	457.94
552.39	485.94
552.603	468.94
552.816	478.94
553.029	464.94
553.242	476.94
553.455	475.94
553.667	486.94
553.88	469.94
554.093	459.94
554.306	457.94
554.519	450.94
554.732	457.94
554.944	470.94
555.157	456.94
555.37	439.94
555.583	423.94
555.795	425.94
556.008	425.94
556.221	398.94
556.433	436.94
556.646	405.94
556.859	424.94
557.071	400.94
557.284	394.94
557.496	426.94
557.709	392.94
557.921	398.94
558.134	384.94
558.346	406.94
558.559	405.94
558.771	405.94
558.984	397.94
559.196	382.94
559.409	393.94
559.621	386.94
559.833	402.94
560.046	381.94
560.258	394.94
560.47	383.94
560.683	397.94
560.895	401.94
561.107	411.94
561.32	410.94
561.532	388.94
561.744	401.94
561.956	408.94
562.168	402.94
562.381	416.94
562.593	380.94
562.805	414.94
563.017	416.94
563.229	408.94
563.441	400.94
563.653	421.94
563.865	390.94
564.077	410.94
564.289	413.94
564.501	415.94
564.713	440.94
564.925	431.94
565.137	435.94
565.349	449.94
565.561	476.94
565.773	467.94
565.985	458.94
566.197	490.94
566.408	502.94
566.62	543.94
566.832	553.94
567.044	558.94
567.255	542.94
567.467	562.94
567.679	584.94
567.891	606.94
568.102	604.94
568.314	575.94
568.526	577.94
568.737	524.94
568.949	518.94
569.161	488.94
569.372	480.94
569.584	454.94
569.795	432.94
570.007	425.94
570.218	437.94
570.43	422.94
570.641	415.94
570.853	412.94
571.064	408.94
571.276	429.94
571.487	389.94
571.698	407.94
571.91	375.94
572.121	375.94
572.333	363.94
572.544	376.94
572.755	367.94
572.966	363.94
573.178	361.94
573.389	361.94
573.6	347.94
573.811	352.94
574.023	355.94
574.234	357.94
574.445	341.94
574.656	362.94
574.867	353.94
575.078	337.94
575.289	367.94
575.501	350.94
575.712	337.94
575.923	337.94
576.134	335.94
576.345	349.94
576.556	329.94
576.767	351.94
576.978	344.94
577.188	359.94
577.399	339.94
577.61	356.94
577.821	350.94
578.032	335.94
578.243	352.94
578.454	454.94
578.665	376.94
578.875	331.94
579.086	328.94
579.297	326.94
579.508	320.94
579.718	313.94
579.929	323.94
580.14	311.94
580.35	336.94
580.561	338.94
580.772	315.94
580.982	337.94
581.193	318.94
581.403	319.94
581.614	317.94
581.825	333.94
582.035	313.94
582.246	304.94
582.456	322.94
582.667	302.94
582.877	320.94
583.087	324.94
583.298	302.94
583.508	313.94
583.719	326.94
583.929	311.94
584.139	297.94
584.35	308.94
584.56	314.94
584.77	307.94
584.981	292.94
585.191	293.94
585.401	335.94
585.611	314.94
585.821	305.94
586.032	309.94
586.242	304.94
586.452	295.94
586.662	314.94
586.872	301.94
587.082	312.94
587.292	296.94
587.502	313.94
587.713	307.94
587.923	295.94
588.133	320.94
588.343	308.94
588.553	311.94
588.762	288.94
588.972	314.94
589.182	327.94
589.392	305.94
589.602	306.94
589.812	313.94
590.022	297.94
590.232	295.94
590.441	296.94
590.651	305.94
590.861	331.94
591.071	318.94
591.281	310.94
591.49	327.94
591.7	306.94
591.91	329.94
592.119	332.94
592.329	343.94
592.539	358.94
592.748	341.94
592.958	334.94
593.167	365.94
593.377	338.94
593.587	343.94
593.796	363.94
594.006	356.94
594.215	351.94
594.424	346.94
594.634	343.94
594.843	352.94
595.053	341.94
595.262	328.94
595.472	325.94
595.681	298.94
595.89	297.94
596.1	316.94
596.309	312.94
596.518	312.94
596.727	312.94
596.937	286.94
597.146	281.94
597.355	299.94
597.564	284.94
597.774	282.94
597.983	272.94
598.192	281.94
598.401	302.94
598.61	282.94
598.819	258.94
599.028	292.94
599.237	286.94
599.446	261.94
599.655	283.94
599.864	266.94
600.073	276.94
600.282	257.94
600.491	284.94
600.7	278.94
600.909	268.94
601.118	267.94
601.327	257.94
601.536	281.94
601.745	283.94
601.953	266.94
602.162	272.94
602.371	262.94
602.58	258.94
602.789	276.94
602.997	259.94
603.206	270.94
603.415	238.94
603.623	265.94
603.832	256.94
604.041	264.94
604.249	252.94
604.458	262.94
604.666	265.94
604.875	248.94
605.084	246.94
605.292	247.94
605.501	264.94
605.709	250.94
605.918	242.94
606.126	270.94
606.334	253.94
606.543	258.94
606.751	260.94
606.96	261.94
607.168	252.94
607.376	268.94
607.585	255.94
607.793	260.94
608.001	262.94
608.21	243.94
608.418	246.94
608.626	260.94
608.834	260.94
609.043	242.94
609.251	265.94
609.459	250.94
609.667	225.94
609.875	230.94
610.083	266.94
610.291	274.94
610.499	263.94
610.707	248.94
610.916	241.94
611.124	266.94
611.332	259.94
611.54	248.94
611.748	254.94
611.955	260.94
612.163	238.94
612.371	249.94
612.579	234.94
612.787	241.94
612.995	238.94
613.203	247.94
613.411	246.94
613.618	246.94
613.826	255.94
614.034	235.94
614.242	247.94
614.449	238.94
614.657	248.94
614.865	237.94
615.072	244.94
615.28	250.94
615.488	244.94
615.695	245.94
615.903	241.94
616.111	255.94
616.318	238.94
616.526	264.94
616.733	270.94
616.941	242.94
617.148	258.94
617.356	269.94
617.563	256.94
617.771	232.94
617.978	246.94
618.185	264.94
618.393	248.94
618.6	231.94
618.807	236.94
619.015	256.94
619.222	251.94
619.429	256.94
619.637	250.94
619.844	236.94
620.051	233.94
620.258	248.94
620.466	249.94
620.673	232.94
620.88	241.94
621.087	235.94
621.294	229.94
621.501	244.94
621.708	222.94
621.915	218.94
622.122	215.94
622.329	207.94
622.536	242.94
622.743	244.94
622.95	226.94
623.157	246.94
623.364	218.94
623.571	223.94
623.778	231.94
623.985	206.94
624.192	216.94
624.399	230.94
624.606	217.94
624.812	216.94
625.019	206.94
625.226	221.94
625.433	235.94
625.639	218.94
625.846	220.94
626.053	219.94
626.259	226.94
626.466	229.94
626.673	205.94
626.879	214.94
627.086	204.94
627.293	207.94
627.499	222.94
627.706	206.94
627.912	223.94
628.119	219.94
628.325	223.94
628.532	213.94
628.738	218.94
628.945	225.94
629.151	209.94
629.357	203.94
629.564	222.94
629.77	190.94
629.976	209.94
630.183	209.94
630.389	199.94
630.595	199.94
630.802	209.94
631.008	198.94
631.214	197.94
631.42	214.94
631.627	215.94
631.833	188.94
632.039	205.94
632.245	187.94
632.451	204.94
632.657	203.94
632.863	206.94
633.069	192.94
633.275	199.94
633.481	197.94
633.688	209.94
633.893	197.94
634.099	200.94
634.305	180.94
634.511	186.94
634.717	191.94
634.923	191.94
635.129	194.94
635.335	184.94
635.541	189.94
635.747	181.94
635.952	190.94
636.158	185.94
636.364	209.94
636.57	190.94
636.775	181.94
636.981	193.94
637.187	207.94
637.392	197.94
637.598	173.94
637.804	174.94
638.009	168.94
638.215	166.94
638.421	193.94
638.626	177.94
638.832	172.94
639.037	182.94
639.243	177.94
639.448	182.94
639.654	179.94
639.859	192.94
640.065	173.94
640.27	189.94
640.475	184.94
640.681	196.94
640.886	180.94
641.091	184.94
641.297	170.94
641.502	174.94
641.707	178.94
641.913	179.94
642.118	185.94
642.323	176.94
642.528	186.94
642.733	172.94
642.939	177.94
643.144	165.94
643.349	167.94
643.554	167.94
643.759	167.94
643.964	169.94
644.169	182.94
644.374	167.94
644.579	171.94
644.784	170.94
644.989	166.94
645.194	168.94
645.399	174.94
645.604	184.94
645.809	167.94
646.014	177.94
646.219	175.94
646.423	160.94
646.628	188.94
646.833	173.94
647.038	202.94
647.243	192.94
647.447	172.94
647.652	180.94
647.857	176.94
648.062	182.94
648.266	171.94
648.471	186.94
648.676	184.94
648.88	173.94
649.085	176.94
649.289	177.94
649.494	177.94
649.698	188.94
649.903	169.94
650.107	175.94
650.312	173.94
650.516	176.94
650.721	168.94
650.925	160.94
651.13	154.94
651.334	158.94
651.539	170.94
651.743	168.94
651.947	168.94
652.152	170.94
652.356	149.94
652.56	160.94
652.764	140.94
652.969	142.94
653.173	164.94
653.377	149.94
653.581	154.94
653.785	154.94
653.99	147.94
654.194	151.94
654.398	143.94
654.602	146.94
654.806	139.94
655.01	135.94
655.214	155.94
655.418	135.94
655.622	137.94
655.826	144.94
656.03	134.94
656.234	139.94
656.438	146.94
656.642	149.94
656.846	138.94
657.049	142.94
657.253	134.94
657.457	135.94
657.661	122.94
657.865	125.94
658.068	119.94
658.272	113.94
658.476	128.94
658.68	126.94
658.883	114.94
659.087	110.94
659.291	125.94
659.494	102.94
659.698	102.94
659.901	101.94
660.105	126.94
660.309	107.94
660.512	89.94
660.716	105.94
660.919	96.94
661.123	88.94
661.326	103.94
661.53	103.94
661.733	101.94
661.936	84.94
662.14	74.94
662.343	85.94
662.546	105.94
662.75	102.94
662.953	89.94
663.156	92.94
663.36	88.94
663.563	88.94
663.766	86.94
663.969	87.94
664.173	87.94
664.376	88.94
664.579	73.94
664.782	72.94
664.985	91.94
665.188	88.94
665.391	103.94
665.594	104.94
665.797	91.94
666	90.94
666.203	76.94
666.406	79.94
666.609	95.94
666.812	97.94
667.015	96.94
667.218	87.94
667.421	86.94
667.624	79.94
667.827	88.94
668.03	86.94
668.232	94.94
668.435	90.94
668.638	91.94
668.841	89.94
669.043	89.94
669.246	89.94
669.449	95.94
669.651	79.94
669.854	100.94
670.057	101.94
670.259	82.94
670.462	90.94
670.665	89.94
670.867	90.94
671.07	81.94
671.272	88.94
671.475	89.94
671.677	93.94
671.88	93.94
672.082	78.94
672.284	85.94
672.487	76.94
672.689	84.94
672.892	88.94
