Data from 1973.PennyLincolnUp.Lamp.En5.5.200Scan.071719.P1.Changed Mount._HRD10591_15-45-28-853.txt Node
Date: Thu Jul 18 15:45:28 EDT 2019
User: cochatt
Spectrometer: HR+D1059
Trigger mode: 1
Integration Time (sec): 1.000000E-1
Scans to average: 1
Electric dark correction enabled: true
Nonlinearity correction enabled: false
Boxcar width: 0
XAxis mode: Wavelengths
Number of Pixels in Spectrum: 2048
>>>>>Begin Spectral Data<<<<<
223.165	-22.19
223.4	-22.19
223.635	-22.19
223.869	-18.19
224.104	-23.19
224.338	-11.19
224.573	-13.19
224.808	-15.19
225.042	-7.19
225.277	2.81
225.511	-0.19
225.746	12.81
225.98	2.81
226.215	16.81
226.449	7.81
226.683	12.81
226.918	17.81
227.152	36.81
227.387	45.81
227.621	28.81
227.856	57.81
228.09	54.81
228.324	59.81
228.559	64.81
228.793	68.81
229.027	102.81
229.262	105.81
229.496	114.81
229.73	118.81
229.964	143.81
230.199	115.81
230.433	111.81
230.667	111.81
230.901	107.81
231.136	102.81
231.37	112.81
231.604	107.81
231.838	97.81
232.072	109.81
232.306	123.81
232.541	117.81
232.775	122.81
233.009	104.81
233.243	112.81
233.477	121.81
233.711	118.81
233.945	118.81
234.179	131.81
234.413	112.81
234.647	118.81
234.881	121.81
235.115	127.81
235.349	123.81
235.583	123.81
235.817	134.81
236.051	146.81
236.285	151.81
236.519	120.81
236.753	123.81
236.987	135.81
237.221	179.81
237.455	213.81
237.689	186.81
237.922	133.81
238.156	119.81
238.39	140.81
238.624	128.81
238.858	124.81
239.091	129.81
239.325	130.81
239.559	140.81
239.793	129.81
240.027	125.81
240.26	144.81
240.494	158.81
240.728	154.81
240.961	142.81
241.195	155.81
241.429	151.81
241.662	134.81
241.896	126.81
242.13	136.81
242.363	145.81
242.597	142.81
242.83	135.81
243.064	132.81
243.298	139.81
243.531	136.81
243.765	151.81
243.998	144.81
244.232	143.81
244.465	153.81
244.699	137.81
244.932	150.81
245.166	151.81
245.399	161.81
245.633	133.81
245.866	159.81
246.099	134.81
246.333	162.81
246.566	150.81
246.8	148.81
247.033	171.81
247.266	152.81
247.5	178.81
247.733	176.81
247.966	169.81
248.2	167.81
248.433	175.81
248.666	172.81
248.899	173.81
249.133	202.81
249.366	205.81
249.599	186.81
249.832	196.81
250.066	189.81
250.299	173.81
250.532	203.81
250.765	205.81
250.998	236.81
251.231	230.81
251.465	214.81
251.698	195.81
251.931	210.81
252.164	203.81
252.397	209.81
252.63	207.81
252.863	197.81
253.096	213.81
253.329	225.81
253.562	228.81
253.795	225.81
254.028	215.81
254.261	205.81
254.494	225.81
254.727	233.81
254.96	263.81
255.193	260.81
255.426	240.81
255.659	232.81
255.892	234.81
256.124	243.81
256.357	241.81
256.59	215.81
256.823	227.81
257.056	223.81
257.289	226.81
257.521	222.81
257.754	238.81
257.987	215.81
258.22	208.81
258.452	217.81
258.685	210.81
258.918	204.81
259.151	226.81
259.383	239.81
259.616	230.81
259.849	225.81
260.081	244.81
260.314	267.81
260.547	247.81
260.779	250.81
261.012	230.81
261.244	222.81
261.477	228.81
261.71	225.81
261.942	228.81
262.175	238.81
262.407	239.81
262.64	234.81
262.872	224.81
263.105	219.81
263.337	221.81
263.57	221.81
263.802	215.81
264.035	223.81
264.267	216.81
264.499	215.81
264.732	221.81
264.964	222.81
265.197	236.81
265.429	217.81
265.661	223.81
265.894	216.81
266.126	243.81
266.358	233.81
266.591	244.81
266.823	238.81
267.055	237.81
267.287	238.81
267.52	242.81
267.752	253.81
267.984	238.81
268.216	272.81
268.448	253.81
268.681	266.81
268.913	256.81
269.145	268.81
269.377	283.81
269.609	290.81
269.841	254.81
270.073	288.81
270.306	278.81
270.538	316.81
270.77	314.81
271.002	318.81
271.234	290.81
271.466	303.81
271.698	327.81
271.93	331.81
272.162	329.81
272.394	321.81
272.626	295.81
272.858	295.81
273.09	298.81
273.322	287.81
273.553	297.81
273.785	290.81
274.017	294.81
274.249	278.81
274.481	271.81
274.713	284.81
274.945	287.81
275.176	296.81
275.408	278.81
275.64	276.81
275.872	262.81
276.104	283.81
276.335	292.81
276.567	309.81
276.799	286.81
277.031	331.81
277.262	334.81
277.494	323.81
277.726	317.81
277.957	316.81
278.189	299.81
278.421	286.81
278.652	308.81
278.884	294.81
279.115	291.81
279.347	300.81
279.579	291.81
279.81	294.81
280.042	280.81
280.273	299.81
280.505	288.81
280.736	290.81
280.968	279.81
281.199	285.81
281.431	298.81
281.662	311.81
281.894	314.81
282.125	300.81
282.356	320.81
282.588	310.81
282.819	325.81
283.051	307.81
283.282	300.81
283.513	303.81
283.745	314.81
283.976	318.81
284.207	313.81
284.439	319.81
284.67	305.81
284.901	318.81
285.132	304.81
285.364	310.81
285.595	324.81
285.826	325.81
286.057	297.81
286.288	310.81
286.52	298.81
286.751	310.81
286.982	316.81
287.213	329.81
287.444	308.81
287.675	317.81
287.906	328.81
288.138	333.81
288.369	328.81
288.6	348.81
288.831	337.81
289.062	318.81
289.293	330.81
289.524	322.81
289.755	321.81
289.986	309.81
290.217	311.81
290.448	324.81
290.679	315.81
290.91	332.81
291.141	344.81
291.371	333.81
291.602	322.81
291.833	310.81
292.064	321.81
292.295	328.81
292.526	336.81
292.757	318.81
292.987	335.81
293.218	335.81
293.449	332.81
293.68	333.81
293.91	313.81
294.141	329.81
294.372	333.81
294.603	317.81
294.833	344.81
295.064	314.81
295.295	329.81
295.525	340.81
295.756	322.81
295.987	337.81
296.217	342.81
296.448	344.81
296.679	344.81
296.909	350.81
297.14	327.81
297.37	336.81
297.601	343.81
297.831	330.81
298.062	347.81
298.292	327.81
298.523	354.81
298.753	347.81
298.984	326.81
299.214	343.81
299.445	333.81
299.675	338.81
299.905	352.81
300.136	346.81
300.366	349.81
300.597	357.81
300.827	342.81
301.057	363.81
301.288	370.81
301.518	360.81
301.748	374.81
301.979	367.81
302.209	348.81
302.439	368.81
302.669	388.81
302.9	378.81
303.13	351.81
303.36	362.81
303.59	379.81
303.82	380.81
304.051	377.81
304.281	382.81
304.511	361.81
304.741	369.81
304.971	366.81
305.201	373.81
305.431	358.81
305.661	354.81
305.891	358.81
306.121	354.81
306.352	383.81
306.582	350.81
306.812	374.81
307.042	356.81
307.272	376.81
307.502	352.81
307.731	368.81
307.961	366.81
308.191	366.81
308.421	373.81
308.651	360.81
308.881	383.81
309.111	386.81
309.341	380.81
309.571	368.81
309.8	377.81
310.03	380.81
310.26	395.81
310.49	389.81
310.72	397.81
310.949	408.81
311.179	427.81
311.409	408.81
311.639	398.81
311.868	413.81
312.098	384.81
312.328	429.81
312.557	410.81
312.787	415.81
313.017	447.81
313.246	419.81
313.476	407.81
313.706	418.81
313.935	408.81
314.165	421.81
314.394	416.81
314.624	413.81
314.853	431.81
315.083	405.81
315.312	416.81
315.542	406.81
315.771	406.81
316.001	420.81
316.23	418.81
316.46	403.81
316.689	414.81
316.919	412.81
317.148	406.81
317.377	390.81
317.607	406.81
317.836	416.81
318.065	419.81
318.295	395.81
318.524	404.81
318.753	418.81
318.983	404.81
319.212	415.81
319.441	412.81
319.67	422.81
319.9	406.81
320.129	390.81
320.358	395.81
320.587	423.81
320.816	429.81
321.046	415.81
321.275	428.81
321.504	401.81
321.733	402.81
321.962	428.81
322.191	423.81
322.42	459.81
322.649	434.81
322.878	451.81
323.108	470.81
323.337	476.81
323.566	491.81
323.795	482.81
324.024	540.81
324.253	593.81
324.482	804.81
324.71	1152.81
324.939	1598.81
325.168	1434.81
325.397	795.81
325.626	586.81
325.855	494.81
326.084	481.81
326.313	483.81
326.542	491.81
326.77	527.81
326.999	605.81
327.228	749.81
327.457	1023.81
327.686	1232.81
327.914	846.81
328.143	621.81
328.372	552.81
328.6	547.81
328.829	543.81
329.058	525.81
329.287	546.81
329.515	502.81
329.744	498.81
329.972	491.81
330.201	518.81
330.43	537.81
330.658	561.81
330.887	590.81
331.115	568.81
331.344	529.81
331.572	485.81
331.801	487.81
332.03	487.81
332.258	503.81
332.486	487.81
332.715	501.81
332.943	488.81
333.172	519.81
333.4	528.81
333.629	538.81
333.857	530.81
334.085	552.81
334.314	559.81
334.542	567.81
334.771	550.81
334.999	536.81
335.227	521.81
335.455	518.81
335.684	505.81
335.912	510.81
336.14	489.81
336.369	474.81
336.597	495.81
336.825	504.81
337.053	478.81
337.281	478.81
337.51	466.81
337.738	472.81
337.966	470.81
338.194	484.81
338.422	499.81
338.65	473.81
338.878	463.81
339.106	457.81
339.334	474.81
339.562	491.81
339.79	464.81
340.018	446.81
340.246	462.81
340.474	474.81
340.702	473.81
340.93	461.81
341.158	454.81
341.386	448.81
341.614	461.81
341.842	459.81
342.07	458.81
342.298	463.81
342.526	470.81
342.754	453.81
342.981	453.81
343.209	475.81
343.437	442.81
343.665	476.81
343.893	499.81
344.12	493.81
344.348	494.81
344.576	465.81
344.804	478.81
345.031	465.81
345.259	471.81
345.487	466.81
345.714	455.81
345.942	444.81
346.17	462.81
346.397	458.81
346.625	425.81
346.853	462.81
347.08	449.81
347.308	439.81
347.535	442.81
347.763	443.81
347.99	467.81
348.218	446.81
348.445	463.81
348.673	419.81
348.9	444.81
349.128	436.81
349.355	456.81
349.583	413.81
349.81	441.81
350.037	436.81
350.265	412.81
350.492	446.81
350.72	412.81
350.947	436.81
351.174	429.81
351.402	441.81
351.629	419.81
351.856	439.81
352.083	424.81
352.311	431.81
352.538	453.81
352.765	451.81
352.992	418.81
353.22	418.81
353.447	417.81
353.674	445.81
353.901	443.81
354.128	422.81
354.355	416.81
354.583	409.81
354.81	444.81
355.037	431.81
355.264	408.81
355.491	398.81
355.718	406.81
355.945	409.81
356.172	422.81
356.399	418.81
356.626	400.81
356.853	416.81
357.08	427.81
357.307	443.81
357.534	406.81
357.761	410.81
357.988	404.81
358.215	447.81
358.441	419.81
358.668	432.81
358.895	400.81
359.122	422.81
359.349	431.81
359.576	420.81
359.802	463.81
360.029	475.81
360.256	474.81
360.483	441.81
360.709	451.81
360.936	431.81
361.163	429.81
361.39	447.81
361.616	428.81
361.843	427.81
362.07	440.81
362.296	431.81
362.523	449.81
362.749	438.81
362.976	426.81
363.203	422.81
363.429	402.81
363.656	436.81
363.882	406.81
364.109	432.81
364.335	434.81
364.562	430.81
364.788	400.81
365.015	410.81
365.241	409.81
365.468	424.81
365.694	421.81
365.92	436.81
366.147	425.81
366.373	432.81
366.599	424.81
366.826	422.81
367.052	419.81
367.278	413.81
367.505	422.81
367.731	424.81
367.957	419.81
368.184	415.81
368.41	412.81
368.636	428.81
368.862	423.81
369.089	404.81
369.315	409.81
369.541	412.81
369.767	428.81
369.993	426.81
370.219	416.81
370.445	431.81
370.672	413.81
370.898	424.81
371.124	427.81
371.35	422.81
371.576	464.81
371.802	417.81
372.028	422.81
372.254	436.81
372.48	404.81
372.706	420.81
372.932	429.81
373.158	430.81
373.384	447.81
373.61	444.81
373.835	410.81
374.061	411.81
374.287	436.81
374.513	449.81
374.739	428.81
374.965	470.81
375.191	460.81
375.416	460.81
375.642	442.81
375.868	455.81
376.094	429.81
376.319	428.81
376.545	451.81
376.771	454.81
376.997	431.81
377.222	427.81
377.448	415.81
377.674	426.81
377.899	412.81
378.125	422.81
378.35	453.81
378.576	443.81
378.802	429.81
379.027	415.81
379.253	412.81
379.478	415.81
379.704	432.81
379.929	412.81
380.155	419.81
380.38	409.81
380.606	423.81
380.831	427.81
381.057	437.81
381.282	435.81
381.507	428.81
381.733	437.81
381.958	437.81
382.184	416.81
382.409	421.81
382.634	449.81
382.86	447.81
383.085	442.81
383.31	438.81
383.535	443.81
383.761	455.81
383.986	455.81
384.211	438.81
384.436	463.81
384.662	478.81
384.887	459.81
385.112	487.81
385.337	493.81
385.562	467.81
385.787	481.81
386.013	484.81
386.238	479.81
386.463	491.81
386.688	482.81
386.913	472.81
387.138	479.81
387.363	478.81
387.588	474.81
387.813	464.81
388.038	478.81
388.263	483.81
388.488	475.81
388.713	516.81
388.938	492.81
389.163	494.81
389.387	462.81
389.612	491.81
389.837	481.81
390.062	468.81
390.287	514.81
390.512	463.81
390.736	482.81
390.961	482.81
391.186	499.81
391.411	494.81
391.636	500.81
391.86	477.81
392.085	508.81
392.31	516.81
392.534	498.81
392.759	506.81
392.984	499.81
393.208	477.81
393.433	508.81
393.658	489.81
393.882	489.81
394.107	491.81
394.331	507.81
394.556	511.81
394.78	495.81
395.005	530.81
395.229	489.81
395.454	532.81
395.678	514.81
395.903	540.81
396.127	550.81
396.352	536.81
396.576	521.81
396.801	527.81
397.025	498.81
397.249	529.81
397.474	520.81
397.698	532.81
397.922	552.81
398.147	541.81
398.371	573.81
398.595	564.81
398.82	556.81
399.044	590.81
399.268	627.81
399.492	659.81
399.717	725.81
399.941	740.81
400.165	763.81
400.389	732.81
400.613	627.81
400.837	594.81
401.062	599.81
401.286	583.81
401.51	589.81
401.734	567.81
401.958	587.81
402.182	570.81
402.406	580.81
402.63	610.81
402.854	604.81
403.078	565.81
403.302	612.81
403.526	599.81
403.75	612.81
403.974	600.81
404.198	610.81
404.422	601.81
404.645	619.81
404.869	632.81
405.093	642.81
405.317	674.81
405.541	713.81
405.765	655.81
405.988	618.81
406.212	609.81
406.436	645.81
406.66	666.81
406.883	645.81
407.107	648.81
407.331	703.81
407.555	779.81
407.778	730.81
408.002	704.81
408.226	695.81
408.449	642.81
408.673	646.81
408.896	671.81
409.12	720.81
409.344	676.81
409.567	601.81
409.791	605.81
410.014	619.81
410.238	581.81
410.461	582.81
410.685	584.81
410.908	617.81
411.132	646.81
411.355	655.81
411.578	649.81
411.802	574.81
412.025	606.81
412.249	584.81
412.472	619.81
412.695	633.81
412.919	657.81
413.142	596.81
413.365	579.81
413.589	570.81
413.812	571.81
414.035	555.81
414.258	572.81
414.482	560.81
414.705	552.81
414.928	564.81
415.151	566.81
415.374	570.81
415.597	561.81
415.821	572.81
416.044	568.81
416.267	559.81
416.49	554.81
416.713	546.81
416.936	550.81
417.159	547.81
417.382	558.81
417.605	545.81
417.828	559.81
418.051	574.81
418.274	574.81
418.497	551.81
418.72	556.81
418.943	555.81
419.166	597.81
419.389	608.81
419.611	595.81
419.834	602.81
420.057	607.81
420.28	589.81
420.503	579.81
420.726	576.81
420.948	615.81
421.171	644.81
421.394	634.81
421.617	606.81
421.839	583.81
422.062	576.81
422.285	588.81
422.507	635.81
422.73	727.81
422.953	676.81
423.175	621.81
423.398	612.81
423.621	607.81
423.843	614.81
424.066	627.81
424.288	609.81
424.511	623.81
424.733	669.81
424.956	740.81
425.178	709.81
425.401	730.81
425.623	728.81
425.846	624.81
426.068	628.81
426.291	599.81
426.513	568.81
426.735	577.81
426.958	648.81
427.18	704.81
427.402	822.81
427.625	854.81
427.847	744.81
428.069	687.81
428.292	620.81
428.514	595.81
428.736	569.81
428.958	536.81
429.181	543.81
429.403	566.81
429.625	536.81
429.847	588.81
430.069	618.81
430.292	622.81
430.514	572.81
430.736	537.81
430.958	538.81
431.18	529.81
431.402	527.81
431.624	534.81
431.846	528.81
432.068	537.81
432.29	548.81
432.512	537.81
432.734	558.81
432.956	521.81
433.178	543.81
433.4	532.81
433.622	531.81
433.844	545.81
434.066	547.81
434.287	526.81
434.509	523.81
434.731	560.81
434.953	573.81
435.175	576.81
435.397	596.81
435.618	596.81
435.84	629.81
436.062	686.81
436.284	750.81
436.505	638.81
436.727	584.81
436.949	563.81
437.17	558.81
437.392	566.81
437.614	567.81
437.835	582.81
438.057	618.81
438.278	735.81
438.5	726.81
438.721	782.81
438.943	778.81
439.165	634.81
439.386	580.81
439.608	615.81
439.829	578.81
440.05	630.81
440.272	670.81
440.493	602.81
440.715	581.81
440.936	569.81
441.158	551.81
441.379	574.81
441.6	592.81
441.822	592.81
442.043	647.81
442.264	721.81
442.486	744.81
442.707	636.81
442.928	603.81
443.149	606.81
443.371	621.81
443.592	675.81
443.813	727.81
444.034	811.81
444.255	694.81
444.476	650.81
444.698	634.81
444.919	663.81
445.14	727.81
445.361	667.81
445.582	635.81
445.803	680.81
446.024	728.81
446.245	724.81
446.466	677.81
446.687	618.81
446.908	569.81
447.129	544.81
447.35	530.81
447.571	558.81
447.792	546.81
448.013	526.81
448.234	533.81
448.455	580.81
448.675	682.81
448.896	770.81
449.117	673.81
449.338	630.81
449.559	720.81
449.779	826.81
450	686.81
450.221	567.81
450.442	534.81
450.662	516.81
450.883	534.81
451.104	532.81
451.324	536.81
451.545	538.81
451.766	476.81
451.986	485.81
452.207	493.81
452.428	467.81
452.648	486.81
452.869	479.81
453.089	474.81
453.31	490.81
453.53	482.81
453.751	491.81
453.971	461.81
454.192	496.81
454.412	477.81
454.633	468.81
454.853	476.81
455.073	479.81
455.294	501.81
455.514	548.81
455.734	539.81
455.955	490.81
456.175	463.81
456.395	468.81
456.616	462.81
456.836	477.81
457.056	468.81
457.276	458.81
457.497	462.81
457.717	464.81
457.937	475.81
458.157	463.81
458.377	480.81
458.598	492.81
458.818	519.81
459.038	598.81
459.258	640.81
459.478	555.81
459.698	526.81
459.918	524.81
460.138	545.81
460.358	544.81
460.578	569.81
460.798	554.81
461.018	574.81
461.238	578.81
461.458	579.81
461.678	549.81
461.898	572.81
462.118	587.81
462.338	596.81
462.558	599.81
462.777	604.81
462.997	636.81
463.217	639.81
463.437	638.81
463.657	612.81
463.876	596.81
464.096	615.81
464.316	624.81
464.536	628.81
464.755	612.81
464.975	614.81
465.195	637.81
465.414	634.81
465.634	577.81
465.854	542.81
466.073	525.81
466.293	520.81
466.512	505.81
466.732	482.81
466.951	502.81
467.171	473.81
467.391	520.81
467.61	538.81
467.829	503.81
468.049	509.81
468.268	498.81
468.488	481.81
468.707	489.81
468.927	498.81
469.146	511.81
469.365	516.81
469.585	508.81
469.804	496.81
470.023	522.81
470.243	498.81
470.462	510.81
470.681	542.81
470.901	516.81
471.12	524.81
471.339	505.81
471.558	523.81
471.777	509.81
471.997	495.81
472.216	514.81
472.435	555.81
472.654	536.81
472.873	502.81
473.092	478.81
473.311	492.81
473.53	507.81
473.749	525.81
473.968	526.81
474.187	614.81
474.406	651.81
474.625	566.81
474.844	514.81
475.063	524.81
475.282	483.81
475.501	497.81
475.72	518.81
475.939	510.81
476.158	521.81
476.377	528.81
476.596	505.81
476.814	529.81
477.033	542.81
477.252	543.81
477.471	542.81
477.69	541.81
477.908	534.81
478.127	584.81
478.346	587.81
478.564	571.81
478.783	583.81
479.002	571.81
479.22	586.81
479.439	601.81
479.658	589.81
479.876	619.81
480.095	635.81
480.313	650.81
480.532	668.81
480.751	641.81
480.969	618.81
481.188	680.81
481.406	664.81
481.624	627.81
481.843	614.81
482.061	598.81
482.28	590.81
482.498	604.81
482.717	575.81
482.935	571.81
483.153	586.81
483.372	589.81
483.59	588.81
483.808	574.81
484.027	575.81
484.245	585.81
484.463	602.81
484.681	587.81
484.9	589.81
485.118	587.81
485.336	598.81
485.554	587.81
485.772	604.81
485.99	604.81
486.209	611.81
486.427	628.81
486.645	635.81
486.863	611.81
487.081	603.81
487.299	611.81
487.517	618.81
487.735	615.81
487.953	648.81
488.171	650.81
488.389	626.81
488.607	617.81
488.825	635.81
489.043	642.81
489.261	622.81
489.479	618.81
489.696	657.81
489.914	632.81
490.132	646.81
490.35	654.81
490.568	638.81
490.786	650.81
491.003	672.81
491.221	697.81
491.439	677.81
491.657	694.81
491.874	714.81
492.092	704.81
492.31	712.81
492.527	715.81
492.745	727.81
492.963	723.81
493.18	710.81
493.398	709.81
493.615	720.81
493.833	730.81
494.05	724.81
494.268	708.81
494.485	746.81
494.703	720.81
494.92	717.81
495.138	706.81
495.355	702.81
495.573	735.81
495.79	731.81
496.008	745.81
496.225	715.81
496.442	741.81
496.66	724.81
496.877	744.81
497.094	724.81
497.312	752.81
497.529	773.81
497.746	766.81
497.963	800.81
498.181	814.81
498.398	814.81
498.615	847.81
498.832	871.81
499.049	909.81
499.267	952.81
499.484	984.81
499.701	1048.81
499.918	1118.81
500.135	1206.81
500.352	1242.81
500.569	1285.81
500.786	1302.81
501.003	1278.81
501.22	1177.81
501.437	1135.81
501.654	1062.81
501.871	1024.81
502.088	986.81
502.305	922.81
502.522	887.81
502.739	860.81
502.956	816.81
503.172	806.81
503.389	751.81
503.606	786.81
503.823	774.81
504.04	752.81
504.256	774.81
504.473	747.81
504.69	778.81
504.907	768.81
505.123	733.81
505.34	726.81
505.557	692.81
505.773	719.81
505.99	700.81
506.207	712.81
506.423	679.81
506.64	676.81
506.856	675.81
507.073	666.81
507.289	668.81
507.506	660.81
507.722	660.81
507.939	671.81
508.155	662.81
508.372	635.81
508.588	638.81
508.805	638.81
509.021	648.81
509.238	664.81
509.454	667.81
509.67	638.81
509.887	635.81
510.103	610.81
510.319	613.81
510.536	713.81
510.752	967.81
510.968	840.81
511.184	662.81
511.401	606.81
511.617	615.81
511.833	595.81
512.049	611.81
512.265	596.81
512.481	603.81
512.698	569.81
512.914	603.81
513.13	587.81
513.346	590.81
513.562	578.81
513.778	602.81
513.994	594.81
514.21	634.81
514.426	598.81
514.642	644.81
514.858	695.81
515.074	710.81
515.29	782.81
515.506	983.81
515.721	860.81
515.937	680.81
516.153	644.81
516.369	654.81
516.585	638.81
516.801	648.81
517.016	637.81
517.232	653.81
517.448	655.81
517.664	692.81
517.879	696.81
518.095	669.81
518.311	698.81
518.527	670.81
518.742	654.81
518.958	654.81
519.173	641.81
519.389	636.81
519.605	600.81
519.82	632.81
520.036	598.81
520.251	622.81
520.467	627.81
520.682	644.81
520.898	645.81
521.113	646.81
521.329	664.81
521.544	697.81
521.76	831.81
521.975	1174.81
522.19	1182.81
522.406	760.81
522.621	620.81
522.836	600.81
523.052	580.81
523.267	542.81
523.482	561.81
523.698	558.81
523.913	518.81
524.128	521.81
524.343	503.81
524.559	497.81
524.774	522.81
524.989	550.81
525.204	554.81
525.419	532.81
525.634	542.81
525.849	512.81
526.064	503.81
526.28	521.81
526.495	517.81
526.71	501.81
526.925	513.81
527.14	512.81
527.355	485.81
527.57	523.81
527.785	509.81
527.999	522.81
528.214	516.81
528.429	511.81
528.644	512.81
528.859	503.81
529.074	510.81
529.289	517.81
529.503	575.81
529.718	540.81
529.933	534.81
530.148	512.81
530.363	497.81
530.577	514.81
530.792	513.81
531.007	495.81
531.221	512.81
531.436	485.81
531.651	504.81
531.865	494.81
532.08	490.81
532.295	493.81
532.509	500.81
532.724	503.81
532.938	491.81
533.153	487.81
533.367	474.81
533.582	488.81
533.796	495.81
534.011	480.81
534.225	487.81
534.44	462.81
534.654	486.81
534.868	479.81
535.083	489.81
535.297	478.81
535.511	483.81
535.726	500.81
535.94	477.81
536.154	482.81
536.369	490.81
536.583	469.81
536.797	455.81
537.011	462.81
537.225	475.81
537.44	472.81
537.654	487.81
537.868	457.81
538.082	450.81
538.296	474.81
538.51	481.81
538.724	462.81
538.938	488.81
539.153	475.81
539.367	479.81
539.581	476.81
539.795	446.81
540.009	449.81
540.222	455.81
540.436	459.81
540.65	486.81
540.864	456.81
541.078	466.81
541.292	466.81
541.506	474.81
541.72	469.81
541.934	476.81
542.147	470.81
542.361	466.81
542.575	468.81
542.789	456.81
543.002	477.81
543.216	462.81
543.43	493.81
543.644	453.81
543.857	455.81
544.071	465.81
544.285	470.81
544.498	460.81
544.712	448.81
544.925	456.81
545.139	467.81
545.352	476.81
545.566	483.81
545.779	459.81
545.993	479.81
546.206	454.81
546.42	473.81
546.633	463.81
546.847	466.81
547.06	452.81
547.274	470.81
547.487	461.81
547.7	480.81
547.914	448.81
548.127	451.81
548.34	466.81
548.554	448.81
548.767	448.81
548.98	469.81
549.193	464.81
549.407	456.81
549.62	471.81
549.833	479.81
550.046	478.81
550.259	474.81
550.473	440.81
550.686	460.81
550.899	468.81
551.112	473.81
551.325	450.81
551.538	454.81
551.751	444.81
551.964	476.81
552.177	463.81
552.39	460.81
552.603	484.81
552.816	458.81
553.029	476.81
553.242	495.81
553.455	477.81
553.667	471.81
553.88	501.81
554.093	486.81
554.306	470.81
554.519	461.81
554.732	470.81
554.944	421.81
555.157	433.81
555.37	440.81
555.583	446.81
555.795	440.81
556.008	447.81
556.221	425.81
556.433	435.81
556.646	431.81
556.859	406.81
557.071	420.81
557.284	430.81
557.496	398.81
557.709	396.81
557.921	414.81
558.134	418.81
558.346	404.81
558.559	416.81
558.771	411.81
558.984	422.81
559.196	391.81
559.409	407.81
559.621	406.81
559.833	400.81
560.046	408.81
560.258	386.81
560.47	403.81
560.683	393.81
560.895	408.81
561.107	401.81
561.32	424.81
561.532	430.81
561.744	382.81
561.956	408.81
562.168	387.81
562.381	391.81
562.593	420.81
562.805	411.81
563.017	429.81
563.229	414.81
563.441	401.81
563.653	403.81
563.865	407.81
564.077	408.81
564.289	423.81
564.501	437.81
564.713	438.81
564.925	438.81
565.137	462.81
565.349	457.81
565.561	456.81
565.773	487.81
565.985	468.81
566.197	498.81
566.408	522.81
566.62	539.81
566.832	572.81
567.044	570.81
567.255	579.81
567.467	596.81
567.679	609.81
567.891	631.81
568.102	617.81
568.314	593.81
568.526	553.81
568.737	538.81
568.949	512.81
569.161	461.81
569.372	485.81
569.584	463.81
569.795	436.81
570.007	434.81
570.218	445.81
570.43	434.81
570.641	420.81
570.853	397.81
571.064	406.81
571.276	405.81
571.487	406.81
571.698	397.81
571.91	385.81
572.121	395.81
572.333	366.81
572.544	378.81
572.755	374.81
572.966	382.81
573.178	371.81
573.389	366.81
573.6	360.81
573.811	364.81
574.023	366.81
574.234	357.81
574.445	347.81
574.656	361.81
574.867	351.81
575.078	355.81
575.289	355.81
575.501	342.81
575.712	339.81
575.923	346.81
576.134	340.81
576.345	335.81
576.556	352.81
576.767	341.81
576.978	354.81
577.188	340.81
577.399	346.81
577.61	340.81
577.821	325.81
578.032	342.81
578.243	356.81
578.454	478.81
578.665	416.81
578.875	346.81
579.086	335.81
579.297	335.81
579.508	328.81
579.718	330.81
579.929	327.81
580.14	326.81
580.35	322.81
580.561	323.81
580.772	339.81
580.982	295.81
581.193	325.81
581.403	296.81
581.614	320.81
581.825	335.81
582.035	322.81
582.246	331.81
582.456	300.81
582.667	314.81
582.877	319.81
583.087	316.81
583.298	324.81
583.508	320.81
583.719	300.81
583.929	318.81
584.139	316.81
584.35	295.81
584.56	311.81
584.77	303.81
584.981	298.81
585.191	300.81
585.401	310.81
585.611	290.81
585.821	301.81
586.032	335.81
586.242	306.81
586.452	306.81
586.662	312.81
586.872	308.81
587.082	309.81
587.292	317.81
587.502	311.81
587.713	318.81
587.923	319.81
588.133	304.81
588.343	310.81
588.553	316.81
588.762	316.81
588.972	310.81
589.182	314.81
589.392	318.81
589.602	318.81
589.812	299.81
590.022	298.81
590.232	296.81
590.441	315.81
590.651	316.81
590.861	310.81
591.071	302.81
591.281	312.81
591.49	300.81
591.7	299.81
591.91	325.81
592.119	325.81
592.329	347.81
592.539	326.81
592.748	351.81
592.958	351.81
593.167	349.81
593.377	348.81
593.587	346.81
593.796	352.81
594.006	346.81
594.215	367.81
594.424	334.81
594.634	345.81
594.843	356.81
595.053	344.81
595.262	315.81
595.472	322.81
595.681	294.81
595.89	311.81
596.1	300.81
596.309	308.81
596.518	303.81
596.727	298.81
596.937	308.81
597.146	281.81
597.355	304.81
597.564	290.81
597.774	282.81
597.983	287.81
598.192	282.81
598.401	296.81
598.61	284.81
598.819	284.81
599.028	271.81
599.237	283.81
599.446	283.81
599.655	276.81
599.864	270.81
600.073	258.81
600.282	271.81
600.491	263.81
600.7	275.81
600.909	268.81
601.118	249.81
601.327	288.81
601.536	277.81
601.745	261.81
601.953	267.81
602.162	274.81
602.371	262.81
602.58	258.81
602.789	265.81
602.997	255.81
603.206	266.81
603.415	270.81
603.623	249.81
603.832	247.81
604.041	264.81
604.249	263.81
604.458	266.81
604.666	263.81
604.875	255.81
605.084	249.81
605.292	254.81
605.501	258.81
605.709	251.81
605.918	260.81
606.126	264.81
606.334	244.81
606.543	250.81
606.751	255.81
606.96	267.81
607.168	251.81
607.376	243.81
607.585	251.81
607.793	255.81
608.001	248.81
608.21	255.81
608.418	238.81
608.626	247.81
608.834	262.81
609.043	242.81
609.251	235.81
609.459	232.81
609.667	245.81
609.875	260.81
610.083	244.81
610.291	257.81
610.499	239.81
610.707	245.81
610.916	246.81
611.124	258.81
611.332	245.81
611.54	247.81
611.748	260.81
611.955	260.81
612.163	256.81
612.371	256.81
612.579	256.81
612.787	254.81
612.995	239.81
613.203	249.81
613.411	258.81
613.618	234.81
613.826	256.81
614.034	238.81
614.242	249.81
614.449	236.81
614.657	235.81
614.865	245.81
615.072	229.81
615.28	248.81
615.488	226.81
615.695	242.81
615.903	250.81
616.111	262.81
616.318	243.81
616.526	230.81
616.733	235.81
616.941	253.81
617.148	239.81
617.356	246.81
617.563	257.81
617.771	247.81
617.978	225.81
618.185	239.81
618.393	240.81
618.6	246.81
618.807	239.81
619.015	232.81
619.222	247.81
619.429	247.81
619.637	249.81
619.844	218.81
620.051	236.81
620.258	242.81
620.466	228.81
620.673	223.81
620.88	233.81
621.087	236.81
621.294	231.81
621.501	214.81
621.708	229.81
621.915	245.81
622.122	233.81
622.329	235.81
622.536	232.81
622.743	234.81
622.95	227.81
623.157	218.81
623.364	219.81
623.571	232.81
623.778	226.81
623.985	230.81
624.192	217.81
624.399	224.81
624.606	243.81
624.812	241.81
625.019	225.81
625.226	222.81
625.433	216.81
625.639	208.81
625.846	220.81
626.053	227.81
626.259	230.81
626.466	218.81
626.673	215.81
626.879	217.81
627.086	229.81
627.293	203.81
627.499	232.81
627.706	224.81
627.912	221.81
628.119	224.81
628.325	203.81
628.532	219.81
628.738	204.81
628.945	216.81
629.151	197.81
629.357	194.81
629.564	208.81
629.77	201.81
629.976	196.81
630.183	200.81
630.389	186.81
630.595	206.81
630.802	202.81
631.008	204.81
631.214	210.81
631.42	196.81
631.627	200.81
631.833	214.81
632.039	212.81
632.245	195.81
632.451	203.81
632.657	183.81
632.863	199.81
633.069	190.81
633.275	194.81
633.481	201.81
633.688	203.81
633.893	194.81
634.099	198.81
634.305	184.81
634.511	217.81
634.717	197.81
634.923	182.81
635.129	201.81
635.335	184.81
635.541	192.81
635.747	187.81
635.952	188.81
636.158	184.81
636.364	190.81
636.57	202.81
636.775	190.81
636.981	193.81
637.187	188.81
637.392	196.81
637.598	172.81
637.804	183.81
638.009	174.81
638.215	181.81
638.421	198.81
638.626	170.81
638.832	184.81
639.037	183.81
639.243	187.81
639.448	190.81
639.654	191.81
639.859	167.81
640.065	182.81
640.27	172.81
640.475	175.81
640.681	195.81
640.886	165.81
641.091	187.81
641.297	184.81
641.502	171.81
641.707	180.81
641.913	166.81
642.118	165.81
642.323	171.81
642.528	181.81
642.733	174.81
642.939	175.81
643.144	176.81
643.349	187.81
643.554	170.81
643.759	180.81
643.964	154.81
644.169	158.81
644.374	166.81
644.579	182.81
644.784	177.81
644.989	184.81
645.194	158.81
645.399	166.81
645.604	188.81
645.809	182.81
646.014	173.81
646.219	159.81
646.423	168.81
646.628	176.81
646.833	174.81
647.038	181.81
647.243	167.81
647.447	171.81
647.652	167.81
647.857	178.81
648.062	189.81
648.266	178.81
648.471	181.81
648.676	188.81
648.88	175.81
649.085	183.81
649.289	168.81
649.494	182.81
649.698	194.81
649.903	179.81
650.107	181.81
650.312	169.81
650.516	174.81
650.721	165.81
650.925	156.81
651.13	158.81
651.334	181.81
651.539	175.81
651.743	147.81
651.947	161.81
652.152	158.81
652.356	159.81
652.56	158.81
652.764	163.81
652.969	155.81
653.173	150.81
653.377	144.81
653.581	139.81
653.785	144.81
653.99	131.81
654.194	145.81
654.398	158.81
654.602	135.81
654.806	149.81
655.01	170.81
655.214	160.81
655.418	139.81
655.622	131.81
655.826	137.81
656.03	140.81
656.234	125.81
656.438	152.81
656.642	150.81
656.846	139.81
657.049	143.81
657.253	118.81
657.457	128.81
657.661	115.81
657.865	128.81
658.068	116.81
658.272	124.81
658.476	126.81
658.68	96.81
658.883	113.81
659.087	101.81
659.291	94.81
659.494	114.81
659.698	98.81
659.901	105.81
660.105	94.81
660.309	83.81
660.512	101.81
660.716	93.81
660.919	84.81
661.123	103.81
661.326	106.81
661.53	84.81
661.733	102.81
661.936	96.81
662.14	85.81
662.343	92.81
662.546	89.81
662.75	101.81
662.953	75.81
663.156	80.81
663.36	86.81
663.563	88.81
663.766	87.81
663.969	91.81
664.173	83.81
664.376	80.81
664.579	86.81
664.782	86.81
664.985	79.81
665.188	83.81
665.391	98.81
665.594	78.81
665.797	73.81
666	88.81
666.203	72.81
666.406	88.81
666.609	75.81
666.812	81.81
667.015	78.81
667.218	79.81
667.421	80.81
667.624	90.81
667.827	91.81
668.03	75.81
668.232	84.81
668.435	74.81
668.638	78.81
668.841	83.81
669.043	92.81
669.246	95.81
669.449	92.81
669.651	76.81
669.854	82.81
670.057	93.81
670.259	94.81
670.462	55.81
670.665	88.81
670.867	69.81
671.07	92.81
671.272	94.81
671.475	90.81
671.677	97.81
671.88	77.81
672.082	80.81
672.284	94.81
672.487	78.81
672.689	80.81
672.892	89.81
