Data from 1973.PennyLincolnUp.Lamp.En5.5.200Scan.071719.P1.Changed Mount._HRD10591_15-44-34-852.txt Node
Date: Thu Jul 18 15:44:34 EDT 2019
User: cochatt
Spectrometer: HR+D1059
Trigger mode: 1
Integration Time (sec): 1.000000E-1
Scans to average: 1
Electric dark correction enabled: true
Nonlinearity correction enabled: false
Boxcar width: 0
XAxis mode: Wavelengths
Number of Pixels in Spectrum: 2048
>>>>>Begin Spectral Data<<<<<
223.165	-20.19
223.4	-20.19
223.635	-20.19
223.869	-11.19
224.104	-6.19
224.338	-8.19
224.573	-0.19
224.808	-1.19
225.042	-8.19
225.277	-13.19
225.511	-4.19
225.746	8.81
225.98	-13.19
226.215	-3.19
226.449	23.81
226.683	9.81
226.918	20.81
227.152	25.81
227.387	18.81
227.621	32.81
227.856	48.81
228.09	51.81
228.324	32.81
228.559	60.81
228.793	64.81
229.027	94.81
229.262	110.81
229.496	106.81
229.73	116.81
229.964	120.81
230.199	110.81
230.433	98.81
230.667	101.81
230.901	112.81
231.136	121.81
231.37	111.81
231.604	107.81
231.838	112.81
232.072	116.81
232.306	107.81
232.541	107.81
232.775	108.81
233.009	103.81
233.243	107.81
233.477	114.81
233.711	114.81
233.945	109.81
234.179	124.81
234.413	110.81
234.647	112.81
234.881	118.81
235.115	104.81
235.349	121.81
235.583	126.81
235.817	116.81
236.051	119.81
236.285	122.81
236.519	128.81
236.753	120.81
236.987	122.81
237.221	155.81
237.455	186.81
237.689	169.81
237.922	138.81
238.156	129.81
238.39	103.81
238.624	100.81
238.858	121.81
239.091	126.81
239.325	117.81
239.559	115.81
239.793	123.81
240.027	132.81
240.26	129.81
240.494	149.81
240.728	156.81
240.961	133.81
241.195	129.81
241.429	140.81
241.662	140.81
241.896	146.81
242.13	123.81
242.363	122.81
242.597	126.81
242.83	144.81
243.064	137.81
243.298	131.81
243.531	133.81
243.765	134.81
243.998	140.81
244.232	150.81
244.465	132.81
244.699	146.81
244.932	136.81
245.166	134.81
245.399	156.81
245.633	144.81
245.866	146.81
246.099	146.81
246.333	144.81
246.566	168.81
246.8	150.81
247.033	160.81
247.266	154.81
247.5	163.81
247.733	166.81
247.966	156.81
248.2	171.81
248.433	156.81
248.666	170.81
248.899	191.81
249.133	176.81
249.366	194.81
249.599	184.81
249.832	169.81
250.066	176.81
250.299	164.81
250.532	195.81
250.765	195.81
250.998	216.81
251.231	206.81
251.465	199.81
251.698	197.81
251.931	185.81
252.164	187.81
252.397	190.81
252.63	183.81
252.863	201.81
253.096	201.81
253.329	211.81
253.562	204.81
253.795	201.81
254.028	211.81
254.261	198.81
254.494	218.81
254.727	231.81
254.96	251.81
255.193	267.81
255.426	219.81
255.659	234.81
255.892	231.81
256.124	220.81
256.357	219.81
256.59	214.81
256.823	207.81
257.056	195.81
257.289	196.81
257.521	206.81
257.754	196.81
257.987	208.81
258.22	213.81
258.452	184.81
258.685	210.81
258.918	198.81
259.151	211.81
259.383	219.81
259.616	202.81
259.849	219.81
260.081	246.81
260.314	231.81
260.547	242.81
260.779	228.81
261.012	237.81
261.244	214.81
261.477	214.81
261.71	203.81
261.942	222.81
262.175	228.81
262.407	218.81
262.64	204.81
262.872	217.81
263.105	191.81
263.337	204.81
263.57	212.81
263.802	208.81
264.035	219.81
264.267	219.81
264.499	194.81
264.732	208.81
264.964	217.81
265.197	227.81
265.429	230.81
265.661	215.81
265.894	212.81
266.126	226.81
266.358	197.81
266.591	219.81
266.823	215.81
267.055	252.81
267.287	236.81
267.52	226.81
267.752	228.81
267.984	217.81
268.216	241.81
268.448	240.81
268.681	238.81
268.913	244.81
269.145	247.81
269.377	264.81
269.609	269.81
269.841	270.81
270.073	254.81
270.306	274.81
270.538	289.81
270.77	305.81
271.002	272.81
271.234	277.81
271.466	288.81
271.698	297.81
271.93	309.81
272.162	304.81
272.394	316.81
272.626	278.81
272.858	288.81
273.09	288.81
273.322	283.81
273.553	278.81
273.785	258.81
274.017	271.81
274.249	263.81
274.481	263.81
274.713	273.81
274.945	247.81
275.176	274.81
275.408	269.81
275.64	281.81
275.872	255.81
276.104	276.81
276.335	245.81
276.567	254.81
276.799	279.81
277.031	291.81
277.262	306.81
277.494	297.81
277.726	304.81
277.957	288.81
278.189	275.81
278.421	275.81
278.652	283.81
278.884	262.81
279.115	276.81
279.347	282.81
279.579	268.81
279.81	294.81
280.042	274.81
280.273	280.81
280.505	296.81
280.736	286.81
280.968	282.81
281.199	275.81
281.431	294.81
281.662	280.81
281.894	290.81
282.125	290.81
282.356	288.81
282.588	295.81
282.819	315.81
283.051	298.81
283.282	279.81
283.513	298.81
283.745	286.81
283.976	318.81
284.207	309.81
284.439	282.81
284.67	289.81
284.901	302.81
285.132	308.81
285.364	283.81
285.595	282.81
285.826	300.81
286.057	286.81
286.288	309.81
286.52	288.81
286.751	326.81
286.982	304.81
287.213	282.81
287.444	300.81
287.675	294.81
287.906	312.81
288.138	323.81
288.369	320.81
288.6	322.81
288.831	305.81
289.062	316.81
289.293	322.81
289.524	294.81
289.755	310.81
289.986	307.81
290.217	308.81
290.448	295.81
290.679	307.81
290.91	315.81
291.141	321.81
291.371	326.81
291.602	312.81
291.833	309.81
292.064	305.81
292.295	326.81
292.526	314.81
292.757	312.81
292.987	303.81
293.218	303.81
293.449	310.81
293.68	317.81
293.91	295.81
294.141	324.81
294.372	304.81
294.603	300.81
294.833	320.81
295.064	296.81
295.295	331.81
295.525	326.81
295.756	319.81
295.987	329.81
296.217	350.81
296.448	336.81
296.679	317.81
296.909	310.81
297.14	322.81
297.37	310.81
297.601	312.81
297.831	321.81
298.062	314.81
298.292	325.81
298.523	322.81
298.753	347.81
298.984	330.81
299.214	324.81
299.445	339.81
299.675	313.81
299.905	342.81
300.136	336.81
300.366	350.81
300.597	359.81
300.827	324.81
301.057	349.81
301.288	348.81
301.518	333.81
301.748	325.81
301.979	354.81
302.209	340.81
302.439	355.81
302.669	346.81
302.9	376.81
303.13	338.81
303.36	323.81
303.59	341.81
303.82	348.81
304.051	355.81
304.281	354.81
304.511	363.81
304.741	331.81
304.971	361.81
305.201	335.81
305.431	357.81
305.661	351.81
305.891	340.81
306.121	356.81
306.352	358.81
306.582	360.81
306.812	355.81
307.042	353.81
307.272	351.81
307.502	338.81
307.731	337.81
307.961	356.81
308.191	343.81
308.421	345.81
308.651	354.81
308.881	346.81
309.111	356.81
309.341	350.81
309.571	359.81
309.8	388.81
310.03	376.81
310.26	382.81
310.49	365.81
310.72	402.81
310.949	374.81
311.179	392.81
311.409	387.81
311.639	372.81
311.868	370.81
312.098	368.81
312.328	362.81
312.557	397.81
312.787	376.81
313.017	378.81
313.246	389.81
313.476	383.81
313.706	374.81
313.935	375.81
314.165	389.81
314.394	406.81
314.624	403.81
314.853	385.81
315.083	378.81
315.312	380.81
315.542	395.81
315.771	380.81
316.001	359.81
316.23	376.81
316.46	352.81
316.689	378.81
316.919	382.81
317.148	364.81
317.377	411.81
317.607	394.81
317.836	385.81
318.065	392.81
318.295	382.81
318.524	378.81
318.753	372.81
318.983	376.81
319.212	366.81
319.441	371.81
319.67	367.81
319.9	367.81
320.129	377.81
320.358	402.81
320.587	396.81
320.816	389.81
321.046	403.81
321.275	402.81
321.504	400.81
321.733	395.81
321.962	391.81
322.191	408.81
322.42	412.81
322.649	415.81
322.878	414.81
323.108	418.81
323.337	419.81
323.566	425.81
323.795	455.81
324.024	472.81
324.253	545.81
324.482	688.81
324.71	999.81
324.939	1378.81
325.168	1212.81
325.397	674.81
325.626	544.81
325.855	448.81
326.084	449.81
326.313	435.81
326.542	445.81
326.77	476.81
326.999	521.81
327.228	663.81
327.457	887.81
327.686	1095.81
327.914	761.81
328.143	558.81
328.372	522.81
328.6	469.81
328.829	476.81
329.058	486.81
329.287	479.81
329.515	492.81
329.744	479.81
329.972	478.81
330.201	469.81
330.43	490.81
330.658	519.81
330.887	533.81
331.115	528.81
331.344	485.81
331.572	469.81
331.801	469.81
332.03	480.81
332.258	475.81
332.486	460.81
332.715	460.81
332.943	466.81
333.172	480.81
333.4	502.81
333.629	480.81
333.857	520.81
334.085	501.81
334.314	495.81
334.542	510.81
334.771	535.81
334.999	501.81
335.227	481.81
335.455	475.81
335.684	463.81
335.912	476.81
336.14	473.81
336.369	459.81
336.597	458.81
336.825	490.81
337.053	457.81
337.281	454.81
337.51	453.81
337.738	456.81
337.966	445.81
338.194	461.81
338.422	463.81
338.65	450.81
338.878	459.81
339.106	433.81
339.334	435.81
339.562	453.81
339.79	436.81
340.018	432.81
340.246	434.81
340.474	422.81
340.702	430.81
340.93	442.81
341.158	452.81
341.386	421.81
341.614	428.81
341.842	414.81
342.07	448.81
342.298	445.81
342.526	443.81
342.754	437.81
342.981	426.81
343.209	425.81
343.437	431.81
343.665	440.81
343.893	471.81
344.12	483.81
344.348	475.81
344.576	459.81
344.804	456.81
345.031	451.81
345.259	463.81
345.487	448.81
345.714	428.81
345.942	419.81
346.17	428.81
346.397	407.81
346.625	418.81
346.853	411.81
347.08	413.81
347.308	418.81
347.535	417.81
347.763	415.81
347.99	403.81
348.218	415.81
348.445	421.81
348.673	423.81
348.9	410.81
349.128	411.81
349.355	426.81
349.583	409.81
349.81	421.81
350.037	418.81
350.265	411.81
350.492	419.81
350.72	423.81
350.947	401.81
351.174	418.81
351.402	417.81
351.629	387.81
351.856	411.81
352.083	412.81
352.311	406.81
352.538	407.81
352.765	418.81
352.992	417.81
353.22	401.81
353.447	391.81
353.674	414.81
353.901	392.81
354.128	402.81
354.355	403.81
354.583	387.81
354.81	381.81
355.037	419.81
355.264	398.81
355.491	402.81
355.718	399.81
355.945	366.81
356.172	392.81
356.399	395.81
356.626	400.81
356.853	408.81
357.08	403.81
357.307	403.81
357.534	409.81
357.761	396.81
357.988	391.81
358.215	398.81
358.441	378.81
358.668	394.81
358.895	393.81
359.122	416.81
359.349	412.81
359.576	400.81
359.802	422.81
360.029	411.81
360.256	438.81
360.483	444.81
360.709	400.81
360.936	415.81
361.163	399.81
361.39	395.81
361.616	413.81
361.843	400.81
362.07	389.81
362.296	400.81
362.523	412.81
362.749	404.81
362.976	394.81
363.203	393.81
363.429	404.81
363.656	418.81
363.882	387.81
364.109	397.81
364.335	406.81
364.562	406.81
364.788	385.81
365.015	394.81
365.241	404.81
365.468	409.81
365.694	408.81
365.92	410.81
366.147	397.81
366.373	406.81
366.599	385.81
366.826	388.81
367.052	371.81
367.278	384.81
367.505	394.81
367.731	412.81
367.957	405.81
368.184	393.81
368.41	381.81
368.636	403.81
368.862	418.81
369.089	394.81
369.315	377.81
369.541	379.81
369.767	398.81
369.993	408.81
370.219	399.81
370.445	397.81
370.672	396.81
370.898	415.81
371.124	388.81
371.35	388.81
371.576	411.81
371.802	395.81
372.028	425.81
372.254	419.81
372.48	410.81
372.706	416.81
372.932	418.81
373.158	422.81
373.384	427.81
373.61	401.81
373.835	431.81
374.061	420.81
374.287	421.81
374.513	442.81
374.739	421.81
374.965	428.81
375.191	428.81
375.416	421.81
375.642	405.81
375.868	424.81
376.094	400.81
376.319	431.81
376.545	410.81
376.771	407.81
376.997	402.81
377.222	422.81
377.448	408.81
377.674	382.81
377.899	407.81
378.125	378.81
378.35	388.81
378.576	402.81
378.802	394.81
379.027	420.81
379.253	396.81
379.478	396.81
379.704	414.81
379.929	427.81
380.155	378.81
380.38	431.81
380.606	411.81
380.831	391.81
381.057	421.81
381.282	410.81
381.507	408.81
381.733	407.81
381.958	408.81
382.184	399.81
382.409	432.81
382.634	414.81
382.86	417.81
383.085	412.81
383.31	440.81
383.535	443.81
383.761	437.81
383.986	428.81
384.211	434.81
384.436	451.81
384.662	440.81
384.887	461.81
385.112	463.81
385.337	462.81
385.562	444.81
385.787	441.81
386.013	465.81
386.238	465.81
386.463	495.81
386.688	445.81
386.913	454.81
387.138	449.81
387.363	471.81
387.588	442.81
387.813	465.81
388.038	440.81
388.263	465.81
388.488	444.81
388.713	467.81
388.938	464.81
389.163	455.81
389.387	489.81
389.612	451.81
389.837	439.81
390.062	452.81
390.287	451.81
390.512	474.81
390.736	448.81
390.961	463.81
391.186	456.81
391.411	474.81
391.636	467.81
391.86	475.81
392.085	489.81
392.31	484.81
392.534	492.81
392.759	478.81
392.984	479.81
393.208	480.81
393.433	476.81
393.658	475.81
393.882	473.81
394.107	455.81
394.331	483.81
394.556	469.81
394.78	476.81
395.005	464.81
395.229	475.81
395.454	486.81
395.678	487.81
395.903	502.81
396.127	497.81
396.352	499.81
396.576	487.81
396.801	470.81
397.025	497.81
397.249	486.81
397.474	472.81
397.698	497.81
397.922	514.81
398.147	510.81
398.371	519.81
398.595	529.81
398.82	530.81
399.044	543.81
399.268	592.81
399.492	630.81
399.717	679.81
399.941	696.81
400.165	726.81
400.389	671.81
400.613	631.81
400.837	576.81
401.062	582.81
401.286	556.81
401.51	548.81
401.734	542.81
401.958	559.81
402.182	548.81
402.406	556.81
402.63	574.81
402.854	549.81
403.078	575.81
403.302	580.81
403.526	569.81
403.75	594.81
403.974	566.81
404.198	552.81
404.422	591.81
404.645	549.81
404.869	611.81
405.093	608.81
405.317	632.81
405.541	662.81
405.765	628.81
405.988	601.81
406.212	599.81
406.436	597.81
406.66	609.81
406.883	590.81
407.107	638.81
407.331	672.81
407.555	711.81
407.778	729.81
408.002	664.81
408.226	644.81
408.449	602.81
408.673	605.81
408.896	642.81
409.12	689.81
409.344	624.81
409.567	597.81
409.791	592.81
410.014	566.81
410.238	569.81
410.461	562.81
410.685	583.81
410.908	564.81
411.132	625.81
411.355	645.81
411.578	600.81
411.802	566.81
412.025	541.81
412.249	570.81
412.472	588.81
412.695	620.81
412.919	600.81
413.142	576.81
413.365	554.81
413.589	544.81
413.812	544.81
414.035	518.81
414.258	527.81
414.482	543.81
414.705	548.81
414.928	536.81
415.151	530.81
415.374	528.81
415.597	519.81
415.821	520.81
416.044	523.81
416.267	521.81
416.49	530.81
416.713	518.81
416.936	510.81
417.159	538.81
417.382	531.81
417.605	545.81
417.828	565.81
418.051	535.81
418.274	538.81
418.497	544.81
418.72	534.81
418.943	538.81
419.166	571.81
419.389	574.81
419.611	577.81
419.834	546.81
420.057	578.81
420.28	537.81
420.503	542.81
420.726	563.81
420.948	570.81
421.171	605.81
421.394	595.81
421.617	572.81
421.839	545.81
422.062	518.81
422.285	551.81
422.507	592.81
422.73	647.81
422.953	633.81
423.175	601.81
423.398	556.81
423.621	560.81
423.843	584.81
424.066	578.81
424.288	581.81
424.511	570.81
424.733	637.81
424.956	688.81
425.178	657.81
425.401	665.81
425.623	688.81
425.846	592.81
426.068	570.81
426.291	567.81
426.513	545.81
426.735	567.81
426.958	598.81
427.18	646.81
427.402	750.81
427.625	825.81
427.847	705.81
428.069	627.81
428.292	551.81
428.514	530.81
428.736	523.81
428.958	522.81
429.181	528.81
429.403	496.81
429.625	547.81
429.847	547.81
430.069	593.81
430.292	600.81
430.514	546.81
430.736	496.81
430.958	534.81
431.18	491.81
431.402	513.81
431.624	488.81
431.846	491.81
432.068	520.81
432.29	489.81
432.512	498.81
432.734	507.81
432.956	484.81
433.178	518.81
433.4	521.81
433.622	482.81
433.844	498.81
434.066	498.81
434.287	522.81
434.509	526.81
434.731	526.81
434.953	539.81
435.175	569.81
435.397	557.81
435.618	559.81
435.84	581.81
436.062	667.81
436.284	694.81
436.505	601.81
436.727	542.81
436.949	528.81
437.17	506.81
437.392	518.81
437.614	499.81
437.835	516.81
438.057	609.81
438.278	707.81
438.5	669.81
438.721	731.81
438.943	722.81
439.165	590.81
439.386	564.81
439.608	543.81
439.829	534.81
440.05	567.81
440.272	575.81
440.493	573.81
440.715	539.81
440.936	536.81
441.158	539.81
441.379	530.81
441.6	547.81
441.822	554.81
442.043	594.81
442.264	647.81
442.486	686.81
442.707	608.81
442.928	567.81
443.149	578.81
443.371	598.81
443.592	608.81
443.813	692.81
444.034	750.81
444.255	668.81
444.476	577.81
444.698	591.81
444.919	601.81
445.14	724.81
445.361	662.81
445.582	605.81
445.803	630.81
446.024	683.81
446.245	706.81
446.466	648.81
446.687	586.81
446.908	566.81
447.129	528.81
447.35	524.81
447.571	502.81
447.792	486.81
448.013	507.81
448.234	506.81
448.455	555.81
448.675	634.81
448.896	742.81
449.117	631.81
449.338	609.81
449.559	681.81
449.779	771.81
450	636.81
450.221	522.81
450.442	507.81
450.662	493.81
450.883	467.81
451.104	491.81
451.324	491.81
451.545	474.81
451.766	447.81
451.986	455.81
452.207	443.81
452.428	449.81
452.648	448.81
452.869	439.81
453.089	456.81
453.31	467.81
453.53	459.81
453.751	451.81
453.971	445.81
454.192	440.81
454.412	443.81
454.633	438.81
454.853	443.81
455.073	453.81
455.294	467.81
455.514	503.81
455.734	530.81
455.955	466.81
456.175	450.81
456.395	410.81
456.616	442.81
456.836	423.81
457.056	446.81
457.276	422.81
457.497	420.81
457.717	455.81
457.937	427.81
458.157	436.81
458.377	441.81
458.598	466.81
458.818	481.81
459.038	561.81
459.258	585.81
459.478	551.81
459.698	518.81
459.918	497.81
460.138	513.81
460.358	536.81
460.578	552.81
460.798	537.81
461.018	528.81
461.238	510.81
461.458	537.81
461.678	557.81
461.898	535.81
462.118	536.81
462.338	554.81
462.558	580.81
462.777	576.81
462.997	586.81
463.217	599.81
463.437	617.81
463.657	591.81
463.876	566.81
464.096	596.81
464.316	577.81
464.536	588.81
464.755	559.81
464.975	548.81
465.195	581.81
465.414	609.81
465.634	539.81
465.854	517.81
466.073	506.81
466.293	497.81
466.512	495.81
466.732	476.81
466.951	479.81
467.171	471.81
467.391	479.81
467.61	476.81
467.829	464.81
468.049	470.81
468.268	485.81
468.488	488.81
468.707	456.81
468.927	477.81
469.146	459.81
469.365	471.81
469.585	464.81
469.804	479.81
470.023	475.81
470.243	487.81
470.462	509.81
470.681	484.81
470.901	511.81
471.12	466.81
471.339	473.81
471.558	498.81
471.777	488.81
471.997	491.81
472.216	476.81
472.435	506.81
472.654	495.81
472.873	466.81
473.092	464.81
473.311	457.81
473.53	472.81
473.749	496.81
473.968	517.81
474.187	598.81
474.406	619.81
474.625	504.81
474.844	498.81
475.063	476.81
475.282	468.81
475.501	483.81
475.72	471.81
475.939	497.81
476.158	479.81
476.377	464.81
476.596	489.81
476.814	527.81
477.033	484.81
477.252	504.81
477.471	520.81
477.69	516.81
477.908	531.81
478.127	536.81
478.346	544.81
478.564	538.81
478.783	524.81
479.002	563.81
479.22	570.81
479.439	561.81
479.658	567.81
479.876	582.81
480.095	600.81
480.313	614.81
480.532	614.81
480.751	608.81
480.969	599.81
481.188	632.81
481.406	648.81
481.624	583.81
481.843	574.81
482.061	567.81
482.28	550.81
482.498	566.81
482.717	550.81
482.935	561.81
483.153	570.81
483.372	553.81
483.59	553.81
483.808	527.81
484.027	558.81
484.245	539.81
484.463	551.81
484.681	569.81
484.9	547.81
485.118	537.81
485.336	528.81
485.554	539.81
485.772	564.81
485.99	571.81
486.209	565.81
486.427	560.81
486.645	571.81
486.863	568.81
487.081	558.81
487.299	592.81
487.517	595.81
487.735	580.81
487.953	584.81
488.171	572.81
488.389	588.81
488.607	584.81
488.825	596.81
489.043	590.81
489.261	619.81
489.479	593.81
489.696	569.81
489.914	603.81
490.132	594.81
490.35	601.81
490.568	614.81
490.786	623.81
491.003	613.81
491.221	629.81
491.439	640.81
491.657	629.81
491.874	642.81
492.092	646.81
492.31	672.81
492.527	677.81
492.745	665.81
492.963	686.81
493.18	678.81
493.398	678.81
493.615	689.81
493.833	698.81
494.05	703.81
494.268	690.81
494.485	651.81
494.703	688.81
494.92	683.81
495.138	679.81
495.355	681.81
495.573	691.81
495.79	689.81
496.008	692.81
496.225	690.81
496.442	665.81
496.66	684.81
496.877	697.81
497.094	707.81
497.312	719.81
497.529	690.81
497.746	730.81
497.963	736.81
498.181	794.81
498.398	784.81
498.615	799.81
498.832	832.81
499.049	852.81
499.267	887.81
499.484	914.81
499.701	1006.81
499.918	1050.81
500.135	1148.81
500.352	1177.81
500.569	1222.81
500.786	1225.81
501.003	1202.81
501.22	1112.81
501.437	1102.81
501.654	1023.81
501.871	969.81
502.088	908.81
502.305	864.81
502.522	862.81
502.739	823.81
502.956	778.81
503.172	771.81
503.389	758.81
503.606	761.81
503.823	734.81
504.04	734.81
504.256	717.81
504.473	711.81
504.69	709.81
504.907	722.81
505.123	695.81
505.34	670.81
505.557	656.81
505.773	654.81
505.99	655.81
506.207	651.81
506.423	629.81
506.64	633.81
506.856	630.81
507.073	619.81
507.289	624.81
507.506	609.81
507.722	626.81
507.939	634.81
508.155	613.81
508.372	622.81
508.588	592.81
508.805	603.81
509.021	578.81
509.238	598.81
509.454	617.81
509.67	603.81
509.887	616.81
510.103	583.81
510.319	597.81
510.536	634.81
510.752	908.81
510.968	743.81
511.184	596.81
511.401	560.81
511.617	578.81
511.833	571.81
512.049	576.81
512.265	576.81
512.481	555.81
512.698	558.81
512.914	573.81
513.13	557.81
513.346	581.81
513.562	547.81
513.778	580.81
513.994	575.81
514.21	576.81
514.426	574.81
514.642	568.81
514.858	618.81
515.074	631.81
515.29	674.81
515.506	856.81
515.721	772.81
515.937	636.81
516.153	606.81
516.369	608.81
516.585	596.81
516.801	578.81
517.016	617.81
517.232	634.81
517.448	634.81
517.664	656.81
517.879	660.81
518.095	631.81
518.311	642.81
518.527	617.81
518.742	611.81
518.958	585.81
519.173	599.81
519.389	607.81
519.605	571.81
519.82	564.81
520.036	562.81
520.251	577.81
520.467	605.81
520.682	599.81
520.898	606.81
521.113	582.81
521.329	600.81
521.544	612.81
521.76	727.81
521.975	1057.81
522.19	1020.81
522.406	679.81
522.621	588.81
522.836	558.81
523.052	539.81
523.267	534.81
523.482	507.81
523.698	517.81
523.913	502.81
524.128	524.81
524.343	509.81
524.559	504.81
524.774	508.81
524.989	499.81
525.204	495.81
525.419	496.81
525.634	489.81
525.849	479.81
526.064	489.81
526.28	469.81
526.495	495.81
526.71	481.81
526.925	467.81
527.14	459.81
527.355	482.81
527.57	471.81
527.785	480.81
527.999	459.81
528.214	472.81
528.429	462.81
528.644	486.81
528.859	466.81
529.074	455.81
529.289	496.81
529.503	532.81
529.718	510.81
529.933	488.81
530.148	494.81
530.363	489.81
530.577	460.81
530.792	466.81
531.007	472.81
531.221	460.81
531.436	466.81
531.651	477.81
531.865	472.81
532.08	453.81
532.295	468.81
532.509	471.81
532.724	454.81
532.938	465.81
533.153	468.81
533.367	476.81
533.582	478.81
533.796	447.81
534.011	460.81
534.225	472.81
534.44	457.81
534.654	461.81
534.868	454.81
535.083	457.81
535.297	443.81
535.511	467.81
535.726	453.81
535.94	447.81
536.154	441.81
536.369	452.81
536.583	467.81
536.797	455.81
537.011	447.81
537.225	447.81
537.44	440.81
537.654	452.81
537.868	444.81
538.082	446.81
538.296	457.81
538.51	430.81
538.724	447.81
538.938	439.81
539.153	444.81
539.367	460.81
539.581	423.81
539.795	450.81
540.009	446.81
540.222	436.81
540.436	447.81
540.65	448.81
540.864	432.81
541.078	428.81
541.292	428.81
541.506	423.81
541.72	447.81
541.934	452.81
542.147	469.81
542.361	440.81
542.575	424.81
542.789	439.81
543.002	444.81
543.216	436.81
543.43	423.81
543.644	438.81
543.857	456.81
544.071	443.81
544.285	432.81
544.498	435.81
544.712	458.81
544.925	442.81
545.139	435.81
545.352	444.81
545.566	433.81
545.779	444.81
545.993	440.81
546.206	462.81
546.42	449.81
546.633	468.81
546.847	451.81
547.06	433.81
547.274	447.81
547.487	442.81
547.7	443.81
547.914	430.81
548.127	445.81
548.34	450.81
548.554	437.81
548.767	441.81
548.98	450.81
549.193	451.81
549.407	454.81
549.62	449.81
549.833	442.81
550.046	428.81
550.259	453.81
550.473	443.81
550.686	444.81
550.899	433.81
551.112	442.81
551.325	436.81
551.538	435.81
551.751	435.81
551.964	418.81
552.177	451.81
552.39	419.81
552.603	417.81
552.816	463.81
553.029	466.81
553.242	461.81
553.455	469.81
553.667	451.81
553.88	468.81
554.093	478.81
554.306	466.81
554.519	449.81
554.732	437.81
554.944	431.81
555.157	432.81
555.37	445.81
555.583	440.81
555.795	405.81
556.008	429.81
556.221	406.81
556.433	409.81
556.646	396.81
556.859	394.81
557.071	384.81
557.284	411.81
557.496	381.81
557.709	401.81
557.921	384.81
558.134	381.81
558.346	395.81
558.559	388.81
558.771	385.81
558.984	406.81
559.196	380.81
559.409	393.81
559.621	390.81
559.833	383.81
560.046	393.81
560.258	393.81
560.47	382.81
560.683	363.81
560.895	390.81
561.107	376.81
561.32	370.81
561.532	372.81
561.744	373.81
561.956	388.81
562.168	377.81
562.381	409.81
562.593	406.81
562.805	391.81
563.017	396.81
563.229	399.81
563.441	402.81
563.653	404.81
563.865	405.81
564.077	416.81
564.289	412.81
564.501	406.81
564.713	400.81
564.925	422.81
565.137	395.81
565.349	437.81
565.561	432.81
565.773	443.81
565.985	451.81
566.197	480.81
566.408	508.81
566.62	513.81
566.832	543.81
567.044	536.81
567.255	545.81
567.467	552.81
567.679	570.81
567.891	569.81
568.102	586.81
568.314	575.81
568.526	561.81
568.737	505.81
568.949	495.81
569.161	483.81
569.372	452.81
569.584	420.81
569.795	411.81
570.007	408.81
570.218	422.81
570.43	423.81
570.641	399.81
570.853	400.81
571.064	388.81
571.276	387.81
571.487	389.81
571.698	394.81
571.91	370.81
572.121	385.81
572.333	377.81
572.544	378.81
572.755	360.81
572.966	362.81
573.178	368.81
573.389	344.81
573.6	343.81
573.811	338.81
574.023	344.81
574.234	356.81
574.445	323.81
574.656	355.81
574.867	346.81
575.078	328.81
575.289	338.81
575.501	331.81
575.712	342.81
575.923	337.81
576.134	329.81
576.345	324.81
576.556	335.81
576.767	351.81
576.978	334.81
577.188	336.81
577.399	322.81
577.61	339.81
577.821	329.81
578.032	310.81
578.243	330.81
578.454	441.81
578.665	363.81
578.875	326.81
579.086	299.81
579.297	304.81
579.508	322.81
579.718	323.81
579.929	310.81
580.14	301.81
580.35	305.81
580.561	315.81
580.772	308.81
580.982	296.81
581.193	295.81
581.403	329.81
581.614	318.81
581.825	287.81
582.035	297.81
582.246	304.81
582.456	288.81
582.667	310.81
582.877	298.81
583.087	312.81
583.298	328.81
583.508	296.81
583.719	310.81
583.929	310.81
584.139	298.81
584.35	289.81
584.56	310.81
584.77	313.81
584.981	300.81
585.191	291.81
585.401	294.81
585.611	303.81
585.821	321.81
586.032	290.81
586.242	281.81
586.452	293.81
586.662	302.81
586.872	317.81
587.082	294.81
587.292	282.81
587.502	302.81
587.713	288.81
587.923	289.81
588.133	307.81
588.343	296.81
588.553	286.81
588.762	297.81
588.972	280.81
589.182	283.81
589.392	299.81
589.602	284.81
589.812	289.81
590.022	292.81
590.232	287.81
590.441	288.81
590.651	291.81
590.861	287.81
591.071	296.81
591.281	280.81
591.49	310.81
591.7	289.81
591.91	330.81
592.119	307.81
592.329	342.81
592.539	330.81
592.748	322.81
592.958	335.81
593.167	320.81
593.377	333.81
593.587	346.81
593.796	345.81
594.006	338.81
594.215	343.81
594.424	332.81
594.634	339.81
594.843	347.81
595.053	314.81
595.262	340.81
595.472	323.81
595.681	298.81
595.89	295.81
596.1	308.81
596.309	307.81
596.518	290.81
596.727	294.81
596.937	286.81
597.146	277.81
597.355	280.81
597.564	273.81
597.774	278.81
597.983	270.81
598.192	277.81
598.401	233.81
598.61	277.81
598.819	270.81
599.028	265.81
599.237	260.81
599.446	255.81
599.655	294.81
599.864	266.81
600.073	277.81
600.282	259.81
600.491	245.81
600.7	260.81
600.909	261.81
601.118	250.81
601.327	274.81
601.536	266.81
601.745	267.81
601.953	235.81
602.162	256.81
602.371	251.81
602.58	253.81
602.789	242.81
602.997	260.81
603.206	261.81
603.415	235.81
603.623	263.81
603.832	256.81
604.041	258.81
604.249	239.81
604.458	249.81
604.666	231.81
604.875	229.81
605.084	235.81
605.292	245.81
605.501	226.81
605.709	254.81
605.918	232.81
606.126	272.81
606.334	242.81
606.543	240.81
606.751	245.81
606.96	246.81
607.168	256.81
607.376	259.81
607.585	238.81
607.793	241.81
608.001	243.81
608.21	241.81
608.418	241.81
608.626	244.81
608.834	241.81
609.043	242.81
609.251	231.81
609.459	233.81
609.667	260.81
609.875	231.81
610.083	230.81
610.291	235.81
610.499	231.81
610.707	226.81
610.916	229.81
611.124	223.81
611.332	251.81
611.54	240.81
611.748	239.81
611.955	239.81
612.163	234.81
612.371	227.81
612.579	235.81
612.787	246.81
612.995	242.81
613.203	258.81
613.411	256.81
613.618	231.81
613.826	245.81
614.034	231.81
614.242	235.81
614.449	225.81
614.657	233.81
614.865	240.81
615.072	235.81
615.28	233.81
615.488	226.81
615.695	225.81
615.903	225.81
616.111	240.81
616.318	249.81
616.526	227.81
616.733	238.81
616.941	222.81
617.148	236.81
617.356	247.81
617.563	254.81
617.771	229.81
617.978	246.81
618.185	250.81
618.393	234.81
618.6	232.81
618.807	226.81
619.015	228.81
619.222	219.81
619.429	222.81
619.637	233.81
619.844	239.81
620.051	238.81
620.258	222.81
620.466	221.81
620.673	217.81
620.88	203.81
621.087	214.81
621.294	215.81
621.501	217.81
621.708	214.81
621.915	223.81
622.122	226.81
622.329	214.81
622.536	199.81
622.743	215.81
622.95	210.81
623.157	219.81
623.364	229.81
623.571	222.81
623.778	207.81
623.985	223.81
624.192	196.81
624.399	211.81
624.606	216.81
624.812	210.81
625.019	206.81
625.226	214.81
625.433	215.81
625.639	202.81
625.846	214.81
626.053	201.81
626.259	187.81
626.466	192.81
626.673	193.81
626.879	196.81
627.086	187.81
627.293	191.81
627.499	196.81
627.706	221.81
627.912	216.81
628.119	214.81
628.325	211.81
628.532	212.81
628.738	181.81
628.945	199.81
629.151	202.81
629.357	188.81
629.564	194.81
629.77	205.81
629.976	195.81
630.183	196.81
630.389	205.81
630.595	188.81
630.802	189.81
631.008	186.81
631.214	195.81
631.42	208.81
631.627	196.81
631.833	199.81
632.039	184.81
632.245	182.81
632.451	191.81
632.657	190.81
632.863	192.81
633.069	204.81
633.275	204.81
633.481	190.81
633.688	195.81
633.893	175.81
634.099	170.81
634.305	190.81
634.511	179.81
634.717	198.81
634.923	189.81
635.129	184.81
635.335	180.81
635.541	178.81
635.747	186.81
635.952	192.81
636.158	176.81
636.364	188.81
636.57	192.81
636.775	189.81
636.981	178.81
637.187	189.81
637.392	184.81
637.598	180.81
637.804	174.81
638.009	175.81
638.215	198.81
638.421	176.81
638.626	172.81
638.832	175.81
639.037	168.81
639.243	180.81
639.448	182.81
639.654	181.81
639.859	169.81
640.065	156.81
640.27	181.81
640.475	174.81
640.681	179.81
640.886	157.81
641.091	183.81
641.297	188.81
641.502	176.81
641.707	176.81
641.913	167.81
642.118	152.81
642.323	159.81
642.528	178.81
642.733	156.81
642.939	193.81
643.144	170.81
643.349	161.81
643.554	181.81
643.759	172.81
643.964	174.81
644.169	180.81
644.374	173.81
644.579	172.81
644.784	146.81
644.989	185.81
645.194	171.81
645.399	167.81
645.604	141.81
645.809	171.81
646.014	167.81
646.219	158.81
646.423	162.81
646.628	149.81
646.833	170.81
647.038	159.81
647.243	171.81
647.447	168.81
647.652	179.81
647.857	175.81
648.062	180.81
648.266	168.81
648.471	174.81
648.676	180.81
648.88	162.81
649.085	170.81
649.289	176.81
649.494	163.81
649.698	158.81
649.903	179.81
650.107	177.81
650.312	166.81
650.516	166.81
650.721	165.81
650.925	149.81
651.13	156.81
651.334	144.81
651.539	138.81
651.743	170.81
651.947	144.81
652.152	143.81
652.356	139.81
652.56	163.81
652.764	151.81
652.969	128.81
653.173	149.81
653.377	141.81
653.581	145.81
653.785	136.81
653.99	143.81
654.194	124.81
654.398	141.81
654.602	142.81
654.806	143.81
655.01	129.81
655.214	128.81
655.418	126.81
655.622	140.81
655.826	137.81
656.03	144.81
656.234	128.81
656.438	146.81
656.642	136.81
656.846	138.81
657.049	139.81
657.253	130.81
657.457	120.81
657.661	115.81
657.865	118.81
658.068	108.81
658.272	108.81
658.476	120.81
658.68	110.81
658.883	119.81
659.087	110.81
659.291	88.81
659.494	110.81
659.698	104.81
659.901	100.81
660.105	107.81
660.309	113.81
660.512	108.81
660.716	94.81
660.919	91.81
661.123	103.81
661.326	96.81
661.53	90.81
661.733	80.81
661.936	76.81
662.14	65.81
662.343	71.81
662.546	70.81
662.75	90.81
662.953	95.81
663.156	79.81
663.36	85.81
663.563	87.81
663.766	83.81
663.969	83.81
664.173	86.81
664.376	83.81
664.579	84.81
664.782	89.81
664.985	82.81
665.188	81.81
665.391	64.81
665.594	82.81
665.797	95.81
666	84.81
666.203	83.81
666.406	87.81
666.609	76.81
666.812	83.81
667.015	82.81
667.218	80.81
667.421	79.81
667.624	77.81
667.827	77.81
668.03	82.81
668.232	84.81
668.435	68.81
668.638	77.81
668.841	70.81
669.043	80.81
669.246	74.81
669.449	69.81
669.651	96.81
669.854	84.81
670.057	84.81
670.259	73.81
670.462	96.81
670.665	76.81
670.867	74.81
671.07	87.81
671.272	82.81
671.475	91.81
671.677	91.81
671.88	83.81
672.082	75.81
672.284	88.81
672.487	79.81
672.689	80.81
672.892	86.81
