Data from 1973.PennyLincolnUp.Lamp.En5.5.200Scan.071719.P1.Changed Mount._HRD10591_15-45-33-853.txt Node
Date: Thu Jul 18 15:45:33 EDT 2019
User: cochatt
Spectrometer: HR+D1059
Trigger mode: 1
Integration Time (sec): 1.000000E-1
Scans to average: 1
Electric dark correction enabled: true
Nonlinearity correction enabled: false
Boxcar width: 0
XAxis mode: Wavelengths
Number of Pixels in Spectrum: 2048
>>>>>Begin Spectral Data<<<<<
223.165	-27.75
223.4	-27.75
223.635	-27.75
223.869	-34.75
224.104	-5.75
224.338	-12.75
224.573	-13.75
224.808	-13.75
225.042	-6.75
225.277	-0.75
225.511	2.25
225.746	5.25
225.98	19.25
226.215	4.25
226.449	6.25
226.683	25.25
226.918	27.25
227.152	26.25
227.387	37.25
227.621	31.25
227.856	41.25
228.09	47.25
228.324	47.25
228.559	66.25
228.793	69.25
229.027	86.25
229.262	108.25
229.496	115.25
229.73	123.25
229.964	151.25
230.199	108.25
230.433	111.25
230.667	130.25
230.901	107.25
231.136	125.25
231.37	114.25
231.604	116.25
231.838	114.25
232.072	102.25
232.306	114.25
232.541	128.25
232.775	123.25
233.009	118.25
233.243	120.25
233.477	116.25
233.711	111.25
233.945	101.25
234.179	102.25
234.413	117.25
234.647	138.25
234.881	126.25
235.115	118.25
235.349	125.25
235.583	117.25
235.817	122.25
236.051	124.25
236.285	123.25
236.519	141.25
236.753	131.25
236.987	154.25
237.221	183.25
237.455	213.25
237.689	186.25
237.922	127.25
238.156	139.25
238.39	123.25
238.624	120.25
238.858	138.25
239.091	140.25
239.325	134.25
239.559	116.25
239.793	133.25
240.027	138.25
240.26	142.25
240.494	152.25
240.728	149.25
240.961	145.25
241.195	154.25
241.429	148.25
241.662	152.25
241.896	137.25
242.13	129.25
242.363	144.25
242.597	139.25
242.83	132.25
243.064	146.25
243.298	148.25
243.531	139.25
243.765	150.25
243.998	135.25
244.232	140.25
244.465	143.25
244.699	155.25
244.932	132.25
245.166	154.25
245.399	150.25
245.633	162.25
245.866	159.25
246.099	158.25
246.333	158.25
246.566	165.25
246.8	154.25
247.033	170.25
247.266	170.25
247.5	178.25
247.733	167.25
247.966	168.25
248.2	194.25
248.433	179.25
248.666	170.25
248.899	184.25
249.133	188.25
249.366	200.25
249.599	196.25
249.832	190.25
250.066	185.25
250.299	174.25
250.532	186.25
250.765	222.25
250.998	231.25
251.231	232.25
251.465	211.25
251.698	201.25
251.931	194.25
252.164	188.25
252.397	204.25
252.63	211.25
252.863	206.25
253.096	225.25
253.329	229.25
253.562	234.25
253.795	212.25
254.028	225.25
254.261	207.25
254.494	229.25
254.727	246.25
254.96	265.25
255.193	266.25
255.426	257.25
255.659	234.25
255.892	229.25
256.124	228.25
256.357	232.25
256.59	233.25
256.823	221.25
257.056	208.25
257.289	229.25
257.521	218.25
257.754	226.25
257.987	220.25
258.22	212.25
258.452	200.25
258.685	221.25
258.918	213.25
259.151	222.25
259.383	213.25
259.616	202.25
259.849	226.25
260.081	240.25
260.314	245.25
260.547	262.25
260.779	236.25
261.012	222.25
261.244	226.25
261.477	231.25
261.71	215.25
261.942	213.25
262.175	249.25
262.407	226.25
262.64	228.25
262.872	234.25
263.105	216.25
263.337	227.25
263.57	210.25
263.802	235.25
264.035	227.25
264.267	216.25
264.499	232.25
264.732	219.25
264.964	221.25
265.197	234.25
265.429	226.25
265.661	247.25
265.894	233.25
266.126	222.25
266.358	240.25
266.591	235.25
266.823	246.25
267.055	256.25
267.287	236.25
267.52	238.25
267.752	230.25
267.984	247.25
268.216	230.25
268.448	242.25
268.681	254.25
268.913	276.25
269.145	270.25
269.377	296.25
269.609	287.25
269.841	272.25
270.073	274.25
270.306	303.25
270.538	326.25
270.77	343.25
271.002	329.25
271.234	298.25
271.466	328.25
271.698	327.25
271.93	301.25
272.162	322.25
272.394	316.25
272.626	322.25
272.858	312.25
273.09	298.25
273.322	284.25
273.553	283.25
273.785	283.25
274.017	313.25
274.249	275.25
274.481	262.25
274.713	262.25
274.945	286.25
275.176	269.25
275.408	290.25
275.64	274.25
275.872	275.25
276.104	275.25
276.335	284.25
276.567	295.25
276.799	295.25
277.031	316.25
277.262	335.25
277.494	323.25
277.726	317.25
277.957	312.25
278.189	286.25
278.421	281.25
278.652	299.25
278.884	279.25
279.115	268.25
279.347	316.25
279.579	292.25
279.81	282.25
280.042	291.25
280.273	283.25
280.505	285.25
280.736	286.25
280.968	281.25
281.199	306.25
281.431	311.25
281.662	293.25
281.894	281.25
282.125	296.25
282.356	315.25
282.588	323.25
282.819	339.25
283.051	307.25
283.282	283.25
283.513	303.25
283.745	315.25
283.976	297.25
284.207	321.25
284.439	327.25
284.67	288.25
284.901	299.25
285.132	298.25
285.364	302.25
285.595	297.25
285.826	307.25
286.057	314.25
286.288	310.25
286.52	313.25
286.751	313.25
286.982	343.25
287.213	304.25
287.444	332.25
287.675	318.25
287.906	326.25
288.138	334.25
288.369	347.25
288.6	346.25
288.831	329.25
289.062	345.25
289.293	314.25
289.524	315.25
289.755	330.25
289.986	334.25
290.217	317.25
290.448	321.25
290.679	325.25
290.91	330.25
291.141	341.25
291.371	319.25
291.602	331.25
291.833	308.25
292.064	333.25
292.295	322.25
292.526	330.25
292.757	299.25
292.987	316.25
293.218	328.25
293.449	319.25
293.68	326.25
293.91	335.25
294.141	326.25
294.372	324.25
294.603	336.25
294.833	321.25
295.064	334.25
295.295	336.25
295.525	341.25
295.756	342.25
295.987	350.25
296.217	349.25
296.448	346.25
296.679	334.25
296.909	362.25
297.14	340.25
297.37	341.25
297.601	344.25
297.831	341.25
298.062	344.25
298.292	346.25
298.523	355.25
298.753	368.25
298.984	341.25
299.214	335.25
299.445	354.25
299.675	338.25
299.905	370.25
300.136	356.25
300.366	341.25
300.597	358.25
300.827	382.25
301.057	357.25
301.288	350.25
301.518	346.25
301.748	359.25
301.979	358.25
302.209	379.25
302.439	372.25
302.669	371.25
302.9	353.25
303.13	351.25
303.36	372.25
303.59	372.25
303.82	385.25
304.051	368.25
304.281	373.25
304.511	376.25
304.741	359.25
304.971	356.25
305.201	368.25
305.431	370.25
305.661	376.25
305.891	361.25
306.121	372.25
306.352	380.25
306.582	380.25
306.812	363.25
307.042	364.25
307.272	357.25
307.502	372.25
307.731	372.25
307.961	394.25
308.191	348.25
308.421	376.25
308.651	358.25
308.881	358.25
309.111	376.25
309.341	376.25
309.571	394.25
309.8	386.25
310.03	406.25
310.26	407.25
310.49	399.25
310.72	406.25
310.949	420.25
311.179	416.25
311.409	392.25
311.639	388.25
311.868	409.25
312.098	403.25
312.328	405.25
312.557	438.25
312.787	423.25
313.017	422.25
313.246	410.25
313.476	411.25
313.706	413.25
313.935	414.25
314.165	427.25
314.394	398.25
314.624	429.25
314.853	435.25
315.083	435.25
315.312	407.25
315.542	407.25
315.771	398.25
316.001	393.25
316.23	423.25
316.46	401.25
316.689	404.25
316.919	406.25
317.148	425.25
317.377	414.25
317.607	418.25
317.836	408.25
318.065	414.25
318.295	386.25
318.524	420.25
318.753	391.25
318.983	403.25
319.212	392.25
319.441	425.25
319.67	412.25
319.9	418.25
320.129	381.25
320.358	420.25
320.587	401.25
320.816	431.25
321.046	427.25
321.275	423.25
321.504	437.25
321.733	438.25
321.962	424.25
322.191	420.25
322.42	437.25
322.649	448.25
322.878	452.25
323.108	458.25
323.337	489.25
323.566	498.25
323.795	505.25
324.024	519.25
324.253	598.25
324.482	788.25
324.71	1095.25
324.939	1565.25
325.168	1406.25
325.397	779.25
325.626	600.25
325.855	539.25
326.084	487.25
326.313	485.25
326.542	487.25
326.77	525.25
326.999	585.25
327.228	738.25
327.457	1010.25
327.686	1224.25
327.914	847.25
328.143	620.25
328.372	566.25
328.6	545.25
328.829	530.25
329.058	521.25
329.287	560.25
329.515	533.25
329.744	521.25
329.972	508.25
330.201	517.25
330.43	546.25
330.658	560.25
330.887	547.25
331.115	550.25
331.344	528.25
331.572	504.25
331.801	527.25
332.03	503.25
332.258	507.25
332.486	512.25
332.715	504.25
332.943	508.25
333.172	506.25
333.4	518.25
333.629	548.25
333.857	541.25
334.085	550.25
334.314	549.25
334.542	568.25
334.771	572.25
334.999	557.25
335.227	507.25
335.455	501.25
335.684	523.25
335.912	486.25
336.14	487.25
336.369	479.25
336.597	484.25
336.825	494.25
337.053	505.25
337.281	515.25
337.51	477.25
337.738	483.25
337.966	472.25
338.194	488.25
338.422	482.25
338.65	448.25
338.878	464.25
339.106	469.25
339.334	479.25
339.562	471.25
339.79	454.25
340.018	475.25
340.246	464.25
340.474	471.25
340.702	438.25
340.93	478.25
341.158	468.25
341.386	472.25
341.614	478.25
341.842	430.25
342.07	454.25
342.298	449.25
342.526	440.25
342.754	453.25
342.981	448.25
343.209	455.25
343.437	461.25
343.665	470.25
343.893	492.25
344.12	509.25
344.348	490.25
344.576	514.25
344.804	487.25
345.031	476.25
345.259	494.25
345.487	476.25
345.714	448.25
345.942	448.25
346.17	448.25
346.397	438.25
346.625	445.25
346.853	436.25
347.08	464.25
347.308	447.25
347.535	440.25
347.763	455.25
347.99	446.25
348.218	445.25
348.445	463.25
348.673	430.25
348.9	413.25
349.128	415.25
349.355	418.25
349.583	432.25
349.81	443.25
350.037	421.25
350.265	446.25
350.492	448.25
350.72	429.25
350.947	421.25
351.174	444.25
351.402	454.25
351.629	422.25
351.856	422.25
352.083	445.25
352.311	446.25
352.538	437.25
352.765	447.25
352.992	444.25
353.22	430.25
353.447	423.25
353.674	422.25
353.901	421.25
354.128	442.25
354.355	422.25
354.583	406.25
354.81	416.25
355.037	422.25
355.264	444.25
355.491	417.25
355.718	414.25
355.945	428.25
356.172	434.25
356.399	427.25
356.626	411.25
356.853	411.25
357.08	419.25
357.307	399.25
357.534	418.25
357.761	422.25
357.988	413.25
358.215	413.25
358.441	438.25
358.668	419.25
358.895	424.25
359.122	425.25
359.349	440.25
359.576	420.25
359.802	442.25
360.029	458.25
360.256	471.25
360.483	466.25
360.709	454.25
360.936	428.25
361.163	417.25
361.39	441.25
361.616	420.25
361.843	426.25
362.07	439.25
362.296	428.25
362.523	450.25
362.749	434.25
362.976	439.25
363.203	438.25
363.429	402.25
363.656	436.25
363.882	426.25
364.109	434.25
364.335	442.25
364.562	421.25
364.788	422.25
365.015	428.25
365.241	423.25
365.468	412.25
365.694	428.25
365.92	434.25
366.147	423.25
366.373	429.25
366.599	418.25
366.826	420.25
367.052	419.25
367.278	400.25
367.505	423.25
367.731	426.25
367.957	430.25
368.184	409.25
368.41	415.25
368.636	430.25
368.862	465.25
369.089	439.25
369.315	452.25
369.541	438.25
369.767	439.25
369.993	433.25
370.219	431.25
370.445	430.25
370.672	423.25
370.898	423.25
371.124	434.25
371.35	441.25
371.576	427.25
371.802	425.25
372.028	435.25
372.254	421.25
372.48	441.25
372.706	443.25
372.932	449.25
373.158	458.25
373.384	439.25
373.61	422.25
373.835	424.25
374.061	423.25
374.287	418.25
374.513	436.25
374.739	430.25
374.965	440.25
375.191	467.25
375.416	469.25
375.642	447.25
375.868	454.25
376.094	445.25
376.319	420.25
376.545	418.25
376.771	417.25
376.997	422.25
377.222	440.25
377.448	419.25
377.674	430.25
377.899	431.25
378.125	422.25
378.35	434.25
378.576	422.25
378.802	437.25
379.027	429.25
379.253	415.25
379.478	447.25
379.704	425.25
379.929	447.25
380.155	419.25
380.38	422.25
380.606	426.25
380.831	436.25
381.057	431.25
381.282	430.25
381.507	416.25
381.733	438.25
381.958	424.25
382.184	458.25
382.409	451.25
382.634	453.25
382.86	434.25
383.085	440.25
383.31	457.25
383.535	452.25
383.761	460.25
383.986	463.25
384.211	479.25
384.436	461.25
384.662	464.25
384.887	465.25
385.112	476.25
385.337	464.25
385.562	471.25
385.787	482.25
386.013	476.25
386.238	498.25
386.463	491.25
386.688	467.25
386.913	480.25
387.138	469.25
387.363	494.25
387.588	477.25
387.813	489.25
388.038	477.25
388.263	486.25
388.488	508.25
388.713	497.25
388.938	491.25
389.163	491.25
389.387	499.25
389.612	492.25
389.837	480.25
390.062	467.25
390.287	471.25
390.512	484.25
390.736	469.25
390.961	483.25
391.186	498.25
391.411	499.25
391.636	515.25
391.86	511.25
392.085	508.25
392.31	520.25
392.534	504.25
392.759	529.25
392.984	499.25
393.208	498.25
393.433	485.25
393.658	496.25
393.882	493.25
394.107	507.25
394.331	508.25
394.556	478.25
394.78	495.25
395.005	511.25
395.229	511.25
395.454	516.25
395.678	538.25
395.903	521.25
396.127	557.25
396.352	527.25
396.576	509.25
396.801	514.25
397.025	520.25
397.249	514.25
397.474	550.25
397.698	524.25
397.922	533.25
398.147	548.25
398.371	581.25
398.595	550.25
398.82	564.25
399.044	575.25
399.268	619.25
399.492	658.25
399.717	726.25
399.941	761.25
400.165	730.25
400.389	696.25
400.613	646.25
400.837	611.25
401.062	574.25
401.286	578.25
401.51	585.25
401.734	583.25
401.958	581.25
402.182	590.25
402.406	594.25
402.63	596.25
402.854	604.25
403.078	591.25
403.302	596.25
403.526	604.25
403.75	623.25
403.974	607.25
404.198	606.25
404.422	580.25
404.645	598.25
404.869	594.25
405.093	636.25
405.317	662.25
405.541	702.25
405.765	645.25
405.988	626.25
406.212	624.25
406.436	646.25
406.66	620.25
406.883	650.25
407.107	677.25
407.331	718.25
407.555	776.25
407.778	773.25
408.002	701.25
408.226	678.25
408.449	672.25
408.673	644.25
408.896	674.25
409.12	702.25
409.344	664.25
409.567	624.25
409.791	605.25
410.014	596.25
410.238	587.25
410.461	595.25
410.685	600.25
410.908	609.25
411.132	615.25
411.355	663.25
411.578	629.25
411.802	581.25
412.025	584.25
412.249	605.25
412.472	626.25
412.695	646.25
412.919	637.25
413.142	581.25
413.365	572.25
413.589	584.25
413.812	574.25
414.035	550.25
414.258	559.25
414.482	567.25
414.705	564.25
414.928	563.25
415.151	551.25
415.374	566.25
415.597	546.25
415.821	542.25
416.044	546.25
416.267	572.25
416.49	559.25
416.713	576.25
416.936	567.25
417.159	568.25
417.382	558.25
417.605	557.25
417.828	571.25
418.051	587.25
418.274	575.25
418.497	574.25
418.72	581.25
418.943	566.25
419.166	565.25
419.389	618.25
419.611	628.25
419.834	614.25
420.057	607.25
420.28	572.25
420.503	579.25
420.726	585.25
420.948	586.25
421.171	618.25
421.394	655.25
421.617	589.25
421.839	595.25
422.062	593.25
422.285	603.25
422.507	638.25
422.73	688.25
422.953	685.25
423.175	635.25
423.398	601.25
423.621	622.25
423.843	653.25
424.066	634.25
424.288	634.25
424.511	654.25
424.733	676.25
424.956	733.25
425.178	694.25
425.401	691.25
425.623	729.25
425.846	616.25
426.068	582.25
426.291	591.25
426.513	596.25
426.735	591.25
426.958	612.25
427.18	694.25
427.402	826.25
427.625	871.25
427.847	761.25
428.069	660.25
428.292	640.25
428.514	584.25
428.736	570.25
428.958	572.25
429.181	546.25
429.403	570.25
429.625	550.25
429.847	591.25
430.069	630.25
430.292	627.25
430.514	556.25
430.736	554.25
430.958	539.25
431.18	525.25
431.402	526.25
431.624	543.25
431.846	547.25
432.068	550.25
432.29	566.25
432.512	561.25
432.734	569.25
432.956	535.25
433.178	548.25
433.4	539.25
433.622	526.25
433.844	543.25
434.066	535.25
434.287	534.25
434.509	534.25
434.731	559.25
434.953	563.25
435.175	601.25
435.397	605.25
435.618	596.25
435.84	648.25
436.062	698.25
436.284	743.25
436.505	652.25
436.727	602.25
436.949	568.25
437.17	551.25
437.392	553.25
437.614	542.25
437.835	559.25
438.057	658.25
438.278	725.25
438.5	725.25
438.721	791.25
438.943	776.25
439.165	619.25
439.386	606.25
439.608	607.25
439.829	615.25
440.05	611.25
440.272	640.25
440.493	599.25
440.715	576.25
440.936	552.25
441.158	551.25
441.379	572.25
441.6	593.25
441.822	614.25
442.043	638.25
442.264	706.25
442.486	728.25
442.707	651.25
442.928	633.25
443.149	620.25
443.371	627.25
443.592	678.25
443.813	763.25
444.034	798.25
444.255	677.25
444.476	625.25
444.698	626.25
444.919	671.25
445.14	748.25
445.361	682.25
445.582	621.25
445.803	683.25
446.024	728.25
446.245	736.25
446.466	710.25
446.687	602.25
446.908	582.25
447.129	569.25
447.35	554.25
447.571	533.25
447.792	530.25
448.013	527.25
448.234	562.25
448.455	574.25
448.675	699.25
448.896	784.25
449.117	684.25
449.338	654.25
449.559	722.25
449.779	810.25
450	679.25
450.221	578.25
450.442	548.25
450.662	531.25
450.883	509.25
451.104	538.25
451.324	527.25
451.545	516.25
451.766	508.25
451.986	489.25
452.207	464.25
452.428	492.25
452.648	483.25
452.869	480.25
453.089	488.25
453.31	499.25
453.53	475.25
453.751	498.25
453.971	482.25
454.192	483.25
454.412	475.25
454.633	479.25
454.853	464.25
455.073	450.25
455.294	492.25
455.514	547.25
455.734	542.25
455.955	493.25
456.175	458.25
456.395	460.25
456.616	459.25
456.836	464.25
457.056	450.25
457.276	458.25
457.497	466.25
457.717	476.25
457.937	468.25
458.157	466.25
458.377	477.25
458.598	487.25
458.818	535.25
459.038	615.25
459.258	600.25
459.478	575.25
459.698	546.25
459.918	542.25
460.138	547.25
460.358	561.25
460.578	551.25
460.798	575.25
461.018	579.25
461.238	551.25
461.458	554.25
461.678	569.25
461.898	583.25
462.118	566.25
462.338	574.25
462.558	599.25
462.777	617.25
462.997	633.25
463.217	664.25
463.437	666.25
463.657	641.25
463.876	628.25
464.096	618.25
464.316	600.25
464.536	618.25
464.755	622.25
464.975	612.25
465.195	594.25
465.414	628.25
465.634	587.25
465.854	562.25
466.073	544.25
466.293	536.25
466.512	521.25
466.732	503.25
466.951	516.25
467.171	489.25
467.391	494.25
467.61	517.25
467.829	504.25
468.049	524.25
468.268	496.25
468.488	502.25
468.707	473.25
468.927	501.25
469.146	502.25
469.365	483.25
469.585	499.25
469.804	506.25
470.023	509.25
470.243	500.25
470.462	526.25
470.681	529.25
470.901	518.25
471.12	523.25
471.339	504.25
471.558	508.25
471.777	519.25
471.997	486.25
472.216	524.25
472.435	546.25
472.654	502.25
472.873	492.25
473.092	476.25
473.311	523.25
473.53	520.25
473.749	512.25
473.968	537.25
474.187	597.25
474.406	613.25
474.625	571.25
474.844	498.25
475.063	502.25
475.282	524.25
475.501	521.25
475.72	528.25
475.939	507.25
476.158	498.25
476.377	516.25
476.596	494.25
476.814	532.25
477.033	532.25
477.252	526.25
477.471	548.25
477.69	544.25
477.908	549.25
478.127	550.25
478.346	554.25
478.564	571.25
478.783	588.25
479.002	599.25
479.22	590.25
479.439	614.25
479.658	609.25
479.876	606.25
480.095	636.25
480.313	634.25
480.532	640.25
480.751	635.25
480.969	632.25
481.188	664.25
481.406	674.25
481.624	644.25
481.843	602.25
482.061	600.25
482.28	588.25
482.498	589.25
482.717	566.25
482.935	607.25
483.153	591.25
483.372	583.25
483.59	596.25
483.808	585.25
484.027	576.25
484.245	590.25
484.463	570.25
484.681	581.25
484.9	597.25
485.118	609.25
485.336	600.25
485.554	591.25
485.772	618.25
485.99	618.25
486.209	612.25
486.427	610.25
486.645	622.25
486.863	611.25
487.081	620.25
487.299	606.25
487.517	638.25
487.735	619.25
487.953	634.25
488.171	628.25
488.389	626.25
488.607	626.25
488.825	614.25
489.043	624.25
489.261	630.25
489.479	617.25
489.696	642.25
489.914	649.25
490.132	639.25
490.35	650.25
490.568	655.25
490.786	641.25
491.003	676.25
491.221	695.25
491.439	718.25
491.657	700.25
491.874	709.25
492.092	714.25
492.31	705.25
492.527	698.25
492.745	710.25
492.963	716.25
493.18	706.25
493.398	720.25
493.615	715.25
493.833	720.25
494.05	716.25
494.268	738.25
494.485	729.25
494.703	713.25
494.92	731.25
495.138	734.25
495.355	730.25
495.573	740.25
495.79	723.25
496.008	735.25
496.225	721.25
496.442	745.25
496.66	723.25
496.877	751.25
497.094	729.25
497.312	759.25
497.529	776.25
497.746	790.25
497.963	795.25
498.181	823.25
498.398	845.25
498.615	853.25
498.832	891.25
499.049	898.25
499.267	934.25
499.484	1001.25
499.701	1039.25
499.918	1094.25
500.135	1170.25
500.352	1280.25
500.569	1309.25
500.786	1295.25
501.003	1274.25
501.22	1197.25
501.437	1143.25
501.654	1065.25
501.871	1042.25
502.088	957.25
502.305	931.25
502.522	885.25
502.739	898.25
502.956	817.25
503.172	808.25
503.389	811.25
503.606	802.25
503.823	778.25
504.04	779.25
504.256	783.25
504.473	775.25
504.69	759.25
504.907	736.25
505.123	720.25
505.34	724.25
505.557	724.25
505.773	713.25
505.99	726.25
506.207	684.25
506.423	683.25
506.64	670.25
506.856	675.25
507.073	669.25
507.289	662.25
507.506	677.25
507.722	675.25
507.939	668.25
508.155	665.25
508.372	637.25
508.588	621.25
508.805	626.25
509.021	630.25
509.238	644.25
509.454	668.25
509.67	645.25
509.887	630.25
510.103	592.25
510.319	648.25
510.536	678.25
510.752	991.25
510.968	837.25
511.184	653.25
511.401	608.25
511.617	609.25
511.833	612.25
512.049	603.25
512.265	597.25
512.481	598.25
512.698	604.25
512.914	589.25
513.13	605.25
513.346	589.25
513.562	580.25
513.778	598.25
513.994	607.25
514.21	629.25
514.426	626.25
514.642	635.25
514.858	644.25
515.074	678.25
515.29	741.25
515.506	961.25
515.721	872.25
515.937	673.25
516.153	639.25
516.369	650.25
516.585	624.25
516.801	639.25
517.016	648.25
517.232	686.25
517.448	680.25
517.664	697.25
517.879	699.25
518.095	698.25
518.311	648.25
518.527	660.25
518.742	647.25
518.958	635.25
519.173	648.25
519.389	626.25
519.605	618.25
519.82	602.25
520.036	610.25
520.251	622.25
520.467	618.25
520.682	643.25
520.898	623.25
521.113	654.25
521.329	678.25
521.544	687.25
521.76	781.25
521.975	1193.25
522.19	1190.25
522.406	734.25
522.621	596.25
522.836	575.25
523.052	588.25
523.267	560.25
523.482	528.25
523.698	555.25
523.913	544.25
524.128	555.25
524.343	541.25
524.559	516.25
524.774	553.25
524.989	519.25
525.204	542.25
525.419	530.25
525.634	514.25
525.849	540.25
526.064	503.25
526.28	511.25
526.495	515.25
526.71	490.25
526.925	495.25
527.14	501.25
527.355	492.25
527.57	518.25
527.785	506.25
527.999	500.25
528.214	519.25
528.429	502.25
528.644	515.25
528.859	537.25
529.074	516.25
529.289	532.25
529.503	550.25
529.718	562.25
529.933	531.25
530.148	516.25
530.363	503.25
530.577	500.25
530.792	488.25
531.007	512.25
531.221	512.25
531.436	501.25
531.651	504.25
531.865	505.25
532.08	494.25
532.295	495.25
532.509	492.25
532.724	494.25
532.938	489.25
533.153	516.25
533.367	498.25
533.582	493.25
533.796	507.25
534.011	502.25
534.225	503.25
534.44	487.25
534.654	479.25
534.868	492.25
535.083	502.25
535.297	477.25
535.511	496.25
535.726	482.25
535.94	480.25
536.154	501.25
536.369	491.25
536.583	479.25
536.797	462.25
537.011	465.25
537.225	453.25
537.44	473.25
537.654	465.25
537.868	469.25
538.082	475.25
538.296	476.25
538.51	463.25
538.724	493.25
538.938	469.25
539.153	475.25
539.367	482.25
539.581	474.25
539.795	460.25
540.009	467.25
540.222	453.25
540.436	471.25
540.65	448.25
540.864	452.25
541.078	471.25
541.292	477.25
541.506	492.25
541.72	487.25
541.934	493.25
542.147	463.25
542.361	475.25
542.575	460.25
542.789	487.25
543.002	464.25
543.216	481.25
543.43	482.25
543.644	492.25
543.857	461.25
544.071	476.25
544.285	472.25
544.498	443.25
544.712	466.25
544.925	468.25
545.139	471.25
545.352	463.25
545.566	440.25
545.779	470.25
545.993	470.25
546.206	468.25
546.42	464.25
546.633	467.25
546.847	446.25
547.06	475.25
547.274	467.25
547.487	481.25
547.7	461.25
547.914	472.25
548.127	482.25
548.34	479.25
548.554	462.25
548.767	475.25
548.98	467.25
549.193	455.25
549.407	470.25
549.62	456.25
549.833	469.25
550.046	462.25
550.259	460.25
550.473	454.25
550.686	464.25
550.899	470.25
551.112	459.25
551.325	460.25
551.538	448.25
551.751	450.25
551.964	444.25
552.177	467.25
552.39	468.25
552.603	486.25
552.816	470.25
553.029	463.25
553.242	473.25
553.455	491.25
553.667	490.25
553.88	504.25
554.093	458.25
554.306	491.25
554.519	488.25
554.732	447.25
554.944	458.25
555.157	453.25
555.37	464.25
555.583	451.25
555.795	446.25
556.008	447.25
556.221	441.25
556.433	418.25
556.646	413.25
556.859	429.25
557.071	427.25
557.284	449.25
557.496	394.25
557.709	414.25
557.921	411.25
558.134	429.25
558.346	410.25
558.559	400.25
558.771	401.25
558.984	401.25
559.196	407.25
559.409	395.25
559.621	416.25
559.833	412.25
560.046	425.25
560.258	413.25
560.47	416.25
560.683	416.25
560.895	397.25
561.107	399.25
561.32	403.25
561.532	423.25
561.744	412.25
561.956	404.25
562.168	420.25
562.381	403.25
562.593	430.25
562.805	411.25
563.017	407.25
563.229	426.25
563.441	426.25
563.653	432.25
563.865	415.25
564.077	396.25
564.289	438.25
564.501	424.25
564.713	442.25
564.925	441.25
565.137	436.25
565.349	450.25
565.561	470.25
565.773	466.25
565.985	470.25
566.197	497.25
566.408	506.25
566.62	546.25
566.832	565.25
567.044	551.25
567.255	568.25
567.467	576.25
567.679	602.25
567.891	632.25
568.102	617.25
568.314	599.25
568.526	579.25
568.737	541.25
568.949	508.25
569.161	496.25
569.372	480.25
569.584	464.25
569.795	447.25
570.007	426.25
570.218	477.25
570.43	446.25
570.641	430.25
570.853	429.25
571.064	427.25
571.276	412.25
571.487	422.25
571.698	411.25
571.91	399.25
572.121	396.25
572.333	388.25
572.544	351.25
572.755	376.25
572.966	376.25
573.178	391.25
573.389	376.25
573.6	343.25
573.811	378.25
574.023	363.25
574.234	368.25
574.445	375.25
574.656	365.25
574.867	340.25
575.078	362.25
575.289	354.25
575.501	367.25
575.712	358.25
575.923	353.25
576.134	352.25
576.345	350.25
576.556	359.25
576.767	357.25
576.978	356.25
577.188	356.25
577.399	345.25
577.61	348.25
577.821	333.25
578.032	358.25
578.243	362.25
578.454	467.25
578.665	390.25
578.875	330.25
579.086	344.25
579.297	325.25
579.508	349.25
579.718	343.25
579.929	323.25
580.14	330.25
580.35	298.25
580.561	333.25
580.772	320.25
580.982	308.25
581.193	319.25
581.403	314.25
581.614	321.25
581.825	298.25
582.035	307.25
582.246	314.25
582.456	310.25
582.667	316.25
582.877	308.25
583.087	306.25
583.298	319.25
583.508	306.25
583.719	320.25
583.929	317.25
584.139	311.25
584.35	325.25
584.56	327.25
584.77	321.25
584.981	303.25
585.191	314.25
585.401	337.25
585.611	329.25
585.821	303.25
586.032	310.25
586.242	301.25
586.452	296.25
586.662	315.25
586.872	308.25
587.082	322.25
587.292	316.25
587.502	319.25
587.713	303.25
587.923	317.25
588.133	329.25
588.343	335.25
588.553	287.25
588.762	302.25
588.972	307.25
589.182	297.25
589.392	317.25
589.602	313.25
589.812	311.25
590.022	308.25
590.232	314.25
590.441	306.25
590.651	310.25
590.861	306.25
591.071	315.25
591.281	316.25
591.49	319.25
591.7	331.25
591.91	323.25
592.119	326.25
592.329	323.25
592.539	341.25
592.748	337.25
592.958	363.25
593.167	359.25
593.377	347.25
593.587	356.25
593.796	358.25
594.006	359.25
594.215	362.25
594.424	368.25
594.634	367.25
594.843	331.25
595.053	336.25
595.262	334.25
595.472	334.25
595.681	330.25
595.89	317.25
596.1	303.25
596.309	304.25
596.518	322.25
596.727	314.25
596.937	287.25
597.146	294.25
597.355	302.25
597.564	303.25
597.774	281.25
597.983	276.25
598.192	280.25
598.401	288.25
598.61	276.25
598.819	280.25
599.028	286.25
599.237	296.25
599.446	283.25
599.655	266.25
599.864	286.25
600.073	270.25
600.282	282.25
600.491	277.25
600.7	268.25
600.909	269.25
601.118	266.25
601.327	262.25
601.536	265.25
601.745	281.25
601.953	275.25
602.162	269.25
602.371	265.25
602.58	272.25
602.789	291.25
602.997	254.25
603.206	276.25
603.415	257.25
603.623	266.25
603.832	269.25
604.041	287.25
604.249	258.25
604.458	254.25
604.666	251.25
604.875	245.25
605.084	252.25
605.292	246.25
605.501	261.25
605.709	255.25
605.918	259.25
606.126	265.25
606.334	272.25
606.543	250.25
606.751	268.25
606.96	258.25
607.168	268.25
607.376	257.25
607.585	277.25
607.793	244.25
608.001	250.25
608.21	248.25
608.418	258.25
608.626	244.25
608.834	247.25
609.043	256.25
609.251	243.25
609.459	242.25
609.667	258.25
609.875	255.25
610.083	247.25
610.291	257.25
610.499	240.25
610.707	247.25
610.916	247.25
611.124	267.25
611.332	261.25
611.54	260.25
611.748	269.25
611.955	246.25
612.163	243.25
612.371	249.25
612.579	267.25
612.787	235.25
612.995	244.25
613.203	248.25
613.411	239.25
613.618	254.25
613.826	247.25
614.034	244.25
614.242	236.25
614.449	244.25
614.657	245.25
614.865	236.25
615.072	242.25
615.28	243.25
615.488	240.25
615.695	234.25
615.903	258.25
616.111	259.25
616.318	251.25
616.526	246.25
616.733	243.25
616.941	256.25
617.148	242.25
617.356	235.25
617.563	235.25
617.771	262.25
617.978	246.25
618.185	247.25
618.393	235.25
618.6	239.25
618.807	231.25
619.015	245.25
619.222	236.25
619.429	239.25
619.637	239.25
619.844	243.25
620.051	268.25
620.258	229.25
620.466	248.25
620.673	222.25
620.88	227.25
621.087	225.25
621.294	240.25
621.501	238.25
621.708	232.25
621.915	230.25
622.122	235.25
622.329	225.25
622.536	232.25
622.743	230.25
622.95	223.25
623.157	231.25
623.364	218.25
623.571	229.25
623.778	250.25
623.985	244.25
624.192	233.25
624.399	216.25
624.606	231.25
624.812	229.25
625.019	227.25
625.226	226.25
625.433	223.25
625.639	226.25
625.846	222.25
626.053	221.25
626.259	214.25
626.466	216.25
626.673	241.25
626.879	222.25
627.086	217.25
627.293	222.25
627.499	233.25
627.706	216.25
627.912	222.25
628.119	214.25
628.325	204.25
628.532	205.25
628.738	216.25
628.945	222.25
629.151	202.25
629.357	200.25
629.564	216.25
629.77	196.25
629.976	193.25
630.183	216.25
630.389	207.25
630.595	216.25
630.802	199.25
631.008	202.25
631.214	208.25
631.42	207.25
631.627	207.25
631.833	191.25
632.039	212.25
632.245	198.25
632.451	200.25
632.657	205.25
632.863	191.25
633.069	198.25
633.275	200.25
633.481	202.25
633.688	195.25
633.893	185.25
634.099	191.25
634.305	207.25
634.511	190.25
634.717	201.25
634.923	190.25
635.129	183.25
635.335	201.25
635.541	195.25
635.747	194.25
635.952	203.25
636.158	185.25
636.364	198.25
636.57	200.25
636.775	210.25
636.981	208.25
637.187	181.25
637.392	195.25
637.598	190.25
637.804	185.25
638.009	196.25
638.215	189.25
638.421	191.25
638.626	187.25
638.832	181.25
639.037	175.25
639.243	196.25
639.448	181.25
639.654	197.25
639.859	188.25
640.065	184.25
640.27	175.25
640.475	170.25
640.681	193.25
640.886	159.25
641.091	179.25
641.297	173.25
641.502	176.25
641.707	168.25
641.913	179.25
642.118	168.25
642.323	175.25
642.528	191.25
642.733	186.25
642.939	183.25
643.144	185.25
643.349	172.25
643.554	177.25
643.759	151.25
643.964	167.25
644.169	170.25
644.374	163.25
644.579	182.25
644.784	188.25
644.989	175.25
645.194	182.25
645.399	178.25
645.604	171.25
645.809	184.25
646.014	173.25
646.219	179.25
646.423	190.25
646.628	176.25
646.833	184.25
647.038	182.25
647.243	182.25
647.447	190.25
647.652	172.25
647.857	180.25
648.062	167.25
648.266	186.25
648.471	180.25
648.676	190.25
648.88	174.25
649.085	181.25
649.289	189.25
649.494	180.25
649.698	190.25
649.903	186.25
650.107	178.25
650.312	168.25
650.516	150.25
650.721	176.25
650.925	160.25
651.13	162.25
651.334	167.25
651.539	163.25
651.743	153.25
651.947	140.25
652.152	160.25
652.356	148.25
652.56	155.25
652.764	156.25
652.969	150.25
653.173	135.25
653.377	134.25
653.581	142.25
653.785	135.25
653.99	154.25
654.194	153.25
654.398	138.25
654.602	156.25
654.806	134.25
655.01	148.25
655.214	144.25
655.418	141.25
655.622	145.25
655.826	142.25
656.03	141.25
656.234	140.25
656.438	138.25
656.642	148.25
656.846	139.25
657.049	134.25
657.253	129.25
657.457	137.25
657.661	124.25
657.865	123.25
658.068	129.25
658.272	123.25
658.476	119.25
658.68	102.25
658.883	113.25
659.087	109.25
659.291	116.25
659.494	103.25
659.698	103.25
659.901	104.25
660.105	108.25
660.309	102.25
660.512	84.25
660.716	105.25
660.919	100.25
661.123	101.25
661.326	106.25
661.53	91.25
661.733	96.25
661.936	99.25
662.14	86.25
662.343	92.25
662.546	110.25
662.75	92.25
662.953	99.25
663.156	78.25
663.36	84.25
663.563	95.25
663.766	85.25
663.969	86.25
664.173	79.25
664.376	87.25
664.579	83.25
664.782	93.25
664.985	94.25
665.188	78.25
665.391	87.25
665.594	79.25
665.797	93.25
666	76.25
666.203	84.25
666.406	74.25
666.609	90.25
666.812	95.25
667.015	81.25
667.218	82.25
667.421	82.25
667.624	72.25
667.827	90.25
668.03	94.25
668.232	76.25
668.435	84.25
668.638	95.25
668.841	93.25
669.043	102.25
669.246	90.25
669.449	98.25
669.651	88.25
669.854	75.25
670.057	73.25
670.259	95.25
670.462	81.25
670.665	86.25
670.867	84.25
671.07	94.25
671.272	90.25
671.475	92.25
671.677	89.25
671.88	79.25
672.082	90.25
672.284	85.25
672.487	88.25
672.689	75.25
672.892	80.25
