Data from 1973.PennyLincolnUp.Lamp.En5.5.200Scan.071719.P1.Changed Mount._HRD10591_15-45-49-853.txt Node
Date: Thu Jul 18 15:45:49 EDT 2019
User: cochatt
Spectrometer: HR+D1059
Trigger mode: 1
Integration Time (sec): 1.000000E-1
Scans to average: 1
Electric dark correction enabled: true
Nonlinearity correction enabled: false
Boxcar width: 0
XAxis mode: Wavelengths
Number of Pixels in Spectrum: 2048
>>>>>Begin Spectral Data<<<<<
223.165	-8.06
223.4	-8.06
223.635	-8.06
223.869	-24.06
224.104	-11.06
224.338	-1.06
224.573	-9.06
224.808	-22.06
225.042	-6.06
225.277	-11.06
225.511	-7.06
225.746	-11.06
225.98	15.94
226.215	9.94
226.449	25.94
226.683	11.94
226.918	23.94
227.152	22.94
227.387	47.94
227.621	43.94
227.856	43.94
228.09	58.94
228.324	46.94
228.559	61.94
228.793	61.94
229.027	98.94
229.262	98.94
229.496	109.94
229.73	115.94
229.964	133.94
230.199	121.94
230.433	117.94
230.667	110.94
230.901	125.94
231.136	123.94
231.37	123.94
231.604	128.94
231.838	104.94
232.072	117.94
232.306	110.94
232.541	107.94
232.775	112.94
233.009	115.94
233.243	106.94
233.477	118.94
233.711	123.94
233.945	124.94
234.179	124.94
234.413	123.94
234.647	111.94
234.881	123.94
235.115	123.94
235.349	135.94
235.583	131.94
235.817	133.94
236.051	131.94
236.285	136.94
236.519	121.94
236.753	145.94
236.987	135.94
237.221	185.94
237.455	213.94
237.689	179.94
237.922	131.94
238.156	129.94
238.39	134.94
238.624	132.94
238.858	125.94
239.091	122.94
239.325	121.94
239.559	138.94
239.793	161.94
240.027	134.94
240.26	143.94
240.494	168.94
240.728	157.94
240.961	164.94
241.195	155.94
241.429	133.94
241.662	145.94
241.896	143.94
242.13	138.94
242.363	146.94
242.597	140.94
242.83	135.94
243.064	144.94
243.298	128.94
243.531	139.94
243.765	145.94
243.998	147.94
244.232	144.94
244.465	149.94
244.699	160.94
244.932	160.94
245.166	154.94
245.399	156.94
245.633	172.94
245.866	140.94
246.099	156.94
246.333	174.94
246.566	156.94
246.8	146.94
247.033	150.94
247.266	165.94
247.5	165.94
247.733	174.94
247.966	174.94
248.2	180.94
248.433	188.94
248.666	173.94
248.899	192.94
249.133	191.94
249.366	198.94
249.599	195.94
249.832	184.94
250.066	186.94
250.299	188.94
250.532	200.94
250.765	193.94
250.998	209.94
251.231	205.94
251.465	227.94
251.698	206.94
251.931	200.94
252.164	184.94
252.397	199.94
252.63	197.94
252.863	219.94
253.096	214.94
253.329	235.94
253.562	239.94
253.795	221.94
254.028	197.94
254.261	230.94
254.494	212.94
254.727	255.94
254.96	262.94
255.193	240.94
255.426	259.94
255.659	246.94
255.892	225.94
256.124	224.94
256.357	241.94
256.59	233.94
256.823	207.94
257.056	209.94
257.289	206.94
257.521	222.94
257.754	228.94
257.987	208.94
258.22	216.94
258.452	212.94
258.685	216.94
258.918	209.94
259.151	210.94
259.383	223.94
259.616	213.94
259.849	219.94
260.081	244.94
260.314	257.94
260.547	253.94
260.779	252.94
261.012	242.94
261.244	236.94
261.477	244.94
261.71	235.94
261.942	234.94
262.175	219.94
262.407	235.94
262.64	234.94
262.872	225.94
263.105	213.94
263.337	234.94
263.57	228.94
263.802	217.94
264.035	223.94
264.267	249.94
264.499	213.94
264.732	221.94
264.964	235.94
265.197	231.94
265.429	241.94
265.661	232.94
265.894	225.94
266.126	239.94
266.358	243.94
266.591	234.94
266.823	227.94
267.055	237.94
267.287	236.94
267.52	232.94
267.752	238.94
267.984	243.94
268.216	240.94
268.448	243.94
268.681	236.94
268.913	261.94
269.145	280.94
269.377	289.94
269.609	301.94
269.841	284.94
270.073	292.94
270.306	275.94
270.538	307.94
270.77	323.94
271.002	313.94
271.234	299.94
271.466	292.94
271.698	317.94
271.93	323.94
272.162	301.94
272.394	332.94
272.626	304.94
272.858	291.94
273.09	292.94
273.322	289.94
273.553	290.94
273.785	273.94
274.017	277.94
274.249	273.94
274.481	281.94
274.713	275.94
274.945	279.94
275.176	302.94
275.408	291.94
275.64	279.94
275.872	283.94
276.104	288.94
276.335	304.94
276.567	288.94
276.799	308.94
277.031	304.94
277.262	324.94
277.494	312.94
277.726	292.94
277.957	286.94
278.189	288.94
278.421	291.94
278.652	282.94
278.884	302.94
279.115	292.94
279.347	292.94
279.579	280.94
279.81	295.94
280.042	292.94
280.273	293.94
280.505	300.94
280.736	300.94
280.968	296.94
281.199	296.94
281.431	293.94
281.662	294.94
281.894	295.94
282.125	301.94
282.356	297.94
282.588	323.94
282.819	313.94
283.051	304.94
283.282	312.94
283.513	295.94
283.745	301.94
283.976	310.94
284.207	304.94
284.439	319.94
284.67	302.94
284.901	297.94
285.132	305.94
285.364	300.94
285.595	317.94
285.826	308.94
286.057	307.94
286.288	327.94
286.52	282.94
286.751	320.94
286.982	313.94
287.213	302.94
287.444	317.94
287.675	307.94
287.906	315.94
288.138	339.94
288.369	314.94
288.6	329.94
288.831	318.94
289.062	324.94
289.293	303.94
289.524	321.94
289.755	319.94
289.986	314.94
290.217	329.94
290.448	320.94
290.679	328.94
290.91	327.94
291.141	331.94
291.371	315.94
291.602	330.94
291.833	321.94
292.064	318.94
292.295	324.94
292.526	311.94
292.757	314.94
292.987	317.94
293.218	317.94
293.449	333.94
293.68	329.94
293.91	323.94
294.141	321.94
294.372	343.94
294.603	340.94
294.833	312.94
295.064	341.94
295.295	323.94
295.525	338.94
295.756	330.94
295.987	344.94
296.217	338.94
296.448	356.94
296.679	346.94
296.909	331.94
297.14	343.94
297.37	327.94
297.601	334.94
297.831	328.94
298.062	346.94
298.292	328.94
298.523	346.94
298.753	326.94
298.984	343.94
299.214	344.94
299.445	348.94
299.675	345.94
299.905	343.94
300.136	346.94
300.366	338.94
300.597	345.94
300.827	363.94
301.057	353.94
301.288	367.94
301.518	349.94
301.748	342.94
301.979	381.94
302.209	367.94
302.439	373.94
302.669	361.94
302.9	348.94
303.13	351.94
303.36	380.94
303.59	363.94
303.82	377.94
304.051	367.94
304.281	356.94
304.511	367.94
304.741	380.94
304.971	379.94
305.201	361.94
305.431	345.94
305.661	356.94
305.891	344.94
306.121	356.94
306.352	380.94
306.582	361.94
306.812	375.94
307.042	362.94
307.272	364.94
307.502	367.94
307.731	371.94
307.961	352.94
308.191	361.94
308.421	377.94
308.651	363.94
308.881	375.94
309.111	369.94
309.341	363.94
309.571	378.94
309.8	382.94
310.03	389.94
310.26	371.94
310.49	390.94
310.72	387.94
310.949	398.94
311.179	410.94
311.409	400.94
311.639	384.94
311.868	395.94
312.098	401.94
312.328	395.94
312.557	390.94
312.787	415.94
313.017	427.94
313.246	407.94
313.476	405.94
313.706	407.94
313.935	421.94
314.165	420.94
314.394	419.94
314.624	404.94
314.853	417.94
315.083	410.94
315.312	404.94
315.542	417.94
315.771	388.94
316.001	390.94
316.23	414.94
316.46	380.94
316.689	399.94
316.919	395.94
317.148	396.94
317.377	426.94
317.607	420.94
317.836	413.94
318.065	388.94
318.295	399.94
318.524	417.94
318.753	400.94
318.983	399.94
319.212	397.94
319.441	416.94
319.67	399.94
319.9	395.94
320.129	394.94
320.358	403.94
320.587	396.94
320.816	411.94
321.046	411.94
321.275	434.94
321.504	416.94
321.733	431.94
321.962	437.94
322.191	440.94
322.42	445.94
322.649	447.94
322.878	446.94
323.108	460.94
323.337	460.94
323.566	466.94
323.795	483.94
324.024	533.94
324.253	602.94
324.482	790.94
324.71	1094.94
324.939	1587.94
325.168	1368.94
325.397	771.94
325.626	573.94
325.855	507.94
326.084	484.94
326.313	477.94
326.542	485.94
326.77	530.94
326.999	573.94
327.228	757.94
327.457	995.94
327.686	1228.94
327.914	847.94
328.143	632.94
328.372	563.94
328.6	522.94
328.829	525.94
329.058	540.94
329.287	529.94
329.515	519.94
329.744	495.94
329.972	496.94
330.201	522.94
330.43	539.94
330.658	556.94
330.887	567.94
331.115	576.94
331.344	505.94
331.572	480.94
331.801	453.94
332.03	493.94
332.258	510.94
332.486	481.94
332.715	477.94
332.943	495.94
333.172	507.94
333.4	503.94
333.629	513.94
333.857	538.94
334.085	538.94
334.314	512.94
334.542	555.94
334.771	545.94
334.999	545.94
335.227	508.94
335.455	501.94
335.684	485.94
335.912	493.94
336.14	477.94
336.369	496.94
336.597	477.94
336.825	488.94
337.053	494.94
337.281	472.94
337.51	474.94
337.738	480.94
337.966	460.94
338.194	469.94
338.422	477.94
338.65	472.94
338.878	487.94
339.106	481.94
339.334	463.94
339.562	480.94
339.79	469.94
340.018	456.94
340.246	451.94
340.474	465.94
340.702	445.94
340.93	452.94
341.158	449.94
341.386	449.94
341.614	447.94
341.842	457.94
342.07	453.94
342.298	456.94
342.526	441.94
342.754	431.94
342.981	431.94
343.209	445.94
343.437	464.94
343.665	461.94
343.893	481.94
344.12	521.94
344.348	481.94
344.576	481.94
344.804	492.94
345.031	490.94
345.259	477.94
345.487	458.94
345.714	444.94
345.942	421.94
346.17	464.94
346.397	427.94
346.625	415.94
346.853	450.94
347.08	444.94
347.308	410.94
347.535	444.94
347.763	442.94
347.99	451.94
348.218	455.94
348.445	433.94
348.673	454.94
348.9	437.94
349.128	444.94
349.355	410.94
349.583	422.94
349.81	415.94
350.037	431.94
350.265	429.94
350.492	441.94
350.72	413.94
350.947	427.94
351.174	408.94
351.402	426.94
351.629	415.94
351.856	445.94
352.083	443.94
352.311	427.94
352.538	450.94
352.765	441.94
352.992	426.94
353.22	409.94
353.447	417.94
353.674	441.94
353.901	425.94
354.128	412.94
354.355	427.94
354.583	423.94
354.81	411.94
355.037	415.94
355.264	411.94
355.491	423.94
355.718	411.94
355.945	415.94
356.172	424.94
356.399	413.94
356.626	427.94
356.853	412.94
357.08	395.94
357.307	417.94
357.534	418.94
357.761	404.94
357.988	416.94
358.215	413.94
358.441	420.94
358.668	418.94
358.895	416.94
359.122	423.94
359.349	435.94
359.576	433.94
359.802	443.94
360.029	462.94
360.256	455.94
360.483	439.94
360.709	436.94
360.936	439.94
361.163	425.94
361.39	430.94
361.616	437.94
361.843	451.94
362.07	431.94
362.296	437.94
362.523	417.94
362.749	412.94
362.976	428.94
363.203	425.94
363.429	401.94
363.656	417.94
363.882	421.94
364.109	400.94
364.335	415.94
364.562	411.94
364.788	400.94
365.015	419.94
365.241	435.94
365.468	413.94
365.694	424.94
365.92	424.94
366.147	389.94
366.373	406.94
366.599	396.94
366.826	401.94
367.052	429.94
367.278	419.94
367.505	423.94
367.731	445.94
367.957	404.94
368.184	437.94
368.41	439.94
368.636	428.94
368.862	443.94
369.089	431.94
369.315	432.94
369.541	427.94
369.767	412.94
369.993	435.94
370.219	426.94
370.445	427.94
370.672	439.94
370.898	427.94
371.124	432.94
371.35	439.94
371.576	427.94
371.802	428.94
372.028	426.94
372.254	420.94
372.48	429.94
372.706	440.94
372.932	432.94
373.158	422.94
373.384	413.94
373.61	439.94
373.835	436.94
374.061	431.94
374.287	427.94
374.513	431.94
374.739	452.94
374.965	425.94
375.191	462.94
375.416	461.94
375.642	439.94
375.868	441.94
376.094	421.94
376.319	460.94
376.545	433.94
376.771	429.94
376.997	443.94
377.222	441.94
377.448	423.94
377.674	424.94
377.899	421.94
378.125	412.94
378.35	441.94
378.576	412.94
378.802	431.94
379.027	430.94
379.253	433.94
379.478	441.94
379.704	425.94
379.929	429.94
380.155	439.94
380.38	428.94
380.606	451.94
380.831	440.94
381.057	442.94
381.282	440.94
381.507	430.94
381.733	451.94
381.958	426.94
382.184	429.94
382.409	435.94
382.634	446.94
382.86	447.94
383.085	437.94
383.31	461.94
383.535	452.94
383.761	459.94
383.986	462.94
384.211	453.94
384.436	461.94
384.662	452.94
384.887	463.94
385.112	476.94
385.337	478.94
385.562	491.94
385.787	472.94
386.013	512.94
386.238	492.94
386.463	499.94
386.688	491.94
386.913	464.94
387.138	483.94
387.363	499.94
387.588	476.94
387.813	488.94
388.038	479.94
388.263	488.94
388.488	478.94
388.713	491.94
388.938	482.94
389.163	483.94
389.387	475.94
389.612	470.94
389.837	488.94
390.062	469.94
390.287	464.94
390.512	456.94
390.736	484.94
390.961	486.94
391.186	494.94
391.411	503.94
391.636	496.94
391.86	523.94
392.085	519.94
392.31	511.94
392.534	510.94
392.759	509.94
392.984	521.94
393.208	491.94
393.433	525.94
393.658	504.94
393.882	487.94
394.107	496.94
394.331	494.94
394.556	511.94
394.78	489.94
395.005	507.94
395.229	472.94
395.454	515.94
395.678	519.94
395.903	525.94
396.127	523.94
396.352	549.94
396.576	510.94
396.801	521.94
397.025	495.94
397.249	494.94
397.474	541.94
397.698	526.94
397.922	541.94
398.147	558.94
398.371	565.94
398.595	549.94
398.82	566.94
399.044	573.94
399.268	617.94
399.492	655.94
399.717	715.94
399.941	737.94
400.165	729.94
400.389	702.94
400.613	636.94
400.837	612.94
401.062	581.94
401.286	574.94
401.51	564.94
401.734	575.94
401.958	549.94
402.182	577.94
402.406	572.94
402.63	569.94
402.854	597.94
403.078	617.94
403.302	582.94
403.526	609.94
403.75	597.94
403.974	591.94
404.198	624.94
404.422	604.94
404.645	616.94
404.869	633.94
405.093	631.94
405.317	661.94
405.541	691.94
405.765	663.94
405.988	602.94
406.212	653.94
406.436	617.94
406.66	645.94
406.883	644.94
407.107	656.94
407.331	705.94
407.555	750.94
407.778	743.94
408.002	713.94
408.226	648.94
408.449	633.94
408.673	624.94
408.896	647.94
409.12	668.94
409.344	657.94
409.567	614.94
409.791	599.94
410.014	619.94
410.238	596.94
410.461	609.94
410.685	604.94
410.908	603.94
411.132	616.94
411.355	665.94
411.578	636.94
411.802	596.94
412.025	575.94
412.249	593.94
412.472	614.94
412.695	651.94
412.919	618.94
413.142	591.94
413.365	557.94
413.589	582.94
413.812	561.94
414.035	587.94
414.258	577.94
414.482	572.94
414.705	559.94
414.928	583.94
415.151	541.94
415.374	549.94
415.597	565.94
415.821	548.94
416.044	567.94
416.267	576.94
416.49	563.94
416.713	563.94
416.936	563.94
417.159	553.94
417.382	560.94
417.605	585.94
417.828	553.94
418.051	566.94
418.274	570.94
418.497	558.94
418.72	558.94
418.943	549.94
419.166	583.94
419.389	608.94
419.611	609.94
419.834	593.94
420.057	607.94
420.28	584.94
420.503	564.94
420.726	580.94
420.948	590.94
421.171	603.94
421.394	611.94
421.617	587.94
421.839	572.94
422.062	565.94
422.285	600.94
422.507	618.94
422.73	679.94
422.953	667.94
423.175	620.94
423.398	606.94
423.621	599.94
423.843	615.94
424.066	621.94
424.288	626.94
424.511	612.94
424.733	643.94
424.956	735.94
425.178	678.94
425.401	703.94
425.623	703.94
425.846	620.94
426.068	615.94
426.291	595.94
426.513	580.94
426.735	577.94
426.958	636.94
427.18	681.94
427.402	796.94
427.625	881.94
427.847	744.94
428.069	669.94
428.292	610.94
428.514	569.94
428.736	581.94
428.958	553.94
429.181	557.94
429.403	535.94
429.625	541.94
429.847	571.94
430.069	605.94
430.292	634.94
430.514	558.94
430.736	528.94
430.958	548.94
431.18	499.94
431.402	531.94
431.624	505.94
431.846	516.94
432.068	536.94
432.29	516.94
432.512	533.94
432.734	537.94
432.956	517.94
433.178	537.94
433.4	533.94
433.622	547.94
433.844	531.94
434.066	545.94
434.287	538.94
434.509	542.94
434.731	561.94
434.953	549.94
435.175	570.94
435.397	590.94
435.618	600.94
435.84	621.94
436.062	693.94
436.284	743.94
436.505	657.94
436.727	594.94
436.949	559.94
437.17	549.94
437.392	532.94
437.614	559.94
437.835	549.94
438.057	655.94
438.278	700.94
438.5	715.94
438.721	787.94
438.943	771.94
439.165	611.94
439.386	571.94
439.608	590.94
439.829	598.94
440.05	607.94
440.272	610.94
440.493	587.94
440.715	564.94
440.936	563.94
441.158	560.94
441.379	541.94
441.6	567.94
441.822	621.94
442.043	628.94
442.264	687.94
442.486	722.94
442.707	633.94
442.928	605.94
443.149	600.94
443.371	639.94
443.592	643.94
443.813	729.94
444.034	795.94
444.255	707.94
444.476	638.94
444.698	637.94
444.919	646.94
445.14	741.94
445.361	675.94
445.582	639.94
445.803	688.94
446.024	743.94
446.245	745.94
446.466	680.94
446.687	605.94
446.908	590.94
447.129	539.94
447.35	543.94
447.571	528.94
447.792	504.94
448.013	541.94
448.234	536.94
448.455	587.94
448.675	690.94
448.896	769.94
449.117	675.94
449.338	639.94
449.559	728.94
449.779	800.94
450	688.94
450.221	572.94
450.442	534.94
450.662	522.94
450.883	499.94
451.104	511.94
451.324	508.94
451.545	493.94
451.766	501.94
451.986	499.94
452.207	480.94
452.428	480.94
452.648	489.94
452.869	479.94
453.089	488.94
453.31	509.94
453.53	481.94
453.751	484.94
453.971	504.94
454.192	485.94
454.412	483.94
454.633	468.94
454.853	488.94
455.073	465.94
455.294	477.94
455.514	543.94
455.734	537.94
455.955	467.94
456.175	478.94
456.395	472.94
456.616	453.94
456.836	464.94
457.056	465.94
457.276	447.94
457.497	463.94
457.717	459.94
457.937	458.94
458.157	463.94
458.377	480.94
458.598	500.94
458.818	542.94
459.038	594.94
459.258	600.94
459.478	557.94
459.698	525.94
459.918	529.94
460.138	539.94
460.358	549.94
460.578	579.94
460.798	561.94
461.018	549.94
461.238	597.94
461.458	548.94
461.678	560.94
461.898	555.94
462.118	571.94
462.338	590.94
462.558	593.94
462.777	579.94
462.997	622.94
463.217	675.94
463.437	643.94
463.657	617.94
463.876	599.94
464.096	612.94
464.316	612.94
464.536	612.94
464.755	596.94
464.975	603.94
465.195	591.94
465.414	619.94
465.634	591.94
465.854	545.94
466.073	529.94
466.293	529.94
466.512	537.94
466.732	516.94
466.951	505.94
467.171	510.94
467.391	521.94
467.61	527.94
467.829	493.94
468.049	517.94
468.268	499.94
468.488	494.94
468.707	474.94
468.927	485.94
469.146	487.94
469.365	484.94
469.585	494.94
469.804	511.94
470.023	549.94
470.243	507.94
470.462	500.94
470.681	531.94
470.901	519.94
471.12	501.94
471.339	504.94
471.558	504.94
471.777	492.94
471.997	503.94
472.216	511.94
472.435	519.94
472.654	492.94
472.873	478.94
473.092	507.94
473.311	500.94
473.53	483.94
473.749	526.94
473.968	539.94
474.187	614.94
474.406	634.94
474.625	545.94
474.844	504.94
475.063	490.94
475.282	507.94
475.501	510.94
475.72	512.94
475.939	504.94
476.158	522.94
476.377	507.94
476.596	500.94
476.814	523.94
477.033	511.94
477.252	529.94
477.471	566.94
477.69	538.94
477.908	530.94
478.127	575.94
478.346	553.94
478.564	582.94
478.783	583.94
479.002	617.94
479.22	602.94
479.439	583.94
479.658	596.94
479.876	610.94
480.095	629.94
480.313	640.94
480.532	647.94
480.751	645.94
480.969	624.94
481.188	665.94
481.406	643.94
481.624	619.94
481.843	586.94
482.061	595.94
482.28	563.94
482.498	600.94
482.717	587.94
482.935	597.94
483.153	581.94
483.372	587.94
483.59	574.94
483.808	598.94
484.027	585.94
484.245	584.94
484.463	580.94
484.681	596.94
484.9	595.94
485.118	612.94
485.336	605.94
485.554	581.94
485.772	611.94
485.99	606.94
486.209	602.94
486.427	598.94
486.645	600.94
486.863	628.94
487.081	603.94
487.299	601.94
487.517	614.94
487.735	621.94
487.953	596.94
488.171	615.94
488.389	608.94
488.607	624.94
488.825	636.94
489.043	625.94
489.261	613.94
489.479	620.94
489.696	632.94
489.914	645.94
490.132	629.94
490.35	639.94
490.568	629.94
490.786	641.94
491.003	667.94
491.221	665.94
491.439	667.94
491.657	685.94
491.874	684.94
492.092	727.94
492.31	708.94
492.527	692.94
492.745	708.94
492.963	699.94
493.18	716.94
493.398	717.94
493.615	713.94
493.833	711.94
494.05	745.94
494.268	720.94
494.485	717.94
494.703	737.94
494.92	712.94
495.138	710.94
495.355	729.94
495.573	697.94
495.79	732.94
496.008	737.94
496.225	728.94
496.442	762.94
496.66	721.94
496.877	728.94
497.094	704.94
497.312	746.94
497.529	752.94
497.746	781.94
497.963	789.94
498.181	793.94
498.398	837.94
498.615	844.94
498.832	865.94
499.049	894.94
499.267	943.94
499.484	1004.94
499.701	1042.94
499.918	1103.94
500.135	1196.94
500.352	1283.94
500.569	1303.94
500.786	1313.94
501.003	1269.94
501.22	1184.94
501.437	1119.94
501.654	1077.94
501.871	1003.94
502.088	967.94
502.305	908.94
502.522	876.94
502.739	866.94
502.956	829.94
503.172	780.94
503.389	756.94
503.606	776.94
503.823	752.94
504.04	761.94
504.256	752.94
504.473	761.94
504.69	769.94
504.907	769.94
505.123	745.94
505.34	706.94
505.557	709.94
505.773	684.94
505.99	707.94
506.207	668.94
506.423	679.94
506.64	652.94
506.856	625.94
507.073	671.94
507.289	654.94
507.506	655.94
507.722	672.94
507.939	691.94
508.155	669.94
508.372	648.94
508.588	617.94
508.805	623.94
509.021	639.94
509.238	645.94
509.454	654.94
509.67	638.94
509.887	625.94
510.103	645.94
510.319	630.94
510.536	683.94
510.752	957.94
510.968	796.94
511.184	638.94
511.401	593.94
511.617	608.94
511.833	607.94
512.049	601.94
512.265	599.94
512.481	598.94
512.698	578.94
512.914	590.94
513.13	586.94
513.346	576.94
513.562	600.94
513.778	592.94
513.994	583.94
514.21	582.94
514.426	622.94
514.642	614.94
514.858	665.94
515.074	692.94
515.29	730.94
515.506	949.94
515.721	855.94
515.937	672.94
516.153	639.94
516.369	632.94
516.585	651.94
516.801	630.94
517.016	643.94
517.232	675.94
517.448	679.94
517.664	701.94
517.879	680.94
518.095	677.94
518.311	688.94
518.527	671.94
518.742	640.94
518.958	628.94
519.173	615.94
519.389	631.94
519.605	604.94
519.82	622.94
520.036	608.94
520.251	619.94
520.467	614.94
520.682	619.94
520.898	621.94
521.113	631.94
521.329	670.94
521.544	690.94
521.76	803.94
521.975	1161.94
522.19	1127.94
522.406	723.94
522.621	608.94
522.836	595.94
523.052	558.94
523.267	541.94
523.482	569.94
523.698	556.94
523.913	544.94
524.128	529.94
524.343	536.94
524.559	517.94
524.774	513.94
524.989	519.94
525.204	526.94
525.419	526.94
525.634	515.94
525.849	506.94
526.064	502.94
526.28	519.94
526.495	529.94
526.71	516.94
526.925	528.94
527.14	501.94
527.355	493.94
527.57	521.94
527.785	491.94
527.999	504.94
528.214	489.94
528.429	519.94
528.644	513.94
528.859	504.94
529.074	502.94
529.289	515.94
529.503	526.94
529.718	539.94
529.933	515.94
530.148	527.94
530.363	512.94
530.577	496.94
530.792	492.94
531.007	490.94
531.221	489.94
531.436	477.94
531.651	501.94
531.865	491.94
532.08	517.94
532.295	501.94
532.509	495.94
532.724	458.94
532.938	481.94
533.153	503.94
533.367	517.94
533.582	511.94
533.796	505.94
534.011	503.94
534.225	497.94
534.44	480.94
534.654	483.94
534.868	469.94
535.083	473.94
535.297	463.94
535.511	487.94
535.726	491.94
535.94	481.94
536.154	498.94
536.369	475.94
536.583	477.94
536.797	461.94
537.011	481.94
537.225	476.94
537.44	459.94
537.654	496.94
537.868	469.94
538.082	480.94
538.296	475.94
538.51	461.94
538.724	466.94
538.938	478.94
539.153	464.94
539.367	486.94
539.581	468.94
539.795	476.94
540.009	465.94
540.222	464.94
540.436	459.94
540.65	479.94
540.864	480.94
541.078	488.94
541.292	489.94
541.506	496.94
541.72	455.94
541.934	485.94
542.147	475.94
542.361	459.94
542.575	472.94
542.789	466.94
543.002	474.94
543.216	473.94
543.43	457.94
543.644	481.94
543.857	460.94
544.071	467.94
544.285	482.94
544.498	472.94
544.712	454.94
544.925	474.94
545.139	460.94
545.352	474.94
545.566	461.94
545.779	471.94
545.993	480.94
546.206	445.94
546.42	485.94
546.633	497.94
546.847	463.94
547.06	462.94
547.274	436.94
547.487	453.94
547.7	462.94
547.914	448.94
548.127	445.94
548.34	432.94
548.554	455.94
548.767	462.94
548.98	484.94
549.193	469.94
549.407	465.94
549.62	494.94
549.833	458.94
550.046	462.94
550.259	456.94
550.473	441.94
550.686	462.94
550.899	451.94
551.112	468.94
551.325	443.94
551.538	447.94
551.751	442.94
551.964	444.94
552.177	466.94
552.39	456.94
552.603	456.94
552.816	466.94
553.029	483.94
553.242	476.94
553.455	476.94
553.667	505.94
553.88	471.94
554.093	492.94
554.306	452.94
554.519	465.94
554.732	471.94
554.944	463.94
555.157	458.94
555.37	447.94
555.583	443.94
555.795	417.94
556.008	435.94
556.221	444.94
556.433	422.94
556.646	412.94
556.859	415.94
557.071	412.94
557.284	411.94
557.496	430.94
557.709	396.94
557.921	412.94
558.134	397.94
558.346	412.94
558.559	412.94
558.771	416.94
558.984	408.94
559.196	393.94
559.409	403.94
559.621	431.94
559.833	435.94
560.046	403.94
560.258	408.94
560.47	401.94
560.683	387.94
560.895	389.94
561.107	410.94
561.32	387.94
561.532	399.94
561.744	402.94
561.956	396.94
562.168	408.94
562.381	394.94
562.593	389.94
562.805	424.94
563.017	408.94
563.229	425.94
563.441	406.94
563.653	425.94
563.865	415.94
564.077	412.94
564.289	398.94
564.501	418.94
564.713	425.94
564.925	421.94
565.137	452.94
565.349	453.94
565.561	468.94
565.773	449.94
565.985	499.94
566.197	498.94
566.408	508.94
566.62	547.94
566.832	560.94
567.044	553.94
567.255	567.94
567.467	576.94
567.679	596.94
567.891	619.94
568.102	624.94
568.314	595.94
568.526	568.94
568.737	548.94
568.949	509.94
569.161	524.94
569.372	476.94
569.584	455.94
569.795	460.94
570.007	447.94
570.218	452.94
570.43	425.94
570.641	393.94
570.853	434.94
571.064	411.94
571.276	423.94
571.487	417.94
571.698	408.94
571.91	389.94
572.121	398.94
572.333	385.94
572.544	356.94
572.755	377.94
572.966	359.94
573.178	365.94
573.389	375.94
573.6	372.94
573.811	345.94
574.023	365.94
574.234	361.94
574.445	365.94
574.656	347.94
574.867	347.94
575.078	371.94
575.289	365.94
575.501	363.94
575.712	363.94
575.923	352.94
576.134	346.94
576.345	333.94
576.556	331.94
576.767	362.94
576.978	358.94
577.188	351.94
577.399	338.94
577.61	320.94
577.821	331.94
578.032	345.94
578.243	371.94
578.454	465.94
578.665	381.94
578.875	339.94
579.086	335.94
579.297	326.94
579.508	319.94
579.718	337.94
579.929	328.94
580.14	320.94
580.35	304.94
580.561	331.94
580.772	333.94
580.982	311.94
581.193	322.94
581.403	329.94
581.614	310.94
581.825	325.94
582.035	326.94
582.246	315.94
582.456	308.94
582.667	309.94
582.877	321.94
583.087	308.94
583.298	314.94
583.508	315.94
583.719	316.94
583.929	314.94
584.139	319.94
584.35	325.94
584.56	323.94
584.77	312.94
584.981	297.94
585.191	321.94
585.401	313.94
585.611	322.94
585.821	305.94
586.032	316.94
586.242	310.94
586.452	324.94
586.662	314.94
586.872	319.94
587.082	312.94
587.292	312.94
587.502	292.94
587.713	297.94
587.923	288.94
588.133	311.94
588.343	302.94
588.553	301.94
588.762	310.94
588.972	303.94
589.182	320.94
589.392	308.94
589.602	311.94
589.812	299.94
590.022	312.94
590.232	325.94
590.441	307.94
590.651	332.94
590.861	296.94
591.071	301.94
591.281	307.94
591.49	318.94
591.7	298.94
591.91	311.94
592.119	327.94
592.329	323.94
592.539	327.94
592.748	330.94
592.958	349.94
593.167	366.94
593.377	359.94
593.587	369.94
593.796	348.94
594.006	353.94
594.215	358.94
594.424	344.94
594.634	358.94
594.843	349.94
595.053	353.94
595.262	334.94
595.472	325.94
595.681	322.94
595.89	305.94
596.1	307.94
596.309	314.94
596.518	319.94
596.727	307.94
596.937	294.94
597.146	307.94
597.355	307.94
597.564	290.94
597.774	304.94
597.983	275.94
598.192	276.94
598.401	286.94
598.61	282.94
598.819	296.94
599.028	260.94
599.237	275.94
599.446	279.94
599.655	287.94
599.864	282.94
600.073	291.94
600.282	268.94
600.491	259.94
600.7	269.94
600.909	281.94
601.118	256.94
601.327	283.94
601.536	272.94
601.745	273.94
601.953	298.94
602.162	268.94
602.371	249.94
602.58	261.94
602.789	263.94
602.997	286.94
603.206	242.94
603.415	260.94
603.623	272.94
603.832	279.94
604.041	272.94
604.249	260.94
604.458	260.94
604.666	253.94
604.875	258.94
605.084	269.94
605.292	253.94
605.501	258.94
605.709	253.94
605.918	261.94
606.126	254.94
606.334	243.94
606.543	246.94
606.751	262.94
606.96	264.94
607.168	246.94
607.376	254.94
607.585	249.94
607.793	253.94
608.001	252.94
608.21	259.94
608.418	259.94
608.626	269.94
608.834	269.94
609.043	261.94
609.251	256.94
609.459	252.94
609.667	247.94
609.875	267.94
610.083	245.94
610.291	247.94
610.499	253.94
610.707	243.94
610.916	255.94
611.124	247.94
611.332	261.94
611.54	256.94
611.748	256.94
611.955	244.94
612.163	251.94
612.371	263.94
612.579	242.94
612.787	253.94
612.995	246.94
613.203	268.94
613.411	255.94
613.618	247.94
613.826	233.94
614.034	270.94
614.242	237.94
614.449	252.94
614.657	253.94
614.865	240.94
615.072	239.94
615.28	238.94
615.488	236.94
615.695	238.94
615.903	238.94
616.111	233.94
616.318	246.94
616.526	259.94
616.733	265.94
616.941	246.94
617.148	260.94
617.356	247.94
617.563	250.94
617.771	243.94
617.978	239.94
618.185	249.94
618.393	253.94
618.6	247.94
618.807	251.94
619.015	234.94
619.222	250.94
619.429	255.94
619.637	236.94
619.844	252.94
620.051	238.94
620.258	251.94
620.466	236.94
620.673	226.94
620.88	231.94
621.087	244.94
621.294	239.94
621.501	227.94
621.708	229.94
621.915	256.94
622.122	231.94
622.329	255.94
622.536	237.94
622.743	224.94
622.95	216.94
623.157	236.94
623.364	227.94
623.571	235.94
623.778	218.94
623.985	224.94
624.192	215.94
624.399	233.94
624.606	229.94
624.812	235.94
625.019	219.94
625.226	232.94
625.433	209.94
625.639	228.94
625.846	209.94
626.053	222.94
626.259	222.94
626.466	212.94
626.673	221.94
626.879	218.94
627.086	220.94
627.293	204.94
627.499	210.94
627.706	220.94
627.912	215.94
628.119	224.94
628.325	215.94
628.532	215.94
628.738	191.94
628.945	213.94
629.151	200.94
629.357	207.94
629.564	210.94
629.77	201.94
629.976	214.94
630.183	211.94
630.389	194.94
630.595	203.94
630.802	218.94
631.008	186.94
631.214	199.94
631.42	225.94
631.627	202.94
631.833	209.94
632.039	208.94
632.245	214.94
632.451	202.94
632.657	207.94
632.863	195.94
633.069	210.94
633.275	186.94
633.481	191.94
633.688	183.94
633.893	216.94
634.099	195.94
634.305	188.94
634.511	190.94
634.717	201.94
634.923	184.94
635.129	208.94
635.335	207.94
635.541	182.94
635.747	176.94
635.952	200.94
636.158	177.94
636.364	193.94
636.57	205.94
636.775	194.94
636.981	193.94
637.187	187.94
637.392	188.94
637.598	175.94
637.804	165.94
638.009	165.94
638.215	179.94
638.421	191.94
638.626	195.94
638.832	180.94
639.037	181.94
639.243	170.94
639.448	197.94
639.654	188.94
639.859	181.94
640.065	185.94
640.27	182.94
640.475	187.94
640.681	168.94
640.886	194.94
641.091	169.94
641.297	203.94
641.502	168.94
641.707	163.94
641.913	175.94
642.118	191.94
642.323	172.94
642.528	174.94
642.733	184.94
642.939	191.94
643.144	187.94
643.349	169.94
643.554	176.94
643.759	174.94
643.964	177.94
644.169	167.94
644.374	182.94
644.579	176.94
644.784	190.94
644.989	171.94
645.194	187.94
645.399	183.94
645.604	161.94
645.809	187.94
646.014	167.94
646.219	159.94
646.423	187.94
646.628	183.94
646.833	177.94
647.038	175.94
647.243	167.94
647.447	182.94
647.652	183.94
647.857	166.94
648.062	184.94
648.266	197.94
648.471	172.94
648.676	176.94
648.88	181.94
649.085	189.94
649.289	173.94
649.494	181.94
649.698	166.94
649.903	172.94
650.107	163.94
650.312	176.94
650.516	162.94
650.721	164.94
650.925	175.94
651.13	161.94
651.334	166.94
651.539	151.94
651.743	145.94
651.947	157.94
652.152	148.94
652.356	163.94
652.56	144.94
652.764	150.94
652.969	156.94
653.173	163.94
653.377	144.94
653.581	149.94
653.785	144.94
653.99	152.94
654.194	144.94
654.398	136.94
654.602	144.94
654.806	130.94
655.01	153.94
655.214	141.94
655.418	145.94
655.622	123.94
655.826	143.94
656.03	134.94
656.234	135.94
656.438	142.94
656.642	141.94
656.846	137.94
657.049	140.94
657.253	125.94
657.457	121.94
657.661	112.94
657.865	111.94
658.068	117.94
658.272	115.94
658.476	126.94
658.68	110.94
658.883	107.94
659.087	106.94
659.291	107.94
659.494	99.94
659.698	114.94
659.901	96.94
660.105	100.94
660.309	101.94
660.512	100.94
660.716	102.94
660.919	101.94
661.123	85.94
661.326	87.94
661.53	85.94
661.733	107.94
661.936	88.94
662.14	94.94
662.343	100.94
662.546	97.94
662.75	74.94
662.953	85.94
663.156	89.94
663.36	86.94
663.563	78.94
663.766	84.94
663.969	97.94
664.173	89.94
664.376	84.94
664.579	97.94
664.782	99.94
664.985	79.94
665.188	75.94
665.391	84.94
665.594	83.94
665.797	85.94
666	85.94
666.203	84.94
666.406	78.94
666.609	78.94
666.812	91.94
667.015	89.94
667.218	80.94
667.421	87.94
667.624	85.94
667.827	93.94
668.03	78.94
668.232	82.94
668.435	81.94
668.638	78.94
668.841	91.94
669.043	76.94
669.246	74.94
669.449	89.94
669.651	82.94
669.854	91.94
670.057	90.94
670.259	91.94
670.462	81.94
670.665	85.94
670.867	85.94
671.07	83.94
671.272	87.94
671.475	76.94
671.677	91.94
671.88	84.94
672.082	92.94
672.284	85.94
672.487	103.94
672.689	91.94
672.892	84.94
