Data from 1973.PennyLincolnUp.Lamp.En5.5.200Scan.071719.P1.Changed Mount._HRD10591_15-44-46-852.txt Node
Date: Thu Jul 18 15:44:46 EDT 2019
User: cochatt
Spectrometer: HR+D1059
Trigger mode: 1
Integration Time (sec): 1.000000E-1
Scans to average: 1
Electric dark correction enabled: true
Nonlinearity correction enabled: false
Boxcar width: 0
XAxis mode: Wavelengths
Number of Pixels in Spectrum: 2048
>>>>>Begin Spectral Data<<<<<
223.165	-17.12
223.4	-17.12
223.635	-17.12
223.869	-16.12
224.104	-21.12
224.338	-13.12
224.573	-18.12
224.808	-26.12
225.042	-2.12
225.277	1.88
225.511	3.88
225.746	-0.12
225.98	12.88
226.215	13.88
226.449	8.88
226.683	23.88
226.918	25.88
227.152	22.88
227.387	41.88
227.621	17.88
227.856	49.88
228.09	50.88
228.324	59.88
228.559	62.88
228.793	66.88
229.027	103.88
229.262	98.88
229.496	126.88
229.73	131.88
229.964	130.88
230.199	114.88
230.433	106.88
230.667	108.88
230.901	103.88
231.136	112.88
231.37	114.88
231.604	120.88
231.838	114.88
232.072	105.88
232.306	117.88
232.541	125.88
232.775	128.88
233.009	111.88
233.243	113.88
233.477	111.88
233.711	117.88
233.945	117.88
234.179	125.88
234.413	123.88
234.647	133.88
234.881	118.88
235.115	116.88
235.349	132.88
235.583	131.88
235.817	123.88
236.051	126.88
236.285	122.88
236.519	134.88
236.753	139.88
236.987	150.88
237.221	185.88
237.455	201.88
237.689	171.88
237.922	153.88
238.156	129.88
238.39	115.88
238.624	130.88
238.858	128.88
239.091	126.88
239.325	116.88
239.559	129.88
239.793	131.88
240.027	131.88
240.26	135.88
240.494	159.88
240.728	163.88
240.961	151.88
241.195	136.88
241.429	136.88
241.662	131.88
241.896	133.88
242.13	132.88
242.363	138.88
242.597	133.88
242.83	126.88
243.064	143.88
243.298	145.88
243.531	157.88
243.765	141.88
243.998	138.88
244.232	125.88
244.465	137.88
244.699	149.88
244.932	147.88
245.166	154.88
245.399	155.88
245.633	145.88
245.866	145.88
246.099	167.88
246.333	145.88
246.566	138.88
246.8	173.88
247.033	172.88
247.266	157.88
247.5	172.88
247.733	168.88
247.966	172.88
248.2	196.88
248.433	171.88
248.666	188.88
248.899	186.88
249.133	202.88
249.366	194.88
249.599	197.88
249.832	185.88
250.066	188.88
250.299	198.88
250.532	187.88
250.765	193.88
250.998	206.88
251.231	230.88
251.465	220.88
251.698	214.88
251.931	192.88
252.164	200.88
252.397	187.88
252.63	202.88
252.863	217.88
253.096	202.88
253.329	222.88
253.562	224.88
253.795	213.88
254.028	219.88
254.261	201.88
254.494	222.88
254.727	240.88
254.96	272.88
255.193	282.88
255.426	247.88
255.659	233.88
255.892	248.88
256.124	246.88
256.357	257.88
256.59	220.88
256.823	200.88
257.056	216.88
257.289	201.88
257.521	216.88
257.754	222.88
257.987	228.88
258.22	219.88
258.452	211.88
258.685	210.88
258.918	227.88
259.151	202.88
259.383	205.88
259.616	226.88
259.849	222.88
260.081	241.88
260.314	260.88
260.547	273.88
260.779	254.88
261.012	238.88
261.244	240.88
261.477	238.88
261.71	235.88
261.942	232.88
262.175	237.88
262.407	232.88
262.64	225.88
262.872	218.88
263.105	213.88
263.337	251.88
263.57	229.88
263.802	220.88
264.035	226.88
264.267	233.88
264.499	235.88
264.732	233.88
264.964	219.88
265.197	218.88
265.429	222.88
265.661	232.88
265.894	239.88
266.126	234.88
266.358	239.88
266.591	222.88
266.823	254.88
267.055	230.88
267.287	249.88
267.52	253.88
267.752	252.88
267.984	243.88
268.216	240.88
268.448	231.88
268.681	257.88
268.913	265.88
269.145	294.88
269.377	301.88
269.609	282.88
269.841	276.88
270.073	278.88
270.306	324.88
270.538	321.88
270.77	318.88
271.002	309.88
271.234	302.88
271.466	313.88
271.698	325.88
271.93	326.88
272.162	320.88
272.394	306.88
272.626	293.88
272.858	299.88
273.09	284.88
273.322	281.88
273.553	277.88
273.785	269.88
274.017	282.88
274.249	295.88
274.481	282.88
274.713	276.88
274.945	270.88
275.176	291.88
275.408	271.88
275.64	282.88
275.872	285.88
276.104	293.88
276.335	305.88
276.567	292.88
276.799	287.88
277.031	313.88
277.262	336.88
277.494	338.88
277.726	303.88
277.957	312.88
278.189	281.88
278.421	287.88
278.652	279.88
278.884	292.88
279.115	281.88
279.347	291.88
279.579	277.88
279.81	274.88
280.042	302.88
280.273	308.88
280.505	308.88
280.736	311.88
280.968	289.88
281.199	307.88
281.431	304.88
281.662	307.88
281.894	321.88
282.125	294.88
282.356	305.88
282.588	305.88
282.819	322.88
283.051	297.88
283.282	286.88
283.513	305.88
283.745	311.88
283.976	309.88
284.207	308.88
284.439	313.88
284.67	324.88
284.901	305.88
285.132	301.88
285.364	328.88
285.595	308.88
285.826	316.88
286.057	319.88
286.288	308.88
286.52	312.88
286.751	328.88
286.982	321.88
287.213	327.88
287.444	318.88
287.675	325.88
287.906	327.88
288.138	338.88
288.369	359.88
288.6	356.88
288.831	335.88
289.062	327.88
289.293	332.88
289.524	333.88
289.755	325.88
289.986	329.88
290.217	339.88
290.448	323.88
290.679	329.88
290.91	335.88
291.141	313.88
291.371	305.88
291.602	326.88
291.833	329.88
292.064	333.88
292.295	324.88
292.526	331.88
292.757	326.88
292.987	341.88
293.218	333.88
293.449	354.88
293.68	321.88
293.91	317.88
294.141	314.88
294.372	318.88
294.603	335.88
294.833	330.88
295.064	351.88
295.295	323.88
295.525	310.88
295.756	326.88
295.987	333.88
296.217	365.88
296.448	351.88
296.679	345.88
296.909	336.88
297.14	326.88
297.37	343.88
297.601	352.88
297.831	350.88
298.062	372.88
298.292	329.88
298.523	333.88
298.753	339.88
298.984	345.88
299.214	346.88
299.445	342.88
299.675	345.88
299.905	356.88
300.136	355.88
300.366	345.88
300.597	355.88
300.827	341.88
301.057	362.88
301.288	353.88
301.518	347.88
301.748	351.88
301.979	403.88
302.209	374.88
302.439	357.88
302.669	379.88
302.9	359.88
303.13	353.88
303.36	367.88
303.59	373.88
303.82	366.88
304.051	354.88
304.281	391.88
304.511	380.88
304.741	366.88
304.971	394.88
305.201	381.88
305.431	356.88
305.661	360.88
305.891	357.88
306.121	344.88
306.352	375.88
306.582	377.88
306.812	359.88
307.042	392.88
307.272	375.88
307.502	373.88
307.731	369.88
307.961	378.88
308.191	369.88
308.421	366.88
308.651	375.88
308.881	361.88
309.111	372.88
309.341	387.88
309.571	374.88
309.8	383.88
310.03	385.88
310.26	371.88
310.49	385.88
310.72	439.88
310.949	402.88
311.179	421.88
311.409	396.88
311.639	409.88
311.868	387.88
312.098	401.88
312.328	411.88
312.557	415.88
312.787	397.88
313.017	425.88
313.246	410.88
313.476	393.88
313.706	406.88
313.935	423.88
314.165	423.88
314.394	442.88
314.624	393.88
314.853	406.88
315.083	401.88
315.312	411.88
315.542	408.88
315.771	401.88
316.001	405.88
316.23	405.88
316.46	400.88
316.689	403.88
316.919	417.88
317.148	402.88
317.377	395.88
317.607	416.88
317.836	410.88
318.065	416.88
318.295	405.88
318.524	391.88
318.753	410.88
318.983	398.88
319.212	419.88
319.441	400.88
319.67	394.88
319.9	421.88
320.129	414.88
320.358	392.88
320.587	403.88
320.816	424.88
321.046	426.88
321.275	421.88
321.504	415.88
321.733	428.88
321.962	426.88
322.191	434.88
322.42	435.88
322.649	429.88
322.878	424.88
323.108	444.88
323.337	461.88
323.566	482.88
323.795	492.88
324.024	515.88
324.253	590.88
324.482	800.88
324.71	1128.88
324.939	1541.88
325.168	1383.88
325.397	773.88
325.626	577.88
325.855	505.88
326.084	478.88
326.313	469.88
326.542	498.88
326.77	516.88
326.999	582.88
327.228	725.88
327.457	1013.88
327.686	1208.88
327.914	857.88
328.143	612.88
328.372	582.88
328.6	570.88
328.829	524.88
329.058	523.88
329.287	528.88
329.515	535.88
329.744	487.88
329.972	497.88
330.201	521.88
330.43	534.88
330.658	549.88
330.887	569.88
331.115	551.88
331.344	514.88
331.572	502.88
331.801	508.88
332.03	520.88
332.258	499.88
332.486	474.88
332.715	482.88
332.943	489.88
333.172	520.88
333.4	498.88
333.629	538.88
333.857	538.88
334.085	547.88
334.314	559.88
334.542	564.88
334.771	564.88
334.999	551.88
335.227	496.88
335.455	522.88
335.684	502.88
335.912	517.88
336.14	472.88
336.369	471.88
336.597	477.88
336.825	495.88
337.053	472.88
337.281	481.88
337.51	473.88
337.738	472.88
337.966	467.88
338.194	450.88
338.422	463.88
338.65	474.88
338.878	465.88
339.106	475.88
339.334	474.88
339.562	485.88
339.79	440.88
340.018	470.88
340.246	459.88
340.474	445.88
340.702	454.88
340.93	447.88
341.158	463.88
341.386	479.88
341.614	462.88
341.842	464.88
342.07	451.88
342.298	458.88
342.526	432.88
342.754	426.88
342.981	439.88
343.209	450.88
343.437	462.88
343.665	465.88
343.893	494.88
344.12	499.88
344.348	487.88
344.576	477.88
344.804	502.88
345.031	463.88
345.259	451.88
345.487	462.88
345.714	436.88
345.942	460.88
346.17	448.88
346.397	431.88
346.625	438.88
346.853	449.88
347.08	441.88
347.308	419.88
347.535	443.88
347.763	435.88
347.99	450.88
348.218	458.88
348.445	430.88
348.673	432.88
348.9	432.88
349.128	429.88
349.355	408.88
349.583	416.88
349.81	433.88
350.037	422.88
350.265	414.88
350.492	426.88
350.72	428.88
350.947	419.88
351.174	446.88
351.402	451.88
351.629	407.88
351.856	426.88
352.083	452.88
352.311	435.88
352.538	447.88
352.765	440.88
352.992	439.88
353.22	430.88
353.447	436.88
353.674	418.88
353.901	430.88
354.128	408.88
354.355	420.88
354.583	415.88
354.81	422.88
355.037	408.88
355.264	414.88
355.491	412.88
355.718	424.88
355.945	418.88
356.172	429.88
356.399	437.88
356.626	424.88
356.853	407.88
357.08	399.88
357.307	404.88
357.534	424.88
357.761	420.88
357.988	411.88
358.215	412.88
358.441	407.88
358.668	413.88
358.895	398.88
359.122	409.88
359.349	428.88
359.576	434.88
359.802	438.88
360.029	443.88
360.256	461.88
360.483	450.88
360.709	439.88
360.936	438.88
361.163	439.88
361.39	439.88
361.616	436.88
361.843	411.88
362.07	425.88
362.296	401.88
362.523	424.88
362.749	421.88
362.976	414.88
363.203	422.88
363.429	413.88
363.656	417.88
363.882	415.88
364.109	415.88
364.335	406.88
364.562	413.88
364.788	437.88
365.015	407.88
365.241	417.88
365.468	403.88
365.694	418.88
365.92	421.88
366.147	413.88
366.373	420.88
366.599	409.88
366.826	430.88
367.052	401.88
367.278	413.88
367.505	406.88
367.731	405.88
367.957	425.88
368.184	427.88
368.41	426.88
368.636	427.88
368.862	431.88
369.089	438.88
369.315	430.88
369.541	419.88
369.767	403.88
369.993	421.88
370.219	435.88
370.445	412.88
370.672	433.88
370.898	405.88
371.124	428.88
371.35	442.88
371.576	423.88
371.802	411.88
372.028	418.88
372.254	429.88
372.48	433.88
372.706	457.88
372.932	444.88
373.158	459.88
373.384	431.88
373.61	433.88
373.835	442.88
374.061	454.88
374.287	438.88
374.513	419.88
374.739	441.88
374.965	427.88
375.191	438.88
375.416	455.88
375.642	437.88
375.868	468.88
376.094	447.88
376.319	427.88
376.545	433.88
376.771	450.88
376.997	424.88
377.222	418.88
377.448	403.88
377.674	423.88
377.899	424.88
378.125	425.88
378.35	415.88
378.576	434.88
378.802	413.88
379.027	429.88
379.253	441.88
379.478	441.88
379.704	430.88
379.929	429.88
380.155	450.88
380.38	423.88
380.606	441.88
380.831	433.88
381.057	426.88
381.282	451.88
381.507	441.88
381.733	451.88
381.958	441.88
382.184	441.88
382.409	423.88
382.634	462.88
382.86	449.88
383.085	446.88
383.31	457.88
383.535	444.88
383.761	452.88
383.986	464.88
384.211	451.88
384.436	484.88
384.662	464.88
384.887	461.88
385.112	466.88
385.337	469.88
385.562	463.88
385.787	488.88
386.013	505.88
386.238	489.88
386.463	483.88
386.688	495.88
386.913	482.88
387.138	472.88
387.363	471.88
387.588	474.88
387.813	476.88
388.038	461.88
388.263	487.88
388.488	467.88
388.713	468.88
388.938	470.88
389.163	476.88
389.387	499.88
389.612	478.88
389.837	466.88
390.062	479.88
390.287	482.88
390.512	479.88
390.736	474.88
390.961	478.88
391.186	489.88
391.411	484.88
391.636	494.88
391.86	500.88
392.085	502.88
392.31	503.88
392.534	499.88
392.759	533.88
392.984	512.88
393.208	471.88
393.433	500.88
393.658	481.88
393.882	489.88
394.107	500.88
394.331	479.88
394.556	482.88
394.78	503.88
395.005	509.88
395.229	480.88
395.454	503.88
395.678	506.88
395.903	537.88
396.127	545.88
396.352	532.88
396.576	514.88
396.801	490.88
397.025	488.88
397.249	521.88
397.474	529.88
397.698	535.88
397.922	550.88
398.147	545.88
398.371	543.88
398.595	548.88
398.82	572.88
399.044	601.88
399.268	605.88
399.492	682.88
399.717	718.88
399.941	754.88
400.165	726.88
400.389	711.88
400.613	639.88
400.837	609.88
401.062	588.88
401.286	579.88
401.51	555.88
401.734	545.88
401.958	572.88
402.182	590.88
402.406	584.88
402.63	602.88
402.854	595.88
403.078	596.88
403.302	617.88
403.526	600.88
403.75	619.88
403.974	606.88
404.198	595.88
404.422	629.88
404.645	602.88
404.869	605.88
405.093	619.88
405.317	671.88
405.541	709.88
405.765	657.88
405.988	625.88
406.212	615.88
406.436	639.88
406.66	642.88
406.883	630.88
407.107	660.88
407.331	702.88
407.555	749.88
407.778	777.88
408.002	709.88
408.226	671.88
408.449	669.88
408.673	660.88
408.896	675.88
409.12	676.88
409.344	670.88
409.567	599.88
409.791	621.88
410.014	597.88
410.238	600.88
410.461	609.88
410.685	606.88
410.908	607.88
411.132	633.88
411.355	657.88
411.578	622.88
411.802	577.88
412.025	580.88
412.249	612.88
412.472	618.88
412.695	673.88
412.919	623.88
413.142	629.88
413.365	593.88
413.589	583.88
413.812	593.88
414.035	554.88
414.258	569.88
414.482	587.88
414.705	589.88
414.928	529.88
415.151	568.88
415.374	561.88
415.597	559.88
415.821	547.88
416.044	555.88
416.267	533.88
416.49	563.88
416.713	556.88
416.936	542.88
417.159	557.88
417.382	557.88
417.605	551.88
417.828	551.88
418.051	579.88
418.274	581.88
418.497	581.88
418.72	574.88
418.943	567.88
419.166	594.88
419.389	605.88
419.611	603.88
419.834	595.88
420.057	574.88
420.28	565.88
420.503	567.88
420.726	575.88
420.948	598.88
421.171	647.88
421.394	659.88
421.617	602.88
421.839	571.88
422.062	598.88
422.285	557.88
422.507	645.88
422.73	694.88
422.953	684.88
423.175	620.88
423.398	600.88
423.621	605.88
423.843	637.88
424.066	607.88
424.288	603.88
424.511	632.88
424.733	674.88
424.956	749.88
425.178	710.88
425.401	693.88
425.623	722.88
425.846	659.88
426.068	612.88
426.291	595.88
426.513	575.88
426.735	595.88
426.958	616.88
427.18	693.88
427.402	802.88
427.625	868.88
427.847	756.88
428.069	677.88
428.292	598.88
428.514	547.88
428.736	570.88
428.958	555.88
429.181	549.88
429.403	527.88
429.625	547.88
429.847	574.88
430.069	635.88
430.292	636.88
430.514	549.88
430.736	565.88
430.958	553.88
431.18	535.88
431.402	508.88
431.624	515.88
431.846	525.88
432.068	499.88
432.29	544.88
432.512	511.88
432.734	526.88
432.956	540.88
433.178	535.88
433.4	531.88
433.622	511.88
433.844	532.88
434.066	546.88
434.287	520.88
434.509	542.88
434.731	538.88
434.953	573.88
435.175	581.88
435.397	606.88
435.618	611.88
435.84	625.88
436.062	697.88
436.284	729.88
436.505	629.88
436.727	587.88
436.949	580.88
437.17	540.88
437.392	546.88
437.614	539.88
437.835	548.88
438.057	623.88
438.278	723.88
438.5	716.88
438.721	799.88
438.943	745.88
439.165	655.88
439.386	581.88
439.608	585.88
439.829	590.88
440.05	611.88
440.272	606.88
440.493	615.88
440.715	597.88
440.936	570.88
441.158	561.88
441.379	562.88
441.6	555.88
441.822	607.88
442.043	635.88
442.264	682.88
442.486	719.88
442.707	631.88
442.928	600.88
443.149	607.88
443.371	641.88
443.592	648.88
443.813	752.88
444.034	793.88
444.255	693.88
444.476	649.88
444.698	637.88
444.919	636.88
445.14	746.88
445.361	677.88
445.582	627.88
445.803	682.88
446.024	747.88
446.245	747.88
446.466	710.88
446.687	613.88
446.908	586.88
447.129	561.88
447.35	553.88
447.571	546.88
447.792	527.88
448.013	540.88
448.234	550.88
448.455	604.88
448.675	698.88
448.896	779.88
449.117	666.88
449.338	633.88
449.559	739.88
449.779	843.88
450	674.88
450.221	565.88
450.442	531.88
450.662	539.88
450.883	511.88
451.104	506.88
451.324	510.88
451.545	498.88
451.766	515.88
451.986	510.88
452.207	476.88
452.428	483.88
452.648	471.88
452.869	481.88
453.089	500.88
453.31	491.88
453.53	494.88
453.751	498.88
453.971	469.88
454.192	495.88
454.412	492.88
454.633	476.88
454.853	479.88
455.073	484.88
455.294	497.88
455.514	563.88
455.734	541.88
455.955	486.88
456.175	445.88
456.395	437.88
456.616	447.88
456.836	461.88
457.056	427.88
457.276	430.88
457.497	454.88
457.717	455.88
457.937	473.88
458.157	478.88
458.377	475.88
458.598	504.88
458.818	511.88
459.038	595.88
459.258	620.88
459.478	542.88
459.698	531.88
459.918	531.88
460.138	543.88
460.358	551.88
460.578	555.88
460.798	558.88
461.018	565.88
461.238	545.88
461.458	562.88
461.678	551.88
461.898	563.88
462.118	550.88
462.338	586.88
462.558	587.88
462.777	634.88
462.997	631.88
463.217	651.88
463.437	669.88
463.657	635.88
463.876	597.88
464.096	631.88
464.316	611.88
464.536	628.88
464.755	597.88
464.975	600.88
465.195	616.88
465.414	642.88
465.634	583.88
465.854	534.88
466.073	518.88
466.293	523.88
466.512	511.88
466.732	497.88
466.951	505.88
467.171	496.88
467.391	521.88
467.61	521.88
467.829	518.88
468.049	515.88
468.268	522.88
468.488	495.88
468.707	485.88
468.927	484.88
469.146	501.88
469.365	493.88
469.585	493.88
469.804	502.88
470.023	506.88
470.243	493.88
470.462	521.88
470.681	508.88
470.901	508.88
471.12	507.88
471.339	500.88
471.558	517.88
471.777	502.88
471.997	486.88
472.216	509.88
472.435	525.88
472.654	510.88
472.873	500.88
473.092	482.88
473.311	488.88
473.53	504.88
473.749	517.88
473.968	517.88
474.187	627.88
474.406	649.88
474.625	532.88
474.844	517.88
475.063	491.88
475.282	494.88
475.501	503.88
475.72	526.88
475.939	494.88
476.158	520.88
476.377	505.88
476.596	497.88
476.814	523.88
477.033	552.88
477.252	532.88
477.471	542.88
477.69	543.88
477.908	555.88
478.127	533.88
478.346	578.88
478.564	552.88
478.783	571.88
479.002	603.88
479.22	602.88
479.439	607.88
479.658	614.88
479.876	622.88
480.095	613.88
480.313	652.88
480.532	651.88
480.751	626.88
480.969	610.88
481.188	637.88
481.406	666.88
481.624	618.88
481.843	569.88
482.061	574.88
482.28	583.88
482.498	582.88
482.717	572.88
482.935	589.88
483.153	567.88
483.372	584.88
483.59	582.88
483.808	574.88
484.027	558.88
484.245	582.88
484.463	563.88
484.681	591.88
484.9	584.88
485.118	580.88
485.336	585.88
485.554	604.88
485.772	597.88
485.99	601.88
486.209	614.88
486.427	614.88
486.645	619.88
486.863	633.88
487.081	608.88
487.299	611.88
487.517	616.88
487.735	633.88
487.953	606.88
488.171	626.88
488.389	621.88
488.607	626.88
488.825	629.88
489.043	599.88
489.261	615.88
489.479	609.88
489.696	628.88
489.914	622.88
490.132	651.88
490.35	646.88
490.568	645.88
490.786	650.88
491.003	652.88
491.221	685.88
491.439	676.88
491.657	687.88
491.874	708.88
492.092	718.88
492.31	687.88
492.527	725.88
492.745	695.88
492.963	699.88
493.18	701.88
493.398	727.88
493.615	746.88
493.833	713.88
494.05	719.88
494.268	724.88
494.485	720.88
494.703	723.88
494.92	722.88
495.138	703.88
495.355	721.88
495.573	740.88
495.79	726.88
496.008	729.88
496.225	725.88
496.442	732.88
496.66	726.88
496.877	737.88
497.094	734.88
497.312	756.88
497.529	750.88
497.746	766.88
497.963	774.88
498.181	822.88
498.398	819.88
498.615	851.88
498.832	870.88
499.049	922.88
499.267	944.88
499.484	964.88
499.701	1035.88
499.918	1095.88
500.135	1157.88
500.352	1254.88
500.569	1295.88
500.786	1262.88
501.003	1265.88
501.22	1183.88
501.437	1109.88
501.654	1051.88
501.871	1032.88
502.088	951.88
502.305	915.88
502.522	871.88
502.739	850.88
502.956	835.88
503.172	818.88
503.389	798.88
503.606	799.88
503.823	795.88
504.04	740.88
504.256	765.88
504.473	741.88
504.69	760.88
504.907	750.88
505.123	734.88
505.34	709.88
505.557	705.88
505.773	698.88
505.99	692.88
506.207	680.88
506.423	671.88
506.64	673.88
506.856	659.88
507.073	647.88
507.289	667.88
507.506	667.88
507.722	647.88
507.939	643.88
508.155	656.88
508.372	652.88
508.588	637.88
508.805	628.88
509.021	632.88
509.238	632.88
509.454	642.88
509.67	638.88
509.887	619.88
510.103	645.88
510.319	649.88
510.536	709.88
510.752	979.88
510.968	813.88
511.184	633.88
511.401	594.88
511.617	622.88
511.833	614.88
512.049	611.88
512.265	614.88
512.481	610.88
512.698	578.88
512.914	615.88
513.13	609.88
513.346	585.88
513.562	606.88
513.778	619.88
513.994	613.88
514.21	589.88
514.426	609.88
514.642	634.88
514.858	653.88
515.074	666.88
515.29	754.88
515.506	989.88
515.721	863.88
515.937	655.88
516.153	655.88
516.369	634.88
516.585	645.88
516.801	638.88
517.016	640.88
517.232	660.88
517.448	668.88
517.664	700.88
517.879	694.88
518.095	673.88
518.311	685.88
518.527	637.88
518.742	629.88
518.958	662.88
519.173	616.88
519.389	628.88
519.605	631.88
519.82	615.88
520.036	620.88
520.251	626.88
520.467	627.88
520.682	623.88
520.898	622.88
521.113	633.88
521.329	649.88
521.544	696.88
521.76	806.88
521.975	1148.88
522.19	1186.88
522.406	734.88
522.621	611.88
522.836	573.88
523.052	581.88
523.267	556.88
523.482	554.88
523.698	523.88
523.913	531.88
524.128	547.88
524.343	543.88
524.559	535.88
524.774	516.88
524.989	556.88
525.204	549.88
525.419	533.88
525.634	525.88
525.849	491.88
526.064	517.88
526.28	492.88
526.495	511.88
526.71	500.88
526.925	493.88
527.14	518.88
527.355	507.88
527.57	483.88
527.785	495.88
527.999	498.88
528.214	477.88
528.429	504.88
528.644	485.88
528.859	515.88
529.074	505.88
529.289	511.88
529.503	566.88
529.718	541.88
529.933	539.88
530.148	536.88
530.363	505.88
530.577	499.88
530.792	504.88
531.007	502.88
531.221	513.88
531.436	490.88
531.651	503.88
531.865	517.88
532.08	489.88
532.295	498.88
532.509	494.88
532.724	470.88
532.938	486.88
533.153	474.88
533.367	478.88
533.582	477.88
533.796	496.88
534.011	488.88
534.225	486.88
534.44	483.88
534.654	478.88
534.868	479.88
535.083	484.88
535.297	489.88
535.511	489.88
535.726	481.88
535.94	437.88
536.154	491.88
536.369	471.88
536.583	460.88
536.797	459.88
537.011	473.88
537.225	449.88
537.44	454.88
537.654	466.88
537.868	450.88
538.082	474.88
538.296	464.88
538.51	468.88
538.724	469.88
538.938	466.88
539.153	469.88
539.367	478.88
539.581	448.88
539.795	458.88
540.009	466.88
540.222	463.88
540.436	475.88
540.65	473.88
540.864	483.88
541.078	459.88
541.292	461.88
541.506	484.88
541.72	456.88
541.934	483.88
542.147	464.88
542.361	467.88
542.575	451.88
542.789	450.88
543.002	491.88
543.216	476.88
543.43	481.88
543.644	473.88
543.857	473.88
544.071	472.88
544.285	462.88
544.498	469.88
544.712	475.88
544.925	486.88
545.139	463.88
545.352	450.88
545.566	469.88
545.779	465.88
545.993	489.88
546.206	471.88
546.42	478.88
546.633	475.88
546.847	470.88
547.06	464.88
547.274	453.88
547.487	497.88
547.7	467.88
547.914	482.88
548.127	471.88
548.34	473.88
548.554	465.88
548.767	465.88
548.98	443.88
549.193	472.88
549.407	460.88
549.62	453.88
549.833	471.88
550.046	468.88
550.259	475.88
550.473	462.88
550.686	446.88
550.899	457.88
551.112	447.88
551.325	446.88
551.538	452.88
551.751	474.88
551.964	469.88
552.177	455.88
552.39	462.88
552.603	461.88
552.816	461.88
553.029	472.88
553.242	494.88
553.455	477.88
553.667	472.88
553.88	483.88
554.093	481.88
554.306	467.88
554.519	476.88
554.732	457.88
554.944	457.88
555.157	446.88
555.37	452.88
555.583	441.88
555.795	429.88
556.008	452.88
556.221	430.88
556.433	427.88
556.646	429.88
556.859	425.88
557.071	410.88
557.284	420.88
557.496	414.88
557.709	426.88
557.921	407.88
558.134	415.88
558.346	406.88
558.559	411.88
558.771	407.88
558.984	429.88
559.196	399.88
559.409	417.88
559.621	415.88
559.833	397.88
560.046	417.88
560.258	405.88
560.47	414.88
560.683	412.88
560.895	396.88
561.107	391.88
561.32	401.88
561.532	425.88
561.744	429.88
561.956	414.88
562.168	380.88
562.381	395.88
562.593	408.88
562.805	413.88
563.017	405.88
563.229	404.88
563.441	417.88
563.653	415.88
563.865	405.88
564.077	421.88
564.289	428.88
564.501	430.88
564.713	430.88
564.925	456.88
565.137	448.88
565.349	447.88
565.561	450.88
565.773	486.88
565.985	469.88
566.197	502.88
566.408	493.88
566.62	525.88
566.832	568.88
567.044	563.88
567.255	572.88
567.467	588.88
567.679	607.88
567.891	610.88
568.102	611.88
568.314	599.88
568.526	569.88
568.737	522.88
568.949	513.88
569.161	483.88
569.372	470.88
569.584	449.88
569.795	451.88
570.007	444.88
570.218	441.88
570.43	429.88
570.641	421.88
570.853	402.88
571.064	414.88
571.276	435.88
571.487	399.88
571.698	397.88
571.91	376.88
572.121	398.88
572.333	393.88
572.544	375.88
572.755	381.88
572.966	365.88
573.178	374.88
573.389	365.88
573.6	345.88
573.811	359.88
574.023	358.88
574.234	355.88
574.445	366.88
574.656	349.88
574.867	347.88
575.078	342.88
575.289	341.88
575.501	348.88
575.712	342.88
575.923	327.88
576.134	346.88
576.345	358.88
576.556	347.88
576.767	349.88
576.978	342.88
577.188	339.88
577.399	339.88
577.61	341.88
577.821	334.88
578.032	329.88
578.243	362.88
578.454	492.88
578.665	374.88
578.875	330.88
579.086	344.88
579.297	328.88
579.508	324.88
579.718	351.88
579.929	334.88
580.14	321.88
580.35	323.88
580.561	323.88
580.772	317.88
580.982	318.88
581.193	339.88
581.403	331.88
581.614	314.88
581.825	324.88
582.035	317.88
582.246	297.88
582.456	317.88
582.667	315.88
582.877	318.88
583.087	313.88
583.298	317.88
583.508	316.88
583.719	324.88
583.929	319.88
584.139	311.88
584.35	310.88
584.56	302.88
584.77	310.88
584.981	322.88
585.191	306.88
585.401	309.88
585.611	303.88
585.821	310.88
586.032	313.88
586.242	318.88
586.452	318.88
586.662	312.88
586.872	301.88
587.082	315.88
587.292	314.88
587.502	325.88
587.713	309.88
587.923	314.88
588.133	305.88
588.343	316.88
588.553	301.88
588.762	311.88
588.972	310.88
589.182	313.88
589.392	318.88
589.602	314.88
589.812	308.88
590.022	302.88
590.232	307.88
590.441	307.88
590.651	306.88
590.861	306.88
591.071	345.88
591.281	310.88
591.49	319.88
591.7	325.88
591.91	327.88
592.119	317.88
592.329	323.88
592.539	328.88
592.748	351.88
592.958	347.88
593.167	347.88
593.377	352.88
593.587	356.88
593.796	346.88
594.006	370.88
594.215	364.88
594.424	355.88
594.634	363.88
594.843	350.88
595.053	346.88
595.262	341.88
595.472	321.88
595.681	315.88
595.89	303.88
596.1	315.88
596.309	304.88
596.518	289.88
596.727	305.88
596.937	311.88
597.146	294.88
597.355	286.88
597.564	314.88
597.774	288.88
597.983	269.88
598.192	302.88
598.401	283.88
598.61	283.88
598.819	278.88
599.028	288.88
599.237	266.88
599.446	274.88
599.655	278.88
599.864	287.88
600.073	266.88
600.282	276.88
600.491	275.88
600.7	261.88
600.909	254.88
601.118	281.88
601.327	263.88
601.536	274.88
601.745	263.88
601.953	270.88
602.162	274.88
602.371	277.88
602.58	277.88
602.789	263.88
602.997	259.88
603.206	270.88
603.415	275.88
603.623	262.88
603.832	269.88
604.041	266.88
604.249	273.88
604.458	248.88
604.666	249.88
604.875	274.88
605.084	261.88
605.292	233.88
605.501	254.88
605.709	268.88
605.918	270.88
606.126	268.88
606.334	266.88
606.543	275.88
606.751	261.88
606.96	237.88
607.168	254.88
607.376	258.88
607.585	261.88
607.793	270.88
608.001	267.88
608.21	243.88
608.418	251.88
608.626	271.88
608.834	268.88
609.043	262.88
609.251	233.88
609.459	259.88
609.667	251.88
609.875	232.88
610.083	259.88
610.291	258.88
610.499	259.88
610.707	258.88
610.916	247.88
611.124	249.88
611.332	235.88
611.54	282.88
611.748	263.88
611.955	253.88
612.163	259.88
612.371	251.88
612.579	253.88
612.787	257.88
612.995	242.88
613.203	251.88
613.411	267.88
613.618	245.88
613.826	247.88
614.034	236.88
614.242	248.88
614.449	245.88
614.657	245.88
614.865	245.88
615.072	240.88
615.28	262.88
615.488	248.88
615.695	255.88
615.903	244.88
616.111	248.88
616.318	238.88
616.526	242.88
616.733	223.88
616.941	253.88
617.148	253.88
617.356	266.88
617.563	243.88
617.771	254.88
617.978	248.88
618.185	237.88
618.393	239.88
618.6	232.88
618.807	238.88
619.015	249.88
619.222	234.88
619.429	218.88
619.637	236.88
619.844	249.88
620.051	223.88
620.258	226.88
620.466	238.88
620.673	220.88
620.88	213.88
621.087	217.88
621.294	223.88
621.501	249.88
621.708	228.88
621.915	220.88
622.122	241.88
622.329	231.88
622.536	238.88
622.743	240.88
622.95	227.88
623.157	221.88
623.364	219.88
623.571	218.88
623.778	216.88
623.985	246.88
624.192	245.88
624.399	210.88
624.606	230.88
624.812	209.88
625.019	216.88
625.226	228.88
625.433	242.88
625.639	218.88
625.846	206.88
626.053	234.88
626.259	213.88
626.466	221.88
626.673	206.88
626.879	214.88
627.086	218.88
627.293	230.88
627.499	214.88
627.706	221.88
627.912	199.88
628.119	214.88
628.325	198.88
628.532	204.88
628.738	203.88
628.945	183.88
629.151	212.88
629.357	208.88
629.564	210.88
629.77	209.88
629.976	194.88
630.183	202.88
630.389	207.88
630.595	193.88
630.802	181.88
631.008	201.88
631.214	218.88
631.42	196.88
631.627	202.88
631.833	186.88
632.039	199.88
632.245	171.88
632.451	166.88
632.657	194.88
632.863	189.88
633.069	189.88
633.275	198.88
633.481	183.88
633.688	193.88
633.893	203.88
634.099	203.88
634.305	202.88
634.511	183.88
634.717	188.88
634.923	191.88
635.129	204.88
635.335	181.88
635.541	201.88
635.747	177.88
635.952	191.88
636.158	193.88
636.364	198.88
636.57	205.88
636.775	193.88
636.981	185.88
637.187	174.88
637.392	174.88
637.598	182.88
637.804	179.88
638.009	179.88
638.215	188.88
638.421	179.88
638.626	187.88
638.832	167.88
639.037	176.88
639.243	179.88
639.448	194.88
639.654	193.88
639.859	188.88
640.065	185.88
640.27	192.88
640.475	184.88
640.681	170.88
640.886	190.88
641.091	180.88
641.297	170.88
641.502	163.88
641.707	187.88
641.913	178.88
642.118	172.88
642.323	180.88
642.528	185.88
642.733	172.88
642.939	172.88
643.144	147.88
643.349	165.88
643.554	168.88
643.759	171.88
643.964	162.88
644.169	183.88
644.374	163.88
644.579	162.88
644.784	192.88
644.989	163.88
645.194	193.88
645.399	170.88
645.604	183.88
645.809	178.88
646.014	173.88
646.219	171.88
646.423	195.88
646.628	171.88
646.833	168.88
647.038	175.88
647.243	182.88
647.447	186.88
647.652	178.88
647.857	163.88
648.062	195.88
648.266	181.88
648.471	162.88
648.676	185.88
648.88	187.88
649.085	185.88
649.289	162.88
649.494	173.88
649.698	197.88
649.903	175.88
650.107	165.88
650.312	165.88
650.516	155.88
650.721	169.88
650.925	151.88
651.13	167.88
651.334	155.88
651.539	154.88
651.743	143.88
651.947	157.88
652.152	156.88
652.356	157.88
652.56	130.88
652.764	142.88
652.969	139.88
653.173	143.88
653.377	146.88
653.581	147.88
653.785	140.88
653.99	154.88
654.194	147.88
654.398	151.88
654.602	142.88
654.806	137.88
655.01	141.88
655.214	142.88
655.418	127.88
655.622	168.88
655.826	140.88
656.03	142.88
656.234	151.88
656.438	139.88
656.642	150.88
656.846	124.88
657.049	128.88
657.253	117.88
657.457	133.88
657.661	125.88
657.865	132.88
658.068	124.88
658.272	134.88
658.476	99.88
658.68	103.88
658.883	108.88
659.087	121.88
659.291	92.88
659.494	117.88
659.698	91.88
659.901	104.88
660.105	98.88
660.309	95.88
660.512	107.88
660.716	93.88
660.919	99.88
661.123	91.88
661.326	98.88
661.53	83.88
661.733	92.88
661.936	101.88
662.14	85.88
662.343	88.88
662.546	78.88
662.75	82.88
662.953	73.88
663.156	71.88
663.36	74.88
663.563	84.88
663.766	81.88
663.969	88.88
664.173	91.88
664.376	79.88
664.579	84.88
664.782	85.88
664.985	88.88
665.188	80.88
665.391	82.88
665.594	86.88
665.797	75.88
666	76.88
666.203	92.88
666.406	80.88
666.609	80.88
666.812	90.88
667.015	75.88
667.218	81.88
667.421	86.88
667.624	78.88
667.827	80.88
668.03	85.88
668.232	80.88
668.435	78.88
668.638	67.88
668.841	85.88
669.043	76.88
669.246	94.88
669.449	71.88
669.651	84.88
669.854	78.88
670.057	73.88
670.259	91.88
670.462	87.88
670.665	92.88
670.867	81.88
671.07	75.88
671.272	82.88
671.475	85.88
671.677	91.88
671.88	90.88
672.082	77.88
672.284	87.88
672.487	82.88
672.689	81.88
672.892	86.88
