Data from 1973.PennyLincolnUp.Lamp.En5.5.200Scan.071719.P1.Changed Mount._HRD10591_15-44-43-852.txt Node
Date: Thu Jul 18 15:44:43 EDT 2019
User: cochatt
Spectrometer: HR+D1059
Trigger mode: 1
Integration Time (sec): 1.000000E-1
Scans to average: 1
Electric dark correction enabled: true
Nonlinearity correction enabled: false
Boxcar width: 0
XAxis mode: Wavelengths
Number of Pixels in Spectrum: 2048
>>>>>Begin Spectral Data<<<<<
223.165	-13.62
223.4	-13.62
223.635	-13.62
223.869	-18.62
224.104	-17.62
224.338	-21.62
224.573	-15.62
224.808	-23.62
225.042	-1.62
225.277	-6.62
225.511	9.38
225.746	-5.62
225.98	14.38
226.215	5.38
226.449	22.38
226.683	28.38
226.918	14.38
227.152	30.38
227.387	25.38
227.621	29.38
227.856	37.38
228.09	39.38
228.324	42.38
228.559	52.38
228.793	72.38
229.027	90.38
229.262	109.38
229.496	109.38
229.73	130.38
229.964	145.38
230.199	109.38
230.433	103.38
230.667	109.38
230.901	112.38
231.136	96.38
231.37	115.38
231.604	119.38
231.838	112.38
232.072	116.38
232.306	110.38
232.541	113.38
232.775	114.38
233.009	121.38
233.243	118.38
233.477	100.38
233.711	109.38
233.945	122.38
234.179	120.38
234.413	120.38
234.647	110.38
234.881	120.38
235.115	118.38
235.349	107.38
235.583	112.38
235.817	114.38
236.051	129.38
236.285	137.38
236.519	133.38
236.753	133.38
236.987	142.38
237.221	164.38
237.455	206.38
237.689	165.38
237.922	142.38
238.156	140.38
238.39	126.38
238.624	132.38
238.858	126.38
239.091	121.38
239.325	123.38
239.559	136.38
239.793	140.38
240.027	149.38
240.26	152.38
240.494	163.38
240.728	142.38
240.961	163.38
241.195	164.38
241.429	152.38
241.662	132.38
241.896	135.38
242.13	132.38
242.363	125.38
242.597	153.38
242.83	147.38
243.064	146.38
243.298	132.38
243.531	143.38
243.765	137.38
243.998	152.38
244.232	145.38
244.465	150.38
244.699	165.38
244.932	154.38
245.166	149.38
245.399	143.38
245.633	144.38
245.866	171.38
246.099	158.38
246.333	153.38
246.566	157.38
246.8	155.38
247.033	149.38
247.266	157.38
247.5	166.38
247.733	183.38
247.966	172.38
248.2	164.38
248.433	163.38
248.666	178.38
248.899	168.38
249.133	184.38
249.366	214.38
249.599	201.38
249.832	199.38
250.066	176.38
250.299	184.38
250.532	201.38
250.765	188.38
250.998	212.38
251.231	224.38
251.465	212.38
251.698	200.38
251.931	192.38
252.164	209.38
252.397	190.38
252.63	214.38
252.863	201.38
253.096	228.38
253.329	212.38
253.562	230.38
253.795	228.38
254.028	227.38
254.261	221.38
254.494	226.38
254.727	253.38
254.96	292.38
255.193	277.38
255.426	241.38
255.659	233.38
255.892	233.38
256.124	246.38
256.357	240.38
256.59	247.38
256.823	232.38
257.056	230.38
257.289	229.38
257.521	212.38
257.754	207.38
257.987	216.38
258.22	216.38
258.452	226.38
258.685	221.38
258.918	229.38
259.151	212.38
259.383	224.38
259.616	216.38
259.849	215.38
260.081	237.38
260.314	266.38
260.547	257.38
260.779	253.38
261.012	231.38
261.244	240.38
261.477	243.38
261.71	236.38
261.942	225.38
262.175	236.38
262.407	244.38
262.64	221.38
262.872	229.38
263.105	213.38
263.337	241.38
263.57	217.38
263.802	232.38
264.035	225.38
264.267	219.38
264.499	232.38
264.732	220.38
264.964	229.38
265.197	233.38
265.429	229.38
265.661	237.38
265.894	222.38
266.126	235.38
266.358	247.38
266.591	226.38
266.823	227.38
267.055	230.38
267.287	237.38
267.52	248.38
267.752	247.38
267.984	267.38
268.216	234.38
268.448	238.38
268.681	267.38
268.913	268.38
269.145	272.38
269.377	266.38
269.609	284.38
269.841	287.38
270.073	288.38
270.306	297.38
270.538	331.38
270.77	326.38
271.002	329.38
271.234	302.38
271.466	310.38
271.698	308.38
271.93	334.38
272.162	320.38
272.394	324.38
272.626	328.38
272.858	304.38
273.09	304.38
273.322	278.38
273.553	266.38
273.785	277.38
274.017	268.38
274.249	283.38
274.481	293.38
274.713	288.38
274.945	278.38
275.176	282.38
275.408	278.38
275.64	287.38
275.872	290.38
276.104	296.38
276.335	283.38
276.567	286.38
276.799	305.38
277.031	309.38
277.262	341.38
277.494	325.38
277.726	336.38
277.957	306.38
278.189	291.38
278.421	295.38
278.652	288.38
278.884	300.38
279.115	276.38
279.347	306.38
279.579	281.38
279.81	283.38
280.042	287.38
280.273	293.38
280.505	291.38
280.736	289.38
280.968	279.38
281.199	299.38
281.431	295.38
281.662	292.38
281.894	302.38
282.125	302.38
282.356	305.38
282.588	320.38
282.819	304.38
283.051	296.38
283.282	296.38
283.513	311.38
283.745	301.38
283.976	308.38
284.207	313.38
284.439	301.38
284.67	299.38
284.901	295.38
285.132	318.38
285.364	304.38
285.595	308.38
285.826	306.38
286.057	314.38
286.288	302.38
286.52	329.38
286.751	320.38
286.982	320.38
287.213	312.38
287.444	334.38
287.675	313.38
287.906	328.38
288.138	334.38
288.369	329.38
288.6	341.38
288.831	331.38
289.062	333.38
289.293	332.38
289.524	326.38
289.755	324.38
289.986	328.38
290.217	320.38
290.448	300.38
290.679	332.38
290.91	329.38
291.141	317.38
291.371	326.38
291.602	322.38
291.833	333.38
292.064	339.38
292.295	331.38
292.526	329.38
292.757	340.38
292.987	320.38
293.218	304.38
293.449	349.38
293.68	331.38
293.91	323.38
294.141	342.38
294.372	325.38
294.603	325.38
294.833	316.38
295.064	334.38
295.295	329.38
295.525	341.38
295.756	352.38
295.987	335.38
296.217	349.38
296.448	361.38
296.679	341.38
296.909	312.38
297.14	344.38
297.37	346.38
297.601	345.38
297.831	345.38
298.062	322.38
298.292	341.38
298.523	333.38
298.753	355.38
298.984	359.38
299.214	347.38
299.445	340.38
299.675	333.38
299.905	356.38
300.136	370.38
300.366	364.38
300.597	328.38
300.827	352.38
301.057	359.38
301.288	357.38
301.518	372.38
301.748	357.38
301.979	355.38
302.209	385.38
302.439	362.38
302.669	353.38
302.9	371.38
303.13	374.38
303.36	352.38
303.59	380.38
303.82	370.38
304.051	380.38
304.281	368.38
304.511	358.38
304.741	367.38
304.971	381.38
305.201	360.38
305.431	357.38
305.661	350.38
305.891	364.38
306.121	349.38
306.352	365.38
306.582	356.38
306.812	365.38
307.042	352.38
307.272	365.38
307.502	371.38
307.731	358.38
307.961	362.38
308.191	372.38
308.421	380.38
308.651	368.38
308.881	365.38
309.111	375.38
309.341	352.38
309.571	384.38
309.8	408.38
310.03	388.38
310.26	394.38
310.49	390.38
310.72	386.38
310.949	406.38
311.179	416.38
311.409	398.38
311.639	394.38
311.868	415.38
312.098	410.38
312.328	400.38
312.557	413.38
312.787	414.38
313.017	416.38
313.246	422.38
313.476	400.38
313.706	390.38
313.935	418.38
314.165	417.38
314.394	428.38
314.624	420.38
314.853	426.38
315.083	409.38
315.312	388.38
315.542	406.38
315.771	412.38
316.001	408.38
316.23	414.38
316.46	409.38
316.689	424.38
316.919	421.38
317.148	405.38
317.377	412.38
317.607	423.38
317.836	412.38
318.065	408.38
318.295	407.38
318.524	406.38
318.753	414.38
318.983	420.38
319.212	405.38
319.441	416.38
319.67	427.38
319.9	418.38
320.129	412.38
320.358	412.38
320.587	420.38
320.816	424.38
321.046	417.38
321.275	410.38
321.504	429.38
321.733	414.38
321.962	433.38
322.191	430.38
322.42	464.38
322.649	450.38
322.878	470.38
323.108	458.38
323.337	455.38
323.566	485.38
323.795	493.38
324.024	544.38
324.253	625.38
324.482	853.38
324.71	1216.38
324.939	1686.38
325.168	1538.38
325.397	826.38
325.626	602.38
325.855	536.38
326.084	491.38
326.313	487.38
326.542	492.38
326.77	539.38
326.999	603.38
327.228	767.38
327.457	1115.38
327.686	1334.38
327.914	950.38
328.143	690.38
328.372	594.38
328.6	578.38
328.829	532.38
329.058	574.38
329.287	561.38
329.515	528.38
329.744	522.38
329.972	512.38
330.201	522.38
330.43	572.38
330.658	579.38
330.887	578.38
331.115	572.38
331.344	525.38
331.572	516.38
331.801	517.38
332.03	521.38
332.258	496.38
332.486	476.38
332.715	476.38
332.943	478.38
333.172	500.38
333.4	512.38
333.629	538.38
333.857	548.38
334.085	548.38
334.314	552.38
334.542	581.38
334.771	558.38
334.999	551.38
335.227	520.38
335.455	528.38
335.684	502.38
335.912	514.38
336.14	525.38
336.369	521.38
336.597	488.38
336.825	512.38
337.053	498.38
337.281	497.38
337.51	498.38
337.738	484.38
337.966	490.38
338.194	470.38
338.422	478.38
338.65	473.38
338.878	477.38
339.106	455.38
339.334	459.38
339.562	453.38
339.79	446.38
340.018	476.38
340.246	481.38
340.474	469.38
340.702	453.38
340.93	451.38
341.158	460.38
341.386	457.38
341.614	456.38
341.842	448.38
342.07	433.38
342.298	451.38
342.526	466.38
342.754	474.38
342.981	457.38
343.209	459.38
343.437	467.38
343.665	474.38
343.893	480.38
344.12	490.38
344.348	489.38
344.576	472.38
344.804	482.38
345.031	499.38
345.259	497.38
345.487	473.38
345.714	460.38
345.942	443.38
346.17	444.38
346.397	446.38
346.625	435.38
346.853	440.38
347.08	439.38
347.308	449.38
347.535	440.38
347.763	443.38
347.99	449.38
348.218	458.38
348.445	460.38
348.673	449.38
348.9	423.38
349.128	426.38
349.355	426.38
349.583	437.38
349.81	448.38
350.037	416.38
350.265	423.38
350.492	436.38
350.72	437.38
350.947	410.38
351.174	419.38
351.402	452.38
351.629	424.38
351.856	454.38
352.083	443.38
352.311	451.38
352.538	458.38
352.765	445.38
352.992	434.38
353.22	456.38
353.447	442.38
353.674	438.38
353.901	434.38
354.128	411.38
354.355	408.38
354.583	422.38
354.81	424.38
355.037	404.38
355.264	418.38
355.491	416.38
355.718	422.38
355.945	416.38
356.172	424.38
356.399	401.38
356.626	392.38
356.853	406.38
357.08	423.38
357.307	397.38
357.534	409.38
357.761	409.38
357.988	424.38
358.215	409.38
358.441	423.38
358.668	399.38
358.895	436.38
359.122	422.38
359.349	434.38
359.576	436.38
359.802	432.38
360.029	459.38
360.256	465.38
360.483	454.38
360.709	451.38
360.936	436.38
361.163	433.38
361.39	420.38
361.616	424.38
361.843	419.38
362.07	417.38
362.296	430.38
362.523	428.38
362.749	427.38
362.976	432.38
363.203	417.38
363.429	390.38
363.656	418.38
363.882	427.38
364.109	416.38
364.335	406.38
364.562	412.38
364.788	426.38
365.015	423.38
365.241	433.38
365.468	414.38
365.694	416.38
365.92	449.38
366.147	424.38
366.373	401.38
366.599	402.38
366.826	423.38
367.052	413.38
367.278	410.38
367.505	413.38
367.731	408.38
367.957	404.38
368.184	406.38
368.41	438.38
368.636	447.38
368.862	439.38
369.089	434.38
369.315	419.38
369.541	411.38
369.767	420.38
369.993	414.38
370.219	427.38
370.445	429.38
370.672	428.38
370.898	417.38
371.124	423.38
371.35	417.38
371.576	425.38
371.802	419.38
372.028	427.38
372.254	428.38
372.48	434.38
372.706	421.38
372.932	444.38
373.158	425.38
373.384	435.38
373.61	436.38
373.835	420.38
374.061	425.38
374.287	452.38
374.513	439.38
374.739	434.38
374.965	458.38
375.191	449.38
375.416	451.38
375.642	439.38
375.868	417.38
376.094	432.38
376.319	428.38
376.545	429.38
376.771	440.38
376.997	408.38
377.222	427.38
377.448	414.38
377.674	400.38
377.899	414.38
378.125	428.38
378.35	421.38
378.576	401.38
378.802	412.38
379.027	430.38
379.253	436.38
379.478	415.38
379.704	412.38
379.929	426.38
380.155	437.38
380.38	424.38
380.606	424.38
380.831	424.38
381.057	417.38
381.282	436.38
381.507	435.38
381.733	452.38
381.958	451.38
382.184	421.38
382.409	434.38
382.634	442.38
382.86	429.38
383.085	425.38
383.31	461.38
383.535	436.38
383.761	454.38
383.986	460.38
384.211	463.38
384.436	454.38
384.662	468.38
384.887	444.38
385.112	464.38
385.337	474.38
385.562	486.38
385.787	490.38
386.013	489.38
386.238	486.38
386.463	499.38
386.688	508.38
386.913	467.38
387.138	480.38
387.363	467.38
387.588	470.38
387.813	483.38
388.038	488.38
388.263	488.38
388.488	485.38
388.713	489.38
388.938	485.38
389.163	469.38
389.387	470.38
389.612	473.38
389.837	489.38
390.062	478.38
390.287	492.38
390.512	500.38
390.736	473.38
390.961	474.38
391.186	480.38
391.411	496.38
391.636	492.38
391.86	499.38
392.085	504.38
392.31	503.38
392.534	485.38
392.759	504.38
392.984	501.38
393.208	486.38
393.433	464.38
393.658	484.38
393.882	470.38
394.107	481.38
394.331	500.38
394.556	484.38
394.78	489.38
395.005	492.38
395.229	488.38
395.454	502.38
395.678	535.38
395.903	510.38
396.127	522.38
396.352	533.38
396.576	521.38
396.801	520.38
397.025	508.38
397.249	500.38
397.474	521.38
397.698	529.38
397.922	537.38
398.147	538.38
398.371	576.38
398.595	550.38
398.82	555.38
399.044	603.38
399.268	619.38
399.492	664.38
399.717	715.38
399.941	748.38
400.165	714.38
400.389	684.38
400.613	652.38
400.837	592.38
401.062	583.38
401.286	571.38
401.51	566.38
401.734	570.38
401.958	575.38
402.182	573.38
402.406	584.38
402.63	583.38
402.854	588.38
403.078	596.38
403.302	593.38
403.526	621.38
403.75	608.38
403.974	606.38
404.198	615.38
404.422	597.38
404.645	613.38
404.869	622.38
405.093	635.38
405.317	672.38
405.541	699.38
405.765	652.38
405.988	614.38
406.212	633.38
406.436	630.38
406.66	674.38
406.883	636.38
407.107	684.38
407.331	707.38
407.555	784.38
407.778	784.38
408.002	710.38
408.226	666.38
408.449	660.38
408.673	647.38
408.896	681.38
409.12	701.38
409.344	663.38
409.567	582.38
409.791	604.38
410.014	597.38
410.238	594.38
410.461	576.38
410.685	604.38
410.908	608.38
411.132	629.38
411.355	636.38
411.578	650.38
411.802	608.38
412.025	586.38
412.249	583.38
412.472	602.38
412.695	627.38
412.919	613.38
413.142	571.38
413.365	586.38
413.589	584.38
413.812	565.38
414.035	560.38
414.258	574.38
414.482	550.38
414.705	556.38
414.928	541.38
415.151	542.38
415.374	570.38
415.597	548.38
415.821	548.38
416.044	549.38
416.267	539.38
416.49	538.38
416.713	536.38
416.936	544.38
417.159	558.38
417.382	570.38
417.605	540.38
417.828	550.38
418.051	584.38
418.274	558.38
418.497	579.38
418.72	557.38
418.943	565.38
419.166	574.38
419.389	603.38
419.611	614.38
419.834	557.38
420.057	587.38
420.28	579.38
420.503	581.38
420.726	586.38
420.948	586.38
421.171	613.38
421.394	637.38
421.617	597.38
421.839	577.38
422.062	578.38
422.285	602.38
422.507	641.38
422.73	684.38
422.953	702.38
423.175	615.38
423.398	606.38
423.621	610.38
423.843	620.38
424.066	624.38
424.288	613.38
424.511	639.38
424.733	661.38
424.956	739.38
425.178	700.38
425.401	736.38
425.623	738.38
425.846	642.38
426.068	591.38
426.291	598.38
426.513	602.38
426.735	596.38
426.958	624.38
427.18	709.38
427.402	792.38
427.625	839.38
427.847	755.38
428.069	666.38
428.292	613.38
428.514	570.38
428.736	555.38
428.958	546.38
429.181	526.38
429.403	534.38
429.625	540.38
429.847	567.38
430.069	619.38
430.292	644.38
430.514	570.38
430.736	538.38
430.958	540.38
431.18	545.38
431.402	542.38
431.624	527.38
431.846	525.38
432.068	526.38
432.29	504.38
432.512	514.38
432.734	540.38
432.956	532.38
433.178	523.38
433.4	537.38
433.622	526.38
433.844	547.38
434.066	518.38
434.287	528.38
434.509	529.38
434.731	533.38
434.953	562.38
435.175	573.38
435.397	587.38
435.618	567.38
435.84	608.38
436.062	704.38
436.284	742.38
436.505	664.38
436.727	607.38
436.949	554.38
437.17	541.38
437.392	549.38
437.614	530.38
437.835	576.38
438.057	637.38
438.278	739.38
438.5	743.38
438.721	788.38
438.943	759.38
439.165	638.38
439.386	587.38
439.608	591.38
439.829	581.38
440.05	583.38
440.272	606.38
440.493	602.38
440.715	579.38
440.936	586.38
441.158	562.38
441.379	570.38
441.6	584.38
441.822	594.38
442.043	630.38
442.264	704.38
442.486	726.38
442.707	616.38
442.928	608.38
443.149	603.38
443.371	627.38
443.592	677.38
443.813	744.38
444.034	792.38
444.255	683.38
444.476	669.38
444.698	627.38
444.919	636.38
445.14	743.38
445.361	700.38
445.582	630.38
445.803	686.38
446.024	774.38
446.245	764.38
446.466	679.38
446.687	616.38
446.908	582.38
447.129	552.38
447.35	544.38
447.571	551.38
447.792	509.38
448.013	521.38
448.234	539.38
448.455	582.38
448.675	684.38
448.896	779.38
449.117	674.38
449.338	628.38
449.559	756.38
449.779	848.38
450	685.38
450.221	571.38
450.442	546.38
450.662	524.38
450.883	518.38
451.104	523.38
451.324	513.38
451.545	501.38
451.766	484.38
451.986	474.38
452.207	482.38
452.428	464.38
452.648	468.38
452.869	481.38
453.089	480.38
453.31	502.38
453.53	484.38
453.751	476.38
453.971	493.38
454.192	515.38
454.412	493.38
454.633	468.38
454.853	456.38
455.073	470.38
455.294	486.38
455.514	555.38
455.734	559.38
455.955	482.38
456.175	458.38
456.395	459.38
456.616	456.38
456.836	465.38
457.056	469.38
457.276	450.38
457.497	451.38
457.717	430.38
457.937	461.38
458.157	472.38
458.377	476.38
458.598	480.38
458.818	552.38
459.038	599.38
459.258	628.38
459.478	574.38
459.698	539.38
459.918	537.38
460.138	537.38
460.358	533.38
460.578	565.38
460.798	540.38
461.018	567.38
461.238	558.38
461.458	532.38
461.678	536.38
461.898	561.38
462.118	566.38
462.338	579.38
462.558	598.38
462.777	611.38
462.997	606.38
463.217	642.38
463.437	650.38
463.657	603.38
463.876	615.38
464.096	619.38
464.316	580.38
464.536	617.38
464.755	585.38
464.975	603.38
465.195	603.38
465.414	658.38
465.634	587.38
465.854	550.38
466.073	552.38
466.293	524.38
466.512	525.38
466.732	484.38
466.951	511.38
467.171	506.38
467.391	512.38
467.61	492.38
467.829	516.38
468.049	500.38
468.268	504.38
468.488	477.38
468.707	510.38
468.927	489.38
469.146	481.38
469.365	485.38
469.585	484.38
469.804	514.38
470.023	509.38
470.243	519.38
470.462	514.38
470.681	535.38
470.901	522.38
471.12	518.38
471.339	505.38
471.558	494.38
471.777	502.38
471.997	493.38
472.216	493.38
472.435	527.38
472.654	531.38
472.873	481.38
473.092	485.38
473.311	494.38
473.53	482.38
473.749	503.38
473.968	531.38
474.187	627.38
474.406	636.38
474.625	537.38
474.844	526.38
475.063	494.38
475.282	498.38
475.501	496.38
475.72	522.38
475.939	515.38
476.158	535.38
476.377	493.38
476.596	504.38
476.814	503.38
477.033	541.38
477.252	539.38
477.471	534.38
477.69	557.38
477.908	568.38
478.127	541.38
478.346	570.38
478.564	585.38
478.783	587.38
479.002	568.38
479.22	577.38
479.439	590.38
479.658	600.38
479.876	598.38
480.095	608.38
480.313	655.38
480.532	630.38
480.751	646.38
480.969	633.38
481.188	657.38
481.406	678.38
481.624	619.38
481.843	608.38
482.061	592.38
482.28	602.38
482.498	573.38
482.717	570.38
482.935	580.38
483.153	559.38
483.372	566.38
483.59	580.38
483.808	579.38
484.027	579.38
484.245	566.38
484.463	573.38
484.681	583.38
484.9	619.38
485.118	612.38
485.336	602.38
485.554	596.38
485.772	586.38
485.99	580.38
486.209	589.38
486.427	603.38
486.645	631.38
486.863	623.38
487.081	625.38
487.299	604.38
487.517	593.38
487.735	597.38
487.953	593.38
488.171	602.38
488.389	595.38
488.607	606.38
488.825	610.38
489.043	599.38
489.261	631.38
489.479	644.38
489.696	621.38
489.914	616.38
490.132	651.38
490.35	643.38
490.568	658.38
490.786	660.38
491.003	654.38
491.221	673.38
491.439	667.38
491.657	685.38
491.874	696.38
492.092	711.38
492.31	693.38
492.527	705.38
492.745	706.38
492.963	713.38
493.18	713.38
493.398	705.38
493.615	709.38
493.833	709.38
494.05	727.38
494.268	697.38
494.485	695.38
494.703	733.38
494.92	705.38
495.138	691.38
495.355	722.38
495.573	737.38
495.79	738.38
496.008	716.38
496.225	702.38
496.442	708.38
496.66	718.38
496.877	722.38
497.094	731.38
497.312	768.38
497.529	766.38
497.746	781.38
497.963	779.38
498.181	812.38
498.398	820.38
498.615	838.38
498.832	859.38
499.049	885.38
499.267	930.38
499.484	985.38
499.701	1045.38
499.918	1058.38
500.135	1173.38
500.352	1238.38
500.569	1254.38
500.786	1257.38
501.003	1226.38
501.22	1160.38
501.437	1118.38
501.654	1032.38
501.871	995.38
502.088	968.38
502.305	939.38
502.522	879.38
502.739	824.38
502.956	821.38
503.172	782.38
503.389	789.38
503.606	778.38
503.823	762.38
504.04	770.38
504.256	735.38
504.473	740.38
504.69	764.38
504.907	733.38
505.123	736.38
505.34	696.38
505.557	675.38
505.773	676.38
505.99	682.38
506.207	677.38
506.423	664.38
506.64	674.38
506.856	652.38
507.073	648.38
507.289	658.38
507.506	645.38
507.722	669.38
507.939	682.38
508.155	660.38
508.372	649.38
508.588	619.38
508.805	651.38
509.021	629.38
509.238	626.38
509.454	672.38
509.67	622.38
509.887	647.38
510.103	648.38
510.319	636.38
510.536	730.38
510.752	1070.38
510.968	874.38
511.184	626.38
511.401	644.38
511.617	591.38
511.833	621.38
512.049	602.38
512.265	601.38
512.481	597.38
512.698	591.38
512.914	588.38
513.13	606.38
513.346	596.38
513.562	594.38
513.778	605.38
513.994	587.38
514.21	609.38
514.426	630.38
514.642	660.38
514.858	686.38
515.074	710.38
515.29	778.38
515.506	1122.38
515.721	955.38
515.937	714.38
516.153	652.38
516.369	633.38
516.585	648.38
516.801	646.38
517.016	647.38
517.232	660.38
517.448	695.38
517.664	663.38
517.879	692.38
518.095	679.38
518.311	678.38
518.527	653.38
518.742	641.38
518.958	614.38
519.173	640.38
519.389	632.38
519.605	618.38
519.82	618.38
520.036	637.38
520.251	631.38
520.467	633.38
520.682	641.38
520.898	626.38
521.113	653.38
521.329	672.38
521.544	716.38
521.76	872.38
521.975	1401.38
522.19	1395.38
522.406	786.38
522.621	650.38
522.836	612.38
523.052	578.38
523.267	567.38
523.482	550.38
523.698	560.38
523.913	562.38
524.128	553.38
524.343	543.38
524.559	527.38
524.774	502.38
524.989	527.38
525.204	539.38
525.419	510.38
525.634	515.38
525.849	515.38
526.064	530.38
526.28	507.38
526.495	470.38
526.71	486.38
526.925	522.38
527.14	518.38
527.355	491.38
527.57	501.38
527.785	516.38
527.999	497.38
528.214	486.38
528.429	496.38
528.644	504.38
528.859	514.38
529.074	506.38
529.289	527.38
529.503	574.38
529.718	552.38
529.933	548.38
530.148	514.38
530.363	500.38
530.577	488.38
530.792	498.38
531.007	522.38
531.221	505.38
531.436	478.38
531.651	491.38
531.865	496.38
532.08	483.38
532.295	491.38
532.509	505.38
532.724	482.38
532.938	489.38
533.153	491.38
533.367	484.38
533.582	498.38
533.796	487.38
534.011	462.38
534.225	480.38
534.44	470.38
534.654	481.38
534.868	472.38
535.083	461.38
535.297	478.38
535.511	480.38
535.726	475.38
535.94	484.38
536.154	465.38
536.369	473.38
536.583	468.38
536.797	464.38
537.011	442.38
537.225	459.38
537.44	475.38
537.654	452.38
537.868	483.38
538.082	452.38
538.296	458.38
538.51	480.38
538.724	467.38
538.938	454.38
539.153	470.38
539.367	470.38
539.581	491.38
539.795	456.38
540.009	465.38
540.222	469.38
540.436	452.38
540.65	462.38
540.864	480.38
541.078	467.38
541.292	474.38
541.506	476.38
541.72	453.38
541.934	448.38
542.147	470.38
542.361	454.38
542.575	446.38
542.789	455.38
543.002	477.38
543.216	481.38
543.43	465.38
543.644	478.38
543.857	464.38
544.071	470.38
544.285	449.38
544.498	457.38
544.712	476.38
544.925	458.38
545.139	468.38
545.352	490.38
545.566	449.38
545.779	461.38
545.993	462.38
546.206	467.38
546.42	450.38
546.633	471.38
546.847	469.38
547.06	467.38
547.274	438.38
547.487	456.38
547.7	467.38
547.914	487.38
548.127	468.38
548.34	458.38
548.554	464.38
548.767	450.38
548.98	464.38
549.193	465.38
549.407	438.38
549.62	470.38
549.833	458.38
550.046	460.38
550.259	453.38
550.473	460.38
550.686	460.38
550.899	467.38
551.112	440.38
551.325	439.38
551.538	462.38
551.751	452.38
551.964	436.38
552.177	453.38
552.39	450.38
552.603	456.38
552.816	454.38
553.029	479.38
553.242	492.38
553.455	460.38
553.667	485.38
553.88	485.38
554.093	473.38
554.306	474.38
554.519	480.38
554.732	476.38
554.944	448.38
555.157	428.38
555.37	450.38
555.583	439.38
555.795	454.38
556.008	435.38
556.221	439.38
556.433	404.38
556.646	432.38
556.859	420.38
557.071	414.38
557.284	412.38
557.496	424.38
557.709	424.38
557.921	413.38
558.134	407.38
558.346	404.38
558.559	413.38
558.771	416.38
558.984	396.38
559.196	399.38
559.409	426.38
559.621	390.38
559.833	399.38
560.046	393.38
560.258	388.38
560.47	393.38
560.683	380.38
560.895	403.38
561.107	397.38
561.32	396.38
561.532	409.38
561.744	409.38
561.956	409.38
562.168	403.38
562.381	421.38
562.593	394.38
562.805	422.38
563.017	428.38
563.229	424.38
563.441	408.38
563.653	394.38
563.865	411.38
564.077	411.38
564.289	403.38
564.501	404.38
564.713	424.38
564.925	425.38
565.137	442.38
565.349	462.38
565.561	454.38
565.773	445.38
565.985	482.38
566.197	448.38
566.408	499.38
566.62	502.38
566.832	535.38
567.044	561.38
567.255	570.38
567.467	580.38
567.679	581.38
567.891	589.38
568.102	613.38
568.314	594.38
568.526	570.38
568.737	520.38
568.949	496.38
569.161	480.38
569.372	470.38
569.584	452.38
569.795	443.38
570.007	425.38
570.218	460.38
570.43	441.38
570.641	418.38
570.853	393.38
571.064	424.38
571.276	416.38
571.487	395.38
571.698	382.38
571.91	377.38
572.121	401.38
572.333	381.38
572.544	364.38
572.755	357.38
572.966	365.38
573.178	358.38
573.389	355.38
573.6	360.38
573.811	375.38
574.023	368.38
574.234	350.38
574.445	355.38
574.656	339.38
574.867	361.38
575.078	363.38
575.289	338.38
575.501	334.38
575.712	352.38
575.923	353.38
576.134	325.38
576.345	333.38
576.556	333.38
576.767	317.38
576.978	323.38
577.188	326.38
577.399	344.38
577.61	329.38
577.821	332.38
578.032	343.38
578.243	372.38
578.454	536.38
578.665	414.38
578.875	326.38
579.086	325.38
579.297	315.38
579.508	329.38
579.718	326.38
579.929	319.38
580.14	316.38
580.35	312.38
580.561	322.38
580.772	319.38
580.982	325.38
581.193	306.38
581.403	311.38
581.614	307.38
581.825	330.38
582.035	333.38
582.246	306.38
582.456	302.38
582.667	311.38
582.877	311.38
583.087	306.38
583.298	324.38
583.508	324.38
583.719	312.38
583.929	303.38
584.139	318.38
584.35	293.38
584.56	304.38
584.77	314.38
584.981	304.38
585.191	312.38
585.401	292.38
585.611	295.38
585.821	306.38
586.032	298.38
586.242	292.38
586.452	303.38
586.662	290.38
586.872	307.38
587.082	316.38
587.292	301.38
587.502	293.38
587.713	306.38
587.923	284.38
588.133	308.38
588.343	312.38
588.553	310.38
588.762	312.38
588.972	311.38
589.182	307.38
589.392	334.38
589.602	311.38
589.812	312.38
590.022	312.38
590.232	301.38
590.441	318.38
590.651	324.38
590.861	311.38
591.071	305.38
591.281	302.38
591.49	324.38
591.7	308.38
591.91	323.38
592.119	332.38
592.329	330.38
592.539	346.38
592.748	351.38
592.958	336.38
593.167	360.38
593.377	347.38
593.587	359.38
593.796	350.38
594.006	340.38
594.215	348.38
594.424	364.38
594.634	339.38
594.843	338.38
595.053	335.38
595.262	346.38
595.472	326.38
595.681	315.38
595.89	318.38
596.1	308.38
596.309	303.38
596.518	283.38
596.727	301.38
596.937	311.38
597.146	298.38
597.355	298.38
597.564	284.38
597.774	286.38
597.983	291.38
598.192	275.38
598.401	287.38
598.61	274.38
598.819	292.38
599.028	268.38
599.237	283.38
599.446	281.38
599.655	278.38
599.864	268.38
600.073	260.38
600.282	253.38
600.491	269.38
600.7	268.38
600.909	257.38
601.118	267.38
601.327	281.38
601.536	276.38
601.745	272.38
601.953	268.38
602.162	280.38
602.371	252.38
602.58	269.38
602.789	264.38
602.997	275.38
603.206	276.38
603.415	260.38
603.623	257.38
603.832	278.38
604.041	258.38
604.249	247.38
604.458	269.38
604.666	258.38
604.875	279.38
605.084	260.38
605.292	262.38
605.501	244.38
605.709	266.38
605.918	244.38
606.126	251.38
606.334	239.38
606.543	249.38
606.751	243.38
606.96	252.38
607.168	255.38
607.376	263.38
607.585	245.38
607.793	245.38
608.001	253.38
608.21	255.38
608.418	265.38
608.626	234.38
608.834	269.38
609.043	246.38
609.251	243.38
609.459	252.38
609.667	260.38
609.875	256.38
610.083	241.38
610.291	232.38
610.499	260.38
610.707	245.38
610.916	262.38
611.124	268.38
611.332	250.38
611.54	254.38
611.748	243.38
611.955	260.38
612.163	248.38
612.371	262.38
612.579	244.38
612.787	263.38
612.995	250.38
613.203	231.38
613.411	244.38
613.618	246.38
613.826	241.38
614.034	242.38
614.242	262.38
614.449	252.38
614.657	242.38
614.865	247.38
615.072	240.38
615.28	252.38
615.488	261.38
615.695	247.38
615.903	250.38
616.111	242.38
616.318	256.38
616.526	260.38
616.733	255.38
616.941	252.38
617.148	245.38
617.356	254.38
617.563	245.38
617.771	263.38
617.978	247.38
618.185	240.38
618.393	226.38
618.6	248.38
618.807	244.38
619.015	237.38
619.222	242.38
619.429	226.38
619.637	246.38
619.844	226.38
620.051	231.38
620.258	242.38
620.466	215.38
620.673	237.38
620.88	232.38
621.087	239.38
621.294	220.38
621.501	240.38
621.708	240.38
621.915	231.38
622.122	209.38
622.329	222.38
622.536	241.38
622.743	239.38
622.95	232.38
623.157	224.38
623.364	211.38
623.571	240.38
623.778	219.38
623.985	227.38
624.192	214.38
624.399	217.38
624.606	206.38
624.812	223.38
625.019	218.38
625.226	227.38
625.433	218.38
625.639	209.38
625.846	217.38
626.053	226.38
626.259	219.38
626.466	208.38
626.673	219.38
626.879	208.38
627.086	203.38
627.293	228.38
627.499	210.38
627.706	205.38
627.912	210.38
628.119	192.38
628.325	216.38
628.532	187.38
628.738	193.38
628.945	211.38
629.151	194.38
629.357	206.38
629.564	195.38
629.77	205.38
629.976	204.38
630.183	192.38
630.389	202.38
630.595	192.38
630.802	232.38
631.008	196.38
631.214	192.38
631.42	204.38
631.627	206.38
631.833	193.38
632.039	196.38
632.245	196.38
632.451	204.38
632.657	189.38
632.863	193.38
633.069	193.38
633.275	204.38
633.481	196.38
633.688	204.38
633.893	178.38
634.099	193.38
634.305	192.38
634.511	180.38
634.717	188.38
634.923	205.38
635.129	184.38
635.335	194.38
635.541	188.38
635.747	203.38
635.952	198.38
636.158	195.38
636.364	194.38
636.57	192.38
636.775	188.38
636.981	185.38
637.187	195.38
637.392	199.38
637.598	189.38
637.804	202.38
638.009	173.38
638.215	183.38
638.421	172.38
638.626	184.38
638.832	188.38
639.037	180.38
639.243	175.38
639.448	171.38
639.654	188.38
639.859	192.38
640.065	177.38
640.27	203.38
640.475	181.38
640.681	174.38
640.886	177.38
641.091	179.38
641.297	185.38
641.502	188.38
641.707	174.38
641.913	176.38
642.118	176.38
642.323	191.38
642.528	169.38
642.733	185.38
642.939	196.38
643.144	186.38
643.349	169.38
643.554	155.38
643.759	184.38
643.964	163.38
644.169	171.38
644.374	176.38
644.579	182.38
644.784	177.38
644.989	157.38
645.194	174.38
645.399	192.38
645.604	186.38
645.809	177.38
646.014	182.38
646.219	166.38
646.423	176.38
646.628	178.38
646.833	164.38
647.038	169.38
647.243	173.38
647.447	166.38
647.652	188.38
647.857	158.38
648.062	160.38
648.266	182.38
648.471	196.38
648.676	182.38
648.88	158.38
649.085	179.38
649.289	179.38
649.494	158.38
649.698	170.38
649.903	193.38
650.107	188.38
650.312	169.38
650.516	159.38
650.721	157.38
650.925	148.38
651.13	157.38
651.334	149.38
651.539	162.38
651.743	162.38
651.947	157.38
652.152	147.38
652.356	152.38
652.56	162.38
652.764	150.38
652.969	154.38
653.173	140.38
653.377	130.38
653.581	143.38
653.785	119.38
653.99	150.38
654.194	146.38
654.398	148.38
654.602	140.38
654.806	143.38
655.01	140.38
655.214	135.38
655.418	124.38
655.622	138.38
655.826	137.38
656.03	115.38
656.234	136.38
656.438	146.38
656.642	124.38
656.846	143.38
657.049	143.38
657.253	120.38
657.457	134.38
657.661	128.38
657.865	124.38
658.068	117.38
658.272	123.38
658.476	99.38
658.68	97.38
658.883	100.38
659.087	108.38
659.291	89.38
659.494	99.38
659.698	100.38
659.901	108.38
660.105	109.38
660.309	97.38
660.512	91.38
660.716	100.38
660.919	94.38
661.123	94.38
661.326	91.38
661.53	97.38
661.733	94.38
661.936	92.38
662.14	94.38
662.343	93.38
662.546	99.38
662.75	102.38
662.953	84.38
663.156	94.38
663.36	87.38
663.563	82.38
663.766	90.38
663.969	95.38
664.173	75.38
664.376	88.38
664.579	81.38
664.782	85.38
664.985	92.38
665.188	81.38
665.391	85.38
665.594	85.38
665.797	82.38
666	74.38
666.203	86.38
666.406	83.38
666.609	92.38
666.812	89.38
667.015	76.38
667.218	78.38
667.421	83.38
667.624	86.38
667.827	79.38
668.03	81.38
668.232	89.38
668.435	77.38
668.638	77.38
668.841	77.38
669.043	93.38
669.246	76.38
669.449	77.38
669.651	80.38
669.854	76.38
670.057	95.38
670.259	94.38
670.462	76.38
670.665	74.38
670.867	83.38
671.07	78.38
671.272	90.38
671.475	89.38
671.677	93.38
671.88	99.38
672.082	69.38
672.284	87.38
672.487	69.38
672.689	75.38
672.892	82.38
