Data from 1973.PennyLincolnUp.Lamp.En5.5.200Scan.071719.P1.Changed Mount._HRD10591_15-45-36-853.txt Node
Date: Thu Jul 18 15:45:36 EDT 2019
User: cochatt
Spectrometer: HR+D1059
Trigger mode: 1
Integration Time (sec): 1.000000E-1
Scans to average: 1
Electric dark correction enabled: true
Nonlinearity correction enabled: false
Boxcar width: 0
XAxis mode: Wavelengths
Number of Pixels in Spectrum: 2048
>>>>>Begin Spectral Data<<<<<
223.165	-16.25
223.4	-16.25
223.635	-16.25
223.869	-24.25
224.104	-26.25
224.338	-11.25
224.573	-15.25
224.808	-22.25
225.042	-9.25
225.277	-4.25
225.511	-5.25
225.746	10.75
225.98	18.75
226.215	14.75
226.449	11.75
226.683	21.75
226.918	23.75
227.152	32.75
227.387	49.75
227.621	39.75
227.856	37.75
228.09	45.75
228.324	48.75
228.559	58.75
228.793	71.75
229.027	94.75
229.262	97.75
229.496	114.75
229.73	126.75
229.964	148.75
230.199	123.75
230.433	116.75
230.667	127.75
230.901	114.75
231.136	94.75
231.37	122.75
231.604	108.75
231.838	105.75
232.072	106.75
232.306	124.75
232.541	119.75
232.775	101.75
233.009	119.75
233.243	107.75
233.477	111.75
233.711	101.75
233.945	117.75
234.179	109.75
234.413	112.75
234.647	116.75
234.881	114.75
235.115	121.75
235.349	122.75
235.583	126.75
235.817	131.75
236.051	125.75
236.285	118.75
236.519	109.75
236.753	117.75
236.987	125.75
237.221	156.75
237.455	210.75
237.689	169.75
237.922	135.75
238.156	131.75
238.39	119.75
238.624	126.75
238.858	127.75
239.091	134.75
239.325	121.75
239.559	125.75
239.793	122.75
240.027	149.75
240.26	147.75
240.494	155.75
240.728	150.75
240.961	149.75
241.195	136.75
241.429	150.75
241.662	145.75
241.896	143.75
242.13	121.75
242.363	134.75
242.597	136.75
242.83	147.75
243.064	131.75
243.298	140.75
243.531	137.75
243.765	134.75
243.998	142.75
244.232	150.75
244.465	139.75
244.699	143.75
244.932	150.75
245.166	153.75
245.399	157.75
245.633	156.75
245.866	147.75
246.099	158.75
246.333	162.75
246.566	167.75
246.8	154.75
247.033	163.75
247.266	151.75
247.5	179.75
247.733	186.75
247.966	179.75
248.2	181.75
248.433	173.75
248.666	163.75
248.899	193.75
249.133	198.75
249.366	199.75
249.599	197.75
249.832	175.75
250.066	181.75
250.299	177.75
250.532	191.75
250.765	205.75
250.998	223.75
251.231	219.75
251.465	224.75
251.698	208.75
251.931	195.75
252.164	191.75
252.397	197.75
252.63	200.75
252.863	213.75
253.096	209.75
253.329	208.75
253.562	217.75
253.795	211.75
254.028	226.75
254.261	211.75
254.494	215.75
254.727	262.75
254.96	277.75
255.193	271.75
255.426	261.75
255.659	255.75
255.892	243.75
256.124	228.75
256.357	245.75
256.59	221.75
256.823	229.75
257.056	207.75
257.289	216.75
257.521	212.75
257.754	222.75
257.987	211.75
258.22	216.75
258.452	222.75
258.685	217.75
258.918	218.75
259.151	213.75
259.383	227.75
259.616	229.75
259.849	228.75
260.081	222.75
260.314	265.75
260.547	273.75
260.779	259.75
261.012	253.75
261.244	239.75
261.477	221.75
261.71	228.75
261.942	218.75
262.175	231.75
262.407	221.75
262.64	224.75
262.872	246.75
263.105	230.75
263.337	237.75
263.57	222.75
263.802	208.75
264.035	229.75
264.267	227.75
264.499	220.75
264.732	226.75
264.964	231.75
265.197	239.75
265.429	211.75
265.661	244.75
265.894	229.75
266.126	230.75
266.358	215.75
266.591	230.75
266.823	245.75
267.055	257.75
267.287	250.75
267.52	246.75
267.752	243.75
267.984	223.75
268.216	234.75
268.448	251.75
268.681	253.75
268.913	257.75
269.145	292.75
269.377	294.75
269.609	280.75
269.841	291.75
270.073	284.75
270.306	309.75
270.538	326.75
270.77	314.75
271.002	309.75
271.234	315.75
271.466	325.75
271.698	313.75
271.93	316.75
272.162	330.75
272.394	329.75
272.626	309.75
272.858	296.75
273.09	301.75
273.322	295.75
273.553	286.75
273.785	285.75
274.017	280.75
274.249	281.75
274.481	288.75
274.713	279.75
274.945	294.75
275.176	283.75
275.408	275.75
275.64	275.75
275.872	277.75
276.104	298.75
276.335	299.75
276.567	305.75
276.799	294.75
277.031	312.75
277.262	307.75
277.494	319.75
277.726	303.75
277.957	324.75
278.189	313.75
278.421	305.75
278.652	278.75
278.884	299.75
279.115	287.75
279.347	284.75
279.579	292.75
279.81	291.75
280.042	285.75
280.273	281.75
280.505	296.75
280.736	286.75
280.968	288.75
281.199	302.75
281.431	293.75
281.662	299.75
281.894	293.75
282.125	305.75
282.356	311.75
282.588	317.75
282.819	325.75
283.051	320.75
283.282	292.75
283.513	309.75
283.745	317.75
283.976	330.75
284.207	307.75
284.439	318.75
284.67	320.75
284.901	305.75
285.132	321.75
285.364	303.75
285.595	304.75
285.826	319.75
286.057	323.75
286.288	317.75
286.52	296.75
286.751	319.75
286.982	323.75
287.213	312.75
287.444	303.75
287.675	309.75
287.906	353.75
288.138	335.75
288.369	351.75
288.6	330.75
288.831	329.75
289.062	337.75
289.293	339.75
289.524	329.75
289.755	322.75
289.986	321.75
290.217	327.75
290.448	344.75
290.679	328.75
290.91	323.75
291.141	343.75
291.371	335.75
291.602	323.75
291.833	340.75
292.064	317.75
292.295	320.75
292.526	335.75
292.757	341.75
292.987	323.75
293.218	330.75
293.449	343.75
293.68	334.75
293.91	341.75
294.141	329.75
294.372	325.75
294.603	344.75
294.833	313.75
295.064	329.75
295.295	348.75
295.525	316.75
295.756	318.75
295.987	355.75
296.217	364.75
296.448	369.75
296.679	333.75
296.909	336.75
297.14	334.75
297.37	339.75
297.601	317.75
297.831	338.75
298.062	350.75
298.292	358.75
298.523	355.75
298.753	354.75
298.984	348.75
299.214	347.75
299.445	352.75
299.675	356.75
299.905	377.75
300.136	373.75
300.366	350.75
300.597	364.75
300.827	389.75
301.057	342.75
301.288	339.75
301.518	386.75
301.748	371.75
301.979	383.75
302.209	389.75
302.439	371.75
302.669	379.75
302.9	350.75
303.13	369.75
303.36	364.75
303.59	389.75
303.82	369.75
304.051	369.75
304.281	377.75
304.511	356.75
304.741	346.75
304.971	366.75
305.201	370.75
305.431	366.75
305.661	371.75
305.891	365.75
306.121	361.75
306.352	371.75
306.582	353.75
306.812	346.75
307.042	376.75
307.272	377.75
307.502	362.75
307.731	354.75
307.961	378.75
308.191	375.75
308.421	387.75
308.651	376.75
308.881	369.75
309.111	368.75
309.341	364.75
309.571	387.75
309.8	389.75
310.03	391.75
310.26	408.75
310.49	390.75
310.72	415.75
310.949	427.75
311.179	419.75
311.409	405.75
311.639	395.75
311.868	409.75
312.098	403.75
312.328	417.75
312.557	425.75
312.787	440.75
313.017	417.75
313.246	417.75
313.476	399.75
313.706	411.75
313.935	426.75
314.165	428.75
314.394	413.75
314.624	411.75
314.853	411.75
315.083	418.75
315.312	420.75
315.542	404.75
315.771	413.75
316.001	413.75
316.23	402.75
316.46	403.75
316.689	424.75
316.919	439.75
317.148	421.75
317.377	412.75
317.607	425.75
317.836	414.75
318.065	397.75
318.295	414.75
318.524	402.75
318.753	407.75
318.983	424.75
319.212	385.75
319.441	420.75
319.67	401.75
319.9	427.75
320.129	414.75
320.358	411.75
320.587	404.75
320.816	400.75
321.046	422.75
321.275	429.75
321.504	414.75
321.733	442.75
321.962	426.75
322.191	449.75
322.42	426.75
322.649	438.75
322.878	457.75
323.108	446.75
323.337	477.75
323.566	509.75
323.795	500.75
324.024	522.75
324.253	634.75
324.482	776.75
324.71	1098.75
324.939	1575.75
325.168	1397.75
325.397	782.75
325.626	593.75
325.855	511.75
326.084	505.75
326.313	492.75
326.542	475.75
326.77	517.75
326.999	591.75
327.228	738.75
327.457	1023.75
327.686	1213.75
327.914	872.75
328.143	631.75
328.372	573.75
328.6	538.75
328.829	522.75
329.058	527.75
329.287	555.75
329.515	522.75
329.744	519.75
329.972	509.75
330.201	498.75
330.43	539.75
330.658	542.75
330.887	579.75
331.115	587.75
331.344	531.75
331.572	498.75
331.801	489.75
332.03	491.75
332.258	495.75
332.486	495.75
332.715	486.75
332.943	498.75
333.172	499.75
333.4	546.75
333.629	543.75
333.857	542.75
334.085	570.75
334.314	566.75
334.542	583.75
334.771	586.75
334.999	535.75
335.227	537.75
335.455	517.75
335.684	525.75
335.912	514.75
336.14	491.75
336.369	502.75
336.597	492.75
336.825	494.75
337.053	482.75
337.281	495.75
337.51	470.75
337.738	466.75
337.966	469.75
338.194	469.75
338.422	480.75
338.65	489.75
338.878	467.75
339.106	477.75
339.334	471.75
339.562	489.75
339.79	469.75
340.018	477.75
340.246	461.75
340.474	468.75
340.702	468.75
340.93	471.75
341.158	454.75
341.386	457.75
341.614	477.75
341.842	462.75
342.07	465.75
342.298	475.75
342.526	471.75
342.754	464.75
342.981	459.75
343.209	443.75
343.437	469.75
343.665	459.75
343.893	511.75
344.12	494.75
344.348	515.75
344.576	477.75
344.804	489.75
345.031	476.75
345.259	456.75
345.487	454.75
345.714	455.75
345.942	473.75
346.17	430.75
346.397	454.75
346.625	434.75
346.853	443.75
347.08	432.75
347.308	444.75
347.535	449.75
347.763	438.75
347.99	460.75
348.218	467.75
348.445	462.75
348.673	455.75
348.9	447.75
349.128	450.75
349.355	430.75
349.583	435.75
349.81	433.75
350.037	430.75
350.265	403.75
350.492	437.75
350.72	433.75
350.947	439.75
351.174	420.75
351.402	448.75
351.629	427.75
351.856	449.75
352.083	443.75
352.311	430.75
352.538	459.75
352.765	462.75
352.992	434.75
353.22	433.75
353.447	442.75
353.674	447.75
353.901	431.75
354.128	428.75
354.355	422.75
354.583	425.75
354.81	432.75
355.037	417.75
355.264	418.75
355.491	397.75
355.718	417.75
355.945	420.75
356.172	431.75
356.399	419.75
356.626	414.75
356.853	417.75
357.08	410.75
357.307	420.75
357.534	428.75
357.761	411.75
357.988	435.75
358.215	424.75
358.441	414.75
358.668	410.75
358.895	417.75
359.122	435.75
359.349	413.75
359.576	422.75
359.802	456.75
360.029	463.75
360.256	463.75
360.483	451.75
360.709	445.75
360.936	438.75
361.163	444.75
361.39	413.75
361.616	442.75
361.843	435.75
362.07	431.75
362.296	443.75
362.523	414.75
362.749	435.75
362.976	437.75
363.203	426.75
363.429	425.75
363.656	413.75
363.882	418.75
364.109	418.75
364.335	412.75
364.562	419.75
364.788	430.75
365.015	446.75
365.241	413.75
365.468	426.75
365.694	422.75
365.92	403.75
366.147	412.75
366.373	418.75
366.599	421.75
366.826	408.75
367.052	425.75
367.278	430.75
367.505	418.75
367.731	435.75
367.957	410.75
368.184	409.75
368.41	419.75
368.636	453.75
368.862	468.75
369.089	448.75
369.315	437.75
369.541	430.75
369.767	437.75
369.993	414.75
370.219	424.75
370.445	419.75
370.672	438.75
370.898	422.75
371.124	435.75
371.35	438.75
371.576	425.75
371.802	453.75
372.028	417.75
372.254	433.75
372.48	440.75
372.706	444.75
372.932	438.75
373.158	447.75
373.384	424.75
373.61	440.75
373.835	458.75
374.061	441.75
374.287	435.75
374.513	458.75
374.739	444.75
374.965	443.75
375.191	484.75
375.416	443.75
375.642	445.75
375.868	454.75
376.094	453.75
376.319	423.75
376.545	445.75
376.771	441.75
376.997	438.75
377.222	438.75
377.448	452.75
377.674	475.75
377.899	442.75
378.125	425.75
378.35	422.75
378.576	454.75
378.802	438.75
379.027	434.75
379.253	434.75
379.478	427.75
379.704	431.75
379.929	431.75
380.155	427.75
380.38	419.75
380.606	411.75
380.831	411.75
381.057	440.75
381.282	439.75
381.507	453.75
381.733	453.75
381.958	447.75
382.184	448.75
382.409	451.75
382.634	437.75
382.86	455.75
383.085	443.75
383.31	441.75
383.535	458.75
383.761	463.75
383.986	481.75
384.211	465.75
384.436	487.75
384.662	472.75
384.887	493.75
385.112	471.75
385.337	481.75
385.562	485.75
385.787	471.75
386.013	500.75
386.238	503.75
386.463	476.75
386.688	499.75
386.913	482.75
387.138	473.75
387.363	491.75
387.588	507.75
387.813	501.75
388.038	491.75
388.263	485.75
388.488	469.75
388.713	475.75
388.938	478.75
389.163	494.75
389.387	499.75
389.612	476.75
389.837	484.75
390.062	489.75
390.287	491.75
390.512	483.75
390.736	470.75
390.961	466.75
391.186	475.75
391.411	494.75
391.636	522.75
391.86	527.75
392.085	515.75
392.31	537.75
392.534	501.75
392.759	495.75
392.984	496.75
393.208	511.75
393.433	484.75
393.658	511.75
393.882	485.75
394.107	478.75
394.331	511.75
394.556	494.75
394.78	497.75
395.005	473.75
395.229	492.75
395.454	503.75
395.678	505.75
395.903	511.75
396.127	549.75
396.352	544.75
396.576	518.75
396.801	508.75
397.025	515.75
397.249	518.75
397.474	515.75
397.698	546.75
397.922	553.75
398.147	534.75
398.371	585.75
398.595	556.75
398.82	574.75
399.044	584.75
399.268	624.75
399.492	671.75
399.717	731.75
399.941	719.75
400.165	763.75
400.389	725.75
400.613	664.75
400.837	618.75
401.062	631.75
401.286	586.75
401.51	565.75
401.734	557.75
401.958	581.75
402.182	574.75
402.406	612.75
402.63	597.75
402.854	599.75
403.078	605.75
403.302	596.75
403.526	617.75
403.75	620.75
403.974	612.75
404.198	599.75
404.422	615.75
404.645	607.75
404.869	618.75
405.093	664.75
405.317	656.75
405.541	703.75
405.765	654.75
405.988	615.75
406.212	631.75
406.436	630.75
406.66	661.75
406.883	650.75
407.107	663.75
407.331	705.75
407.555	767.75
407.778	781.75
408.002	730.75
408.226	673.75
408.449	671.75
408.673	655.75
408.896	669.75
409.12	700.75
409.344	677.75
409.567	625.75
409.791	613.75
410.014	582.75
410.238	582.75
410.461	598.75
410.685	588.75
410.908	607.75
411.132	637.75
411.355	651.75
411.578	629.75
411.802	610.75
412.025	600.75
412.249	609.75
412.472	631.75
412.695	632.75
412.919	617.75
413.142	596.75
413.365	585.75
413.589	583.75
413.812	559.75
414.035	575.75
414.258	557.75
414.482	567.75
414.705	582.75
414.928	562.75
415.151	582.75
415.374	561.75
415.597	534.75
415.821	566.75
416.044	580.75
416.267	571.75
416.49	565.75
416.713	546.75
416.936	565.75
417.159	547.75
417.382	571.75
417.605	572.75
417.828	574.75
418.051	600.75
418.274	590.75
418.497	578.75
418.72	564.75
418.943	555.75
419.166	618.75
419.389	617.75
419.611	626.75
419.834	588.75
420.057	607.75
420.28	597.75
420.503	586.75
420.726	580.75
420.948	597.75
421.171	625.75
421.394	661.75
421.617	602.75
421.839	578.75
422.062	583.75
422.285	603.75
422.507	640.75
422.73	705.75
422.953	709.75
423.175	633.75
423.398	631.75
423.621	606.75
423.843	641.75
424.066	639.75
424.288	641.75
424.511	621.75
424.733	690.75
424.956	728.75
425.178	699.75
425.401	705.75
425.623	734.75
425.846	659.75
426.068	625.75
426.291	611.75
426.513	597.75
426.735	603.75
426.958	655.75
427.18	712.75
427.402	796.75
427.625	858.75
427.847	755.75
428.069	685.75
428.292	597.75
428.514	581.75
428.736	563.75
428.958	558.75
429.181	548.75
429.403	555.75
429.625	554.75
429.847	571.75
430.069	652.75
430.292	631.75
430.514	565.75
430.736	557.75
430.958	543.75
431.18	537.75
431.402	560.75
431.624	533.75
431.846	547.75
432.068	524.75
432.29	509.75
432.512	548.75
432.734	531.75
432.956	547.75
433.178	543.75
433.4	556.75
433.622	539.75
433.844	541.75
434.066	525.75
434.287	522.75
434.509	553.75
434.731	584.75
434.953	569.75
435.175	601.75
435.397	599.75
435.618	605.75
435.84	633.75
436.062	684.75
436.284	742.75
436.505	649.75
436.727	589.75
436.949	595.75
437.17	559.75
437.392	555.75
437.614	557.75
437.835	580.75
438.057	674.75
438.278	774.75
438.5	733.75
438.721	797.75
438.943	776.75
439.165	635.75
439.386	581.75
439.608	594.75
439.829	614.75
440.05	610.75
440.272	616.75
440.493	609.75
440.715	589.75
440.936	570.75
441.158	576.75
441.379	587.75
441.6	572.75
441.822	613.75
442.043	642.75
442.264	677.75
442.486	744.75
442.707	651.75
442.928	627.75
443.149	610.75
443.371	625.75
443.592	667.75
443.813	756.75
444.034	839.75
444.255	695.75
444.476	662.75
444.698	630.75
444.919	650.75
445.14	751.75
445.361	675.75
445.582	665.75
445.803	666.75
446.024	743.75
446.245	737.75
446.466	683.75
446.687	613.75
446.908	583.75
447.129	561.75
447.35	547.75
447.571	548.75
447.792	535.75
448.013	550.75
448.234	540.75
448.455	581.75
448.675	665.75
448.896	788.75
449.117	683.75
449.338	641.75
449.559	731.75
449.779	840.75
450	675.75
450.221	575.75
450.442	556.75
450.662	542.75
450.883	513.75
451.104	558.75
451.324	513.75
451.545	531.75
451.766	485.75
451.986	484.75
452.207	484.75
452.428	474.75
452.648	488.75
452.869	476.75
453.089	518.75
453.31	489.75
453.53	494.75
453.751	490.75
453.971	479.75
454.192	490.75
454.412	484.75
454.633	478.75
454.853	473.75
455.073	498.75
455.294	519.75
455.514	537.75
455.734	545.75
455.955	492.75
456.175	470.75
456.395	454.75
456.616	477.75
456.836	465.75
457.056	446.75
457.276	449.75
457.497	478.75
457.717	447.75
457.937	468.75
458.157	446.75
458.377	461.75
458.598	484.75
458.818	566.75
459.038	576.75
459.258	647.75
459.478	570.75
459.698	537.75
459.918	532.75
460.138	529.75
460.358	549.75
460.578	559.75
460.798	581.75
461.018	571.75
461.238	572.75
461.458	580.75
461.678	551.75
461.898	574.75
462.118	590.75
462.338	569.75
462.558	598.75
462.777	577.75
462.997	619.75
463.217	642.75
463.437	653.75
463.657	635.75
463.876	614.75
464.096	631.75
464.316	638.75
464.536	611.75
464.755	631.75
464.975	589.75
465.195	614.75
465.414	629.75
465.634	597.75
465.854	544.75
466.073	541.75
466.293	517.75
466.512	511.75
466.732	498.75
466.951	506.75
467.171	539.75
467.391	515.75
467.61	505.75
467.829	504.75
468.049	514.75
468.268	519.75
468.488	510.75
468.707	492.75
468.927	487.75
469.146	499.75
469.365	503.75
469.585	483.75
469.804	493.75
470.023	533.75
470.243	529.75
470.462	540.75
470.681	535.75
470.901	523.75
471.12	527.75
471.339	512.75
471.558	499.75
471.777	536.75
471.997	505.75
472.216	487.75
472.435	529.75
472.654	512.75
472.873	511.75
473.092	506.75
473.311	501.75
473.53	516.75
473.749	530.75
473.968	525.75
474.187	608.75
474.406	646.75
474.625	562.75
474.844	522.75
475.063	535.75
475.282	528.75
475.501	516.75
475.72	515.75
475.939	526.75
476.158	528.75
476.377	518.75
476.596	510.75
476.814	549.75
477.033	523.75
477.252	558.75
477.471	540.75
477.69	547.75
477.908	577.75
478.127	578.75
478.346	559.75
478.564	578.75
478.783	589.75
479.002	595.75
479.22	609.75
479.439	605.75
479.658	610.75
479.876	616.75
480.095	635.75
480.313	634.75
480.532	672.75
480.751	639.75
480.969	635.75
481.188	659.75
481.406	669.75
481.624	612.75
481.843	610.75
482.061	613.75
482.28	601.75
482.498	585.75
482.717	573.75
482.935	602.75
483.153	598.75
483.372	583.75
483.59	581.75
483.808	587.75
484.027	565.75
484.245	566.75
484.463	595.75
484.681	602.75
484.9	595.75
485.118	630.75
485.336	606.75
485.554	604.75
485.772	612.75
485.99	608.75
486.209	598.75
486.427	605.75
486.645	617.75
486.863	633.75
487.081	633.75
487.299	632.75
487.517	612.75
487.735	622.75
487.953	633.75
488.171	650.75
488.389	639.75
488.607	633.75
488.825	620.75
489.043	649.75
489.261	637.75
489.479	663.75
489.696	670.75
489.914	637.75
490.132	661.75
490.35	639.75
490.568	656.75
490.786	685.75
491.003	679.75
491.221	653.75
491.439	698.75
491.657	707.75
491.874	709.75
492.092	684.75
492.31	717.75
492.527	737.75
492.745	701.75
492.963	707.75
493.18	746.75
493.398	720.75
493.615	719.75
493.833	725.75
494.05	713.75
494.268	738.75
494.485	730.75
494.703	734.75
494.92	718.75
495.138	744.75
495.355	728.75
495.573	729.75
495.79	735.75
496.008	751.75
496.225	728.75
496.442	755.75
496.66	739.75
496.877	749.75
497.094	746.75
497.312	757.75
497.529	789.75
497.746	810.75
497.963	807.75
498.181	807.75
498.398	841.75
498.615	847.75
498.832	910.75
499.049	910.75
499.267	981.75
499.484	991.75
499.701	1061.75
499.918	1128.75
500.135	1198.75
500.352	1289.75
500.569	1355.75
500.786	1306.75
501.003	1285.75
501.22	1230.75
501.437	1155.75
501.654	1063.75
501.871	1033.75
502.088	990.75
502.305	954.75
502.522	883.75
502.739	898.75
502.956	839.75
503.172	808.75
503.389	812.75
503.606	805.75
503.823	797.75
504.04	765.75
504.256	779.75
504.473	758.75
504.69	779.75
504.907	773.75
505.123	729.75
505.34	718.75
505.557	706.75
505.773	711.75
505.99	719.75
506.207	718.75
506.423	675.75
506.64	683.75
506.856	692.75
507.073	663.75
507.289	671.75
507.506	652.75
507.722	663.75
507.939	683.75
508.155	664.75
508.372	642.75
508.588	656.75
508.805	648.75
509.021	659.75
509.238	655.75
509.454	660.75
509.67	666.75
509.887	643.75
510.103	661.75
510.319	661.75
510.536	693.75
510.752	952.75
510.968	799.75
511.184	632.75
511.401	626.75
511.617	619.75
511.833	620.75
512.049	595.75
512.265	584.75
512.481	616.75
512.698	589.75
512.914	596.75
513.13	606.75
513.346	587.75
513.562	601.75
513.778	602.75
513.994	605.75
514.21	614.75
514.426	633.75
514.642	659.75
514.858	657.75
515.074	650.75
515.29	721.75
515.506	987.75
515.721	837.75
515.937	687.75
516.153	663.75
516.369	638.75
516.585	659.75
516.801	637.75
517.016	671.75
517.232	683.75
517.448	687.75
517.664	697.75
517.879	701.75
518.095	724.75
518.311	709.75
518.527	679.75
518.742	693.75
518.958	648.75
519.173	635.75
519.389	628.75
519.605	625.75
519.82	609.75
520.036	636.75
520.251	647.75
520.467	639.75
520.682	629.75
520.898	623.75
521.113	625.75
521.329	666.75
521.544	657.75
521.76	810.75
521.975	1163.75
522.19	1126.75
522.406	727.75
522.621	622.75
522.836	588.75
523.052	589.75
523.267	591.75
523.482	555.75
523.698	551.75
523.913	564.75
524.128	547.75
524.343	526.75
524.559	527.75
524.774	517.75
524.989	526.75
525.204	556.75
525.419	551.75
525.634	527.75
525.849	533.75
526.064	511.75
526.28	515.75
526.495	502.75
526.71	517.75
526.925	531.75
527.14	506.75
527.355	512.75
527.57	514.75
527.785	503.75
527.999	506.75
528.214	516.75
528.429	504.75
528.644	503.75
528.859	501.75
529.074	513.75
529.289	513.75
529.503	591.75
529.718	549.75
529.933	528.75
530.148	503.75
530.363	518.75
530.577	481.75
530.792	506.75
531.007	487.75
531.221	509.75
531.436	501.75
531.651	497.75
531.865	503.75
532.08	519.75
532.295	515.75
532.509	490.75
532.724	477.75
532.938	498.75
533.153	509.75
533.367	509.75
533.582	486.75
533.796	500.75
534.011	486.75
534.225	489.75
534.44	497.75
534.654	489.75
534.868	463.75
535.083	499.75
535.297	503.75
535.511	510.75
535.726	494.75
535.94	507.75
536.154	465.75
536.369	468.75
536.583	457.75
536.797	489.75
537.011	451.75
537.225	487.75
537.44	472.75
537.654	477.75
537.868	474.75
538.082	484.75
538.296	500.75
538.51	479.75
538.724	482.75
538.938	492.75
539.153	478.75
539.367	490.75
539.581	473.75
539.795	453.75
540.009	489.75
540.222	488.75
540.436	462.75
540.65	477.75
540.864	493.75
541.078	486.75
541.292	495.75
541.506	479.75
541.72	460.75
541.934	478.75
542.147	466.75
542.361	489.75
542.575	469.75
542.789	459.75
543.002	476.75
543.216	469.75
543.43	466.75
543.644	467.75
543.857	470.75
544.071	485.75
544.285	489.75
544.498	472.75
544.712	497.75
544.925	459.75
545.139	484.75
545.352	465.75
545.566	484.75
545.779	455.75
545.993	470.75
546.206	469.75
546.42	513.75
546.633	472.75
546.847	504.75
547.06	457.75
547.274	453.75
547.487	486.75
547.7	488.75
547.914	484.75
548.127	474.75
548.34	458.75
548.554	456.75
548.767	480.75
548.98	474.75
549.193	477.75
549.407	478.75
549.62	504.75
549.833	484.75
550.046	485.75
550.259	466.75
550.473	473.75
550.686	459.75
550.899	477.75
551.112	461.75
551.325	446.75
551.538	460.75
551.751	478.75
551.964	466.75
552.177	463.75
552.39	459.75
552.603	483.75
552.816	499.75
553.029	486.75
553.242	473.75
553.455	473.75
553.667	515.75
553.88	497.75
554.093	475.75
554.306	494.75
554.519	479.75
554.732	490.75
554.944	465.75
555.157	464.75
555.37	445.75
555.583	437.75
555.795	436.75
556.008	442.75
556.221	426.75
556.433	422.75
556.646	433.75
556.859	424.75
557.071	441.75
557.284	437.75
557.496	408.75
557.709	451.75
557.921	416.75
558.134	415.75
558.346	428.75
558.559	418.75
558.771	407.75
558.984	393.75
559.196	403.75
559.409	401.75
559.621	413.75
559.833	406.75
560.046	398.75
560.258	400.75
560.47	402.75
560.683	407.75
560.895	400.75
561.107	433.75
561.32	407.75
561.532	422.75
561.744	381.75
561.956	420.75
562.168	428.75
562.381	402.75
562.593	425.75
562.805	414.75
563.017	399.75
563.229	417.75
563.441	409.75
563.653	427.75
563.865	435.75
564.077	417.75
564.289	431.75
564.501	420.75
564.713	445.75
564.925	421.75
565.137	469.75
565.349	456.75
565.561	467.75
565.773	468.75
565.985	481.75
566.197	507.75
566.408	517.75
566.62	549.75
566.832	550.75
567.044	577.75
567.255	601.75
567.467	573.75
567.679	603.75
567.891	626.75
568.102	638.75
568.314	604.75
568.526	583.75
568.737	553.75
568.949	505.75
569.161	501.75
569.372	465.75
569.584	437.75
569.795	453.75
570.007	435.75
570.218	449.75
570.43	455.75
570.641	421.75
570.853	437.75
571.064	420.75
571.276	420.75
571.487	424.75
571.698	408.75
571.91	425.75
572.121	390.75
572.333	374.75
572.544	389.75
572.755	387.75
572.966	379.75
573.178	363.75
573.389	362.75
573.6	383.75
573.811	357.75
574.023	367.75
574.234	343.75
574.445	354.75
574.656	367.75
574.867	351.75
575.078	368.75
575.289	345.75
575.501	346.75
575.712	347.75
575.923	348.75
576.134	345.75
576.345	337.75
576.556	356.75
576.767	335.75
576.978	360.75
577.188	353.75
577.399	344.75
577.61	336.75
577.821	328.75
578.032	343.75
578.243	365.75
578.454	479.75
578.665	388.75
578.875	345.75
579.086	334.75
579.297	331.75
579.508	331.75
579.718	332.75
579.929	327.75
580.14	320.75
580.35	310.75
580.561	332.75
580.772	335.75
580.982	344.75
581.193	317.75
581.403	327.75
581.614	322.75
581.825	317.75
582.035	311.75
582.246	309.75
582.456	318.75
582.667	321.75
582.877	323.75
583.087	320.75
583.298	322.75
583.508	330.75
583.719	310.75
583.929	330.75
584.139	322.75
584.35	317.75
584.56	314.75
584.77	309.75
584.981	316.75
585.191	302.75
585.401	323.75
585.611	334.75
585.821	315.75
586.032	332.75
586.242	313.75
586.452	308.75
586.662	306.75
586.872	313.75
587.082	301.75
587.292	310.75
587.502	310.75
587.713	308.75
587.923	311.75
588.133	316.75
588.343	307.75
588.553	318.75
588.762	316.75
588.972	316.75
589.182	326.75
589.392	298.75
589.602	309.75
589.812	316.75
590.022	328.75
590.232	307.75
590.441	324.75
590.651	315.75
590.861	342.75
591.071	323.75
591.281	329.75
591.49	330.75
591.7	309.75
591.91	331.75
592.119	325.75
592.329	334.75
592.539	350.75
592.748	322.75
592.958	343.75
593.167	348.75
593.377	358.75
593.587	355.75
593.796	353.75
594.006	366.75
594.215	390.75
594.424	359.75
594.634	362.75
594.843	358.75
595.053	334.75
595.262	327.75
595.472	325.75
595.681	330.75
595.89	327.75
596.1	317.75
596.309	302.75
596.518	307.75
596.727	298.75
596.937	305.75
597.146	294.75
597.355	302.75
597.564	290.75
597.774	286.75
597.983	298.75
598.192	282.75
598.401	280.75
598.61	287.75
598.819	285.75
599.028	301.75
599.237	284.75
599.446	286.75
599.655	274.75
599.864	276.75
600.073	261.75
600.282	268.75
600.491	272.75
600.7	281.75
600.909	270.75
601.118	261.75
601.327	275.75
601.536	281.75
601.745	265.75
601.953	257.75
602.162	270.75
602.371	259.75
602.58	271.75
602.789	282.75
602.997	279.75
603.206	258.75
603.415	258.75
603.623	269.75
603.832	277.75
604.041	260.75
604.249	245.75
604.458	252.75
604.666	256.75
604.875	246.75
605.084	252.75
605.292	254.75
605.501	271.75
605.709	253.75
605.918	265.75
606.126	243.75
606.334	274.75
606.543	263.75
606.751	279.75
606.96	268.75
607.168	265.75
607.376	262.75
607.585	261.75
607.793	265.75
608.001	241.75
608.21	253.75
608.418	254.75
608.626	241.75
608.834	241.75
609.043	255.75
609.251	248.75
609.459	244.75
609.667	248.75
609.875	241.75
610.083	243.75
610.291	259.75
610.499	251.75
610.707	261.75
610.916	250.75
611.124	255.75
611.332	235.75
611.54	255.75
611.748	263.75
611.955	260.75
612.163	239.75
612.371	255.75
612.579	250.75
612.787	256.75
612.995	237.75
613.203	250.75
613.411	260.75
613.618	245.75
613.826	257.75
614.034	248.75
614.242	239.75
614.449	262.75
614.657	254.75
614.865	254.75
615.072	243.75
615.28	259.75
615.488	251.75
615.695	263.75
615.903	245.75
616.111	257.75
616.318	260.75
616.526	254.75
616.733	267.75
616.941	260.75
617.148	265.75
617.356	254.75
617.563	262.75
617.771	245.75
617.978	262.75
618.185	253.75
618.393	244.75
618.6	245.75
618.807	245.75
619.015	265.75
619.222	244.75
619.429	245.75
619.637	245.75
619.844	246.75
620.051	234.75
620.258	245.75
620.466	240.75
620.673	229.75
620.88	225.75
621.087	231.75
621.294	238.75
621.501	230.75
621.708	250.75
621.915	233.75
622.122	245.75
622.329	254.75
622.536	226.75
622.743	250.75
622.95	220.75
623.157	242.75
623.364	236.75
623.571	227.75
623.778	213.75
623.985	220.75
624.192	233.75
624.399	233.75
624.606	237.75
624.812	238.75
625.019	239.75
625.226	243.75
625.433	225.75
625.639	221.75
625.846	217.75
626.053	221.75
626.259	217.75
626.466	223.75
626.673	211.75
626.879	206.75
627.086	196.75
627.293	233.75
627.499	245.75
627.706	213.75
627.912	217.75
628.119	229.75
628.325	214.75
628.532	209.75
628.738	221.75
628.945	210.75
629.151	217.75
629.357	215.75
629.564	204.75
629.77	223.75
629.976	202.75
630.183	210.75
630.389	209.75
630.595	188.75
630.802	209.75
631.008	209.75
631.214	202.75
631.42	207.75
631.627	225.75
631.833	222.75
632.039	197.75
632.245	204.75
632.451	187.75
632.657	204.75
632.863	199.75
633.069	200.75
633.275	218.75
633.481	197.75
633.688	181.75
633.893	199.75
634.099	198.75
634.305	201.75
634.511	194.75
634.717	203.75
634.923	175.75
635.129	177.75
635.335	204.75
635.541	177.75
635.747	200.75
635.952	190.75
636.158	188.75
636.364	183.75
636.57	196.75
636.775	189.75
636.981	193.75
637.187	201.75
637.392	183.75
637.598	186.75
637.804	195.75
638.009	204.75
638.215	193.75
638.421	156.75
638.626	171.75
638.832	171.75
639.037	189.75
639.243	179.75
639.448	161.75
639.654	186.75
639.859	181.75
640.065	175.75
640.27	181.75
640.475	192.75
640.681	170.75
640.886	177.75
641.091	176.75
641.297	200.75
641.502	186.75
641.707	183.75
641.913	187.75
642.118	181.75
642.323	170.75
642.528	173.75
642.733	179.75
642.939	188.75
643.144	176.75
643.349	170.75
643.554	177.75
643.759	150.75
643.964	179.75
644.169	181.75
644.374	166.75
644.579	163.75
644.784	164.75
644.989	171.75
645.194	183.75
645.399	197.75
645.604	170.75
645.809	183.75
646.014	180.75
646.219	178.75
646.423	170.75
646.628	159.75
646.833	178.75
647.038	185.75
647.243	179.75
647.447	191.75
647.652	183.75
647.857	181.75
648.062	198.75
648.266	167.75
648.471	165.75
648.676	187.75
648.88	189.75
649.085	198.75
649.289	193.75
649.494	188.75
649.698	198.75
649.903	182.75
650.107	169.75
650.312	160.75
650.516	160.75
650.721	173.75
650.925	153.75
651.13	164.75
651.334	153.75
651.539	170.75
651.743	160.75
651.947	147.75
652.152	153.75
652.356	166.75
652.56	154.75
652.764	161.75
652.969	153.75
653.173	139.75
653.377	141.75
653.581	145.75
653.785	144.75
653.99	144.75
654.194	153.75
654.398	141.75
654.602	143.75
654.806	146.75
655.01	153.75
655.214	142.75
655.418	144.75
655.622	149.75
655.826	124.75
656.03	135.75
656.234	136.75
656.438	144.75
656.642	150.75
656.846	141.75
657.049	151.75
657.253	126.75
657.457	127.75
657.661	140.75
657.865	104.75
658.068	126.75
658.272	126.75
658.476	109.75
658.68	126.75
658.883	107.75
659.087	97.75
659.291	101.75
659.494	108.75
659.698	105.75
659.901	106.75
660.105	108.75
660.309	88.75
660.512	95.75
660.716	93.75
660.919	91.75
661.123	95.75
661.326	90.75
661.53	100.75
661.733	94.75
661.936	83.75
662.14	94.75
662.343	80.75
662.546	86.75
662.75	93.75
662.953	98.75
663.156	91.75
663.36	102.75
663.563	85.75
663.766	71.75
663.969	85.75
664.173	96.75
664.376	78.75
664.579	82.75
664.782	77.75
664.985	85.75
665.188	90.75
665.391	78.75
665.594	82.75
665.797	78.75
666	83.75
666.203	89.75
666.406	92.75
666.609	82.75
666.812	81.75
667.015	75.75
667.218	83.75
667.421	90.75
667.624	76.75
667.827	77.75
668.03	75.75
668.232	82.75
668.435	77.75
668.638	73.75
668.841	77.75
669.043	86.75
669.246	81.75
669.449	73.75
669.651	71.75
669.854	90.75
670.057	78.75
670.259	84.75
670.462	85.75
670.665	77.75
670.867	90.75
671.07	79.75
671.272	59.75
671.475	92.75
671.677	86.75
671.88	90.75
672.082	95.75
672.284	81.75
672.487	77.75
672.689	77.75
672.892	83.75
