Data from 1973.PennyLincolnUp.Lamp.En5.5.200Scan.071719.P1.Changed Mount._HRD10591_15-43-34-852.txt Node
Date: Thu Jul 18 15:43:34 EDT 2019
User: cochatt
Spectrometer: HR+D1059
Trigger mode: 1
Integration Time (sec): 1.000000E-1
Scans to average: 1
Electric dark correction enabled: true
Nonlinearity correction enabled: false
Boxcar width: 0
XAxis mode: Wavelengths
Number of Pixels in Spectrum: 2048
>>>>>Begin Spectral Data<<<<<
223.165	-20.12
223.4	-20.12
223.635	-20.12
223.869	-13.12
224.104	-33.12
224.338	-25.12
224.573	-9.12
224.808	-9.12
225.042	7.88
225.277	-1.12
225.511	-2.12
225.746	-8.12
225.98	-0.12
226.215	9.88
226.449	15.88
226.683	13.88
226.918	38.88
227.152	34.88
227.387	31.88
227.621	35.88
227.856	44.88
228.09	45.88
228.324	43.88
228.559	59.88
228.793	54.88
229.027	94.88
229.262	107.88
229.496	110.88
229.73	117.88
229.964	123.88
230.199	107.88
230.433	111.88
230.667	119.88
230.901	110.88
231.136	106.88
231.37	106.88
231.604	127.88
231.838	112.88
232.072	104.88
232.306	110.88
232.541	127.88
232.775	114.88
233.009	110.88
233.243	122.88
233.477	117.88
233.711	127.88
233.945	113.88
234.179	122.88
234.413	115.88
234.647	107.88
234.881	103.88
235.115	108.88
235.349	123.88
235.583	114.88
235.817	124.88
236.051	121.88
236.285	119.88
236.519	128.88
236.753	117.88
236.987	127.88
237.221	151.88
237.455	178.88
237.689	163.88
237.922	126.88
238.156	130.88
238.39	125.88
238.624	120.88
238.858	114.88
239.091	118.88
239.325	125.88
239.559	113.88
239.793	137.88
240.027	122.88
240.26	131.88
240.494	130.88
240.728	138.88
240.961	152.88
241.195	135.88
241.429	134.88
241.662	129.88
241.896	130.88
242.13	129.88
242.363	132.88
242.597	134.88
242.83	135.88
243.064	147.88
243.298	154.88
243.531	135.88
243.765	146.88
243.998	136.88
244.232	162.88
244.465	128.88
244.699	126.88
244.932	146.88
245.166	145.88
245.399	145.88
245.633	140.88
245.866	156.88
246.099	136.88
246.333	153.88
246.566	142.88
246.8	143.88
247.033	137.88
247.266	141.88
247.5	157.88
247.733	162.88
247.966	170.88
248.2	147.88
248.433	163.88
248.666	157.88
248.899	165.88
249.133	172.88
249.366	176.88
249.599	173.88
249.832	157.88
250.066	170.88
250.299	160.88
250.532	172.88
250.765	168.88
250.998	186.88
251.231	204.88
251.465	190.88
251.698	183.88
251.931	179.88
252.164	175.88
252.397	167.88
252.63	185.88
252.863	195.88
253.096	190.88
253.329	222.88
253.562	195.88
253.795	190.88
254.028	199.88
254.261	189.88
254.494	216.88
254.727	215.88
254.96	226.88
255.193	217.88
255.426	217.88
255.659	208.88
255.892	204.88
256.124	189.88
256.357	184.88
256.59	211.88
256.823	204.88
257.056	194.88
257.289	195.88
257.521	203.88
257.754	204.88
257.987	204.88
258.22	214.88
258.452	182.88
258.685	195.88
258.918	181.88
259.151	187.88
259.383	208.88
259.616	205.88
259.849	207.88
260.081	202.88
260.314	212.88
260.547	245.88
260.779	228.88
261.012	212.88
261.244	204.88
261.477	216.88
261.71	187.88
261.942	200.88
262.175	212.88
262.407	212.88
262.64	205.88
262.872	196.88
263.105	198.88
263.337	203.88
263.57	198.88
263.802	211.88
264.035	196.88
264.267	211.88
264.499	194.88
264.732	209.88
264.964	214.88
265.197	203.88
265.429	206.88
265.661	212.88
265.894	212.88
266.126	212.88
266.358	226.88
266.591	212.88
266.823	196.88
267.055	208.88
267.287	220.88
267.52	212.88
267.752	220.88
267.984	208.88
268.216	205.88
268.448	226.88
268.681	231.88
268.913	226.88
269.145	244.88
269.377	247.88
269.609	243.88
269.841	257.88
270.073	231.88
270.306	263.88
270.538	283.88
270.77	275.88
271.002	273.88
271.234	261.88
271.466	271.88
271.698	272.88
271.93	287.88
272.162	286.88
272.394	281.88
272.626	272.88
272.858	261.88
273.09	267.88
273.322	247.88
273.553	249.88
273.785	231.88
274.017	260.88
274.249	251.88
274.481	251.88
274.713	263.88
274.945	264.88
275.176	246.88
275.408	256.88
275.64	254.88
275.872	264.88
276.104	255.88
276.335	266.88
276.567	267.88
276.799	269.88
277.031	278.88
277.262	296.88
277.494	301.88
277.726	285.88
277.957	268.88
278.189	278.88
278.421	259.88
278.652	256.88
278.884	258.88
279.115	264.88
279.347	278.88
279.579	259.88
279.81	260.88
280.042	279.88
280.273	285.88
280.505	272.88
280.736	255.88
280.968	263.88
281.199	254.88
281.431	258.88
281.662	245.88
281.894	263.88
282.125	250.88
282.356	282.88
282.588	292.88
282.819	259.88
283.051	262.88
283.282	249.88
283.513	278.88
283.745	280.88
283.976	272.88
284.207	285.88
284.439	276.88
284.67	293.88
284.901	283.88
285.132	272.88
285.364	279.88
285.595	255.88
285.826	287.88
286.057	290.88
286.288	272.88
286.52	267.88
286.751	262.88
286.982	291.88
287.213	291.88
287.444	296.88
287.675	279.88
287.906	293.88
288.138	293.88
288.369	303.88
288.6	291.88
288.831	296.88
289.062	313.88
289.293	302.88
289.524	290.88
289.755	284.88
289.986	281.88
290.217	281.88
290.448	289.88
290.679	297.88
290.91	304.88
291.141	291.88
291.371	288.88
291.602	299.88
291.833	299.88
292.064	302.88
292.295	302.88
292.526	307.88
292.757	280.88
292.987	292.88
293.218	287.88
293.449	297.88
293.68	304.88
293.91	295.88
294.141	307.88
294.372	287.88
294.603	295.88
294.833	286.88
295.064	310.88
295.295	309.88
295.525	322.88
295.756	303.88
295.987	318.88
296.217	298.88
296.448	318.88
296.679	287.88
296.909	308.88
297.14	314.88
297.37	306.88
297.601	305.88
297.831	299.88
298.062	299.88
298.292	311.88
298.523	306.88
298.753	310.88
298.984	310.88
299.214	312.88
299.445	297.88
299.675	327.88
299.905	327.88
300.136	331.88
300.366	319.88
300.597	315.88
300.827	294.88
301.057	330.88
301.288	332.88
301.518	320.88
301.748	344.88
301.979	310.88
302.209	341.88
302.439	330.88
302.669	319.88
302.9	327.88
303.13	326.88
303.36	355.88
303.59	343.88
303.82	335.88
304.051	341.88
304.281	328.88
304.511	344.88
304.741	341.88
304.971	323.88
305.201	322.88
305.431	328.88
305.661	315.88
305.891	333.88
306.121	327.88
306.352	333.88
306.582	331.88
306.812	315.88
307.042	326.88
307.272	341.88
307.502	322.88
307.731	352.88
307.961	328.88
308.191	334.88
308.421	311.88
308.651	333.88
308.881	335.88
309.111	342.88
309.341	316.88
309.571	331.88
309.8	347.88
310.03	343.88
310.26	351.88
310.49	347.88
310.72	358.88
310.949	353.88
311.179	355.88
311.409	351.88
311.639	357.88
311.868	349.88
312.098	339.88
312.328	356.88
312.557	351.88
312.787	364.88
313.017	357.88
313.246	370.88
313.476	351.88
313.706	371.88
313.935	345.88
314.165	362.88
314.394	366.88
314.624	365.88
314.853	350.88
315.083	360.88
315.312	374.88
315.542	370.88
315.771	361.88
316.001	375.88
316.23	348.88
316.46	363.88
316.689	364.88
316.919	367.88
317.148	354.88
317.377	375.88
317.607	376.88
317.836	356.88
318.065	364.88
318.295	351.88
318.524	365.88
318.753	363.88
318.983	372.88
319.212	366.88
319.441	375.88
319.67	379.88
319.9	353.88
320.129	372.88
320.358	376.88
320.587	373.88
320.816	378.88
321.046	379.88
321.275	364.88
321.504	364.88
321.733	375.88
321.962	369.88
322.191	378.88
322.42	385.88
322.649	370.88
322.878	391.88
323.108	391.88
323.337	398.88
323.566	412.88
323.795	401.88
324.024	424.88
324.253	477.88
324.482	574.88
324.71	822.88
324.939	1170.88
325.168	1001.88
325.397	578.88
325.626	447.88
325.855	418.88
326.084	410.88
326.313	398.88
326.542	409.88
326.77	424.88
326.999	456.88
327.228	551.88
327.457	787.88
327.686	921.88
327.914	634.88
328.143	483.88
328.372	452.88
328.6	452.88
328.829	425.88
329.058	452.88
329.287	446.88
329.515	435.88
329.744	417.88
329.972	423.88
330.201	451.88
330.43	444.88
330.658	448.88
330.887	453.88
331.115	459.88
331.344	450.88
331.572	427.88
331.801	423.88
332.03	444.88
332.258	433.88
332.486	411.88
332.715	419.88
332.943	437.88
333.172	442.88
333.4	440.88
333.629	445.88
333.857	466.88
334.085	493.88
334.314	464.88
334.542	473.88
334.771	487.88
334.999	456.88
335.227	461.88
335.455	462.88
335.684	449.88
335.912	436.88
336.14	443.88
336.369	417.88
336.597	426.88
336.825	427.88
337.053	429.88
337.281	445.88
337.51	405.88
337.738	419.88
337.966	428.88
338.194	416.88
338.422	412.88
338.65	410.88
338.878	420.88
339.106	415.88
339.334	415.88
339.562	392.88
339.79	426.88
340.018	396.88
340.246	420.88
340.474	431.88
340.702	382.88
340.93	423.88
341.158	415.88
341.386	409.88
341.614	401.88
341.842	434.88
342.07	397.88
342.298	397.88
342.526	394.88
342.754	402.88
342.981	405.88
343.209	400.88
343.437	439.88
343.665	418.88
343.893	452.88
344.12	452.88
344.348	450.88
344.576	432.88
344.804	439.88
345.031	398.88
345.259	423.88
345.487	397.88
345.714	414.88
345.942	407.88
346.17	391.88
346.397	408.88
346.625	388.88
346.853	382.88
347.08	401.88
347.308	396.88
347.535	394.88
347.763	399.88
347.99	384.88
348.218	388.88
348.445	405.88
348.673	399.88
348.9	388.88
349.128	387.88
349.355	364.88
349.583	395.88
349.81	391.88
350.037	356.88
350.265	367.88
350.492	354.88
350.72	388.88
350.947	368.88
351.174	380.88
351.402	382.88
351.629	390.88
351.856	393.88
352.083	394.88
352.311	372.88
352.538	377.88
352.765	380.88
352.992	373.88
353.22	386.88
353.447	372.88
353.674	367.88
353.901	362.88
354.128	371.88
354.355	391.88
354.583	374.88
354.81	374.88
355.037	393.88
355.264	375.88
355.491	363.88
355.718	375.88
355.945	381.88
356.172	368.88
356.399	366.88
356.626	372.88
356.853	376.88
357.08	366.88
357.307	386.88
357.534	382.88
357.761	377.88
357.988	373.88
358.215	382.88
358.441	363.88
358.668	370.88
358.895	376.88
359.122	385.88
359.349	370.88
359.576	377.88
359.802	386.88
360.029	404.88
360.256	397.88
360.483	386.88
360.709	380.88
360.936	378.88
361.163	389.88
361.39	390.88
361.616	396.88
361.843	381.88
362.07	386.88
362.296	399.88
362.523	375.88
362.749	395.88
362.976	385.88
363.203	400.88
363.429	378.88
363.656	371.88
363.882	368.88
364.109	381.88
364.335	390.88
364.562	376.88
364.788	370.88
365.015	377.88
365.241	387.88
365.468	380.88
365.694	378.88
365.92	363.88
366.147	363.88
366.373	366.88
366.599	396.88
366.826	398.88
367.052	364.88
367.278	378.88
367.505	370.88
367.731	373.88
367.957	388.88
368.184	374.88
368.41	379.88
368.636	380.88
368.862	372.88
369.089	384.88
369.315	389.88
369.541	383.88
369.767	383.88
369.993	373.88
370.219	375.88
370.445	392.88
370.672	372.88
370.898	380.88
371.124	378.88
371.35	386.88
371.576	414.88
371.802	392.88
372.028	401.88
372.254	401.88
372.48	389.88
372.706	366.88
372.932	392.88
373.158	395.88
373.384	396.88
373.61	407.88
373.835	402.88
374.061	386.88
374.287	406.88
374.513	398.88
374.739	382.88
374.965	406.88
375.191	418.88
375.416	401.88
375.642	399.88
375.868	401.88
376.094	392.88
376.319	376.88
376.545	394.88
376.771	382.88
376.997	387.88
377.222	382.88
377.448	388.88
377.674	392.88
377.899	382.88
378.125	376.88
378.35	394.88
378.576	381.88
378.802	388.88
379.027	392.88
379.253	372.88
379.478	388.88
379.704	395.88
379.929	389.88
380.155	407.88
380.38	388.88
380.606	389.88
380.831	381.88
381.057	391.88
381.282	398.88
381.507	383.88
381.733	406.88
381.958	394.88
382.184	381.88
382.409	410.88
382.634	400.88
382.86	413.88
383.085	429.88
383.31	400.88
383.535	421.88
383.761	391.88
383.986	411.88
384.211	412.88
384.436	428.88
384.662	444.88
384.887	450.88
385.112	435.88
385.337	447.88
385.562	439.88
385.787	451.88
386.013	463.88
386.238	468.88
386.463	449.88
386.688	457.88
386.913	443.88
387.138	424.88
387.363	469.88
387.588	446.88
387.813	436.88
388.038	427.88
388.263	447.88
388.488	460.88
388.713	456.88
388.938	426.88
389.163	429.88
389.387	432.88
389.612	435.88
389.837	423.88
390.062	423.88
390.287	427.88
390.512	438.88
390.736	447.88
390.961	436.88
391.186	434.88
391.411	455.88
391.636	468.88
391.86	455.88
392.085	465.88
392.31	456.88
392.534	473.88
392.759	478.88
392.984	466.88
393.208	446.88
393.433	451.88
393.658	458.88
393.882	439.88
394.107	440.88
394.331	484.88
394.556	435.88
394.78	471.88
395.005	449.88
395.229	482.88
395.454	468.88
395.678	466.88
395.903	490.88
396.127	490.88
396.352	477.88
396.576	465.88
396.801	463.88
397.025	459.88
397.249	451.88
397.474	477.88
397.698	467.88
397.922	483.88
398.147	485.88
398.371	488.88
398.595	508.88
398.82	502.88
399.044	537.88
399.268	562.88
399.492	611.88
399.717	640.88
399.941	678.88
400.165	676.88
400.389	655.88
400.613	587.88
400.837	542.88
401.062	538.88
401.286	522.88
401.51	536.88
401.734	540.88
401.958	512.88
402.182	517.88
402.406	529.88
402.63	538.88
402.854	527.88
403.078	528.88
403.302	523.88
403.526	558.88
403.75	541.88
403.974	566.88
404.198	550.88
404.422	572.88
404.645	556.88
404.869	578.88
405.093	578.88
405.317	593.88
405.541	590.88
405.765	571.88
405.988	559.88
406.212	546.88
406.436	536.88
406.66	562.88
406.883	587.88
407.107	606.88
407.331	672.88
407.555	691.88
407.778	705.88
408.002	633.88
408.226	589.88
408.449	596.88
408.673	600.88
408.896	598.88
409.12	612.88
409.344	596.88
409.567	552.88
409.791	570.88
410.014	552.88
410.238	528.88
410.461	540.88
410.685	535.88
410.908	537.88
411.132	587.88
411.355	575.88
411.578	557.88
411.802	532.88
412.025	519.88
412.249	532.88
412.472	559.88
412.695	556.88
412.919	564.88
413.142	514.88
413.365	518.88
413.589	518.88
413.812	522.88
414.035	524.88
414.258	525.88
414.482	485.88
414.705	502.88
414.928	531.88
415.151	497.88
415.374	487.88
415.597	486.88
415.821	507.88
416.044	537.88
416.267	520.88
416.49	517.88
416.713	514.88
416.936	504.88
417.159	509.88
417.382	515.88
417.605	501.88
417.828	528.88
418.051	534.88
418.274	502.88
418.497	496.88
418.72	494.88
418.943	494.88
419.166	556.88
419.389	573.88
419.611	568.88
419.834	543.88
420.057	578.88
420.28	534.88
420.503	513.88
420.726	526.88
420.948	531.88
421.171	560.88
421.394	570.88
421.617	549.88
421.839	514.88
422.062	523.88
422.285	539.88
422.507	571.88
422.73	613.88
422.953	592.88
423.175	542.88
423.398	542.88
423.621	524.88
423.843	554.88
424.066	550.88
424.288	544.88
424.511	567.88
424.733	607.88
424.956	649.88
425.178	614.88
425.401	640.88
425.623	634.88
425.846	556.88
426.068	539.88
426.291	528.88
426.513	521.88
426.735	522.88
426.958	542.88
427.18	606.88
427.402	713.88
427.625	761.88
427.847	636.88
428.069	559.88
428.292	525.88
428.514	494.88
428.736	491.88
428.958	471.88
429.181	460.88
429.403	478.88
429.625	490.88
429.847	506.88
430.069	539.88
430.292	555.88
430.514	488.88
430.736	484.88
430.958	477.88
431.18	468.88
431.402	482.88
431.624	464.88
431.846	457.88
432.068	480.88
432.29	477.88
432.512	467.88
432.734	471.88
432.956	489.88
433.178	463.88
433.4	478.88
433.622	463.88
433.844	485.88
434.066	476.88
434.287	472.88
434.509	493.88
434.731	527.88
434.953	515.88
435.175	523.88
435.397	569.88
435.618	524.88
435.84	552.88
436.062	632.88
436.284	660.88
436.505	549.88
436.727	535.88
436.949	494.88
437.17	510.88
437.392	508.88
437.614	505.88
437.835	503.88
438.057	564.88
438.278	618.88
438.5	614.88
438.721	704.88
438.943	680.88
439.165	535.88
439.386	503.88
439.608	508.88
439.829	525.88
440.05	508.88
440.272	520.88
440.493	525.88
440.715	503.88
440.936	504.88
441.158	523.88
441.379	483.88
441.6	540.88
441.822	537.88
442.043	536.88
442.264	620.88
442.486	638.88
442.707	574.88
442.928	531.88
443.149	561.88
443.371	572.88
443.592	572.88
443.813	643.88
444.034	705.88
444.255	601.88
444.476	570.88
444.698	563.88
444.919	573.88
445.14	634.88
445.361	584.88
445.582	583.88
445.803	619.88
446.024	639.88
446.245	660.88
446.466	602.88
446.687	551.88
446.908	528.88
447.129	491.88
447.35	490.88
447.571	495.88
447.792	474.88
448.013	487.88
448.234	489.88
448.455	506.88
448.675	602.88
448.896	687.88
449.117	591.88
449.338	544.88
449.559	632.88
449.779	698.88
450	576.88
450.221	495.88
450.442	462.88
450.662	477.88
450.883	463.88
451.104	455.88
451.324	459.88
451.545	431.88
451.766	454.88
451.986	431.88
452.207	426.88
452.428	417.88
452.648	421.88
452.869	450.88
453.089	427.88
453.31	444.88
453.53	446.88
453.751	440.88
453.971	437.88
454.192	432.88
454.412	409.88
454.633	436.88
454.853	440.88
455.073	423.88
455.294	432.88
455.514	490.88
455.734	485.88
455.955	440.88
456.175	424.88
456.395	418.88
456.616	406.88
456.836	407.88
457.056	422.88
457.276	398.88
457.497	415.88
457.717	417.88
457.937	406.88
458.157	421.88
458.377	463.88
458.598	454.88
458.818	469.88
459.038	514.88
459.258	549.88
459.478	490.88
459.698	472.88
459.918	489.88
460.138	500.88
460.358	495.88
460.578	504.88
460.798	505.88
461.018	516.88
461.238	510.88
461.458	534.88
461.678	500.88
461.898	515.88
462.118	514.88
462.338	552.88
462.558	562.88
462.777	564.88
462.997	574.88
463.217	589.88
463.437	591.88
463.657	572.88
463.876	571.88
464.096	546.88
464.316	562.88
464.536	557.88
464.755	553.88
464.975	548.88
465.195	536.88
465.414	565.88
465.634	539.88
465.854	501.88
466.073	479.88
466.293	476.88
466.512	470.88
466.732	468.88
466.951	470.88
467.171	447.88
467.391	442.88
467.61	468.88
467.829	452.88
468.049	471.88
468.268	457.88
468.488	435.88
468.707	428.88
468.927	448.88
469.146	442.88
469.365	444.88
469.585	428.88
469.804	465.88
470.023	456.88
470.243	474.88
470.462	444.88
470.681	459.88
470.901	456.88
471.12	475.88
471.339	476.88
471.558	460.88
471.777	437.88
471.997	454.88
472.216	442.88
472.435	471.88
472.654	462.88
472.873	450.88
473.092	456.88
473.311	460.88
473.53	458.88
473.749	446.88
473.968	486.88
474.187	542.88
474.406	568.88
474.625	489.88
474.844	481.88
475.063	449.88
475.282	466.88
475.501	451.88
475.72	453.88
475.939	467.88
476.158	463.88
476.377	471.88
476.596	484.88
476.814	462.88
477.033	472.88
477.252	492.88
477.471	515.88
477.69	500.88
477.908	505.88
478.127	505.88
478.346	507.88
478.564	541.88
478.783	536.88
479.002	523.88
479.22	533.88
479.439	533.88
479.658	544.88
479.876	552.88
480.095	552.88
480.313	596.88
480.532	579.88
480.751	567.88
480.969	567.88
481.188	580.88
481.406	568.88
481.624	565.88
481.843	518.88
482.061	550.88
482.28	541.88
482.498	506.88
482.717	525.88
482.935	530.88
483.153	521.88
483.372	521.88
483.59	539.88
483.808	528.88
484.027	530.88
484.245	519.88
484.463	536.88
484.681	529.88
484.9	546.88
485.118	528.88
485.336	533.88
485.554	540.88
485.772	557.88
485.99	538.88
486.209	545.88
486.427	571.88
486.645	552.88
486.863	538.88
487.081	546.88
487.299	544.88
487.517	566.88
487.735	538.88
487.953	553.88
488.171	563.88
488.389	564.88
488.607	556.88
488.825	573.88
489.043	562.88
489.261	545.88
489.479	591.88
489.696	582.88
489.914	561.88
490.132	576.88
490.35	557.88
490.568	559.88
490.786	569.88
491.003	602.88
491.221	612.88
491.439	613.88
491.657	631.88
491.874	620.88
492.092	614.88
492.31	608.88
492.527	642.88
492.745	624.88
492.963	642.88
493.18	634.88
493.398	654.88
493.615	654.88
493.833	634.88
494.05	621.88
494.268	641.88
494.485	628.88
494.703	664.88
494.92	652.88
495.138	639.88
495.355	640.88
495.573	644.88
495.79	658.88
496.008	634.88
496.225	645.88
496.442	654.88
496.66	665.88
496.877	644.88
497.094	671.88
497.312	688.88
497.529	648.88
497.746	698.88
497.963	706.88
498.181	731.88
498.398	744.88
498.615	782.88
498.832	798.88
499.049	830.88
499.267	843.88
499.484	920.88
499.701	957.88
499.918	994.88
500.135	1080.88
500.352	1164.88
500.569	1194.88
500.786	1187.88
501.003	1146.88
501.22	1087.88
501.437	1038.88
501.654	967.88
501.871	936.88
502.088	852.88
502.305	832.88
502.522	799.88
502.739	777.88
502.956	745.88
503.172	704.88
503.389	712.88
503.606	706.88
503.823	696.88
504.04	686.88
504.256	669.88
504.473	686.88
504.69	696.88
504.907	682.88
505.123	651.88
505.34	630.88
505.557	606.88
505.773	618.88
505.99	622.88
506.207	608.88
506.423	610.88
506.64	601.88
506.856	585.88
507.073	574.88
507.289	586.88
507.506	588.88
507.722	599.88
507.939	602.88
508.155	581.88
508.372	579.88
508.588	598.88
508.805	577.88
509.021	562.88
509.238	564.88
509.454	572.88
509.67	573.88
509.887	579.88
510.103	563.88
510.319	558.88
510.536	580.88
510.752	692.88
510.968	625.88
511.184	542.88
511.401	538.88
511.617	542.88
511.833	534.88
512.049	518.88
512.265	534.88
512.481	519.88
512.698	539.88
512.914	512.88
513.13	527.88
513.346	523.88
513.562	552.88
513.778	544.88
513.994	537.88
514.21	539.88
514.426	533.88
514.642	557.88
514.858	558.88
515.074	585.88
515.29	613.88
515.506	722.88
515.721	653.88
515.937	573.88
516.153	564.88
516.369	578.88
516.585	564.88
516.801	564.88
517.016	595.88
517.232	596.88
517.448	591.88
517.664	610.88
517.879	600.88
518.095	620.88
518.311	644.88
518.527	594.88
518.742	598.88
518.958	581.88
519.173	572.88
519.389	549.88
519.605	545.88
519.82	551.88
520.036	559.88
520.251	571.88
520.467	557.88
520.682	539.88
520.898	543.88
521.113	527.88
521.329	543.88
521.544	572.88
521.76	610.88
521.975	843.88
522.19	810.88
522.406	597.88
522.621	537.88
522.836	511.88
523.052	492.88
523.267	510.88
523.482	489.88
523.698	495.88
523.913	478.88
524.128	484.88
524.343	467.88
524.559	476.88
524.774	470.88
524.989	485.88
525.204	477.88
525.419	461.88
525.634	475.88
525.849	482.88
526.064	473.88
526.28	474.88
526.495	447.88
526.71	448.88
526.925	476.88
527.14	448.88
527.355	459.88
527.57	468.88
527.785	461.88
527.999	474.88
528.214	456.88
528.429	444.88
528.644	460.88
528.859	459.88
529.074	471.88
529.289	468.88
529.503	474.88
529.718	485.88
529.933	456.88
530.148	443.88
530.363	459.88
530.577	453.88
530.792	459.88
531.007	456.88
531.221	454.88
531.436	462.88
531.651	442.88
531.865	455.88
532.08	438.88
532.295	455.88
532.509	432.88
532.724	450.88
532.938	432.88
533.153	467.88
533.367	454.88
533.582	447.88
533.796	458.88
534.011	444.88
534.225	448.88
534.44	451.88
534.654	451.88
534.868	435.88
535.083	436.88
535.297	439.88
535.511	455.88
535.726	446.88
535.94	436.88
536.154	442.88
536.369	451.88
536.583	446.88
536.797	435.88
537.011	422.88
537.225	443.88
537.44	431.88
537.654	427.88
537.868	430.88
538.082	444.88
538.296	440.88
538.51	442.88
538.724	442.88
538.938	414.88
539.153	428.88
539.367	453.88
539.581	425.88
539.795	430.88
540.009	431.88
540.222	430.88
540.436	429.88
540.65	427.88
540.864	427.88
541.078	420.88
541.292	437.88
541.506	436.88
541.72	410.88
541.934	427.88
542.147	436.88
542.361	448.88
542.575	400.88
542.789	399.88
543.002	418.88
543.216	441.88
543.43	434.88
543.644	422.88
543.857	410.88
544.071	462.88
544.285	462.88
544.498	454.88
544.712	428.88
544.925	443.88
545.139	438.88
545.352	438.88
545.566	436.88
545.779	424.88
545.993	432.88
546.206	431.88
546.42	443.88
546.633	434.88
546.847	422.88
547.06	444.88
547.274	440.88
547.487	411.88
547.7	440.88
547.914	429.88
548.127	436.88
548.34	431.88
548.554	444.88
548.767	428.88
548.98	429.88
549.193	424.88
549.407	430.88
549.62	420.88
549.833	441.88
550.046	438.88
550.259	425.88
550.473	438.88
550.686	425.88
550.899	431.88
551.112	442.88
551.325	424.88
551.538	426.88
551.751	425.88
551.964	444.88
552.177	454.88
552.39	439.88
552.603	439.88
552.816	451.88
553.029	435.88
553.242	450.88
553.455	461.88
553.667	468.88
553.88	463.88
554.093	446.88
554.306	426.88
554.519	430.88
554.732	428.88
554.944	415.88
555.157	408.88
555.37	402.88
555.583	412.88
555.795	411.88
556.008	404.88
556.221	409.88
556.433	388.88
556.646	384.88
556.859	397.88
557.071	380.88
557.284	397.88
557.496	388.88
557.709	386.88
557.921	380.88
558.134	390.88
558.346	400.88
558.559	390.88
558.771	394.88
558.984	380.88
559.196	377.88
559.409	375.88
559.621	373.88
559.833	384.88
560.046	363.88
560.258	371.88
560.47	370.88
560.683	377.88
560.895	373.88
561.107	373.88
561.32	366.88
561.532	378.88
561.744	380.88
561.956	381.88
562.168	382.88
562.381	355.88
562.593	354.88
562.805	363.88
563.017	394.88
563.229	387.88
563.441	382.88
563.653	384.88
563.865	403.88
564.077	396.88
564.289	398.88
564.501	380.88
564.713	402.88
564.925	407.88
565.137	421.88
565.349	431.88
565.561	452.88
565.773	449.88
565.985	454.88
566.197	438.88
566.408	472.88
566.62	505.88
566.832	527.88
567.044	563.88
567.255	547.88
567.467	557.88
567.679	558.88
567.891	597.88
568.102	576.88
568.314	569.88
568.526	533.88
568.737	518.88
568.949	475.88
569.161	447.88
569.372	448.88
569.584	410.88
569.795	416.88
570.007	391.88
570.218	427.88
570.43	423.88
570.641	401.88
570.853	404.88
571.064	394.88
571.276	402.88
571.487	374.88
571.698	360.88
571.91	355.88
572.121	358.88
572.333	365.88
572.544	356.88
572.755	350.88
572.966	348.88
573.178	348.88
573.389	334.88
573.6	346.88
573.811	321.88
574.023	345.88
574.234	341.88
574.445	340.88
574.656	327.88
574.867	327.88
575.078	334.88
575.289	326.88
575.501	334.88
575.712	337.88
575.923	346.88
576.134	343.88
576.345	341.88
576.556	336.88
576.767	329.88
576.978	336.88
577.188	347.88
577.399	322.88
577.61	327.88
577.821	335.88
578.032	327.88
578.243	334.88
578.454	378.88
578.665	342.88
578.875	316.88
579.086	313.88
579.297	323.88
579.508	292.88
579.718	336.88
579.929	295.88
580.14	301.88
580.35	298.88
580.561	314.88
580.772	311.88
580.982	307.88
581.193	307.88
581.403	299.88
581.614	308.88
581.825	307.88
582.035	306.88
582.246	290.88
582.456	298.88
582.667	306.88
582.877	310.88
583.087	299.88
583.298	295.88
583.508	293.88
583.719	313.88
583.929	315.88
584.139	305.88
584.35	303.88
584.56	296.88
584.77	318.88
584.981	282.88
585.191	294.88
585.401	302.88
585.611	296.88
585.821	292.88
586.032	293.88
586.242	292.88
586.452	301.88
586.662	299.88
586.872	310.88
587.082	312.88
587.292	292.88
587.502	294.88
587.713	292.88
587.923	319.88
588.133	284.88
588.343	292.88
588.553	304.88
588.762	291.88
588.972	301.88
589.182	293.88
589.392	300.88
589.602	300.88
589.812	308.88
590.022	318.88
590.232	295.88
590.441	300.88
590.651	299.88
590.861	285.88
591.071	292.88
591.281	292.88
591.49	311.88
591.7	305.88
591.91	313.88
592.119	293.88
592.329	309.88
592.539	335.88
592.748	345.88
592.958	336.88
593.167	333.88
593.377	336.88
593.587	337.88
593.796	343.88
594.006	346.88
594.215	335.88
594.424	340.88
594.634	335.88
594.843	342.88
595.053	338.88
595.262	317.88
595.472	338.88
595.681	322.88
595.89	308.88
596.1	292.88
596.309	310.88
596.518	293.88
596.727	297.88
596.937	282.88
597.146	284.88
597.355	287.88
597.564	282.88
597.774	272.88
597.983	261.88
598.192	278.88
598.401	273.88
598.61	287.88
598.819	272.88
599.028	270.88
599.237	270.88
599.446	263.88
599.655	265.88
599.864	259.88
600.073	267.88
600.282	265.88
600.491	274.88
600.7	278.88
600.909	265.88
601.118	273.88
601.327	276.88
601.536	261.88
601.745	247.88
601.953	248.88
602.162	260.88
602.371	265.88
602.58	275.88
602.789	235.88
602.997	261.88
603.206	270.88
603.415	268.88
603.623	244.88
603.832	254.88
604.041	264.88
604.249	235.88
604.458	284.88
604.666	258.88
604.875	246.88
605.084	240.88
605.292	252.88
605.501	255.88
605.709	251.88
605.918	239.88
606.126	248.88
606.334	235.88
606.543	260.88
606.751	248.88
606.96	249.88
607.168	248.88
607.376	244.88
607.585	253.88
607.793	256.88
608.001	247.88
608.21	237.88
608.418	239.88
608.626	242.88
608.834	258.88
609.043	241.88
609.251	252.88
609.459	243.88
609.667	261.88
609.875	247.88
610.083	274.88
610.291	237.88
610.499	243.88
610.707	248.88
610.916	236.88
611.124	227.88
611.332	252.88
611.54	261.88
611.748	247.88
611.955	245.88
612.163	259.88
612.371	249.88
612.579	240.88
612.787	238.88
612.995	230.88
613.203	230.88
613.411	259.88
613.618	263.88
613.826	238.88
614.034	253.88
614.242	230.88
614.449	233.88
614.657	248.88
614.865	244.88
615.072	243.88
615.28	245.88
615.488	238.88
615.695	248.88
615.903	242.88
616.111	242.88
616.318	230.88
616.526	246.88
616.733	256.88
616.941	248.88
617.148	252.88
617.356	238.88
617.563	233.88
617.771	232.88
617.978	243.88
618.185	231.88
618.393	244.88
618.6	246.88
618.807	250.88
619.015	244.88
619.222	236.88
619.429	231.88
619.637	240.88
619.844	250.88
620.051	242.88
620.258	229.88
620.466	223.88
620.673	224.88
620.88	243.88
621.087	227.88
621.294	236.88
621.501	226.88
621.708	225.88
621.915	226.88
622.122	206.88
622.329	213.88
622.536	235.88
622.743	218.88
622.95	217.88
623.157	224.88
623.364	231.88
623.571	220.88
623.778	222.88
623.985	214.88
624.192	208.88
624.399	212.88
624.606	225.88
624.812	207.88
625.019	206.88
625.226	218.88
625.433	225.88
625.639	208.88
625.846	206.88
626.053	203.88
626.259	209.88
626.466	207.88
626.673	216.88
626.879	213.88
627.086	194.88
627.293	215.88
627.499	216.88
627.706	211.88
627.912	212.88
628.119	207.88
628.325	204.88
628.532	214.88
628.738	210.88
628.945	213.88
629.151	213.88
629.357	196.88
629.564	211.88
629.77	204.88
629.976	218.88
630.183	196.88
630.389	195.88
630.595	202.88
630.802	198.88
631.008	203.88
631.214	188.88
631.42	209.88
631.627	202.88
631.833	198.88
632.039	205.88
632.245	184.88
632.451	203.88
632.657	204.88
632.863	199.88
633.069	189.88
633.275	194.88
633.481	205.88
633.688	185.88
633.893	215.88
634.099	182.88
634.305	198.88
634.511	187.88
634.717	182.88
634.923	195.88
635.129	196.88
635.335	190.88
635.541	191.88
635.747	184.88
635.952	184.88
636.158	190.88
636.364	182.88
636.57	177.88
636.775	194.88
636.981	182.88
637.187	179.88
637.392	175.88
637.598	187.88
637.804	188.88
638.009	188.88
638.215	180.88
638.421	166.88
638.626	178.88
638.832	180.88
639.037	186.88
639.243	183.88
639.448	198.88
639.654	170.88
639.859	180.88
640.065	178.88
640.27	194.88
640.475	185.88
640.681	191.88
640.886	182.88
641.091	178.88
641.297	163.88
641.502	176.88
641.707	182.88
641.913	170.88
642.118	188.88
642.323	180.88
642.528	169.88
642.733	150.88
642.939	166.88
643.144	186.88
643.349	185.88
643.554	174.88
643.759	171.88
643.964	182.88
644.169	167.88
644.374	174.88
644.579	188.88
644.784	182.88
644.989	196.88
645.194	169.88
645.399	182.88
645.604	170.88
645.809	172.88
646.014	181.88
646.219	177.88
646.423	171.88
646.628	166.88
646.833	175.88
647.038	195.88
647.243	186.88
647.447	180.88
647.652	178.88
647.857	165.88
648.062	174.88
648.266	183.88
648.471	180.88
648.676	178.88
648.88	167.88
649.085	184.88
649.289	182.88
649.494	163.88
649.698	198.88
649.903	188.88
650.107	182.88
650.312	189.88
650.516	169.88
650.721	174.88
650.925	154.88
651.13	169.88
651.334	157.88
651.539	153.88
651.743	161.88
651.947	156.88
652.152	149.88
652.356	159.88
652.56	157.88
652.764	145.88
652.969	155.88
653.173	142.88
653.377	142.88
653.581	151.88
653.785	151.88
653.99	147.88
654.194	150.88
654.398	146.88
654.602	145.88
654.806	144.88
655.01	157.88
655.214	143.88
655.418	151.88
655.622	141.88
655.826	131.88
656.03	158.88
656.234	150.88
656.438	156.88
656.642	164.88
656.846	126.88
657.049	148.88
657.253	134.88
657.457	146.88
657.661	131.88
657.865	124.88
658.068	116.88
658.272	116.88
658.476	118.88
658.68	110.88
658.883	102.88
659.087	114.88
659.291	98.88
659.494	105.88
659.698	108.88
659.901	98.88
660.105	92.88
660.309	114.88
660.512	100.88
660.716	93.88
660.919	102.88
661.123	94.88
661.326	93.88
661.53	109.88
661.733	104.88
661.936	90.88
662.14	100.88
662.343	73.88
662.546	98.88
662.75	80.88
662.953	77.88
663.156	85.88
663.36	81.88
663.563	82.88
663.766	78.88
663.969	74.88
664.173	92.88
664.376	92.88
664.579	79.88
664.782	82.88
664.985	78.88
665.188	100.88
665.391	84.88
665.594	80.88
665.797	83.88
666	67.88
666.203	81.88
666.406	92.88
666.609	97.88
666.812	87.88
667.015	79.88
667.218	83.88
667.421	88.88
667.624	90.88
667.827	81.88
668.03	85.88
668.232	90.88
668.435	92.88
668.638	74.88
668.841	74.88
669.043	98.88
669.246	77.88
669.449	80.88
669.651	84.88
669.854	95.88
670.057	80.88
670.259	85.88
670.462	87.88
670.665	83.88
670.867	75.88
671.07	72.88
671.272	88.88
671.475	91.88
671.677	74.88
671.88	92.88
672.082	80.88
672.284	85.88
672.487	88.88
672.689	86.88
672.892	80.88
