Data from 1973.PennyLincolnUp.Lamp.En5.5.200Scan.071719.P1.Changed Mount._HRD10591_15-45-07-853.txt Node
Date: Thu Jul 18 15:45:07 EDT 2019
User: cochatt
Spectrometer: HR+D1059
Trigger mode: 1
Integration Time (sec): 1.000000E-1
Scans to average: 1
Electric dark correction enabled: true
Nonlinearity correction enabled: false
Boxcar width: 0
XAxis mode: Wavelengths
Number of Pixels in Spectrum: 2048
>>>>>Begin Spectral Data<<<<<
223.165	-16.44
223.4	-16.44
223.635	-16.44
223.869	-7.44
224.104	-21.44
224.338	-21.44
224.573	-14.44
224.808	-23.44
225.042	-14.44
225.277	-7.44
225.511	2.56
225.746	14.56
225.98	4.56
226.215	12.56
226.449	5.56
226.683	23.56
226.918	41.56
227.152	21.56
227.387	34.56
227.621	49.56
227.856	37.56
228.09	45.56
228.324	54.56
228.559	49.56
228.793	65.56
229.027	85.56
229.262	108.56
229.496	116.56
229.73	129.56
229.964	148.56
230.199	127.56
230.433	116.56
230.667	118.56
230.901	127.56
231.136	106.56
231.37	118.56
231.604	101.56
231.838	123.56
232.072	125.56
232.306	118.56
232.541	120.56
232.775	115.56
233.009	119.56
233.243	114.56
233.477	110.56
233.711	127.56
233.945	117.56
234.179	111.56
234.413	126.56
234.647	123.56
234.881	125.56
235.115	129.56
235.349	114.56
235.583	118.56
235.817	120.56
236.051	116.56
236.285	125.56
236.519	130.56
236.753	131.56
236.987	134.56
237.221	164.56
237.455	237.56
237.689	170.56
237.922	141.56
238.156	135.56
238.39	121.56
238.624	127.56
238.858	130.56
239.091	132.56
239.325	121.56
239.559	140.56
239.793	126.56
240.027	122.56
240.26	149.56
240.494	155.56
240.728	149.56
240.961	145.56
241.195	138.56
241.429	152.56
241.662	146.56
241.896	139.56
242.13	148.56
242.363	140.56
242.597	129.56
242.83	143.56
243.064	154.56
243.298	146.56
243.531	150.56
243.765	135.56
243.998	156.56
244.232	140.56
244.465	156.56
244.699	151.56
244.932	170.56
245.166	150.56
245.399	141.56
245.633	142.56
245.866	151.56
246.099	153.56
246.333	164.56
246.566	161.56
246.8	169.56
247.033	177.56
247.266	143.56
247.5	154.56
247.733	170.56
247.966	178.56
248.2	177.56
248.433	184.56
248.666	179.56
248.899	180.56
249.133	200.56
249.366	215.56
249.599	209.56
249.832	179.56
250.066	195.56
250.299	174.56
250.532	186.56
250.765	209.56
250.998	217.56
251.231	226.56
251.465	214.56
251.698	202.56
251.931	227.56
252.164	177.56
252.397	188.56
252.63	212.56
252.863	222.56
253.096	220.56
253.329	230.56
253.562	219.56
253.795	215.56
254.028	213.56
254.261	215.56
254.494	203.56
254.727	237.56
254.96	291.56
255.193	273.56
255.426	249.56
255.659	233.56
255.892	231.56
256.124	232.56
256.357	246.56
256.59	237.56
256.823	229.56
257.056	219.56
257.289	220.56
257.521	223.56
257.754	213.56
257.987	218.56
258.22	222.56
258.452	221.56
258.685	226.56
258.918	226.56
259.151	220.56
259.383	217.56
259.616	237.56
259.849	235.56
260.081	239.56
260.314	275.56
260.547	277.56
260.779	251.56
261.012	272.56
261.244	246.56
261.477	219.56
261.71	228.56
261.942	219.56
262.175	249.56
262.407	242.56
262.64	231.56
262.872	222.56
263.105	222.56
263.337	221.56
263.57	241.56
263.802	217.56
264.035	237.56
264.267	227.56
264.499	207.56
264.732	231.56
264.964	240.56
265.197	225.56
265.429	239.56
265.661	225.56
265.894	221.56
266.126	225.56
266.358	237.56
266.591	235.56
266.823	241.56
267.055	255.56
267.287	263.56
267.52	224.56
267.752	257.56
267.984	231.56
268.216	250.56
268.448	249.56
268.681	257.56
268.913	271.56
269.145	270.56
269.377	299.56
269.609	313.56
269.841	270.56
270.073	281.56
270.306	305.56
270.538	332.56
270.77	324.56
271.002	318.56
271.234	291.56
271.466	281.56
271.698	315.56
271.93	331.56
272.162	351.56
272.394	334.56
272.626	323.56
272.858	297.56
273.09	291.56
273.322	292.56
273.553	305.56
273.785	277.56
274.017	269.56
274.249	284.56
274.481	282.56
274.713	281.56
274.945	277.56
275.176	298.56
275.408	287.56
275.64	297.56
275.872	286.56
276.104	307.56
276.335	275.56
276.567	293.56
276.799	308.56
277.031	319.56
277.262	317.56
277.494	342.56
277.726	314.56
277.957	340.56
278.189	310.56
278.421	282.56
278.652	289.56
278.884	311.56
279.115	309.56
279.347	298.56
279.579	302.56
279.81	300.56
280.042	290.56
280.273	270.56
280.505	289.56
280.736	285.56
280.968	302.56
281.199	282.56
281.431	306.56
281.662	305.56
281.894	303.56
282.125	316.56
282.356	297.56
282.588	331.56
282.819	346.56
283.051	310.56
283.282	307.56
283.513	305.56
283.745	335.56
283.976	319.56
284.207	314.56
284.439	329.56
284.67	319.56
284.901	335.56
285.132	326.56
285.364	313.56
285.595	318.56
285.826	323.56
286.057	313.56
286.288	330.56
286.52	312.56
286.751	316.56
286.982	315.56
287.213	311.56
287.444	323.56
287.675	335.56
287.906	338.56
288.138	365.56
288.369	322.56
288.6	347.56
288.831	350.56
289.062	326.56
289.293	323.56
289.524	333.56
289.755	321.56
289.986	329.56
290.217	328.56
290.448	317.56
290.679	322.56
290.91	350.56
291.141	344.56
291.371	310.56
291.602	334.56
291.833	334.56
292.064	351.56
292.295	326.56
292.526	337.56
292.757	347.56
292.987	320.56
293.218	335.56
293.449	348.56
293.68	333.56
293.91	343.56
294.141	347.56
294.372	334.56
294.603	330.56
294.833	330.56
295.064	339.56
295.295	341.56
295.525	334.56
295.756	334.56
295.987	333.56
296.217	375.56
296.448	379.56
296.679	356.56
296.909	326.56
297.14	340.56
297.37	342.56
297.601	339.56
297.831	335.56
298.062	350.56
298.292	343.56
298.523	354.56
298.753	358.56
298.984	356.56
299.214	358.56
299.445	351.56
299.675	347.56
299.905	362.56
300.136	347.56
300.366	350.56
300.597	365.56
300.827	349.56
301.057	388.56
301.288	388.56
301.518	374.56
301.748	367.56
301.979	371.56
302.209	369.56
302.439	387.56
302.669	374.56
302.9	370.56
303.13	374.56
303.36	357.56
303.59	362.56
303.82	381.56
304.051	381.56
304.281	363.56
304.511	373.56
304.741	374.56
304.971	374.56
305.201	371.56
305.431	380.56
305.661	362.56
305.891	373.56
306.121	374.56
306.352	353.56
306.582	374.56
306.812	371.56
307.042	355.56
307.272	371.56
307.502	387.56
307.731	377.56
307.961	376.56
308.191	392.56
308.421	359.56
308.651	367.56
308.881	380.56
309.111	385.56
309.341	392.56
309.571	398.56
309.8	387.56
310.03	393.56
310.26	413.56
310.49	400.56
310.72	400.56
310.949	407.56
311.179	412.56
311.409	417.56
311.639	404.56
311.868	393.56
312.098	424.56
312.328	427.56
312.557	445.56
312.787	408.56
313.017	433.56
313.246	407.56
313.476	398.56
313.706	385.56
313.935	435.56
314.165	413.56
314.394	422.56
314.624	427.56
314.853	422.56
315.083	443.56
315.312	430.56
315.542	410.56
315.771	413.56
316.001	417.56
316.23	415.56
316.46	401.56
316.689	393.56
316.919	424.56
317.148	433.56
317.377	419.56
317.607	399.56
317.836	403.56
318.065	414.56
318.295	406.56
318.524	407.56
318.753	413.56
318.983	415.56
319.212	423.56
319.441	428.56
319.67	417.56
319.9	426.56
320.129	415.56
320.358	426.56
320.587	411.56
320.816	435.56
321.046	449.56
321.275	429.56
321.504	415.56
321.733	434.56
321.962	426.56
322.191	439.56
322.42	447.56
322.649	464.56
322.878	473.56
323.108	459.56
323.337	479.56
323.566	480.56
323.795	511.56
324.024	547.56
324.253	643.56
324.482	854.56
324.71	1211.56
324.939	1702.56
325.168	1522.56
325.397	839.56
325.626	595.56
325.855	521.56
326.084	527.56
326.313	497.56
326.542	518.56
326.77	515.56
326.999	588.56
327.228	776.56
327.457	1099.56
327.686	1354.56
327.914	937.56
328.143	685.56
328.372	599.56
328.6	571.56
328.829	551.56
329.058	563.56
329.287	589.56
329.515	549.56
329.744	513.56
329.972	515.56
330.201	542.56
330.43	558.56
330.658	606.56
330.887	575.56
331.115	595.56
331.344	570.56
331.572	523.56
331.801	529.56
332.03	516.56
332.258	506.56
332.486	503.56
332.715	504.56
332.943	502.56
333.172	519.56
333.4	521.56
333.629	543.56
333.857	554.56
334.085	563.56
334.314	565.56
334.542	574.56
334.771	596.56
334.999	570.56
335.227	522.56
335.455	492.56
335.684	496.56
335.912	501.56
336.14	511.56
336.369	494.56
336.597	523.56
336.825	505.56
337.053	478.56
337.281	469.56
337.51	474.56
337.738	508.56
337.966	482.56
338.194	501.56
338.422	473.56
338.65	475.56
338.878	487.56
339.106	461.56
339.334	467.56
339.562	468.56
339.79	470.56
340.018	474.56
340.246	462.56
340.474	449.56
340.702	465.56
340.93	459.56
341.158	451.56
341.386	479.56
341.614	479.56
341.842	483.56
342.07	477.56
342.298	452.56
342.526	459.56
342.754	443.56
342.981	466.56
343.209	456.56
343.437	459.56
343.665	482.56
343.893	487.56
344.12	535.56
344.348	514.56
344.576	494.56
344.804	460.56
345.031	505.56
345.259	477.56
345.487	476.56
345.714	469.56
345.942	462.56
346.17	447.56
346.397	449.56
346.625	437.56
346.853	445.56
347.08	443.56
347.308	452.56
347.535	451.56
347.763	452.56
347.99	446.56
348.218	447.56
348.445	452.56
348.673	457.56
348.9	442.56
349.128	449.56
349.355	426.56
349.583	437.56
349.81	409.56
350.037	450.56
350.265	435.56
350.492	436.56
350.72	418.56
350.947	465.56
351.174	453.56
351.402	452.56
351.629	455.56
351.856	443.56
352.083	451.56
352.311	460.56
352.538	450.56
352.765	458.56
352.992	448.56
353.22	448.56
353.447	443.56
353.674	452.56
353.901	446.56
354.128	405.56
354.355	412.56
354.583	417.56
354.81	408.56
355.037	439.56
355.264	425.56
355.491	413.56
355.718	409.56
355.945	430.56
356.172	429.56
356.399	417.56
356.626	410.56
356.853	408.56
357.08	414.56
357.307	445.56
357.534	427.56
357.761	437.56
357.988	421.56
358.215	413.56
358.441	438.56
358.668	432.56
358.895	438.56
359.122	434.56
359.349	439.56
359.576	445.56
359.802	447.56
360.029	461.56
360.256	469.56
360.483	451.56
360.709	439.56
360.936	449.56
361.163	445.56
361.39	442.56
361.616	451.56
361.843	450.56
362.07	439.56
362.296	423.56
362.523	431.56
362.749	422.56
362.976	425.56
363.203	427.56
363.429	452.56
363.656	417.56
363.882	433.56
364.109	438.56
364.335	421.56
364.562	413.56
364.788	431.56
365.015	423.56
365.241	419.56
365.468	417.56
365.694	423.56
365.92	437.56
366.147	421.56
366.373	428.56
366.599	428.56
366.826	420.56
367.052	431.56
367.278	411.56
367.505	428.56
367.731	419.56
367.957	421.56
368.184	424.56
368.41	435.56
368.636	450.56
368.862	437.56
369.089	439.56
369.315	438.56
369.541	419.56
369.767	438.56
369.993	448.56
370.219	424.56
370.445	411.56
370.672	437.56
370.898	428.56
371.124	429.56
371.35	434.56
371.576	427.56
371.802	435.56
372.028	434.56
372.254	425.56
372.48	436.56
372.706	460.56
372.932	450.56
373.158	438.56
373.384	446.56
373.61	441.56
373.835	422.56
374.061	439.56
374.287	431.56
374.513	462.56
374.739	443.56
374.965	461.56
375.191	441.56
375.416	448.56
375.642	467.56
375.868	451.56
376.094	426.56
376.319	438.56
376.545	441.56
376.771	440.56
376.997	441.56
377.222	418.56
377.448	438.56
377.674	444.56
377.899	418.56
378.125	432.56
378.35	421.56
378.576	429.56
378.802	439.56
379.027	439.56
379.253	447.56
379.478	436.56
379.704	425.56
379.929	433.56
380.155	455.56
380.38	437.56
380.606	452.56
380.831	420.56
381.057	445.56
381.282	430.56
381.507	421.56
381.733	451.56
381.958	431.56
382.184	428.56
382.409	430.56
382.634	437.56
382.86	432.56
383.085	426.56
383.31	445.56
383.535	449.56
383.761	446.56
383.986	443.56
384.211	475.56
384.436	452.56
384.662	485.56
384.887	461.56
385.112	500.56
385.337	484.56
385.562	479.56
385.787	482.56
386.013	498.56
386.238	525.56
386.463	504.56
386.688	496.56
386.913	490.56
387.138	482.56
387.363	494.56
387.588	498.56
387.813	485.56
388.038	478.56
388.263	489.56
388.488	480.56
388.713	492.56
388.938	500.56
389.163	480.56
389.387	485.56
389.612	472.56
389.837	482.56
390.062	481.56
390.287	505.56
390.512	473.56
390.736	491.56
390.961	491.56
391.186	483.56
391.411	487.56
391.636	497.56
391.86	517.56
392.085	526.56
392.31	508.56
392.534	525.56
392.759	495.56
392.984	519.56
393.208	500.56
393.433	494.56
393.658	506.56
393.882	497.56
394.107	503.56
394.331	506.56
394.556	501.56
394.78	499.56
395.005	495.56
395.229	511.56
395.454	504.56
395.678	533.56
395.903	509.56
396.127	552.56
396.352	555.56
396.576	525.56
396.801	514.56
397.025	526.56
397.249	515.56
397.474	525.56
397.698	531.56
397.922	543.56
398.147	546.56
398.371	547.56
398.595	579.56
398.82	573.56
399.044	609.56
399.268	610.56
399.492	651.56
399.717	705.56
399.941	734.56
400.165	732.56
400.389	725.56
400.613	667.56
400.837	615.56
401.062	591.56
401.286	568.56
401.51	578.56
401.734	577.56
401.958	568.56
402.182	581.56
402.406	576.56
402.63	578.56
402.854	613.56
403.078	608.56
403.302	615.56
403.526	611.56
403.75	639.56
403.974	619.56
404.198	590.56
404.422	609.56
404.645	618.56
404.869	619.56
405.093	651.56
405.317	660.56
405.541	708.56
405.765	666.56
405.988	636.56
406.212	636.56
406.436	624.56
406.66	667.56
406.883	667.56
407.107	665.56
407.331	712.56
407.555	757.56
407.778	780.56
408.002	736.56
408.226	677.56
408.449	658.56
408.673	661.56
408.896	677.56
409.12	709.56
409.344	690.56
409.567	613.56
409.791	617.56
410.014	606.56
410.238	609.56
410.461	597.56
410.685	614.56
410.908	596.56
411.132	632.56
411.355	686.56
411.578	658.56
411.802	615.56
412.025	622.56
412.249	609.56
412.472	612.56
412.695	632.56
412.919	625.56
413.142	618.56
413.365	598.56
413.589	563.56
413.812	563.56
414.035	561.56
414.258	573.56
414.482	550.56
414.705	563.56
414.928	560.56
415.151	550.56
415.374	567.56
415.597	541.56
415.821	558.56
416.044	581.56
416.267	558.56
416.49	565.56
416.713	572.56
416.936	558.56
417.159	551.56
417.382	555.56
417.605	561.56
417.828	605.56
418.051	582.56
418.274	572.56
418.497	561.56
418.72	551.56
418.943	545.56
419.166	608.56
419.389	611.56
419.611	618.56
419.834	604.56
420.057	599.56
420.28	577.56
420.503	584.56
420.726	557.56
420.948	595.56
421.171	632.56
421.394	647.56
421.617	590.56
421.839	581.56
422.062	600.56
422.285	595.56
422.507	636.56
422.73	721.56
422.953	692.56
423.175	639.56
423.398	642.56
423.621	631.56
423.843	625.56
424.066	623.56
424.288	604.56
424.511	633.56
424.733	654.56
424.956	735.56
425.178	720.56
425.401	717.56
425.623	717.56
425.846	639.56
426.068	628.56
426.291	595.56
426.513	599.56
426.735	610.56
426.958	639.56
427.18	689.56
427.402	819.56
427.625	889.56
427.847	743.56
428.069	685.56
428.292	635.56
428.514	583.56
428.736	577.56
428.958	569.56
429.181	554.56
429.403	547.56
429.625	586.56
429.847	605.56
430.069	614.56
430.292	647.56
430.514	568.56
430.736	549.56
430.958	549.56
431.18	544.56
431.402	526.56
431.624	521.56
431.846	521.56
432.068	550.56
432.29	525.56
432.512	551.56
432.734	518.56
432.956	523.56
433.178	539.56
433.4	546.56
433.622	539.56
433.844	538.56
434.066	512.56
434.287	531.56
434.509	541.56
434.731	573.56
434.953	581.56
435.175	556.56
435.397	608.56
435.618	593.56
435.84	635.56
436.062	698.56
436.284	757.56
436.505	628.56
436.727	570.56
436.949	566.56
437.17	550.56
437.392	562.56
437.614	563.56
437.835	603.56
438.057	654.56
438.278	757.56
438.5	735.56
438.721	803.56
438.943	784.56
439.165	629.56
439.386	581.56
439.608	590.56
439.829	563.56
440.05	598.56
440.272	630.56
440.493	616.56
440.715	595.56
440.936	589.56
441.158	569.56
441.379	571.56
441.6	586.56
441.822	617.56
442.043	649.56
442.264	682.56
442.486	717.56
442.707	663.56
442.928	616.56
443.149	602.56
443.371	618.56
443.592	670.56
443.813	742.56
444.034	849.56
444.255	706.56
444.476	635.56
444.698	638.56
444.919	655.56
445.14	796.56
445.361	691.56
445.582	651.56
445.803	689.56
446.024	757.56
446.245	757.56
446.466	706.56
446.687	623.56
446.908	595.56
447.129	577.56
447.35	572.56
447.571	535.56
447.792	556.56
448.013	549.56
448.234	578.56
448.455	577.56
448.675	677.56
448.896	789.56
449.117	692.56
449.338	657.56
449.559	758.56
449.779	803.56
450	656.56
450.221	577.56
450.442	523.56
450.662	518.56
450.883	547.56
451.104	524.56
451.324	533.56
451.545	522.56
451.766	503.56
451.986	478.56
452.207	487.56
452.428	462.56
452.648	495.56
452.869	479.56
453.089	486.56
453.31	519.56
453.53	483.56
453.751	505.56
453.971	492.56
454.192	501.56
454.412	486.56
454.633	482.56
454.853	469.56
455.073	489.56
455.294	519.56
455.514	545.56
455.734	566.56
455.955	462.56
456.175	460.56
456.395	468.56
456.616	443.56
456.836	455.56
457.056	475.56
457.276	472.56
457.497	465.56
457.717	455.56
457.937	454.56
458.157	487.56
458.377	480.56
458.598	508.56
458.818	549.56
459.038	592.56
459.258	636.56
459.478	568.56
459.698	549.56
459.918	541.56
460.138	542.56
460.358	564.56
460.578	576.56
460.798	601.56
461.018	567.56
461.238	577.56
461.458	538.56
461.678	554.56
461.898	550.56
462.118	573.56
462.338	600.56
462.558	588.56
462.777	625.56
462.997	655.56
463.217	668.56
463.437	674.56
463.657	637.56
463.876	635.56
464.096	628.56
464.316	602.56
464.536	616.56
464.755	607.56
464.975	604.56
465.195	631.56
465.414	663.56
465.634	585.56
465.854	537.56
466.073	533.56
466.293	537.56
466.512	513.56
466.732	504.56
466.951	508.56
467.171	509.56
467.391	507.56
467.61	508.56
467.829	518.56
468.049	519.56
468.268	500.56
468.488	497.56
468.707	494.56
468.927	507.56
469.146	501.56
469.365	499.56
469.585	479.56
469.804	507.56
470.023	498.56
470.243	541.56
470.462	516.56
470.681	532.56
470.901	524.56
471.12	526.56
471.339	522.56
471.558	514.56
471.777	529.56
471.997	495.56
472.216	509.56
472.435	528.56
472.654	506.56
472.873	503.56
473.092	498.56
473.311	501.56
473.53	499.56
473.749	538.56
473.968	528.56
474.187	628.56
474.406	610.56
474.625	555.56
474.844	524.56
475.063	483.56
475.282	489.56
475.501	522.56
475.72	505.56
475.939	517.56
476.158	523.56
476.377	535.56
476.596	530.56
476.814	526.56
477.033	542.56
477.252	537.56
477.471	556.56
477.69	558.56
477.908	552.56
478.127	567.56
478.346	549.56
478.564	542.56
478.783	578.56
479.002	576.56
479.22	561.56
479.439	603.56
479.658	583.56
479.876	596.56
480.095	607.56
480.313	663.56
480.532	637.56
480.751	622.56
480.969	629.56
481.188	659.56
481.406	677.56
481.624	673.56
481.843	585.56
482.061	573.56
482.28	598.56
482.498	599.56
482.717	577.56
482.935	602.56
483.153	584.56
483.372	603.56
483.59	589.56
483.808	601.56
484.027	593.56
484.245	581.56
484.463	598.56
484.681	573.56
484.9	587.56
485.118	598.56
485.336	575.56
485.554	597.56
485.772	630.56
485.99	616.56
486.209	609.56
486.427	636.56
486.645	605.56
486.863	625.56
487.081	625.56
487.299	630.56
487.517	622.56
487.735	599.56
487.953	630.56
488.171	613.56
488.389	635.56
488.607	633.56
488.825	619.56
489.043	628.56
489.261	638.56
489.479	620.56
489.696	615.56
489.914	644.56
490.132	653.56
490.35	626.56
490.568	645.56
490.786	664.56
491.003	682.56
491.221	699.56
491.439	663.56
491.657	693.56
491.874	708.56
492.092	704.56
492.31	681.56
492.527	693.56
492.745	717.56
492.963	706.56
493.18	730.56
493.398	726.56
493.615	722.56
493.833	718.56
494.05	722.56
494.268	716.56
494.485	718.56
494.703	706.56
494.92	732.56
495.138	747.56
495.355	733.56
495.573	739.56
495.79	741.56
496.008	718.56
496.225	739.56
496.442	747.56
496.66	742.56
496.877	744.56
497.094	757.56
497.312	771.56
497.529	776.56
497.746	759.56
497.963	780.56
498.181	810.56
498.398	829.56
498.615	844.56
498.832	896.56
499.049	895.56
499.267	930.56
499.484	980.56
499.701	1040.56
499.918	1109.56
500.135	1185.56
500.352	1277.56
500.569	1329.56
500.786	1300.56
501.003	1265.56
501.22	1175.56
501.437	1104.56
501.654	1094.56
501.871	1033.56
502.088	967.56
502.305	903.56
502.522	921.56
502.739	897.56
502.956	835.56
503.172	811.56
503.389	794.56
503.606	783.56
503.823	762.56
504.04	738.56
504.256	751.56
504.473	772.56
504.69	767.56
504.907	771.56
505.123	742.56
505.34	711.56
505.557	713.56
505.773	683.56
505.99	708.56
506.207	700.56
506.423	708.56
506.64	682.56
506.856	657.56
507.073	708.56
507.289	656.56
507.506	654.56
507.722	656.56
507.939	668.56
508.155	651.56
508.372	630.56
508.588	628.56
508.805	638.56
509.021	633.56
509.238	651.56
509.454	675.56
509.67	658.56
509.887	646.56
510.103	638.56
510.319	657.56
510.536	718.56
510.752	1068.56
510.968	905.56
511.184	649.56
511.401	621.56
511.617	608.56
511.833	611.56
512.049	615.56
512.265	603.56
512.481	613.56
512.698	591.56
512.914	622.56
513.13	617.56
513.346	619.56
513.562	587.56
513.778	596.56
513.994	605.56
514.21	639.56
514.426	648.56
514.642	668.56
514.858	675.56
515.074	679.56
515.29	809.56
515.506	1121.56
515.721	948.56
515.937	701.56
516.153	675.56
516.369	634.56
516.585	656.56
516.801	652.56
517.016	670.56
517.232	661.56
517.448	675.56
517.664	666.56
517.879	681.56
518.095	678.56
518.311	671.56
518.527	677.56
518.742	668.56
518.958	635.56
519.173	638.56
519.389	625.56
519.605	619.56
519.82	614.56
520.036	625.56
520.251	646.56
520.467	650.56
520.682	660.56
520.898	633.56
521.113	646.56
521.329	670.56
521.544	765.56
521.76	884.56
521.975	1385.56
522.19	1375.56
522.406	819.56
522.621	634.56
522.836	609.56
523.052	577.56
523.267	579.56
523.482	563.56
523.698	553.56
523.913	549.56
524.128	523.56
524.343	534.56
524.559	511.56
524.774	524.56
524.989	527.56
525.204	527.56
525.419	542.56
525.634	520.56
525.849	531.56
526.064	530.56
526.28	507.56
526.495	519.56
526.71	514.56
526.925	500.56
527.14	499.56
527.355	495.56
527.57	490.56
527.785	516.56
527.999	527.56
528.214	505.56
528.429	518.56
528.644	536.56
528.859	502.56
529.074	532.56
529.289	527.56
529.503	571.56
529.718	565.56
529.933	538.56
530.148	518.56
530.363	519.56
530.577	484.56
530.792	480.56
531.007	510.56
531.221	502.56
531.436	490.56
531.651	523.56
531.865	489.56
532.08	490.56
532.295	468.56
532.509	485.56
532.724	492.56
532.938	489.56
533.153	514.56
533.367	485.56
533.582	488.56
533.796	514.56
534.011	486.56
534.225	494.56
534.44	473.56
534.654	490.56
534.868	492.56
535.083	493.56
535.297	498.56
535.511	470.56
535.726	481.56
535.94	483.56
536.154	478.56
536.369	503.56
536.583	474.56
536.797	480.56
537.011	503.56
537.225	463.56
537.44	467.56
537.654	476.56
537.868	470.56
538.082	469.56
538.296	482.56
538.51	489.56
538.724	483.56
538.938	470.56
539.153	455.56
539.367	475.56
539.581	459.56
539.795	475.56
540.009	467.56
540.222	445.56
540.436	469.56
540.65	466.56
540.864	491.56
541.078	495.56
541.292	476.56
541.506	457.56
541.72	491.56
541.934	475.56
542.147	481.56
542.361	453.56
542.575	445.56
542.789	458.56
543.002	463.56
543.216	473.56
543.43	467.56
543.644	468.56
543.857	472.56
544.071	455.56
544.285	449.56
544.498	468.56
544.712	477.56
544.925	482.56
545.139	486.56
545.352	476.56
545.566	478.56
545.779	472.56
545.993	494.56
546.206	464.56
546.42	472.56
546.633	478.56
546.847	470.56
547.06	453.56
547.274	466.56
547.487	471.56
547.7	472.56
547.914	471.56
548.127	461.56
548.34	441.56
548.554	462.56
548.767	456.56
548.98	463.56
549.193	454.56
549.407	455.56
549.62	469.56
549.833	487.56
550.046	455.56
550.259	462.56
550.473	424.56
550.686	436.56
550.899	469.56
551.112	467.56
551.325	439.56
551.538	464.56
551.751	473.56
551.964	482.56
552.177	451.56
552.39	470.56
552.603	485.56
552.816	465.56
553.029	501.56
553.242	471.56
553.455	490.56
553.667	508.56
553.88	488.56
554.093	478.56
554.306	466.56
554.519	467.56
554.732	467.56
554.944	454.56
555.157	451.56
555.37	448.56
555.583	426.56
555.795	447.56
556.008	449.56
556.221	435.56
556.433	433.56
556.646	434.56
556.859	424.56
557.071	407.56
557.284	430.56
557.496	405.56
557.709	423.56
557.921	404.56
558.134	416.56
558.346	410.56
558.559	421.56
558.771	413.56
558.984	400.56
559.196	383.56
559.409	382.56
559.621	419.56
559.833	420.56
560.046	421.56
560.258	410.56
560.47	407.56
560.683	410.56
560.895	392.56
561.107	422.56
561.32	404.56
561.532	395.56
561.744	411.56
561.956	410.56
562.168	406.56
562.381	408.56
562.593	426.56
562.805	406.56
563.017	415.56
563.229	412.56
563.441	404.56
563.653	417.56
563.865	408.56
564.077	417.56
564.289	425.56
564.501	430.56
564.713	435.56
564.925	434.56
565.137	471.56
565.349	460.56
565.561	437.56
565.773	462.56
565.985	471.56
566.197	492.56
566.408	515.56
566.62	545.56
566.832	565.56
567.044	550.56
567.255	582.56
567.467	586.56
567.679	599.56
567.891	612.56
568.102	596.56
568.314	605.56
568.526	559.56
568.737	546.56
568.949	497.56
569.161	478.56
569.372	465.56
569.584	445.56
569.795	442.56
570.007	417.56
570.218	474.56
570.43	451.56
570.641	407.56
570.853	435.56
571.064	423.56
571.276	408.56
571.487	419.56
571.698	406.56
571.91	392.56
572.121	392.56
572.333	389.56
572.544	367.56
572.755	377.56
572.966	367.56
573.178	359.56
573.389	366.56
573.6	350.56
573.811	359.56
574.023	342.56
574.234	364.56
574.445	355.56
574.656	359.56
574.867	361.56
575.078	343.56
575.289	350.56
575.501	357.56
575.712	343.56
575.923	349.56
576.134	344.56
576.345	359.56
576.556	357.56
576.767	337.56
576.978	343.56
577.188	332.56
577.399	329.56
577.61	348.56
577.821	350.56
578.032	316.56
578.243	377.56
578.454	517.56
578.665	407.56
578.875	354.56
579.086	339.56
579.297	335.56
579.508	326.56
579.718	333.56
579.929	314.56
580.14	319.56
580.35	327.56
580.561	310.56
580.772	324.56
580.982	331.56
581.193	313.56
581.403	321.56
581.614	320.56
581.825	313.56
582.035	305.56
582.246	298.56
582.456	335.56
582.667	319.56
582.877	330.56
583.087	324.56
583.298	313.56
583.508	320.56
583.719	313.56
583.929	333.56
584.139	332.56
584.35	316.56
584.56	301.56
584.77	315.56
584.981	293.56
585.191	301.56
585.401	299.56
585.611	317.56
585.821	320.56
586.032	293.56
586.242	314.56
586.452	319.56
586.662	297.56
586.872	311.56
587.082	316.56
587.292	317.56
587.502	307.56
587.713	316.56
587.923	296.56
588.133	322.56
588.343	292.56
588.553	289.56
588.762	317.56
588.972	302.56
589.182	302.56
589.392	282.56
589.602	312.56
589.812	314.56
590.022	301.56
590.232	313.56
590.441	315.56
590.651	329.56
590.861	300.56
591.071	310.56
591.281	302.56
591.49	318.56
591.7	313.56
591.91	321.56
592.119	307.56
592.329	347.56
592.539	342.56
592.748	346.56
592.958	337.56
593.167	337.56
593.377	355.56
593.587	356.56
593.796	351.56
594.006	367.56
594.215	374.56
594.424	380.56
594.634	345.56
594.843	335.56
595.053	327.56
595.262	321.56
595.472	322.56
595.681	316.56
595.89	325.56
596.1	304.56
596.309	303.56
596.518	300.56
596.727	294.56
596.937	307.56
597.146	294.56
597.355	298.56
597.564	277.56
597.774	289.56
597.983	289.56
598.192	280.56
598.401	281.56
598.61	281.56
598.819	297.56
599.028	295.56
599.237	280.56
599.446	287.56
599.655	277.56
599.864	293.56
600.073	268.56
600.282	284.56
600.491	269.56
600.7	281.56
600.909	274.56
601.118	279.56
601.327	276.56
601.536	260.56
601.745	264.56
601.953	284.56
602.162	277.56
602.371	267.56
602.58	275.56
602.789	260.56
602.997	243.56
603.206	276.56
603.415	262.56
603.623	259.56
603.832	250.56
604.041	262.56
604.249	276.56
604.458	286.56
604.666	275.56
604.875	239.56
605.084	258.56
605.292	248.56
605.501	253.56
605.709	251.56
605.918	258.56
606.126	244.56
606.334	251.56
606.543	270.56
606.751	270.56
606.96	260.56
607.168	249.56
607.376	260.56
607.585	251.56
607.793	249.56
608.001	260.56
608.21	273.56
608.418	253.56
608.626	274.56
608.834	254.56
609.043	255.56
609.251	245.56
609.459	258.56
609.667	243.56
609.875	243.56
610.083	241.56
610.291	257.56
610.499	278.56
610.707	255.56
610.916	246.56
611.124	269.56
611.332	260.56
611.54	253.56
611.748	243.56
611.955	259.56
612.163	250.56
612.371	255.56
612.579	254.56
612.787	254.56
612.995	263.56
613.203	246.56
613.411	256.56
613.618	261.56
613.826	267.56
614.034	253.56
614.242	251.56
614.449	242.56
614.657	243.56
614.865	246.56
615.072	261.56
615.28	259.56
615.488	234.56
615.695	237.56
615.903	222.56
616.111	257.56
616.318	267.56
616.526	246.56
616.733	243.56
616.941	253.56
617.148	263.56
617.356	256.56
617.563	248.56
617.771	255.56
617.978	238.56
618.185	246.56
618.393	236.56
618.6	245.56
618.807	263.56
619.015	259.56
619.222	241.56
619.429	236.56
619.637	237.56
619.844	248.56
620.051	222.56
620.258	220.56
620.466	237.56
620.673	229.56
620.88	232.56
621.087	245.56
621.294	241.56
621.501	234.56
621.708	244.56
621.915	237.56
622.122	221.56
622.329	242.56
622.536	237.56
622.743	235.56
622.95	233.56
623.157	228.56
623.364	231.56
623.571	201.56
623.778	227.56
623.985	230.56
624.192	225.56
624.399	216.56
624.606	216.56
624.812	198.56
625.019	217.56
625.226	222.56
625.433	216.56
625.639	215.56
625.846	225.56
626.053	200.56
626.259	202.56
626.466	220.56
626.673	214.56
626.879	220.56
627.086	205.56
627.293	227.56
627.499	215.56
627.706	206.56
627.912	211.56
628.119	227.56
628.325	219.56
628.532	211.56
628.738	213.56
628.945	210.56
629.151	219.56
629.357	221.56
629.564	213.56
629.77	195.56
629.976	194.56
630.183	207.56
630.389	207.56
630.595	199.56
630.802	218.56
631.008	203.56
631.214	209.56
631.42	209.56
631.627	187.56
631.833	183.56
632.039	192.56
632.245	209.56
632.451	195.56
632.657	209.56
632.863	205.56
633.069	192.56
633.275	184.56
633.481	187.56
633.688	189.56
633.893	183.56
634.099	208.56
634.305	189.56
634.511	191.56
634.717	203.56
634.923	184.56
635.129	195.56
635.335	211.56
635.541	184.56
635.747	181.56
635.952	191.56
636.158	184.56
636.364	184.56
636.57	196.56
636.775	197.56
636.981	201.56
637.187	206.56
637.392	179.56
637.598	185.56
637.804	190.56
638.009	177.56
638.215	168.56
638.421	177.56
638.626	195.56
638.832	191.56
639.037	187.56
639.243	179.56
639.448	195.56
639.654	187.56
639.859	186.56
640.065	174.56
640.27	185.56
640.475	186.56
640.681	180.56
640.886	188.56
641.091	167.56
641.297	182.56
641.502	186.56
641.707	167.56
641.913	172.56
642.118	174.56
642.323	173.56
642.528	186.56
642.733	166.56
642.939	179.56
643.144	181.56
643.349	179.56
643.554	199.56
643.759	180.56
643.964	171.56
644.169	177.56
644.374	149.56
644.579	189.56
644.784	177.56
644.989	160.56
645.194	186.56
645.399	187.56
645.604	163.56
645.809	170.56
646.014	189.56
646.219	156.56
646.423	176.56
646.628	170.56
646.833	177.56
647.038	177.56
647.243	185.56
647.447	175.56
647.652	180.56
647.857	185.56
648.062	176.56
648.266	178.56
648.471	167.56
648.676	182.56
648.88	189.56
649.085	184.56
649.289	188.56
649.494	189.56
649.698	190.56
649.903	171.56
650.107	170.56
650.312	162.56
650.516	172.56
650.721	167.56
650.925	159.56
651.13	162.56
651.334	164.56
651.539	155.56
651.743	163.56
651.947	166.56
652.152	158.56
652.356	152.56
652.56	155.56
652.764	148.56
652.969	149.56
653.173	145.56
653.377	151.56
653.581	154.56
653.785	134.56
653.99	141.56
654.194	143.56
654.398	137.56
654.602	151.56
654.806	119.56
655.01	150.56
655.214	154.56
655.418	148.56
655.622	129.56
655.826	141.56
656.03	155.56
656.234	133.56
656.438	151.56
656.642	142.56
656.846	117.56
657.049	119.56
657.253	119.56
657.457	131.56
657.661	125.56
657.865	112.56
658.068	122.56
658.272	125.56
658.476	119.56
658.68	99.56
658.883	91.56
659.087	90.56
659.291	105.56
659.494	92.56
659.698	100.56
659.901	93.56
660.105	103.56
660.309	93.56
660.512	89.56
660.716	98.56
660.919	98.56
661.123	90.56
661.326	84.56
661.53	103.56
661.733	82.56
661.936	87.56
662.14	92.56
662.343	97.56
662.546	88.56
662.75	88.56
662.953	93.56
663.156	88.56
663.36	91.56
663.563	102.56
663.766	87.56
663.969	85.56
664.173	94.56
664.376	73.56
664.579	95.56
664.782	85.56
664.985	89.56
665.188	98.56
665.391	85.56
665.594	99.56
665.797	81.56
666	86.56
666.203	78.56
666.406	71.56
666.609	81.56
666.812	84.56
667.015	81.56
667.218	78.56
667.421	80.56
667.624	91.56
667.827	80.56
668.03	72.56
668.232	90.56
668.435	81.56
668.638	85.56
668.841	73.56
669.043	85.56
669.246	91.56
669.449	81.56
669.651	83.56
669.854	83.56
670.057	84.56
670.259	76.56
670.462	99.56
670.665	74.56
670.867	69.56
671.07	76.56
671.272	86.56
671.475	88.56
671.677	86.56
671.88	94.56
672.082	85.56
672.284	96.56
672.487	72.56
672.689	94.56
672.892	75.56
