Data from 1973.PennyLincolnUp.Lamp.En5.5.200Scan.071719.P1.Changed Mount._HRD10591_15-44-01-852.txt Node
Date: Thu Jul 18 15:44:01 EDT 2019
User: cochatt
Spectrometer: HR+D1059
Trigger mode: 1
Integration Time (sec): 1.000000E-1
Scans to average: 1
Electric dark correction enabled: true
Nonlinearity correction enabled: false
Boxcar width: 0
XAxis mode: Wavelengths
Number of Pixels in Spectrum: 2048
>>>>>Begin Spectral Data<<<<<
223.165	-21.94
223.4	-21.94
223.635	-21.94
223.869	-10.94
224.104	-18.94
224.338	-8.94
224.573	-26.94
224.808	0.06
225.042	-7.94
225.277	-2.94
225.511	16.06
225.746	-3.94
225.98	23.06
226.215	1.06
226.449	3.06
226.683	22.06
226.918	16.06
227.152	21.06
227.387	41.06
227.621	37.06
227.856	35.06
228.09	44.06
228.324	55.06
228.559	54.06
228.793	68.06
229.027	83.06
229.262	100.06
229.496	103.06
229.73	122.06
229.964	132.06
230.199	134.06
230.433	108.06
230.667	101.06
230.901	94.06
231.136	108.06
231.37	104.06
231.604	117.06
231.838	101.06
232.072	128.06
232.306	114.06
232.541	117.06
232.775	98.06
233.009	111.06
233.243	104.06
233.477	118.06
233.711	104.06
233.945	104.06
234.179	115.06
234.413	117.06
234.647	106.06
234.881	124.06
235.115	104.06
235.349	120.06
235.583	119.06
235.817	125.06
236.051	122.06
236.285	125.06
236.519	114.06
236.753	106.06
236.987	152.06
237.221	153.06
237.455	194.06
237.689	171.06
237.922	140.06
238.156	134.06
238.39	132.06
238.624	116.06
238.858	125.06
239.091	122.06
239.325	113.06
239.559	116.06
239.793	118.06
240.027	125.06
240.26	137.06
240.494	155.06
240.728	153.06
240.961	157.06
241.195	154.06
241.429	162.06
241.662	139.06
241.896	122.06
242.13	134.06
242.363	119.06
242.597	122.06
242.83	135.06
243.064	144.06
243.298	151.06
243.531	133.06
243.765	136.06
243.998	131.06
244.232	146.06
244.465	130.06
244.699	131.06
244.932	136.06
245.166	136.06
245.399	155.06
245.633	146.06
245.866	137.06
246.099	146.06
246.333	153.06
246.566	154.06
246.8	153.06
247.033	168.06
247.266	160.06
247.5	152.06
247.733	162.06
247.966	180.06
248.2	170.06
248.433	164.06
248.666	167.06
248.899	181.06
249.133	171.06
249.366	202.06
249.599	191.06
249.832	168.06
250.066	184.06
250.299	165.06
250.532	202.06
250.765	209.06
250.998	205.06
251.231	218.06
251.465	191.06
251.698	196.06
251.931	193.06
252.164	198.06
252.397	194.06
252.63	204.06
252.863	195.06
253.096	209.06
253.329	215.06
253.562	222.06
253.795	205.06
254.028	208.06
254.261	206.06
254.494	212.06
254.727	224.06
254.96	248.06
255.193	256.06
255.426	234.06
255.659	219.06
255.892	230.06
256.124	205.06
256.357	222.06
256.59	214.06
256.823	213.06
257.056	206.06
257.289	196.06
257.521	203.06
257.754	206.06
257.987	197.06
258.22	202.06
258.452	195.06
258.685	186.06
258.918	210.06
259.151	196.06
259.383	221.06
259.616	217.06
259.849	219.06
260.081	210.06
260.314	237.06
260.547	259.06
260.779	226.06
261.012	243.06
261.244	237.06
261.477	248.06
261.71	214.06
261.942	220.06
262.175	229.06
262.407	230.06
262.64	203.06
262.872	213.06
263.105	210.06
263.337	212.06
263.57	218.06
263.802	229.06
264.035	224.06
264.267	217.06
264.499	217.06
264.732	221.06
264.964	217.06
265.197	217.06
265.429	222.06
265.661	208.06
265.894	217.06
266.126	208.06
266.358	228.06
266.591	211.06
266.823	229.06
267.055	238.06
267.287	230.06
267.52	227.06
267.752	219.06
267.984	240.06
268.216	235.06
268.448	249.06
268.681	256.06
268.913	259.06
269.145	252.06
269.377	270.06
269.609	278.06
269.841	268.06
270.073	273.06
270.306	302.06
270.538	289.06
270.77	299.06
271.002	283.06
271.234	277.06
271.466	275.06
271.698	285.06
271.93	288.06
272.162	282.06
272.394	298.06
272.626	313.06
272.858	287.06
273.09	284.06
273.322	259.06
273.553	271.06
273.785	280.06
274.017	260.06
274.249	269.06
274.481	264.06
274.713	272.06
274.945	283.06
275.176	256.06
275.408	253.06
275.64	280.06
275.872	272.06
276.104	286.06
276.335	266.06
276.567	287.06
276.799	267.06
277.031	290.06
277.262	314.06
277.494	307.06
277.726	311.06
277.957	293.06
278.189	271.06
278.421	284.06
278.652	265.06
278.884	281.06
279.115	281.06
279.347	272.06
279.579	288.06
279.81	277.06
280.042	268.06
280.273	284.06
280.505	270.06
280.736	294.06
280.968	268.06
281.199	285.06
281.431	271.06
281.662	275.06
281.894	276.06
282.125	286.06
282.356	300.06
282.588	298.06
282.819	332.06
283.051	280.06
283.282	288.06
283.513	296.06
283.745	295.06
283.976	290.06
284.207	295.06
284.439	279.06
284.67	304.06
284.901	317.06
285.132	291.06
285.364	296.06
285.595	266.06
285.826	297.06
286.057	291.06
286.288	294.06
286.52	294.06
286.751	291.06
286.982	297.06
287.213	307.06
287.444	306.06
287.675	304.06
287.906	312.06
288.138	314.06
288.369	313.06
288.6	306.06
288.831	320.06
289.062	304.06
289.293	307.06
289.524	315.06
289.755	309.06
289.986	308.06
290.217	323.06
290.448	301.06
290.679	309.06
290.91	322.06
291.141	306.06
291.371	299.06
291.602	308.06
291.833	321.06
292.064	311.06
292.295	330.06
292.526	298.06
292.757	311.06
292.987	301.06
293.218	292.06
293.449	327.06
293.68	301.06
293.91	299.06
294.141	332.06
294.372	293.06
294.603	308.06
294.833	325.06
295.064	304.06
295.295	311.06
295.525	316.06
295.756	331.06
295.987	326.06
296.217	344.06
296.448	335.06
296.679	328.06
296.909	322.06
297.14	309.06
297.37	308.06
297.601	320.06
297.831	327.06
298.062	332.06
298.292	328.06
298.523	320.06
298.753	350.06
298.984	315.06
299.214	320.06
299.445	326.06
299.675	343.06
299.905	325.06
300.136	352.06
300.366	322.06
300.597	320.06
300.827	330.06
301.057	345.06
301.288	348.06
301.518	324.06
301.748	326.06
301.979	354.06
302.209	361.06
302.439	353.06
302.669	340.06
302.9	344.06
303.13	333.06
303.36	350.06
303.59	370.06
303.82	362.06
304.051	352.06
304.281	355.06
304.511	349.06
304.741	347.06
304.971	345.06
305.201	329.06
305.431	349.06
305.661	341.06
305.891	337.06
306.121	346.06
306.352	353.06
306.582	356.06
306.812	356.06
307.042	329.06
307.272	359.06
307.502	338.06
307.731	333.06
307.961	343.06
308.191	347.06
308.421	337.06
308.651	356.06
308.881	340.06
309.111	369.06
309.341	349.06
309.571	359.06
309.8	350.06
310.03	374.06
310.26	386.06
310.49	377.06
310.72	371.06
310.949	390.06
311.179	375.06
311.409	349.06
311.639	381.06
311.868	384.06
312.098	371.06
312.328	376.06
312.557	388.06
312.787	388.06
313.017	371.06
313.246	384.06
313.476	391.06
313.706	376.06
313.935	378.06
314.165	393.06
314.394	405.06
314.624	408.06
314.853	384.06
315.083	381.06
315.312	394.06
315.542	358.06
315.771	372.06
316.001	386.06
316.23	368.06
316.46	366.06
316.689	388.06
316.919	399.06
317.148	404.06
317.377	386.06
317.607	382.06
317.836	396.06
318.065	376.06
318.295	376.06
318.524	379.06
318.753	388.06
318.983	386.06
319.212	381.06
319.441	386.06
319.67	411.06
319.9	395.06
320.129	385.06
320.358	378.06
320.587	393.06
320.816	405.06
321.046	392.06
321.275	388.06
321.504	419.06
321.733	393.06
321.962	406.06
322.191	384.06
322.42	404.06
322.649	435.06
322.878	416.06
323.108	417.06
323.337	426.06
323.566	452.06
323.795	456.06
324.024	490.06
324.253	549.06
324.482	721.06
324.71	1050.06
324.939	1500.06
325.168	1312.06
325.397	699.06
325.626	530.06
325.855	453.06
326.084	477.06
326.313	448.06
326.542	453.06
326.77	466.06
326.999	535.06
327.228	666.06
327.457	961.06
327.686	1148.06
327.914	780.06
328.143	566.06
328.372	536.06
328.6	502.06
328.829	480.06
329.058	490.06
329.287	504.06
329.515	500.06
329.744	461.06
329.972	443.06
330.201	476.06
330.43	518.06
330.658	499.06
330.887	521.06
331.115	530.06
331.344	466.06
331.572	466.06
331.801	485.06
332.03	474.06
332.258	453.06
332.486	450.06
332.715	453.06
332.943	471.06
333.172	470.06
333.4	474.06
333.629	520.06
333.857	498.06
334.085	516.06
334.314	512.06
334.542	513.06
334.771	521.06
334.999	524.06
335.227	502.06
335.455	482.06
335.684	472.06
335.912	483.06
336.14	472.06
336.369	452.06
336.597	451.06
336.825	478.06
337.053	461.06
337.281	458.06
337.51	449.06
337.738	467.06
337.966	448.06
338.194	438.06
338.422	465.06
338.65	424.06
338.878	436.06
339.106	438.06
339.334	425.06
339.562	421.06
339.79	434.06
340.018	428.06
340.246	408.06
340.474	457.06
340.702	428.06
340.93	435.06
341.158	451.06
341.386	438.06
341.614	432.06
341.842	428.06
342.07	432.06
342.298	442.06
342.526	417.06
342.754	429.06
342.981	418.06
343.209	420.06
343.437	432.06
343.665	423.06
343.893	470.06
344.12	451.06
344.348	468.06
344.576	450.06
344.804	462.06
345.031	441.06
345.259	457.06
345.487	459.06
345.714	444.06
345.942	412.06
346.17	438.06
346.397	420.06
346.625	435.06
346.853	408.06
347.08	396.06
347.308	416.06
347.535	442.06
347.763	428.06
347.99	413.06
348.218	436.06
348.445	439.06
348.673	435.06
348.9	419.06
349.128	403.06
349.355	416.06
349.583	404.06
349.81	388.06
350.037	402.06
350.265	416.06
350.492	411.06
350.72	393.06
350.947	417.06
351.174	427.06
351.402	434.06
351.629	418.06
351.856	402.06
352.083	424.06
352.311	438.06
352.538	429.06
352.765	406.06
352.992	412.06
353.22	397.06
353.447	395.06
353.674	409.06
353.901	409.06
354.128	371.06
354.355	417.06
354.583	401.06
354.81	390.06
355.037	382.06
355.264	422.06
355.491	416.06
355.718	389.06
355.945	363.06
356.172	376.06
356.399	380.06
356.626	401.06
356.853	384.06
357.08	388.06
357.307	400.06
357.534	389.06
357.761	412.06
357.988	392.06
358.215	390.06
358.441	411.06
358.668	405.06
358.895	412.06
359.122	398.06
359.349	393.06
359.576	414.06
359.802	416.06
360.029	429.06
360.256	442.06
360.483	436.06
360.709	403.06
360.936	394.06
361.163	399.06
361.39	398.06
361.616	402.06
361.843	405.06
362.07	407.06
362.296	401.06
362.523	414.06
362.749	427.06
362.976	419.06
363.203	435.06
363.429	369.06
363.656	396.06
363.882	392.06
364.109	390.06
364.335	400.06
364.562	411.06
364.788	377.06
365.015	374.06
365.241	407.06
365.468	406.06
365.694	388.06
365.92	407.06
366.147	400.06
366.373	392.06
366.599	392.06
366.826	390.06
367.052	382.06
367.278	391.06
367.505	396.06
367.731	398.06
367.957	387.06
368.184	398.06
368.41	404.06
368.636	393.06
368.862	398.06
369.089	400.06
369.315	401.06
369.541	398.06
369.767	402.06
369.993	393.06
370.219	388.06
370.445	400.06
370.672	414.06
370.898	405.06
371.124	405.06
371.35	410.06
371.576	407.06
371.802	404.06
372.028	398.06
372.254	411.06
372.48	403.06
372.706	403.06
372.932	409.06
373.158	440.06
373.384	417.06
373.61	428.06
373.835	402.06
374.061	418.06
374.287	416.06
374.513	425.06
374.739	425.06
374.965	430.06
375.191	432.06
375.416	439.06
375.642	400.06
375.868	415.06
376.094	410.06
376.319	409.06
376.545	385.06
376.771	377.06
376.997	397.06
377.222	414.06
377.448	423.06
377.674	392.06
377.899	381.06
378.125	395.06
378.35	403.06
378.576	399.06
378.802	387.06
379.027	405.06
379.253	418.06
379.478	388.06
379.704	414.06
379.929	396.06
380.155	399.06
380.38	405.06
380.606	420.06
380.831	424.06
381.057	411.06
381.282	411.06
381.507	417.06
381.733	421.06
381.958	429.06
382.184	443.06
382.409	447.06
382.634	422.06
382.86	438.06
383.085	437.06
383.31	425.06
383.535	444.06
383.761	434.06
383.986	449.06
384.211	419.06
384.436	428.06
384.662	448.06
384.887	445.06
385.112	462.06
385.337	466.06
385.562	467.06
385.787	449.06
386.013	465.06
386.238	468.06
386.463	474.06
386.688	486.06
386.913	481.06
387.138	451.06
387.363	443.06
387.588	448.06
387.813	451.06
388.038	434.06
388.263	453.06
388.488	485.06
388.713	458.06
388.938	476.06
389.163	458.06
389.387	455.06
389.612	450.06
389.837	459.06
390.062	444.06
390.287	475.06
390.512	457.06
390.736	470.06
390.961	470.06
391.186	440.06
391.411	460.06
391.636	474.06
391.86	493.06
392.085	481.06
392.31	500.06
392.534	488.06
392.759	480.06
392.984	493.06
393.208	453.06
393.433	476.06
393.658	473.06
393.882	472.06
394.107	475.06
394.331	488.06
394.556	469.06
394.78	465.06
395.005	456.06
395.229	470.06
395.454	480.06
395.678	477.06
395.903	492.06
396.127	530.06
396.352	496.06
396.576	478.06
396.801	476.06
397.025	466.06
397.249	484.06
397.474	489.06
397.698	497.06
397.922	506.06
398.147	514.06
398.371	517.06
398.595	525.06
398.82	510.06
399.044	589.06
399.268	583.06
399.492	628.06
399.717	681.06
399.941	677.06
400.165	693.06
400.389	681.06
400.613	598.06
400.837	583.06
401.062	540.06
401.286	548.06
401.51	536.06
401.734	548.06
401.958	549.06
402.182	544.06
402.406	544.06
402.63	557.06
402.854	554.06
403.078	537.06
403.302	560.06
403.526	582.06
403.75	583.06
403.974	587.06
404.198	596.06
404.422	587.06
404.645	568.06
404.869	569.06
405.093	614.06
405.317	618.06
405.541	656.06
405.765	604.06
405.988	580.06
406.212	573.06
406.436	608.06
406.66	604.06
406.883	606.06
407.107	647.06
407.331	662.06
407.555	728.06
407.778	724.06
408.002	655.06
408.226	626.06
408.449	614.06
408.673	613.06
408.896	634.06
409.12	645.06
409.344	633.06
409.567	586.06
409.791	588.06
410.014	555.06
410.238	569.06
410.461	562.06
410.685	574.06
410.908	562.06
411.132	577.06
411.355	627.06
411.578	598.06
411.802	551.06
412.025	561.06
412.249	570.06
412.472	590.06
412.695	609.06
412.919	602.06
413.142	569.06
413.365	547.06
413.589	558.06
413.812	536.06
414.035	537.06
414.258	518.06
414.482	537.06
414.705	532.06
414.928	525.06
415.151	518.06
415.374	534.06
415.597	520.06
415.821	516.06
416.044	536.06
416.267	541.06
416.49	549.06
416.713	512.06
416.936	536.06
417.159	535.06
417.382	555.06
417.605	533.06
417.828	540.06
418.051	540.06
418.274	546.06
418.497	559.06
418.72	526.06
418.943	521.06
419.166	545.06
419.389	582.06
419.611	575.06
419.834	554.06
420.057	571.06
420.28	562.06
420.503	558.06
420.726	551.06
420.948	556.06
421.171	574.06
421.394	585.06
421.617	553.06
421.839	541.06
422.062	543.06
422.285	540.06
422.507	613.06
422.73	664.06
422.953	647.06
423.175	593.06
423.398	572.06
423.621	584.06
423.843	583.06
424.066	595.06
424.288	605.06
424.511	610.06
424.733	622.06
424.956	708.06
425.178	666.06
425.401	684.06
425.623	707.06
425.846	596.06
426.068	560.06
426.291	569.06
426.513	579.06
426.735	551.06
426.958	613.06
427.18	634.06
427.402	797.06
427.625	841.06
427.847	717.06
428.069	642.06
428.292	600.06
428.514	537.06
428.736	516.06
428.958	536.06
429.181	534.06
429.403	499.06
429.625	514.06
429.847	545.06
430.069	633.06
430.292	614.06
430.514	548.06
430.736	521.06
430.958	520.06
431.18	524.06
431.402	492.06
431.624	501.06
431.846	492.06
432.068	508.06
432.29	513.06
432.512	503.06
432.734	501.06
432.956	515.06
433.178	501.06
433.4	498.06
433.622	508.06
433.844	513.06
434.066	505.06
434.287	482.06
434.509	510.06
434.731	529.06
434.953	534.06
435.175	555.06
435.397	573.06
435.618	564.06
435.84	626.06
436.062	653.06
436.284	737.06
436.505	619.06
436.727	564.06
436.949	544.06
437.17	512.06
437.392	515.06
437.614	523.06
437.835	533.06
438.057	619.06
438.278	701.06
438.5	706.06
438.721	779.06
438.943	723.06
439.165	602.06
439.386	561.06
439.608	550.06
439.829	549.06
440.05	579.06
440.272	603.06
440.493	571.06
440.715	526.06
440.936	522.06
441.158	522.06
441.379	550.06
441.6	546.06
441.822	566.06
442.043	612.06
442.264	659.06
442.486	677.06
442.707	599.06
442.928	594.06
443.149	576.06
443.371	595.06
443.592	604.06
443.813	700.06
444.034	776.06
444.255	653.06
444.476	589.06
444.698	587.06
444.919	621.06
445.14	673.06
445.361	620.06
445.582	620.06
445.803	637.06
446.024	710.06
446.245	702.06
446.466	654.06
446.687	579.06
446.908	572.06
447.129	534.06
447.35	526.06
447.571	512.06
447.792	510.06
448.013	496.06
448.234	518.06
448.455	547.06
448.675	660.06
448.896	750.06
449.117	641.06
449.338	581.06
449.559	686.06
449.779	800.06
450	645.06
450.221	542.06
450.442	513.06
450.662	487.06
450.883	504.06
451.104	477.06
451.324	494.06
451.545	481.06
451.766	474.06
451.986	451.06
452.207	450.06
452.428	458.06
452.648	461.06
452.869	458.06
453.089	459.06
453.31	457.06
453.53	447.06
453.751	457.06
453.971	445.06
454.192	475.06
454.412	456.06
454.633	468.06
454.853	438.06
455.073	428.06
455.294	496.06
455.514	529.06
455.734	502.06
455.955	461.06
456.175	447.06
456.395	422.06
456.616	442.06
456.836	448.06
457.056	467.06
457.276	464.06
457.497	450.06
457.717	444.06
457.937	434.06
458.157	429.06
458.377	457.06
458.598	486.06
458.818	502.06
459.038	546.06
459.258	579.06
459.478	529.06
459.698	496.06
459.918	532.06
460.138	506.06
460.358	534.06
460.578	540.06
460.798	545.06
461.018	530.06
461.238	533.06
461.458	530.06
461.678	527.06
461.898	538.06
462.118	537.06
462.338	544.06
462.558	553.06
462.777	575.06
462.997	581.06
463.217	619.06
463.437	643.06
463.657	606.06
463.876	584.06
464.096	573.06
464.316	578.06
464.536	588.06
464.755	572.06
464.975	555.06
465.195	582.06
465.414	593.06
465.634	545.06
465.854	500.06
466.073	476.06
466.293	487.06
466.512	487.06
466.732	485.06
466.951	477.06
467.171	471.06
467.391	492.06
467.61	476.06
467.829	489.06
468.049	477.06
468.268	482.06
468.488	498.06
468.707	466.06
468.927	458.06
469.146	464.06
469.365	445.06
469.585	469.06
469.804	482.06
470.023	492.06
470.243	474.06
470.462	485.06
470.681	505.06
470.901	489.06
471.12	474.06
471.339	486.06
471.558	516.06
471.777	475.06
471.997	476.06
472.216	472.06
472.435	510.06
472.654	476.06
472.873	461.06
473.092	473.06
473.311	483.06
473.53	471.06
473.749	476.06
473.968	518.06
474.187	592.06
474.406	595.06
474.625	509.06
474.844	482.06
475.063	477.06
475.282	467.06
475.501	486.06
475.72	477.06
475.939	471.06
476.158	498.06
476.377	478.06
476.596	498.06
476.814	493.06
477.033	486.06
477.252	521.06
477.471	523.06
477.69	519.06
477.908	520.06
478.127	525.06
478.346	542.06
478.564	537.06
478.783	551.06
479.002	551.06
479.22	556.06
479.439	553.06
479.658	574.06
479.876	587.06
480.095	577.06
480.313	593.06
480.532	601.06
480.751	604.06
480.969	604.06
481.188	621.06
481.406	619.06
481.624	596.06
481.843	573.06
482.061	546.06
482.28	555.06
482.498	557.06
482.717	536.06
482.935	526.06
483.153	569.06
483.372	540.06
483.59	554.06
483.808	548.06
484.027	550.06
484.245	552.06
484.463	550.06
484.681	549.06
484.9	547.06
485.118	553.06
485.336	567.06
485.554	566.06
485.772	567.06
485.99	595.06
486.209	576.06
486.427	563.06
486.645	590.06
486.863	589.06
487.081	615.06
487.299	608.06
487.517	594.06
487.735	585.06
487.953	568.06
488.171	600.06
488.389	582.06
488.607	588.06
488.825	593.06
489.043	581.06
489.261	605.06
489.479	601.06
489.696	589.06
489.914	618.06
490.132	587.06
490.35	590.06
490.568	610.06
490.786	609.06
491.003	620.06
491.221	650.06
491.439	645.06
491.657	665.06
491.874	644.06
492.092	658.06
492.31	654.06
492.527	693.06
492.745	663.06
492.963	669.06
493.18	687.06
493.398	685.06
493.615	695.06
493.833	700.06
494.05	686.06
494.268	679.06
494.485	692.06
494.703	688.06
494.92	681.06
495.138	694.06
495.355	700.06
495.573	714.06
495.79	700.06
496.008	676.06
496.225	700.06
496.442	693.06
496.66	704.06
496.877	708.06
497.094	732.06
497.312	721.06
497.529	739.06
497.746	719.06
497.963	718.06
498.181	775.06
498.398	782.06
498.615	790.06
498.832	834.06
499.049	862.06
499.267	912.06
499.484	951.06
499.701	1005.06
499.918	1060.06
500.135	1142.06
500.352	1181.06
500.569	1233.06
500.786	1223.06
501.003	1184.06
501.22	1132.06
501.437	1066.06
501.654	1021.06
501.871	979.06
502.088	932.06
502.305	860.06
502.522	878.06
502.739	796.06
502.956	777.06
503.172	749.06
503.389	726.06
503.606	728.06
503.823	718.06
504.04	734.06
504.256	708.06
504.473	724.06
504.69	737.06
504.907	729.06
505.123	703.06
505.34	684.06
505.557	662.06
505.773	680.06
505.99	640.06
506.207	653.06
506.423	640.06
506.64	644.06
506.856	632.06
507.073	620.06
507.289	624.06
507.506	622.06
507.722	630.06
507.939	646.06
508.155	630.06
508.372	588.06
508.588	594.06
508.805	602.06
509.021	644.06
509.238	626.06
509.454	603.06
509.67	607.06
509.887	602.06
510.103	582.06
510.319	608.06
510.536	658.06
510.752	890.06
510.968	752.06
511.184	585.06
511.401	574.06
511.617	563.06
511.833	578.06
512.049	553.06
512.265	552.06
512.481	568.06
512.698	563.06
512.914	566.06
513.13	553.06
513.346	578.06
513.562	547.06
513.778	564.06
513.994	583.06
514.21	589.06
514.426	574.06
514.642	599.06
514.858	631.06
515.074	653.06
515.29	707.06
515.506	900.06
515.721	805.06
515.937	641.06
516.153	600.06
516.369	603.06
516.585	593.06
516.801	612.06
517.016	611.06
517.232	620.06
517.448	633.06
517.664	640.06
517.879	644.06
518.095	656.06
518.311	652.06
518.527	630.06
518.742	617.06
518.958	600.06
519.173	594.06
519.389	591.06
519.605	599.06
519.82	586.06
520.036	587.06
520.251	588.06
520.467	594.06
520.682	602.06
520.898	590.06
521.113	621.06
521.329	619.06
521.544	653.06
521.76	756.06
521.975	1086.06
522.19	1081.06
522.406	693.06
522.621	581.06
522.836	544.06
523.052	557.06
523.267	530.06
523.482	552.06
523.698	525.06
523.913	523.06
524.128	527.06
524.343	509.06
524.559	496.06
524.774	513.06
524.989	512.06
525.204	483.06
525.419	485.06
525.634	488.06
525.849	493.06
526.064	484.06
526.28	502.06
526.495	477.06
526.71	503.06
526.925	474.06
527.14	489.06
527.355	491.06
527.57	476.06
527.785	482.06
527.999	486.06
528.214	454.06
528.429	481.06
528.644	501.06
528.859	480.06
529.074	483.06
529.289	519.06
529.503	518.06
529.718	544.06
529.933	491.06
530.148	488.06
530.363	491.06
530.577	467.06
530.792	443.06
531.007	476.06
531.221	477.06
531.436	458.06
531.651	486.06
531.865	472.06
532.08	474.06
532.295	453.06
532.509	450.06
532.724	473.06
532.938	459.06
533.153	461.06
533.367	456.06
533.582	480.06
533.796	470.06
534.011	471.06
534.225	486.06
534.44	455.06
534.654	471.06
534.868	441.06
535.083	448.06
535.297	447.06
535.511	458.06
535.726	453.06
535.94	475.06
536.154	473.06
536.369	476.06
536.583	442.06
536.797	435.06
537.011	438.06
537.225	443.06
537.44	447.06
537.654	470.06
537.868	438.06
538.082	460.06
538.296	462.06
538.51	446.06
538.724	434.06
538.938	444.06
539.153	452.06
539.367	468.06
539.581	465.06
539.795	426.06
540.009	436.06
540.222	454.06
540.436	453.06
540.65	447.06
540.864	445.06
541.078	461.06
541.292	470.06
541.506	462.06
541.72	446.06
541.934	460.06
542.147	465.06
542.361	452.06
542.575	432.06
542.789	441.06
543.002	449.06
543.216	454.06
543.43	443.06
543.644	458.06
543.857	461.06
544.071	430.06
544.285	442.06
544.498	434.06
544.712	451.06
544.925	447.06
545.139	444.06
545.352	430.06
545.566	426.06
545.779	442.06
545.993	460.06
546.206	464.06
546.42	451.06
546.633	448.06
546.847	435.06
547.06	443.06
547.274	459.06
547.487	436.06
547.7	438.06
547.914	436.06
548.127	452.06
548.34	459.06
548.554	424.06
548.767	429.06
548.98	430.06
549.193	422.06
549.407	437.06
549.62	446.06
549.833	467.06
550.046	458.06
550.259	441.06
550.473	438.06
550.686	450.06
550.899	444.06
551.112	423.06
551.325	422.06
551.538	429.06
551.751	447.06
551.964	445.06
552.177	440.06
552.39	439.06
552.603	442.06
552.816	438.06
553.029	472.06
553.242	464.06
553.455	456.06
553.667	476.06
553.88	449.06
554.093	468.06
554.306	458.06
554.519	457.06
554.732	457.06
554.944	417.06
555.157	430.06
555.37	421.06
555.583	427.06
555.795	412.06
556.008	389.06
556.221	398.06
556.433	411.06
556.646	398.06
556.859	408.06
557.071	412.06
557.284	406.06
557.496	410.06
557.709	398.06
557.921	393.06
558.134	416.06
558.346	388.06
558.559	392.06
558.771	394.06
558.984	388.06
559.196	384.06
559.409	377.06
559.621	391.06
559.833	388.06
560.046	384.06
560.258	403.06
560.47	367.06
560.683	379.06
560.895	379.06
561.107	384.06
561.32	380.06
561.532	376.06
561.744	400.06
561.956	393.06
562.168	396.06
562.381	389.06
562.593	379.06
562.805	411.06
563.017	416.06
563.229	402.06
563.441	408.06
563.653	386.06
563.865	382.06
564.077	425.06
564.289	409.06
564.501	390.06
564.713	402.06
564.925	416.06
565.137	418.06
565.349	434.06
565.561	431.06
565.773	439.06
565.985	474.06
566.197	473.06
566.408	485.06
566.62	517.06
566.832	536.06
567.044	530.06
567.255	547.06
567.467	555.06
567.679	579.06
567.891	588.06
568.102	589.06
568.314	574.06
568.526	541.06
568.737	540.06
568.949	492.06
569.161	467.06
569.372	452.06
569.584	442.06
569.795	410.06
570.007	410.06
570.218	425.06
570.43	426.06
570.641	401.06
570.853	408.06
571.064	397.06
571.276	378.06
571.487	403.06
571.698	397.06
571.91	370.06
572.121	370.06
572.333	370.06
572.544	363.06
572.755	368.06
572.966	361.06
573.178	349.06
573.389	375.06
573.6	372.06
573.811	338.06
574.023	357.06
574.234	340.06
574.445	353.06
574.656	344.06
574.867	336.06
575.078	335.06
575.289	361.06
575.501	349.06
575.712	315.06
575.923	337.06
576.134	339.06
576.345	345.06
576.556	343.06
576.767	320.06
576.978	344.06
577.188	337.06
577.399	310.06
577.61	327.06
577.821	317.06
578.032	334.06
578.243	350.06
578.454	453.06
578.665	389.06
578.875	320.06
579.086	328.06
579.297	325.06
579.508	304.06
579.718	312.06
579.929	308.06
580.14	294.06
580.35	310.06
580.561	312.06
580.772	332.06
580.982	320.06
581.193	316.06
581.403	315.06
581.614	318.06
581.825	310.06
582.035	306.06
582.246	305.06
582.456	318.06
582.667	277.06
582.877	294.06
583.087	314.06
583.298	299.06
583.508	292.06
583.719	304.06
583.929	300.06
584.139	304.06
584.35	277.06
584.56	300.06
584.77	310.06
584.981	290.06
585.191	304.06
585.401	310.06
585.611	289.06
585.821	299.06
586.032	288.06
586.242	306.06
586.452	294.06
586.662	291.06
586.872	290.06
587.082	321.06
587.292	293.06
587.502	284.06
587.713	309.06
587.923	301.06
588.133	292.06
588.343	285.06
588.553	306.06
588.762	322.06
588.972	290.06
589.182	289.06
589.392	309.06
589.602	311.06
589.812	316.06
590.022	312.06
590.232	300.06
590.441	306.06
590.651	284.06
590.861	312.06
591.071	295.06
591.281	294.06
591.49	310.06
591.7	319.06
591.91	298.06
592.119	323.06
592.329	322.06
592.539	344.06
592.748	318.06
592.958	318.06
593.167	340.06
593.377	342.06
593.587	344.06
593.796	333.06
594.006	328.06
594.215	353.06
594.424	326.06
594.634	355.06
594.843	326.06
595.053	320.06
595.262	316.06
595.472	304.06
595.681	313.06
595.89	310.06
596.1	316.06
596.309	294.06
596.518	301.06
596.727	295.06
596.937	289.06
597.146	282.06
597.355	291.06
597.564	297.06
597.774	292.06
597.983	282.06
598.192	264.06
598.401	285.06
598.61	278.06
598.819	251.06
599.028	268.06
599.237	277.06
599.446	278.06
599.655	271.06
599.864	273.06
600.073	274.06
600.282	261.06
600.491	243.06
600.7	259.06
600.909	248.06
601.118	267.06
601.327	265.06
601.536	267.06
601.745	273.06
601.953	250.06
602.162	261.06
602.371	237.06
602.58	254.06
602.789	245.06
602.997	256.06
603.206	271.06
603.415	254.06
603.623	244.06
603.832	259.06
604.041	257.06
604.249	260.06
604.458	269.06
604.666	252.06
604.875	254.06
605.084	258.06
605.292	242.06
605.501	261.06
605.709	252.06
605.918	227.06
606.126	260.06
606.334	260.06
606.543	250.06
606.751	258.06
606.96	240.06
607.168	255.06
607.376	248.06
607.585	258.06
607.793	255.06
608.001	244.06
608.21	245.06
608.418	243.06
608.626	246.06
608.834	260.06
609.043	245.06
609.251	259.06
609.459	242.06
609.667	247.06
609.875	246.06
610.083	247.06
610.291	271.06
610.499	242.06
610.707	236.06
610.916	262.06
611.124	252.06
611.332	252.06
611.54	274.06
611.748	224.06
611.955	242.06
612.163	234.06
612.371	242.06
612.579	248.06
612.787	235.06
612.995	258.06
613.203	242.06
613.411	266.06
613.618	234.06
613.826	230.06
614.034	235.06
614.242	227.06
614.449	233.06
614.657	218.06
614.865	227.06
615.072	237.06
615.28	267.06
615.488	245.06
615.695	237.06
615.903	260.06
616.111	249.06
616.318	237.06
616.526	242.06
616.733	248.06
616.941	229.06
617.148	250.06
617.356	249.06
617.563	234.06
617.771	238.06
617.978	244.06
618.185	228.06
618.393	221.06
618.6	240.06
618.807	235.06
619.015	248.06
619.222	233.06
619.429	229.06
619.637	238.06
619.844	240.06
620.051	248.06
620.258	230.06
620.466	224.06
620.673	208.06
620.88	214.06
621.087	223.06
621.294	234.06
621.501	219.06
621.708	244.06
621.915	233.06
622.122	218.06
622.329	251.06
622.536	218.06
622.743	221.06
622.95	207.06
623.157	231.06
623.364	227.06
623.571	227.06
623.778	223.06
623.985	209.06
624.192	219.06
624.399	221.06
624.606	212.06
624.812	203.06
625.019	221.06
625.226	211.06
625.433	202.06
625.639	214.06
625.846	210.06
626.053	223.06
626.259	219.06
626.466	192.06
626.673	206.06
626.879	195.06
627.086	207.06
627.293	217.06
627.499	204.06
627.706	193.06
627.912	229.06
628.119	198.06
628.325	215.06
628.532	220.06
628.738	212.06
628.945	219.06
629.151	222.06
629.357	213.06
629.564	202.06
629.77	201.06
629.976	213.06
630.183	202.06
630.389	208.06
630.595	189.06
630.802	186.06
631.008	194.06
631.214	194.06
631.42	187.06
631.627	192.06
631.833	192.06
632.039	182.06
632.245	186.06
632.451	210.06
632.657	187.06
632.863	190.06
633.069	189.06
633.275	185.06
633.481	183.06
633.688	195.06
633.893	181.06
634.099	195.06
634.305	181.06
634.511	184.06
634.717	208.06
634.923	189.06
635.129	174.06
635.335	200.06
635.541	194.06
635.747	195.06
635.952	190.06
636.158	189.06
636.364	203.06
636.57	186.06
636.775	194.06
636.981	213.06
637.187	173.06
637.392	197.06
637.598	179.06
637.804	175.06
638.009	187.06
638.215	196.06
638.421	176.06
638.626	165.06
638.832	178.06
639.037	173.06
639.243	188.06
639.448	185.06
639.654	196.06
639.859	188.06
640.065	193.06
640.27	171.06
640.475	184.06
640.681	171.06
640.886	167.06
641.091	174.06
641.297	178.06
641.502	173.06
641.707	169.06
641.913	177.06
642.118	173.06
642.323	184.06
642.528	178.06
642.733	160.06
642.939	180.06
643.144	162.06
643.349	164.06
643.554	170.06
643.759	182.06
643.964	176.06
644.169	180.06
644.374	162.06
644.579	173.06
644.784	177.06
644.989	174.06
645.194	156.06
645.399	163.06
645.604	158.06
645.809	167.06
646.014	164.06
646.219	177.06
646.423	160.06
646.628	168.06
646.833	169.06
647.038	177.06
647.243	187.06
647.447	176.06
647.652	176.06
647.857	163.06
648.062	180.06
648.266	165.06
648.471	171.06
648.676	178.06
648.88	182.06
649.085	180.06
649.289	168.06
649.494	179.06
649.698	187.06
649.903	180.06
650.107	163.06
650.312	166.06
650.516	166.06
650.721	163.06
650.925	149.06
651.13	165.06
651.334	155.06
651.539	163.06
651.743	159.06
651.947	145.06
652.152	146.06
652.356	160.06
652.56	154.06
652.764	141.06
652.969	151.06
653.173	143.06
653.377	133.06
653.581	135.06
653.785	122.06
653.99	140.06
654.194	141.06
654.398	152.06
654.602	137.06
654.806	144.06
655.01	152.06
655.214	136.06
655.418	154.06
655.622	136.06
655.826	136.06
656.03	147.06
656.234	144.06
656.438	152.06
656.642	149.06
656.846	134.06
657.049	115.06
657.253	143.06
657.457	119.06
657.661	109.06
657.865	124.06
658.068	120.06
658.272	107.06
658.476	88.06
658.68	105.06
658.883	110.06
659.087	98.06
659.291	98.06
659.494	101.06
659.698	100.06
659.901	92.06
660.105	86.06
660.309	95.06
660.512	85.06
660.716	82.06
660.919	98.06
661.123	100.06
661.326	93.06
661.53	92.06
661.733	82.06
661.936	92.06
662.14	81.06
662.343	89.06
662.546	100.06
662.75	92.06
662.953	78.06
663.156	70.06
663.36	75.06
663.563	78.06
663.766	85.06
663.969	78.06
664.173	72.06
664.376	82.06
664.579	79.06
664.782	87.06
664.985	84.06
665.188	80.06
665.391	86.06
665.594	76.06
665.797	76.06
666	80.06
666.203	70.06
666.406	87.06
666.609	87.06
666.812	87.06
667.015	84.06
667.218	91.06
667.421	87.06
667.624	80.06
667.827	90.06
668.03	85.06
668.232	78.06
668.435	90.06
668.638	84.06
668.841	81.06
669.043	80.06
669.246	83.06
669.449	78.06
669.651	94.06
669.854	85.06
670.057	75.06
670.259	89.06
670.462	87.06
670.665	93.06
670.867	79.06
671.07	81.06
671.272	91.06
671.475	84.06
671.677	73.06
671.88	97.06
672.082	69.06
672.284	79.06
672.487	78.06
672.689	85.06
672.892	83.06
