Data from 1973.PennyLincolnUp.Lamp.En5.5.200Scan.071719.P1.Changed Mount._HRD10591_15-44-03-852.txt Node
Date: Thu Jul 18 15:44:03 EDT 2019
User: cochatt
Spectrometer: HR+D1059
Trigger mode: 1
Integration Time (sec): 1.000000E-1
Scans to average: 1
Electric dark correction enabled: true
Nonlinearity correction enabled: false
Boxcar width: 0
XAxis mode: Wavelengths
Number of Pixels in Spectrum: 2048
>>>>>Begin Spectral Data<<<<<
223.165	-5.31
223.4	-5.31
223.635	-5.31
223.869	-19.31
224.104	-17.31
224.338	-11.31
224.573	-7.31
224.808	-3.31
225.042	-14.31
225.277	0.69
225.511	-0.31
225.746	-9.31
225.98	3.69
226.215	2.69
226.449	11.69
226.683	13.69
226.918	24.69
227.152	30.69
227.387	13.69
227.621	32.69
227.856	30.69
228.09	52.69
228.324	36.69
228.559	58.69
228.793	58.69
229.027	96.69
229.262	99.69
229.496	110.69
229.73	123.69
229.964	140.69
230.199	114.69
230.433	117.69
230.667	96.69
230.901	96.69
231.136	81.69
231.37	106.69
231.604	101.69
231.838	118.69
232.072	108.69
232.306	113.69
232.541	101.69
232.775	108.69
233.009	108.69
233.243	116.69
233.477	100.69
233.711	107.69
233.945	97.69
234.179	121.69
234.413	95.69
234.647	119.69
234.881	114.69
235.115	119.69
235.349	109.69
235.583	118.69
235.817	114.69
236.051	125.69
236.285	110.69
236.519	118.69
236.753	126.69
236.987	134.69
237.221	158.69
237.455	195.69
237.689	154.69
237.922	141.69
238.156	126.69
238.39	122.69
238.624	118.69
238.858	124.69
239.091	121.69
239.325	107.69
239.559	122.69
239.793	122.69
240.027	120.69
240.26	128.69
240.494	135.69
240.728	148.69
240.961	153.69
241.195	117.69
241.429	134.69
241.662	142.69
241.896	146.69
242.13	146.69
242.363	123.69
242.597	144.69
242.83	140.69
243.064	142.69
243.298	131.69
243.531	134.69
243.765	136.69
243.998	140.69
244.232	129.69
244.465	142.69
244.699	133.69
244.932	135.69
245.166	125.69
245.399	147.69
245.633	152.69
245.866	158.69
246.099	157.69
246.333	148.69
246.566	153.69
246.8	134.69
247.033	143.69
247.266	149.69
247.5	150.69
247.733	170.69
247.966	155.69
248.2	156.69
248.433	160.69
248.666	163.69
248.899	178.69
249.133	189.69
249.366	184.69
249.599	196.69
249.832	167.69
250.066	178.69
250.299	187.69
250.532	175.69
250.765	180.69
250.998	210.69
251.231	205.69
251.465	193.69
251.698	188.69
251.931	187.69
252.164	189.69
252.397	185.69
252.63	201.69
252.863	201.69
253.096	199.69
253.329	214.69
253.562	194.69
253.795	185.69
254.028	213.69
254.261	222.69
254.494	220.69
254.727	245.69
254.96	236.69
255.193	231.69
255.426	224.69
255.659	214.69
255.892	216.69
256.124	215.69
256.357	214.69
256.59	210.69
256.823	215.69
257.056	211.69
257.289	193.69
257.521	190.69
257.754	201.69
257.987	186.69
258.22	205.69
258.452	213.69
258.685	203.69
258.918	182.69
259.151	197.69
259.383	201.69
259.616	219.69
259.849	206.69
260.081	198.69
260.314	217.69
260.547	246.69
260.779	242.69
261.012	214.69
261.244	233.69
261.477	214.69
261.71	225.69
261.942	213.69
262.175	219.69
262.407	216.69
262.64	214.69
262.872	197.69
263.105	227.69
263.337	212.69
263.57	204.69
263.802	211.69
264.035	205.69
264.267	205.69
264.499	210.69
264.732	216.69
264.964	220.69
265.197	217.69
265.429	221.69
265.661	213.69
265.894	202.69
266.126	219.69
266.358	213.69
266.591	222.69
266.823	222.69
267.055	225.69
267.287	228.69
267.52	220.69
267.752	229.69
267.984	212.69
268.216	237.69
268.448	240.69
268.681	245.69
268.913	248.69
269.145	245.69
269.377	260.69
269.609	257.69
269.841	263.69
270.073	260.69
270.306	293.69
270.538	297.69
270.77	308.69
271.002	288.69
271.234	285.69
271.466	293.69
271.698	278.69
271.93	295.69
272.162	297.69
272.394	304.69
272.626	306.69
272.858	280.69
273.09	278.69
273.322	277.69
273.553	270.69
273.785	255.69
274.017	279.69
274.249	273.69
274.481	282.69
274.713	275.69
274.945	258.69
275.176	284.69
275.408	280.69
275.64	266.69
275.872	258.69
276.104	280.69
276.335	268.69
276.567	281.69
276.799	269.69
277.031	300.69
277.262	300.69
277.494	311.69
277.726	310.69
277.957	286.69
278.189	299.69
278.421	279.69
278.652	291.69
278.884	277.69
279.115	282.69
279.347	272.69
279.579	277.69
279.81	279.69
280.042	256.69
280.273	281.69
280.505	286.69
280.736	297.69
280.968	285.69
281.199	282.69
281.431	282.69
281.662	278.69
281.894	283.69
282.125	270.69
282.356	277.69
282.588	300.69
282.819	293.69
283.051	264.69
283.282	268.69
283.513	288.69
283.745	291.69
283.976	300.69
284.207	285.69
284.439	286.69
284.67	311.69
284.901	292.69
285.132	296.69
285.364	289.69
285.595	284.69
285.826	278.69
286.057	290.69
286.288	298.69
286.52	296.69
286.751	288.69
286.982	321.69
287.213	283.69
287.444	293.69
287.675	318.69
287.906	300.69
288.138	312.69
288.369	309.69
288.6	307.69
288.831	316.69
289.062	302.69
289.293	316.69
289.524	308.69
289.755	298.69
289.986	300.69
290.217	301.69
290.448	284.69
290.679	299.69
290.91	295.69
291.141	309.69
291.371	298.69
291.602	301.69
291.833	310.69
292.064	317.69
292.295	313.69
292.526	296.69
292.757	311.69
292.987	297.69
293.218	289.69
293.449	300.69
293.68	327.69
293.91	322.69
294.141	309.69
294.372	297.69
294.603	307.69
294.833	297.69
295.064	312.69
295.295	297.69
295.525	313.69
295.756	297.69
295.987	325.69
296.217	318.69
296.448	308.69
296.679	333.69
296.909	301.69
297.14	319.69
297.37	321.69
297.601	328.69
297.831	305.69
298.062	308.69
298.292	318.69
298.523	325.69
298.753	330.69
298.984	325.69
299.214	332.69
299.445	302.69
299.675	331.69
299.905	335.69
300.136	323.69
300.366	333.69
300.597	325.69
300.827	338.69
301.057	338.69
301.288	327.69
301.518	338.69
301.748	334.69
301.979	340.69
302.209	333.69
302.439	342.69
302.669	349.69
302.9	346.69
303.13	339.69
303.36	341.69
303.59	345.69
303.82	345.69
304.051	334.69
304.281	341.69
304.511	319.69
304.741	336.69
304.971	333.69
305.201	316.69
305.431	333.69
305.661	342.69
305.891	361.69
306.121	351.69
306.352	338.69
306.582	339.69
306.812	345.69
307.042	333.69
307.272	336.69
307.502	346.69
307.731	340.69
307.961	352.69
308.191	345.69
308.421	337.69
308.651	345.69
308.881	348.69
309.111	353.69
309.341	351.69
309.571	372.69
309.8	368.69
310.03	370.69
310.26	354.69
310.49	372.69
310.72	368.69
310.949	375.69
311.179	369.69
311.409	370.69
311.639	362.69
311.868	355.69
312.098	354.69
312.328	377.69
312.557	391.69
312.787	382.69
313.017	396.69
313.246	395.69
313.476	377.69
313.706	372.69
313.935	382.69
314.165	381.69
314.394	429.69
314.624	400.69
314.853	382.69
315.083	390.69
315.312	381.69
315.542	379.69
315.771	380.69
316.001	376.69
316.23	371.69
316.46	377.69
316.689	372.69
316.919	400.69
317.148	380.69
317.377	386.69
317.607	374.69
317.836	361.69
318.065	374.69
318.295	379.69
318.524	379.69
318.753	363.69
318.983	380.69
319.212	372.69
319.441	390.69
319.67	388.69
319.9	402.69
320.129	364.69
320.358	378.69
320.587	375.69
320.816	375.69
321.046	391.69
321.275	411.69
321.504	394.69
321.733	375.69
321.962	390.69
322.191	404.69
322.42	409.69
322.649	421.69
322.878	419.69
323.108	429.69
323.337	414.69
323.566	438.69
323.795	456.69
324.024	463.69
324.253	548.69
324.482	716.69
324.71	997.69
324.939	1412.69
325.168	1235.69
325.397	688.69
325.626	521.69
325.855	472.69
326.084	448.69
326.313	445.69
326.542	446.69
326.77	487.69
326.999	541.69
327.228	658.69
327.457	904.69
327.686	1099.69
327.914	777.69
328.143	563.69
328.372	517.69
328.6	492.69
328.829	461.69
329.058	506.69
329.287	499.69
329.515	476.69
329.744	455.69
329.972	455.69
330.201	466.69
330.43	500.69
330.658	506.69
330.887	524.69
331.115	513.69
331.344	468.69
331.572	463.69
331.801	451.69
332.03	456.69
332.258	452.69
332.486	453.69
332.715	476.69
332.943	462.69
333.172	457.69
333.4	462.69
333.629	474.69
333.857	513.69
334.085	492.69
334.314	497.69
334.542	512.69
334.771	535.69
334.999	500.69
335.227	482.69
335.455	470.69
335.684	462.69
335.912	448.69
336.14	442.69
336.369	438.69
336.597	449.69
336.825	448.69
337.053	460.69
337.281	449.69
337.51	467.69
337.738	440.69
337.966	451.69
338.194	446.69
338.422	442.69
338.65	443.69
338.878	452.69
339.106	441.69
339.334	446.69
339.562	449.69
339.79	442.69
340.018	432.69
340.246	437.69
340.474	444.69
340.702	443.69
340.93	417.69
341.158	434.69
341.386	425.69
341.614	433.69
341.842	429.69
342.07	403.69
342.298	410.69
342.526	440.69
342.754	426.69
342.981	439.69
343.209	426.69
343.437	408.69
343.665	442.69
343.893	451.69
344.12	462.69
344.348	461.69
344.576	460.69
344.804	434.69
345.031	438.69
345.259	442.69
345.487	429.69
345.714	420.69
345.942	418.69
346.17	403.69
346.397	428.69
346.625	412.69
346.853	420.69
347.08	415.69
347.308	412.69
347.535	410.69
347.763	399.69
347.99	404.69
348.218	413.69
348.445	393.69
348.673	381.69
348.9	387.69
349.128	394.69
349.355	414.69
349.583	404.69
349.81	384.69
350.037	406.69
350.265	397.69
350.492	408.69
350.72	408.69
350.947	411.69
351.174	412.69
351.402	413.69
351.629	407.69
351.856	413.69
352.083	405.69
352.311	420.69
352.538	428.69
352.765	418.69
352.992	411.69
353.22	434.69
353.447	390.69
353.674	402.69
353.901	401.69
354.128	393.69
354.355	397.69
354.583	388.69
354.81	392.69
355.037	365.69
355.264	386.69
355.491	382.69
355.718	380.69
355.945	360.69
356.172	382.69
356.399	366.69
356.626	405.69
356.853	399.69
357.08	393.69
357.307	373.69
357.534	398.69
357.761	380.69
357.988	380.69
358.215	385.69
358.441	370.69
358.668	388.69
358.895	388.69
359.122	394.69
359.349	392.69
359.576	407.69
359.802	407.69
360.029	411.69
360.256	428.69
360.483	425.69
360.709	404.69
360.936	408.69
361.163	403.69
361.39	380.69
361.616	405.69
361.843	402.69
362.07	390.69
362.296	404.69
362.523	399.69
362.749	410.69
362.976	400.69
363.203	407.69
363.429	394.69
363.656	396.69
363.882	386.69
364.109	394.69
364.335	392.69
364.562	374.69
364.788	380.69
365.015	408.69
365.241	395.69
365.468	386.69
365.694	404.69
365.92	396.69
366.147	372.69
366.373	393.69
366.599	414.69
366.826	402.69
367.052	401.69
367.278	387.69
367.505	404.69
367.731	407.69
367.957	400.69
368.184	395.69
368.41	412.69
368.636	417.69
368.862	396.69
369.089	404.69
369.315	416.69
369.541	376.69
369.767	392.69
369.993	400.69
370.219	386.69
370.445	384.69
370.672	375.69
370.898	405.69
371.124	396.69
371.35	405.69
371.576	402.69
371.802	396.69
372.028	416.69
372.254	396.69
372.48	406.69
372.706	402.69
372.932	414.69
373.158	415.69
373.384	415.69
373.61	418.69
373.835	403.69
374.061	396.69
374.287	413.69
374.513	412.69
374.739	405.69
374.965	411.69
375.191	412.69
375.416	402.69
375.642	417.69
375.868	411.69
376.094	406.69
376.319	418.69
376.545	391.69
376.771	413.69
376.997	398.69
377.222	405.69
377.448	408.69
377.674	401.69
377.899	412.69
378.125	392.69
378.35	414.69
378.576	379.69
378.802	411.69
379.027	414.69
379.253	402.69
379.478	396.69
379.704	404.69
379.929	420.69
380.155	418.69
380.38	386.69
380.606	415.69
380.831	401.69
381.057	420.69
381.282	409.69
381.507	408.69
381.733	384.69
381.958	421.69
382.184	418.69
382.409	410.69
382.634	399.69
382.86	404.69
383.085	422.69
383.31	427.69
383.535	427.69
383.761	419.69
383.986	416.69
384.211	448.69
384.436	443.69
384.662	426.69
384.887	441.69
385.112	448.69
385.337	468.69
385.562	473.69
385.787	454.69
386.013	458.69
386.238	458.69
386.463	456.69
386.688	481.69
386.913	466.69
387.138	457.69
387.363	434.69
387.588	440.69
387.813	450.69
388.038	447.69
388.263	445.69
388.488	465.69
388.713	461.69
388.938	441.69
389.163	445.69
389.387	454.69
389.612	441.69
389.837	444.69
390.062	427.69
390.287	435.69
390.512	456.69
390.736	452.69
390.961	443.69
391.186	461.69
391.411	467.69
391.636	468.69
391.86	490.69
392.085	486.69
392.31	484.69
392.534	461.69
392.759	457.69
392.984	465.69
393.208	473.69
393.433	458.69
393.658	457.69
393.882	447.69
394.107	449.69
394.331	503.69
394.556	461.69
394.78	459.69
395.005	467.69
395.229	467.69
395.454	478.69
395.678	510.69
395.903	484.69
396.127	505.69
396.352	518.69
396.576	490.69
396.801	461.69
397.025	485.69
397.249	505.69
397.474	516.69
397.698	510.69
397.922	506.69
398.147	545.69
398.371	533.69
398.595	518.69
398.82	537.69
399.044	543.69
399.268	598.69
399.492	628.69
399.717	669.69
399.941	702.69
400.165	681.69
400.389	692.69
400.613	624.69
400.837	578.69
401.062	538.69
401.286	532.69
401.51	537.69
401.734	537.69
401.958	546.69
402.182	525.69
402.406	541.69
402.63	565.69
402.854	549.69
403.078	539.69
403.302	556.69
403.526	571.69
403.75	584.69
403.974	574.69
404.198	556.69
404.422	560.69
404.645	569.69
404.869	567.69
405.093	591.69
405.317	634.69
405.541	622.69
405.765	608.69
405.988	572.69
406.212	598.69
406.436	597.69
406.66	615.69
406.883	604.69
407.107	616.69
407.331	683.69
407.555	734.69
407.778	739.69
408.002	678.69
408.226	607.69
408.449	601.69
408.673	595.69
408.896	620.69
409.12	677.69
409.344	639.69
409.567	551.69
409.791	562.69
410.014	560.69
410.238	562.69
410.461	554.69
410.685	558.69
410.908	587.69
411.132	585.69
411.355	613.69
411.578	588.69
411.802	564.69
412.025	548.69
412.249	577.69
412.472	557.69
412.695	582.69
412.919	596.69
413.142	556.69
413.365	546.69
413.589	531.69
413.812	521.69
414.035	537.69
414.258	524.69
414.482	524.69
414.705	530.69
414.928	516.69
415.151	537.69
415.374	532.69
415.597	516.69
415.821	521.69
416.044	541.69
416.267	521.69
416.49	522.69
416.713	524.69
416.936	525.69
417.159	540.69
417.382	512.69
417.605	530.69
417.828	539.69
418.051	548.69
418.274	537.69
418.497	525.69
418.72	530.69
418.943	513.69
419.166	539.69
419.389	582.69
419.611	573.69
419.834	540.69
420.057	566.69
420.28	558.69
420.503	550.69
420.726	536.69
420.948	550.69
421.171	590.69
421.394	593.69
421.617	535.69
421.839	518.69
422.062	549.69
422.285	564.69
422.507	597.69
422.73	673.69
422.953	652.69
423.175	585.69
423.398	556.69
423.621	558.69
423.843	573.69
424.066	599.69
424.288	572.69
424.511	587.69
424.733	618.69
424.956	675.69
425.178	674.69
425.401	674.69
425.623	674.69
425.846	602.69
426.068	568.69
426.291	531.69
426.513	565.69
426.735	554.69
426.958	590.69
427.18	688.69
427.402	778.69
427.625	822.69
427.847	706.69
428.069	609.69
428.292	574.69
428.514	547.69
428.736	505.69
428.958	536.69
429.181	511.69
429.403	522.69
429.625	532.69
429.847	534.69
430.069	591.69
430.292	596.69
430.514	517.69
430.736	510.69
430.958	515.69
431.18	483.69
431.402	488.69
431.624	471.69
431.846	475.69
432.068	475.69
432.29	493.69
432.512	497.69
432.734	487.69
432.956	502.69
433.178	515.69
433.4	506.69
433.622	493.69
433.844	498.69
434.066	514.69
434.287	514.69
434.509	529.69
434.731	504.69
434.953	524.69
435.175	549.69
435.397	547.69
435.618	564.69
435.84	579.69
436.062	670.69
436.284	704.69
436.505	592.69
436.727	549.69
436.949	517.69
437.17	506.69
437.392	488.69
437.614	528.69
437.835	521.69
438.057	583.69
438.278	690.69
438.5	704.69
438.721	738.69
438.943	732.69
439.165	617.69
439.386	552.69
439.608	541.69
439.829	530.69
440.05	571.69
440.272	603.69
440.493	558.69
440.715	520.69
440.936	555.69
441.158	528.69
441.379	512.69
441.6	532.69
441.822	554.69
442.043	578.69
442.264	642.69
442.486	687.69
442.707	608.69
442.928	551.69
443.149	583.69
443.371	581.69
443.592	620.69
443.813	706.69
444.034	736.69
444.255	642.69
444.476	598.69
444.698	610.69
444.919	593.69
445.14	675.69
445.361	632.69
445.582	594.69
445.803	630.69
446.024	712.69
446.245	707.69
446.466	640.69
446.687	560.69
446.908	536.69
447.129	508.69
447.35	505.69
447.571	519.69
447.792	491.69
448.013	501.69
448.234	505.69
448.455	558.69
448.675	641.69
448.896	738.69
449.117	632.69
449.338	596.69
449.559	664.69
449.779	796.69
450	631.69
450.221	525.69
450.442	486.69
450.662	483.69
450.883	470.69
451.104	477.69
451.324	500.69
451.545	470.69
451.766	471.69
451.986	464.69
452.207	458.69
452.428	460.69
452.648	429.69
452.869	437.69
453.089	446.69
453.31	482.69
453.53	444.69
453.751	454.69
453.971	440.69
454.192	446.69
454.412	462.69
454.633	450.69
454.853	468.69
455.073	450.69
455.294	438.69
455.514	511.69
455.734	507.69
455.955	425.69
456.175	416.69
456.395	427.69
456.616	421.69
456.836	435.69
457.056	434.69
457.276	402.69
457.497	453.69
457.717	426.69
457.937	427.69
458.157	434.69
458.377	442.69
458.598	468.69
458.818	506.69
459.038	555.69
459.258	593.69
459.478	516.69
459.698	500.69
459.918	493.69
460.138	498.69
460.358	499.69
460.578	512.69
460.798	530.69
461.018	533.69
461.238	540.69
461.458	547.69
461.678	516.69
461.898	514.69
462.118	541.69
462.338	566.69
462.558	534.69
462.777	570.69
462.997	573.69
463.217	620.69
463.437	631.69
463.657	614.69
463.876	583.69
464.096	576.69
464.316	565.69
464.536	592.69
464.755	572.69
464.975	578.69
465.195	557.69
465.414	578.69
465.634	546.69
465.854	535.69
466.073	506.69
466.293	482.69
466.512	467.69
466.732	458.69
466.951	466.69
467.171	468.69
467.391	484.69
467.61	502.69
467.829	490.69
468.049	480.69
468.268	466.69
468.488	466.69
468.707	474.69
468.927	472.69
469.146	438.69
469.365	452.69
469.585	466.69
469.804	485.69
470.023	502.69
470.243	477.69
470.462	479.69
470.681	488.69
470.901	494.69
471.12	491.69
471.339	484.69
471.558	486.69
471.777	476.69
471.997	460.69
472.216	476.69
472.435	492.69
472.654	456.69
472.873	470.69
473.092	475.69
473.311	487.69
473.53	461.69
473.749	460.69
473.968	506.69
474.187	587.69
474.406	593.69
474.625	509.69
474.844	502.69
475.063	468.69
475.282	462.69
475.501	484.69
475.72	497.69
475.939	496.69
476.158	484.69
476.377	499.69
476.596	485.69
476.814	494.69
477.033	514.69
477.252	504.69
477.471	497.69
477.69	525.69
477.908	530.69
478.127	532.69
478.346	528.69
478.564	542.69
478.783	548.69
479.002	540.69
479.22	560.69
479.439	568.69
479.658	552.69
479.876	576.69
480.095	584.69
480.313	616.69
480.532	583.69
480.751	594.69
480.969	582.69
481.188	579.69
481.406	620.69
481.624	585.69
481.843	577.69
482.061	566.69
482.28	537.69
482.498	544.69
482.717	529.69
482.935	545.69
483.153	539.69
483.372	556.69
483.59	524.69
483.808	539.69
484.027	540.69
484.245	554.69
484.463	542.69
484.681	550.69
484.9	533.69
485.118	556.69
485.336	580.69
485.554	555.69
485.772	579.69
485.99	553.69
486.209	546.69
486.427	564.69
486.645	577.69
486.863	571.69
487.081	590.69
487.299	577.69
487.517	571.69
487.735	594.69
487.953	597.69
488.171	618.69
488.389	579.69
488.607	588.69
488.825	583.69
489.043	600.69
489.261	594.69
489.479	574.69
489.696	594.69
489.914	574.69
490.132	587.69
490.35	627.69
490.568	602.69
490.786	638.69
491.003	624.69
491.221	644.69
491.439	670.69
491.657	647.69
491.874	658.69
492.092	653.69
492.31	664.69
492.527	678.69
492.745	666.69
492.963	646.69
493.18	684.69
493.398	662.69
493.615	680.69
493.833	698.69
494.05	684.69
494.268	667.69
494.485	694.69
494.703	667.69
494.92	680.69
495.138	684.69
495.355	676.69
495.573	693.69
495.79	684.69
496.008	671.69
496.225	670.69
496.442	718.69
496.66	678.69
496.877	658.69
497.094	720.69
497.312	714.69
497.529	712.69
497.746	737.69
497.963	755.69
498.181	757.69
498.398	768.69
498.615	791.69
498.832	827.69
499.049	880.69
499.267	893.69
499.484	947.69
499.701	980.69
499.918	1022.69
500.135	1110.69
500.352	1199.69
500.569	1171.69
500.786	1220.69
501.003	1190.69
501.22	1147.69
501.437	1057.69
501.654	994.69
501.871	955.69
502.088	905.69
502.305	853.69
502.522	821.69
502.739	805.69
502.956	813.69
503.172	731.69
503.389	748.69
503.606	729.69
503.823	708.69
504.04	710.69
504.256	702.69
504.473	713.69
504.69	725.69
504.907	713.69
505.123	703.69
505.34	660.69
505.557	662.69
505.773	672.69
505.99	636.69
506.207	648.69
506.423	654.69
506.64	638.69
506.856	620.69
507.073	631.69
507.289	640.69
507.506	604.69
507.722	597.69
507.939	624.69
508.155	626.69
508.372	591.69
508.588	608.69
508.805	578.69
509.021	609.69
509.238	587.69
509.454	560.69
509.67	600.69
509.887	593.69
510.103	592.69
510.319	591.69
510.536	611.69
510.752	868.69
510.968	742.69
511.184	578.69
511.401	559.69
511.617	554.69
511.833	557.69
512.049	576.69
512.265	568.69
512.481	561.69
512.698	554.69
512.914	575.69
513.13	566.69
513.346	570.69
513.562	577.69
513.778	554.69
513.994	579.69
514.21	568.69
514.426	587.69
514.642	585.69
514.858	611.69
515.074	632.69
515.29	681.69
515.506	850.69
515.721	792.69
515.937	629.69
516.153	599.69
516.369	601.69
516.585	608.69
516.801	588.69
517.016	613.69
517.232	583.69
517.448	650.69
517.664	644.69
517.879	643.69
518.095	653.69
518.311	614.69
518.527	616.69
518.742	601.69
518.958	598.69
519.173	585.69
519.389	577.69
519.605	583.69
519.82	586.69
520.036	566.69
520.251	570.69
520.467	560.69
520.682	585.69
520.898	579.69
521.113	584.69
521.329	608.69
521.544	632.69
521.76	726.69
521.975	1048.69
522.19	1022.69
522.406	668.69
522.621	580.69
522.836	547.69
523.052	551.69
523.267	534.69
523.482	496.69
523.698	524.69
523.913	500.69
524.128	496.69
524.343	493.69
524.559	490.69
524.774	525.69
524.989	504.69
525.204	502.69
525.419	486.69
525.634	472.69
525.849	477.69
526.064	480.69
526.28	473.69
526.495	477.69
526.71	460.69
526.925	481.69
527.14	438.69
527.355	465.69
527.57	469.69
527.785	462.69
527.999	486.69
528.214	457.69
528.429	493.69
528.644	467.69
528.859	474.69
529.074	463.69
529.289	478.69
529.503	514.69
529.718	516.69
529.933	476.69
530.148	482.69
530.363	469.69
530.577	491.69
530.792	466.69
531.007	466.69
531.221	474.69
531.436	472.69
531.651	477.69
531.865	460.69
532.08	481.69
532.295	448.69
532.509	441.69
532.724	457.69
532.938	473.69
533.153	446.69
533.367	446.69
533.582	488.69
533.796	474.69
534.011	477.69
534.225	459.69
534.44	457.69
534.654	460.69
534.868	471.69
535.083	456.69
535.297	458.69
535.511	457.69
535.726	454.69
535.94	438.69
536.154	483.69
536.369	446.69
536.583	450.69
536.797	433.69
537.011	454.69
537.225	455.69
537.44	428.69
537.654	432.69
537.868	448.69
538.082	453.69
538.296	456.69
538.51	436.69
538.724	456.69
538.938	434.69
539.153	438.69
539.367	461.69
539.581	447.69
539.795	442.69
540.009	442.69
540.222	451.69
540.436	460.69
540.65	458.69
540.864	423.69
541.078	434.69
541.292	448.69
541.506	449.69
541.72	434.69
541.934	433.69
542.147	445.69
542.361	441.69
542.575	433.69
542.789	454.69
543.002	446.69
543.216	452.69
543.43	429.69
543.644	454.69
543.857	414.69
544.071	450.69
544.285	452.69
544.498	447.69
544.712	425.69
544.925	442.69
545.139	450.69
545.352	467.69
545.566	436.69
545.779	441.69
545.993	443.69
546.206	445.69
546.42	445.69
546.633	420.69
546.847	426.69
547.06	424.69
547.274	448.69
547.487	436.69
547.7	452.69
547.914	442.69
548.127	436.69
548.34	447.69
548.554	444.69
548.767	461.69
548.98	460.69
549.193	449.69
549.407	463.69
549.62	432.69
549.833	425.69
550.046	442.69
550.259	456.69
550.473	416.69
550.686	455.69
550.899	442.69
551.112	440.69
551.325	446.69
551.538	437.69
551.751	425.69
551.964	409.69
552.177	424.69
552.39	426.69
552.603	445.69
552.816	464.69
553.029	454.69
553.242	436.69
553.455	469.69
553.667	473.69
553.88	474.69
554.093	454.69
554.306	442.69
554.519	452.69
554.732	437.69
554.944	429.69
555.157	436.69
555.37	426.69
555.583	425.69
555.795	419.69
556.008	407.69
556.221	416.69
556.433	400.69
556.646	400.69
556.859	404.69
557.071	418.69
557.284	378.69
557.496	394.69
557.709	402.69
557.921	392.69
558.134	396.69
558.346	389.69
558.559	392.69
558.771	381.69
558.984	376.69
559.196	384.69
559.409	384.69
559.621	399.69
559.833	365.69
560.046	378.69
560.258	380.69
560.47	385.69
560.683	370.69
560.895	375.69
561.107	373.69
561.32	392.69
561.532	395.69
561.744	374.69
561.956	366.69
562.168	380.69
562.381	390.69
562.593	395.69
562.805	403.69
563.017	399.69
563.229	386.69
563.441	397.69
563.653	403.69
563.865	396.69
564.077	414.69
564.289	398.69
564.501	409.69
564.713	410.69
564.925	401.69
565.137	434.69
565.349	436.69
565.561	440.69
565.773	452.69
565.985	449.69
566.197	481.69
566.408	476.69
566.62	502.69
566.832	525.69
567.044	519.69
567.255	549.69
567.467	549.69
567.679	555.69
567.891	583.69
568.102	577.69
568.314	568.69
568.526	554.69
568.737	511.69
568.949	482.69
569.161	467.69
569.372	426.69
569.584	423.69
569.795	434.69
570.007	420.69
570.218	410.69
570.43	419.69
570.641	407.69
570.853	396.69
571.064	415.69
571.276	392.69
571.487	386.69
571.698	390.69
571.91	372.69
572.121	371.69
572.333	369.69
572.544	351.69
572.755	358.69
572.966	331.69
573.178	334.69
573.389	346.69
573.6	325.69
573.811	340.69
574.023	353.69
574.234	350.69
574.445	338.69
574.656	319.69
574.867	320.69
575.078	339.69
575.289	351.69
575.501	305.69
575.712	328.69
575.923	322.69
576.134	348.69
576.345	310.69
576.556	341.69
576.767	328.69
576.978	355.69
577.188	332.69
577.399	331.69
577.61	321.69
577.821	314.69
578.032	315.69
578.243	342.69
578.454	432.69
578.665	349.69
578.875	324.69
579.086	322.69
579.297	309.69
579.508	289.69
579.718	311.69
579.929	334.69
580.14	313.69
580.35	301.69
580.561	320.69
580.772	306.69
580.982	314.69
581.193	304.69
581.403	308.69
581.614	309.69
581.825	306.69
582.035	309.69
582.246	296.69
582.456	308.69
582.667	316.69
582.877	288.69
583.087	306.69
583.298	310.69
583.508	308.69
583.719	328.69
583.929	322.69
584.139	308.69
584.35	300.69
584.56	322.69
584.77	312.69
584.981	290.69
585.191	296.69
585.401	295.69
585.611	295.69
585.821	300.69
586.032	298.69
586.242	299.69
586.452	302.69
586.662	301.69
586.872	308.69
587.082	308.69
587.292	298.69
587.502	288.69
587.713	287.69
587.923	306.69
588.133	288.69
588.343	317.69
588.553	298.69
588.762	300.69
588.972	278.69
589.182	289.69
589.392	306.69
589.602	295.69
589.812	297.69
590.022	289.69
590.232	296.69
590.441	287.69
590.651	282.69
590.861	281.69
591.071	292.69
591.281	317.69
591.49	304.69
591.7	304.69
591.91	326.69
592.119	301.69
592.329	320.69
592.539	304.69
592.748	319.69
592.958	316.69
593.167	344.69
593.377	338.69
593.587	346.69
593.796	339.69
594.006	361.69
594.215	335.69
594.424	348.69
594.634	344.69
594.843	334.69
595.053	328.69
595.262	291.69
595.472	302.69
595.681	306.69
595.89	304.69
596.1	298.69
596.309	322.69
596.518	276.69
596.727	285.69
596.937	304.69
597.146	280.69
597.355	282.69
597.564	278.69
597.774	293.69
597.983	260.69
598.192	267.69
598.401	271.69
598.61	255.69
598.819	288.69
599.028	267.69
599.237	270.69
599.446	283.69
599.655	248.69
599.864	269.69
600.073	251.69
600.282	256.69
600.491	270.69
600.7	261.69
600.909	278.69
601.118	273.69
601.327	285.69
601.536	257.69
601.745	247.69
601.953	273.69
602.162	252.69
602.371	256.69
602.58	244.69
602.789	261.69
602.997	263.69
603.206	261.69
603.415	256.69
603.623	254.69
603.832	265.69
604.041	264.69
604.249	244.69
604.458	256.69
604.666	242.69
604.875	248.69
605.084	235.69
605.292	240.69
605.501	244.69
605.709	246.69
605.918	255.69
606.126	254.69
606.334	276.69
606.543	262.69
606.751	254.69
606.96	233.69
607.168	243.69
607.376	258.69
607.585	261.69
607.793	259.69
608.001	230.69
608.21	235.69
608.418	246.69
608.626	259.69
608.834	247.69
609.043	242.69
609.251	246.69
609.459	244.69
609.667	243.69
609.875	238.69
610.083	246.69
610.291	240.69
610.499	246.69
610.707	245.69
610.916	240.69
611.124	257.69
611.332	246.69
611.54	229.69
611.748	245.69
611.955	250.69
612.163	257.69
612.371	276.69
612.579	233.69
612.787	244.69
612.995	226.69
613.203	254.69
613.411	246.69
613.618	248.69
613.826	252.69
614.034	239.69
614.242	219.69
614.449	250.69
614.657	238.69
614.865	233.69
615.072	236.69
615.28	243.69
615.488	243.69
615.695	255.69
615.903	227.69
616.111	248.69
616.318	240.69
616.526	243.69
616.733	252.69
616.941	229.69
617.148	241.69
617.356	248.69
617.563	231.69
617.771	244.69
617.978	242.69
618.185	242.69
618.393	262.69
618.6	243.69
618.807	243.69
619.015	230.69
619.222	242.69
619.429	225.69
619.637	227.69
619.844	221.69
620.051	224.69
620.258	233.69
620.466	247.69
620.673	205.69
620.88	219.69
621.087	212.69
621.294	213.69
621.501	225.69
621.708	226.69
621.915	218.69
622.122	224.69
622.329	227.69
622.536	233.69
622.743	228.69
622.95	215.69
623.157	211.69
623.364	224.69
623.571	209.69
623.778	221.69
623.985	221.69
624.192	224.69
624.399	212.69
624.606	211.69
624.812	221.69
625.019	227.69
625.226	199.69
625.433	219.69
625.639	212.69
625.846	215.69
626.053	227.69
626.259	214.69
626.466	214.69
626.673	209.69
626.879	203.69
627.086	218.69
627.293	214.69
627.499	210.69
627.706	197.69
627.912	200.69
628.119	202.69
628.325	206.69
628.532	210.69
628.738	217.69
628.945	220.69
629.151	201.69
629.357	190.69
629.564	203.69
629.77	201.69
629.976	200.69
630.183	192.69
630.389	204.69
630.595	198.69
630.802	199.69
631.008	201.69
631.214	199.69
631.42	187.69
631.627	205.69
631.833	190.69
632.039	189.69
632.245	188.69
632.451	188.69
632.657	187.69
632.863	191.69
633.069	171.69
633.275	189.69
633.481	190.69
633.688	194.69
633.893	195.69
634.099	203.69
634.305	180.69
634.511	198.69
634.717	170.69
634.923	181.69
635.129	166.69
635.335	177.69
635.541	190.69
635.747	189.69
635.952	180.69
636.158	185.69
636.364	180.69
636.57	182.69
636.775	203.69
636.981	197.69
637.187	193.69
637.392	180.69
637.598	184.69
637.804	189.69
638.009	168.69
638.215	189.69
638.421	187.69
638.626	183.69
638.832	178.69
639.037	185.69
639.243	173.69
639.448	187.69
639.654	174.69
639.859	183.69
640.065	172.69
640.27	162.69
640.475	180.69
640.681	172.69
640.886	184.69
641.091	178.69
641.297	183.69
641.502	173.69
641.707	173.69
641.913	173.69
642.118	171.69
642.323	172.69
642.528	189.69
642.733	163.69
642.939	167.69
643.144	170.69
643.349	170.69
643.554	167.69
643.759	166.69
643.964	176.69
644.169	177.69
644.374	178.69
644.579	179.69
644.784	174.69
644.989	166.69
645.194	160.69
645.399	169.69
645.604	179.69
645.809	179.69
646.014	156.69
646.219	173.69
646.423	173.69
646.628	172.69
646.833	184.69
647.038	172.69
647.243	167.69
647.447	173.69
647.652	176.69
647.857	178.69
648.062	172.69
648.266	172.69
648.471	170.69
648.676	179.69
648.88	186.69
649.085	173.69
649.289	164.69
649.494	167.69
649.698	172.69
649.903	186.69
650.107	169.69
650.312	161.69
650.516	158.69
650.721	148.69
650.925	162.69
651.13	139.69
651.334	159.69
651.539	136.69
651.743	165.69
651.947	144.69
652.152	155.69
652.356	138.69
652.56	158.69
652.764	139.69
652.969	142.69
653.173	148.69
653.377	144.69
653.581	135.69
653.785	140.69
653.99	135.69
654.194	132.69
654.398	124.69
654.602	149.69
654.806	139.69
655.01	125.69
655.214	137.69
655.418	139.69
655.622	130.69
655.826	132.69
656.03	134.69
656.234	129.69
656.438	138.69
656.642	145.69
656.846	138.69
657.049	126.69
657.253	146.69
657.457	131.69
657.661	126.69
657.865	112.69
658.068	113.69
658.272	105.69
658.476	114.69
658.68	117.69
658.883	109.69
659.087	101.69
659.291	109.69
659.494	106.69
659.698	108.69
659.901	73.69
660.105	88.69
660.309	98.69
660.512	89.69
660.716	90.69
660.919	105.69
661.123	93.69
661.326	89.69
661.53	78.69
661.733	81.69
661.936	82.69
662.14	88.69
662.343	83.69
662.546	94.69
662.75	95.69
662.953	72.69
663.156	78.69
663.36	83.69
663.563	80.69
663.766	73.69
663.969	77.69
664.173	77.69
664.376	90.69
664.579	93.69
664.782	92.69
664.985	77.69
665.188	74.69
665.391	80.69
665.594	99.69
665.797	69.69
666	85.69
666.203	94.69
666.406	91.69
666.609	84.69
666.812	86.69
667.015	80.69
667.218	72.69
667.421	86.69
667.624	83.69
667.827	82.69
668.03	81.69
668.232	76.69
668.435	99.69
668.638	89.69
668.841	89.69
669.043	74.69
669.246	72.69
669.449	86.69
669.651	92.69
669.854	68.69
670.057	73.69
670.259	91.69
670.462	86.69
670.665	77.69
670.867	80.69
671.07	60.69
671.272	80.69
671.475	95.69
671.677	78.69
671.88	78.69
672.082	83.69
672.284	80.69
672.487	89.69
672.689	84.69
672.892	83.69
