Data from 1973.PennyLincolnUp.Lamp.En5.5.200Scan.071719.P1.Changed Mount._HRD10591_15-45-14-853.txt Node
Date: Thu Jul 18 15:45:14 EDT 2019
User: cochatt
Spectrometer: HR+D1059
Trigger mode: 1
Integration Time (sec): 1.000000E-1
Scans to average: 1
Electric dark correction enabled: true
Nonlinearity correction enabled: false
Boxcar width: 0
XAxis mode: Wavelengths
Number of Pixels in Spectrum: 2048
>>>>>Begin Spectral Data<<<<<
223.165	-13.31
223.4	-13.31
223.635	-13.31
223.869	-22.31
224.104	-15.31
224.338	-18.31
224.573	-17.31
224.808	-4.31
225.042	-14.31
225.277	-4.31
225.511	-11.31
225.746	17.69
225.98	2.69
226.215	7.69
226.449	14.69
226.683	24.69
226.918	19.69
227.152	33.69
227.387	44.69
227.621	32.69
227.856	39.69
228.09	50.69
228.324	48.69
228.559	61.69
228.793	62.69
229.027	84.69
229.262	116.69
229.496	111.69
229.73	113.69
229.964	147.69
230.199	110.69
230.433	112.69
230.667	121.69
230.901	113.69
231.136	99.69
231.37	118.69
231.604	102.69
231.838	114.69
232.072	112.69
232.306	106.69
232.541	115.69
232.775	109.69
233.009	112.69
233.243	115.69
233.477	100.69
233.711	107.69
233.945	126.69
234.179	107.69
234.413	119.69
234.647	132.69
234.881	126.69
235.115	116.69
235.349	124.69
235.583	122.69
235.817	123.69
236.051	129.69
236.285	128.69
236.519	121.69
236.753	148.69
236.987	132.69
237.221	178.69
237.455	219.69
237.689	176.69
237.922	136.69
238.156	114.69
238.39	129.69
238.624	130.69
238.858	125.69
239.091	116.69
239.325	131.69
239.559	138.69
239.793	128.69
240.027	132.69
240.26	134.69
240.494	153.69
240.728	154.69
240.961	134.69
241.195	145.69
241.429	129.69
241.662	127.69
241.896	142.69
242.13	128.69
242.363	126.69
242.597	123.69
242.83	141.69
243.064	138.69
243.298	141.69
243.531	140.69
243.765	140.69
243.998	164.69
244.232	139.69
244.465	140.69
244.699	158.69
244.932	164.69
245.166	155.69
245.399	154.69
245.633	147.69
245.866	149.69
246.099	154.69
246.333	148.69
246.566	161.69
246.8	149.69
247.033	145.69
247.266	174.69
247.5	164.69
247.733	171.69
247.966	188.69
248.2	172.69
248.433	176.69
248.666	182.69
248.899	188.69
249.133	204.69
249.366	200.69
249.599	191.69
249.832	190.69
250.066	171.69
250.299	196.69
250.532	187.69
250.765	198.69
250.998	212.69
251.231	218.69
251.465	233.69
251.698	199.69
251.931	199.69
252.164	192.69
252.397	186.69
252.63	204.69
252.863	192.69
253.096	195.69
253.329	216.69
253.562	217.69
253.795	218.69
254.028	213.69
254.261	228.69
254.494	220.69
254.727	265.69
254.96	267.69
255.193	263.69
255.426	247.69
255.659	230.69
255.892	237.69
256.124	235.69
256.357	212.69
256.59	216.69
256.823	225.69
257.056	233.69
257.289	206.69
257.521	216.69
257.754	234.69
257.987	208.69
258.22	214.69
258.452	208.69
258.685	220.69
258.918	210.69
259.151	231.69
259.383	209.69
259.616	210.69
259.849	230.69
260.081	221.69
260.314	244.69
260.547	261.69
260.779	249.69
261.012	242.69
261.244	234.69
261.477	234.69
261.71	216.69
261.942	231.69
262.175	236.69
262.407	255.69
262.64	235.69
262.872	208.69
263.105	216.69
263.337	230.69
263.57	214.69
263.802	235.69
264.035	230.69
264.267	209.69
264.499	213.69
264.732	240.69
264.964	216.69
265.197	228.69
265.429	233.69
265.661	224.69
265.894	215.69
266.126	229.69
266.358	241.69
266.591	230.69
266.823	243.69
267.055	236.69
267.287	253.69
267.52	237.69
267.752	246.69
267.984	256.69
268.216	235.69
268.448	240.69
268.681	248.69
268.913	254.69
269.145	278.69
269.377	268.69
269.609	293.69
269.841	293.69
270.073	298.69
270.306	312.69
270.538	314.69
270.77	317.69
271.002	310.69
271.234	296.69
271.466	307.69
271.698	313.69
271.93	319.69
272.162	324.69
272.394	337.69
272.626	331.69
272.858	311.69
273.09	282.69
273.322	275.69
273.553	262.69
273.785	267.69
274.017	271.69
274.249	269.69
274.481	278.69
274.713	280.69
274.945	290.69
275.176	284.69
275.408	285.69
275.64	287.69
275.872	274.69
276.104	278.69
276.335	292.69
276.567	301.69
276.799	288.69
277.031	310.69
277.262	333.69
277.494	344.69
277.726	351.69
277.957	317.69
278.189	298.69
278.421	314.69
278.652	299.69
278.884	306.69
279.115	275.69
279.347	297.69
279.579	289.69
279.81	297.69
280.042	305.69
280.273	288.69
280.505	295.69
280.736	292.69
280.968	310.69
281.199	289.69
281.431	305.69
281.662	296.69
281.894	308.69
282.125	289.69
282.356	300.69
282.588	308.69
282.819	319.69
283.051	294.69
283.282	310.69
283.513	314.69
283.745	306.69
283.976	329.69
284.207	320.69
284.439	309.69
284.67	324.69
284.901	314.69
285.132	320.69
285.364	314.69
285.595	329.69
285.826	305.69
286.057	321.69
286.288	319.69
286.52	313.69
286.751	308.69
286.982	330.69
287.213	314.69
287.444	313.69
287.675	322.69
287.906	335.69
288.138	335.69
288.369	333.69
288.6	354.69
288.831	343.69
289.062	332.69
289.293	348.69
289.524	313.69
289.755	319.69
289.986	336.69
290.217	330.69
290.448	316.69
290.679	329.69
290.91	324.69
291.141	333.69
291.371	338.69
291.602	316.69
291.833	340.69
292.064	321.69
292.295	325.69
292.526	327.69
292.757	338.69
292.987	336.69
293.218	315.69
293.449	338.69
293.68	323.69
293.91	344.69
294.141	301.69
294.372	323.69
294.603	344.69
294.833	353.69
295.064	335.69
295.295	344.69
295.525	324.69
295.756	349.69
295.987	349.69
296.217	354.69
296.448	380.69
296.679	341.69
296.909	346.69
297.14	331.69
297.37	346.69
297.601	345.69
297.831	350.69
298.062	332.69
298.292	335.69
298.523	344.69
298.753	342.69
298.984	338.69
299.214	345.69
299.445	349.69
299.675	361.69
299.905	357.69
300.136	362.69
300.366	352.69
300.597	361.69
300.827	368.69
301.057	367.69
301.288	381.69
301.518	378.69
301.748	377.69
301.979	381.69
302.209	382.69
302.439	390.69
302.669	381.69
302.9	370.69
303.13	372.69
303.36	382.69
303.59	390.69
303.82	367.69
304.051	361.69
304.281	362.69
304.511	370.69
304.741	385.69
304.971	377.69
305.201	355.69
305.431	386.69
305.661	376.69
305.891	368.69
306.121	376.69
306.352	373.69
306.582	348.69
306.812	359.69
307.042	392.69
307.272	374.69
307.502	374.69
307.731	383.69
307.961	377.69
308.191	368.69
308.421	388.69
308.651	368.69
308.881	371.69
309.111	382.69
309.341	402.69
309.571	382.69
309.8	388.69
310.03	396.69
310.26	392.69
310.49	392.69
310.72	402.69
310.949	400.69
311.179	421.69
311.409	419.69
311.639	391.69
311.868	396.69
312.098	420.69
312.328	414.69
312.557	395.69
312.787	412.69
313.017	429.69
313.246	408.69
313.476	416.69
313.706	409.69
313.935	430.69
314.165	423.69
314.394	429.69
314.624	428.69
314.853	427.69
315.083	423.69
315.312	404.69
315.542	409.69
315.771	419.69
316.001	396.69
316.23	397.69
316.46	388.69
316.689	420.69
316.919	418.69
317.148	421.69
317.377	413.69
317.607	421.69
317.836	401.69
318.065	402.69
318.295	415.69
318.524	424.69
318.753	416.69
318.983	417.69
319.212	417.69
319.441	414.69
319.67	419.69
319.9	419.69
320.129	406.69
320.358	427.69
320.587	408.69
320.816	406.69
321.046	416.69
321.275	426.69
321.504	412.69
321.733	415.69
321.962	436.69
322.191	435.69
322.42	425.69
322.649	443.69
322.878	458.69
323.108	458.69
323.337	472.69
323.566	468.69
323.795	486.69
324.024	538.69
324.253	591.69
324.482	788.69
324.71	1152.69
324.939	1588.69
325.168	1366.69
325.397	763.69
325.626	609.69
325.855	514.69
326.084	498.69
326.313	509.69
326.542	490.69
326.77	509.69
326.999	605.69
327.228	727.69
327.457	1047.69
327.686	1229.69
327.914	866.69
328.143	632.69
328.372	580.69
328.6	556.69
328.829	560.69
329.058	552.69
329.287	550.69
329.515	546.69
329.744	505.69
329.972	496.69
330.201	508.69
330.43	533.69
330.658	539.69
330.887	555.69
331.115	561.69
331.344	543.69
331.572	511.69
331.801	500.69
332.03	516.69
332.258	504.69
332.486	486.69
332.715	506.69
332.943	493.69
333.172	530.69
333.4	508.69
333.629	524.69
333.857	530.69
334.085	546.69
334.314	574.69
334.542	566.69
334.771	580.69
334.999	557.69
335.227	520.69
335.455	522.69
335.684	524.69
335.912	496.69
336.14	496.69
336.369	504.69
336.597	498.69
336.825	514.69
337.053	511.69
337.281	474.69
337.51	510.69
337.738	508.69
337.966	483.69
338.194	487.69
338.422	484.69
338.65	487.69
338.878	473.69
339.106	466.69
339.334	486.69
339.562	474.69
339.79	470.69
340.018	453.69
340.246	465.69
340.474	500.69
340.702	489.69
340.93	459.69
341.158	451.69
341.386	453.69
341.614	455.69
341.842	472.69
342.07	463.69
342.298	457.69
342.526	468.69
342.754	451.69
342.981	456.69
343.209	435.69
343.437	459.69
343.665	462.69
343.893	527.69
344.12	526.69
344.348	510.69
344.576	475.69
344.804	497.69
345.031	485.69
345.259	504.69
345.487	472.69
345.714	465.69
345.942	457.69
346.17	428.69
346.397	443.69
346.625	444.69
346.853	441.69
347.08	445.69
347.308	451.69
347.535	444.69
347.763	448.69
347.99	439.69
348.218	438.69
348.445	454.69
348.673	444.69
348.9	452.69
349.128	432.69
349.355	449.69
349.583	404.69
349.81	433.69
350.037	424.69
350.265	430.69
350.492	446.69
350.72	450.69
350.947	461.69
351.174	442.69
351.402	452.69
351.629	418.69
351.856	412.69
352.083	450.69
352.311	446.69
352.538	460.69
352.765	457.69
352.992	435.69
353.22	424.69
353.447	438.69
353.674	412.69
353.901	410.69
354.128	444.69
354.355	428.69
354.583	401.69
354.81	427.69
355.037	432.69
355.264	421.69
355.491	434.69
355.718	439.69
355.945	435.69
356.172	427.69
356.399	422.69
356.626	402.69
356.853	424.69
357.08	436.69
357.307	427.69
357.534	411.69
357.761	419.69
357.988	414.69
358.215	428.69
358.441	432.69
358.668	416.69
358.895	435.69
359.122	440.69
359.349	428.69
359.576	456.69
359.802	460.69
360.029	486.69
360.256	478.69
360.483	448.69
360.709	434.69
360.936	449.69
361.163	438.69
361.39	438.69
361.616	424.69
361.843	428.69
362.07	434.69
362.296	424.69
362.523	454.69
362.749	445.69
362.976	455.69
363.203	421.69
363.429	442.69
363.656	408.69
363.882	412.69
364.109	436.69
364.335	442.69
364.562	423.69
364.788	439.69
365.015	427.69
365.241	429.69
365.468	435.69
365.694	429.69
365.92	412.69
366.147	427.69
366.373	424.69
366.599	402.69
366.826	430.69
367.052	420.69
367.278	424.69
367.505	445.69
367.731	432.69
367.957	425.69
368.184	432.69
368.41	424.69
368.636	423.69
368.862	459.69
369.089	451.69
369.315	423.69
369.541	425.69
369.767	434.69
369.993	421.69
370.219	441.69
370.445	442.69
370.672	435.69
370.898	425.69
371.124	424.69
371.35	414.69
371.576	429.69
371.802	430.69
372.028	440.69
372.254	440.69
372.48	436.69
372.706	435.69
372.932	430.69
373.158	440.69
373.384	416.69
373.61	445.69
373.835	453.69
374.061	454.69
374.287	422.69
374.513	449.69
374.739	467.69
374.965	442.69
375.191	449.69
375.416	464.69
375.642	461.69
375.868	440.69
376.094	429.69
376.319	428.69
376.545	445.69
376.771	447.69
376.997	446.69
377.222	452.69
377.448	443.69
377.674	428.69
377.899	436.69
378.125	428.69
378.35	447.69
378.576	426.69
378.802	432.69
379.027	422.69
379.253	443.69
379.478	457.69
379.704	433.69
379.929	443.69
380.155	461.69
380.38	425.69
380.606	431.69
380.831	456.69
381.057	446.69
381.282	428.69
381.507	437.69
381.733	446.69
381.958	450.69
382.184	443.69
382.409	447.69
382.634	466.69
382.86	457.69
383.085	476.69
383.31	462.69
383.535	465.69
383.761	460.69
383.986	476.69
384.211	457.69
384.436	473.69
384.662	487.69
384.887	490.69
385.112	469.69
385.337	494.69
385.562	498.69
385.787	494.69
386.013	504.69
386.238	510.69
386.463	517.69
386.688	494.69
386.913	498.69
387.138	499.69
387.363	498.69
387.588	489.69
387.813	472.69
388.038	497.69
388.263	484.69
388.488	476.69
388.713	504.69
388.938	487.69
389.163	496.69
389.387	498.69
389.612	478.69
389.837	510.69
390.062	480.69
390.287	482.69
390.512	487.69
390.736	497.69
390.961	520.69
391.186	488.69
391.411	493.69
391.636	505.69
391.86	497.69
392.085	524.69
392.31	537.69
392.534	526.69
392.759	550.69
392.984	514.69
393.208	496.69
393.433	491.69
393.658	504.69
393.882	508.69
394.107	521.69
394.331	503.69
394.556	506.69
394.78	491.69
395.005	541.69
395.229	498.69
395.454	511.69
395.678	536.69
395.903	529.69
396.127	539.69
396.352	535.69
396.576	538.69
396.801	477.69
397.025	528.69
397.249	523.69
397.474	546.69
397.698	534.69
397.922	561.69
398.147	562.69
398.371	568.69
398.595	586.69
398.82	565.69
399.044	578.69
399.268	614.69
399.492	686.69
399.717	723.69
399.941	784.69
400.165	754.69
400.389	766.69
400.613	668.69
400.837	628.69
401.062	599.69
401.286	586.69
401.51	570.69
401.734	593.69
401.958	588.69
402.182	596.69
402.406	600.69
402.63	596.69
402.854	605.69
403.078	603.69
403.302	607.69
403.526	619.69
403.75	635.69
403.974	601.69
404.198	624.69
404.422	632.69
404.645	629.69
404.869	608.69
405.093	648.69
405.317	674.69
405.541	715.69
405.765	643.69
405.988	618.69
406.212	652.69
406.436	641.69
406.66	660.69
406.883	678.69
407.107	683.69
407.331	709.69
407.555	798.69
407.778	802.69
408.002	742.69
408.226	689.69
408.449	673.69
408.673	672.69
408.896	684.69
409.12	722.69
409.344	670.69
409.567	628.69
409.791	619.69
410.014	601.69
410.238	605.69
410.461	604.69
410.685	616.69
410.908	621.69
411.132	649.69
411.355	681.69
411.578	669.69
411.802	608.69
412.025	601.69
412.249	614.69
412.472	629.69
412.695	654.69
412.919	643.69
413.142	610.69
413.365	608.69
413.589	566.69
413.812	579.69
414.035	587.69
414.258	557.69
414.482	565.69
414.705	562.69
414.928	592.69
415.151	564.69
415.374	582.69
415.597	585.69
415.821	580.69
416.044	570.69
416.267	566.69
416.49	583.69
416.713	575.69
416.936	577.69
417.159	553.69
417.382	557.69
417.605	572.69
417.828	589.69
418.051	593.69
418.274	585.69
418.497	551.69
418.72	567.69
418.943	582.69
419.166	606.69
419.389	613.69
419.611	624.69
419.834	608.69
420.057	603.69
420.28	600.69
420.503	624.69
420.726	591.69
420.948	595.69
421.171	638.69
421.394	664.69
421.617	589.69
421.839	600.69
422.062	603.69
422.285	610.69
422.507	651.69
422.73	724.69
422.953	700.69
423.175	638.69
423.398	640.69
423.621	610.69
423.843	645.69
424.066	631.69
424.288	603.69
424.511	644.69
424.733	684.69
424.956	750.69
425.178	734.69
425.401	710.69
425.623	729.69
425.846	657.69
426.068	604.69
426.291	613.69
426.513	594.69
426.735	612.69
426.958	643.69
427.18	716.69
427.402	818.69
427.625	872.69
427.847	748.69
428.069	657.69
428.292	610.69
428.514	602.69
428.736	580.69
428.958	577.69
429.181	560.69
429.403	594.69
429.625	562.69
429.847	596.69
430.069	631.69
430.292	625.69
430.514	550.69
430.736	569.69
430.958	525.69
431.18	534.69
431.402	518.69
431.624	524.69
431.846	530.69
432.068	554.69
432.29	548.69
432.512	527.69
432.734	546.69
432.956	560.69
433.178	543.69
433.4	554.69
433.622	552.69
433.844	539.69
434.066	541.69
434.287	543.69
434.509	551.69
434.731	560.69
434.953	571.69
435.175	587.69
435.397	596.69
435.618	634.69
435.84	619.69
436.062	718.69
436.284	804.69
436.505	652.69
436.727	589.69
436.949	586.69
437.17	572.69
437.392	568.69
437.614	572.69
437.835	612.69
438.057	660.69
438.278	737.69
438.5	754.69
438.721	800.69
438.943	779.69
439.165	652.69
439.386	585.69
439.608	612.69
439.829	605.69
440.05	596.69
440.272	649.69
440.493	596.69
440.715	576.69
440.936	542.69
441.158	586.69
441.379	572.69
441.6	588.69
441.822	611.69
442.043	648.69
442.264	704.69
442.486	746.69
442.707	654.69
442.928	630.69
443.149	625.69
443.371	645.69
443.592	660.69
443.813	772.69
444.034	833.69
444.255	690.69
444.476	645.69
444.698	656.69
444.919	658.69
445.14	755.69
445.361	688.69
445.582	659.69
445.803	705.69
446.024	758.69
446.245	778.69
446.466	704.69
446.687	629.69
446.908	586.69
447.129	549.69
447.35	558.69
447.571	554.69
447.792	561.69
448.013	545.69
448.234	554.69
448.455	601.69
448.675	726.69
448.896	781.69
449.117	690.69
449.338	655.69
449.559	718.69
449.779	838.69
450	685.69
450.221	599.69
450.442	534.69
450.662	539.69
450.883	538.69
451.104	549.69
451.324	532.69
451.545	517.69
451.766	499.69
451.986	508.69
452.207	487.69
452.428	504.69
452.648	491.69
452.869	492.69
453.089	496.69
453.31	491.69
453.53	493.69
453.751	471.69
453.971	508.69
454.192	481.69
454.412	480.69
454.633	450.69
454.853	485.69
455.073	487.69
455.294	528.69
455.514	567.69
455.734	548.69
455.955	495.69
456.175	479.69
456.395	455.69
456.616	460.69
456.836	464.69
457.056	479.69
457.276	462.69
457.497	515.69
457.717	451.69
457.937	478.69
458.157	475.69
458.377	490.69
458.598	514.69
458.818	548.69
459.038	613.69
459.258	631.69
459.478	566.69
459.698	537.69
459.918	565.69
460.138	542.69
460.358	559.69
460.578	574.69
460.798	578.69
461.018	572.69
461.238	561.69
461.458	587.69
461.678	558.69
461.898	591.69
462.118	568.69
462.338	615.69
462.558	599.69
462.777	617.69
462.997	644.69
463.217	679.69
463.437	671.69
463.657	654.69
463.876	642.69
464.096	621.69
464.316	620.69
464.536	634.69
464.755	620.69
464.975	614.69
465.195	632.69
465.414	640.69
465.634	594.69
465.854	587.69
466.073	528.69
466.293	534.69
466.512	525.69
466.732	532.69
466.951	499.69
467.171	490.69
467.391	506.69
467.61	507.69
467.829	521.69
468.049	542.69
468.268	505.69
468.488	505.69
468.707	493.69
468.927	482.69
469.146	492.69
469.365	505.69
469.585	516.69
469.804	519.69
470.023	524.69
470.243	541.69
470.462	506.69
470.681	520.69
470.901	521.69
471.12	531.69
471.339	525.69
471.558	533.69
471.777	509.69
471.997	512.69
472.216	528.69
472.435	526.69
472.654	517.69
472.873	508.69
473.092	498.69
473.311	525.69
473.53	509.69
473.749	512.69
473.968	545.69
474.187	631.69
474.406	633.69
474.625	583.69
474.844	548.69
475.063	530.69
475.282	516.69
475.501	504.69
475.72	528.69
475.939	517.69
476.158	530.69
476.377	537.69
476.596	532.69
476.814	532.69
477.033	529.69
477.252	528.69
477.471	582.69
477.69	550.69
477.908	550.69
478.127	591.69
478.346	566.69
478.564	586.69
478.783	610.69
479.002	597.69
479.22	619.69
479.439	620.69
479.658	624.69
479.876	624.69
480.095	646.69
480.313	671.69
480.532	642.69
480.751	645.69
480.969	657.69
481.188	664.69
481.406	672.69
481.624	656.69
481.843	625.69
482.061	605.69
482.28	602.69
482.498	580.69
482.717	599.69
482.935	571.69
483.153	593.69
483.372	590.69
483.59	601.69
483.808	581.69
484.027	588.69
484.245	621.69
484.463	587.69
484.681	607.69
484.9	608.69
485.118	620.69
485.336	626.69
485.554	611.69
485.772	626.69
485.99	617.69
486.209	650.69
486.427	610.69
486.645	637.69
486.863	642.69
487.081	615.69
487.299	621.69
487.517	632.69
487.735	624.69
487.953	629.69
488.171	640.69
488.389	643.69
488.607	634.69
488.825	624.69
489.043	642.69
489.261	631.69
489.479	658.69
489.696	640.69
489.914	634.69
490.132	674.69
490.35	674.69
490.568	645.69
490.786	658.69
491.003	681.69
491.221	689.69
491.439	690.69
491.657	691.69
491.874	724.69
492.092	705.69
492.31	707.69
492.527	698.69
492.745	718.69
492.963	719.69
493.18	719.69
493.398	738.69
493.615	747.69
493.833	775.69
494.05	740.69
494.268	752.69
494.485	759.69
494.703	729.69
494.92	764.69
495.138	744.69
495.355	721.69
495.573	734.69
495.79	772.69
496.008	716.69
496.225	734.69
496.442	749.69
496.66	744.69
496.877	766.69
497.094	757.69
497.312	745.69
497.529	771.69
497.746	778.69
497.963	800.69
498.181	827.69
498.398	864.69
498.615	886.69
498.832	906.69
499.049	944.69
499.267	971.69
499.484	1022.69
499.701	1084.69
499.918	1138.69
500.135	1179.69
500.352	1312.69
500.569	1342.69
500.786	1314.69
501.003	1300.69
501.22	1229.69
501.437	1139.69
501.654	1094.69
501.871	1067.69
502.088	1018.69
502.305	948.69
502.522	904.69
502.739	858.69
502.956	854.69
503.172	826.69
503.389	802.69
503.606	830.69
503.823	786.69
504.04	784.69
504.256	768.69
504.473	770.69
504.69	792.69
504.907	759.69
505.123	760.69
505.34	730.69
505.557	732.69
505.773	727.69
505.99	685.69
506.207	690.69
506.423	700.69
506.64	691.69
506.856	688.69
507.073	704.69
507.289	690.69
507.506	694.69
507.722	668.69
507.939	701.69
508.155	668.69
508.372	649.69
508.588	641.69
508.805	649.69
509.021	659.69
509.238	654.69
509.454	647.69
509.67	676.69
509.887	665.69
510.103	646.69
510.319	634.69
510.536	693.69
510.752	996.69
510.968	854.69
511.184	662.69
511.401	639.69
511.617	614.69
511.833	611.69
512.049	606.69
512.265	633.69
512.481	590.69
512.698	618.69
512.914	617.69
513.13	628.69
513.346	610.69
513.562	590.69
513.778	618.69
513.994	626.69
514.21	612.69
514.426	609.69
514.642	637.69
514.858	651.69
515.074	675.69
515.29	753.69
515.506	978.69
515.721	841.69
515.937	692.69
516.153	658.69
516.369	663.69
516.585	644.69
516.801	648.69
517.016	663.69
517.232	668.69
517.448	713.69
517.664	704.69
517.879	680.69
518.095	696.69
518.311	696.69
518.527	677.69
518.742	660.69
518.958	669.69
519.173	641.69
519.389	652.69
519.605	653.69
519.82	642.69
520.036	610.69
520.251	629.69
520.467	648.69
520.682	657.69
520.898	638.69
521.113	640.69
521.329	662.69
521.544	706.69
521.76	820.69
521.975	1204.69
522.19	1189.69
522.406	750.69
522.621	634.69
522.836	583.69
523.052	601.69
523.267	562.69
523.482	553.69
523.698	553.69
523.913	553.69
524.128	531.69
524.343	553.69
524.559	549.69
524.774	539.69
524.989	526.69
525.204	546.69
525.419	528.69
525.634	516.69
525.849	533.69
526.064	516.69
526.28	515.69
526.495	517.69
526.71	502.69
526.925	506.69
527.14	534.69
527.355	504.69
527.57	528.69
527.785	502.69
527.999	526.69
528.214	528.69
528.429	528.69
528.644	517.69
528.859	516.69
529.074	514.69
529.289	510.69
529.503	561.69
529.718	556.69
529.933	510.69
530.148	539.69
530.363	526.69
530.577	507.69
530.792	510.69
531.007	502.69
531.221	509.69
531.436	499.69
531.651	495.69
531.865	515.69
532.08	504.69
532.295	489.69
532.509	485.69
532.724	510.69
532.938	499.69
533.153	498.69
533.367	502.69
533.582	507.69
533.796	510.69
534.011	509.69
534.225	510.69
534.44	505.69
534.654	518.69
534.868	500.69
535.083	494.69
535.297	496.69
535.511	504.69
535.726	489.69
535.94	485.69
536.154	487.69
536.369	510.69
536.583	492.69
536.797	489.69
537.011	466.69
537.225	480.69
537.44	472.69
537.654	481.69
537.868	492.69
538.082	461.69
538.296	462.69
538.51	479.69
538.724	477.69
538.938	496.69
539.153	474.69
539.367	482.69
539.581	486.69
539.795	481.69
540.009	461.69
540.222	487.69
540.436	486.69
540.65	477.69
540.864	460.69
541.078	465.69
541.292	477.69
541.506	493.69
541.72	470.69
541.934	468.69
542.147	475.69
542.361	477.69
542.575	470.69
542.789	474.69
543.002	461.69
543.216	482.69
543.43	454.69
543.644	471.69
543.857	483.69
544.071	464.69
544.285	472.69
544.498	470.69
544.712	466.69
544.925	478.69
545.139	467.69
545.352	466.69
545.566	485.69
545.779	469.69
545.993	484.69
546.206	482.69
546.42	466.69
546.633	462.69
546.847	463.69
547.06	468.69
547.274	471.69
547.487	474.69
547.7	457.69
547.914	473.69
548.127	477.69
548.34	463.69
548.554	470.69
548.767	469.69
548.98	481.69
549.193	488.69
549.407	471.69
549.62	490.69
549.833	471.69
550.046	486.69
550.259	477.69
550.473	469.69
550.686	474.69
550.899	454.69
551.112	470.69
551.325	461.69
551.538	468.69
551.751	458.69
551.964	477.69
552.177	455.69
552.39	482.69
552.603	452.69
552.816	468.69
553.029	477.69
553.242	501.69
553.455	508.69
553.667	501.69
553.88	514.69
554.093	496.69
554.306	487.69
554.519	491.69
554.732	461.69
554.944	460.69
555.157	457.69
555.37	441.69
555.583	441.69
555.795	446.69
556.008	438.69
556.221	424.69
556.433	448.69
556.646	421.69
556.859	434.69
557.071	436.69
557.284	414.69
557.496	404.69
557.709	399.69
557.921	425.69
558.134	429.69
558.346	415.69
558.559	403.69
558.771	430.69
558.984	418.69
559.196	421.69
559.409	410.69
559.621	412.69
559.833	404.69
560.046	423.69
560.258	402.69
560.47	414.69
560.683	409.69
560.895	419.69
561.107	409.69
561.32	391.69
561.532	416.69
561.744	410.69
561.956	418.69
562.168	421.69
562.381	424.69
562.593	421.69
562.805	425.69
563.017	401.69
563.229	442.69
563.441	410.69
563.653	417.69
563.865	407.69
564.077	428.69
564.289	440.69
564.501	446.69
564.713	433.69
564.925	441.69
565.137	443.69
565.349	454.69
565.561	469.69
565.773	467.69
565.985	481.69
566.197	486.69
566.408	519.69
566.62	556.69
566.832	579.69
567.044	570.69
567.255	563.69
567.467	597.69
567.679	601.69
567.891	641.69
568.102	650.69
568.314	609.69
568.526	574.69
568.737	560.69
568.949	494.69
569.161	477.69
569.372	460.69
569.584	458.69
569.795	452.69
570.007	440.69
570.218	465.69
570.43	459.69
570.641	428.69
570.853	409.69
571.064	422.69
571.276	421.69
571.487	422.69
571.698	399.69
571.91	398.69
572.121	376.69
572.333	382.69
572.544	378.69
572.755	374.69
572.966	390.69
573.178	362.69
573.389	366.69
573.6	378.69
573.811	357.69
574.023	342.69
574.234	352.69
574.445	374.69
574.656	354.69
574.867	357.69
575.078	368.69
575.289	370.69
575.501	355.69
575.712	344.69
575.923	355.69
576.134	345.69
576.345	355.69
576.556	349.69
576.767	341.69
576.978	357.69
577.188	340.69
577.399	345.69
577.61	333.69
577.821	344.69
578.032	365.69
578.243	358.69
578.454	485.69
578.665	399.69
578.875	338.69
579.086	348.69
579.297	314.69
579.508	336.69
579.718	341.69
579.929	339.69
580.14	332.69
580.35	327.69
580.561	305.69
580.772	329.69
580.982	325.69
581.193	344.69
581.403	313.69
581.614	325.69
581.825	320.69
582.035	305.69
582.246	324.69
582.456	320.69
582.667	313.69
582.877	328.69
583.087	309.69
583.298	318.69
583.508	329.69
583.719	342.69
583.929	322.69
584.139	310.69
584.35	316.69
584.56	314.69
584.77	305.69
584.981	315.69
585.191	318.69
585.401	318.69
585.611	314.69
585.821	318.69
586.032	310.69
586.242	323.69
586.452	324.69
586.662	302.69
586.872	312.69
587.082	304.69
587.292	323.69
587.502	313.69
587.713	328.69
587.923	297.69
588.133	318.69
588.343	310.69
588.553	310.69
588.762	316.69
588.972	323.69
589.182	329.69
589.392	329.69
589.602	293.69
589.812	328.69
590.022	328.69
590.232	288.69
590.441	316.69
590.651	289.69
590.861	323.69
591.071	324.69
591.281	342.69
591.49	310.69
591.7	340.69
591.91	320.69
592.119	329.69
592.329	329.69
592.539	320.69
592.748	315.69
592.958	368.69
593.167	356.69
593.377	362.69
593.587	375.69
593.796	369.69
594.006	365.69
594.215	370.69
594.424	358.69
594.634	365.69
594.843	350.69
595.053	355.69
595.262	348.69
595.472	348.69
595.681	321.69
595.89	339.69
596.1	293.69
596.309	304.69
596.518	298.69
596.727	291.69
596.937	312.69
597.146	298.69
597.355	302.69
597.564	304.69
597.774	301.69
597.983	290.69
598.192	305.69
598.401	289.69
598.61	282.69
598.819	285.69
599.028	291.69
599.237	276.69
599.446	287.69
599.655	270.69
599.864	286.69
600.073	270.69
600.282	267.69
600.491	293.69
600.7	281.69
600.909	270.69
601.118	273.69
601.327	266.69
601.536	268.69
601.745	276.69
601.953	275.69
602.162	281.69
602.371	281.69
602.58	260.69
602.789	280.69
602.997	282.69
603.206	268.69
603.415	251.69
603.623	271.69
603.832	272.69
604.041	245.69
604.249	284.69
604.458	269.69
604.666	269.69
604.875	241.69
605.084	255.69
605.292	250.69
605.501	265.69
605.709	245.69
605.918	242.69
606.126	266.69
606.334	263.69
606.543	261.69
606.751	274.69
606.96	264.69
607.168	261.69
607.376	260.69
607.585	232.69
607.793	256.69
608.001	268.69
608.21	260.69
608.418	262.69
608.626	264.69
608.834	274.69
609.043	256.69
609.251	236.69
609.459	253.69
609.667	255.69
609.875	244.69
610.083	263.69
610.291	264.69
610.499	254.69
610.707	243.69
610.916	260.69
611.124	257.69
611.332	264.69
611.54	262.69
611.748	261.69
611.955	257.69
612.163	253.69
612.371	266.69
612.579	247.69
612.787	256.69
612.995	264.69
613.203	266.69
613.411	237.69
613.618	250.69
613.826	260.69
614.034	250.69
614.242	260.69
614.449	255.69
614.657	241.69
614.865	241.69
615.072	260.69
615.28	249.69
615.488	241.69
615.695	256.69
615.903	248.69
616.111	249.69
616.318	259.69
616.526	250.69
616.733	260.69
616.941	251.69
617.148	244.69
617.356	241.69
617.563	248.69
617.771	235.69
617.978	248.69
618.185	252.69
618.393	248.69
618.6	245.69
618.807	255.69
619.015	224.69
619.222	241.69
619.429	240.69
619.637	262.69
619.844	251.69
620.051	234.69
620.258	244.69
620.466	228.69
620.673	211.69
620.88	220.69
621.087	233.69
621.294	232.69
621.501	209.69
621.708	231.69
621.915	241.69
622.122	254.69
622.329	221.69
622.536	211.69
622.743	233.69
622.95	241.69
623.157	222.69
623.364	240.69
623.571	244.69
623.778	230.69
623.985	230.69
624.192	253.69
624.399	240.69
624.606	228.69
624.812	216.69
625.019	230.69
625.226	221.69
625.433	214.69
625.639	210.69
625.846	212.69
626.053	224.69
626.259	216.69
626.466	247.69
626.673	218.69
626.879	216.69
627.086	222.69
627.293	227.69
627.499	212.69
627.706	213.69
627.912	214.69
628.119	205.69
628.325	203.69
628.532	201.69
628.738	217.69
628.945	211.69
629.151	229.69
629.357	225.69
629.564	211.69
629.77	213.69
629.976	217.69
630.183	229.69
630.389	212.69
630.595	199.69
630.802	205.69
631.008	210.69
631.214	222.69
631.42	204.69
631.627	214.69
631.833	203.69
632.039	197.69
632.245	198.69
632.451	197.69
632.657	208.69
632.863	197.69
633.069	184.69
633.275	202.69
633.481	198.69
633.688	174.69
633.893	204.69
634.099	206.69
634.305	206.69
634.511	193.69
634.717	202.69
634.923	190.69
635.129	191.69
635.335	190.69
635.541	187.69
635.747	193.69
635.952	203.69
636.158	187.69
636.364	198.69
636.57	193.69
636.775	194.69
636.981	186.69
637.187	213.69
637.392	182.69
637.598	160.69
637.804	194.69
638.009	198.69
638.215	192.69
638.421	191.69
638.626	187.69
638.832	201.69
639.037	187.69
639.243	188.69
639.448	194.69
639.654	169.69
639.859	173.69
640.065	183.69
640.27	178.69
640.475	180.69
640.681	174.69
640.886	173.69
641.091	182.69
641.297	171.69
641.502	174.69
641.707	186.69
641.913	178.69
642.118	180.69
642.323	183.69
642.528	184.69
642.733	181.69
642.939	171.69
643.144	171.69
643.349	188.69
643.554	176.69
643.759	176.69
643.964	169.69
644.169	180.69
644.374	168.69
644.579	185.69
644.784	182.69
644.989	164.69
645.194	173.69
645.399	170.69
645.604	171.69
645.809	182.69
646.014	165.69
646.219	171.69
646.423	181.69
646.628	182.69
646.833	180.69
647.038	165.69
647.243	166.69
647.447	184.69
647.652	164.69
647.857	175.69
648.062	183.69
648.266	190.69
648.471	177.69
648.676	176.69
648.88	185.69
649.085	184.69
649.289	170.69
649.494	176.69
649.698	194.69
649.903	181.69
650.107	185.69
650.312	161.69
650.516	158.69
650.721	156.69
650.925	163.69
651.13	152.69
651.334	166.69
651.539	171.69
651.743	156.69
651.947	144.69
652.152	169.69
652.356	159.69
652.56	152.69
652.764	153.69
652.969	155.69
653.173	163.69
653.377	143.69
653.581	125.69
653.785	144.69
653.99	148.69
654.194	140.69
654.398	142.69
654.602	130.69
654.806	152.69
655.01	127.69
655.214	141.69
655.418	132.69
655.622	140.69
655.826	123.69
656.03	136.69
656.234	132.69
656.438	151.69
656.642	134.69
656.846	136.69
657.049	135.69
657.253	128.69
657.457	124.69
657.661	117.69
657.865	125.69
658.068	113.69
658.272	109.69
658.476	114.69
658.68	112.69
658.883	115.69
659.087	91.69
659.291	106.69
659.494	107.69
659.698	110.69
659.901	105.69
660.105	103.69
660.309	97.69
660.512	95.69
660.716	91.69
660.919	90.69
661.123	94.69
661.326	91.69
661.53	99.69
661.733	75.69
661.936	84.69
662.14	75.69
662.343	91.69
662.546	99.69
662.75	95.69
662.953	74.69
663.156	86.69
663.36	85.69
663.563	78.69
663.766	86.69
663.969	76.69
664.173	78.69
664.376	90.69
664.579	89.69
664.782	92.69
664.985	81.69
665.188	79.69
665.391	73.69
665.594	79.69
665.797	64.69
666	74.69
666.203	74.69
666.406	88.69
666.609	87.69
666.812	65.69
667.015	100.69
667.218	86.69
667.421	79.69
667.624	75.69
667.827	74.69
668.03	81.69
668.232	82.69
668.435	73.69
668.638	82.69
668.841	79.69
669.043	92.69
669.246	80.69
669.449	84.69
669.651	89.69
669.854	77.69
670.057	89.69
670.259	67.69
670.462	91.69
670.665	84.69
670.867	88.69
671.07	75.69
671.272	88.69
671.475	86.69
671.677	79.69
671.88	72.69
672.082	73.69
672.284	84.69
672.487	79.69
672.689	84.69
672.892	92.69
