Data from 1973.PennyLincolnUp.Lamp.En5.5.200Scan.071719.P1.Changed Mount._HRD10591_15-45-46-853.txt Node
Date: Thu Jul 18 15:45:46 EDT 2019
User: cochatt
Spectrometer: HR+D1059
Trigger mode: 1
Integration Time (sec): 1.000000E-1
Scans to average: 1
Electric dark correction enabled: true
Nonlinearity correction enabled: false
Boxcar width: 0
XAxis mode: Wavelengths
Number of Pixels in Spectrum: 2048
>>>>>Begin Spectral Data<<<<<
223.165	-6.62
223.4	-6.62
223.635	-6.62
223.869	-17.62
224.104	-20.62
224.338	-17.62
224.573	-13.62
224.808	-5.62
225.042	-8.62
225.277	-4.62
225.511	11.38
225.746	-4.62
225.98	4.38
226.215	8.38
226.449	6.38
226.683	22.38
226.918	21.38
227.152	25.38
227.387	20.38
227.621	34.38
227.856	39.38
228.09	35.38
228.324	49.38
228.559	47.38
228.793	53.38
229.027	99.38
229.262	82.38
229.496	111.38
229.73	125.38
229.964	131.38
230.199	118.38
230.433	104.38
230.667	100.38
230.901	109.38
231.136	92.38
231.37	95.38
231.604	93.38
231.838	117.38
232.072	98.38
232.306	113.38
232.541	110.38
232.775	108.38
233.009	98.38
233.243	105.38
233.477	121.38
233.711	112.38
233.945	115.38
234.179	116.38
234.413	131.38
234.647	114.38
234.881	116.38
235.115	106.38
235.349	111.38
235.583	111.38
235.817	116.38
236.051	103.38
236.285	132.38
236.519	119.38
236.753	117.38
236.987	141.38
237.221	161.38
237.455	202.38
237.689	153.38
237.922	137.38
238.156	144.38
238.39	133.38
238.624	131.38
238.858	118.38
239.091	123.38
239.325	131.38
239.559	117.38
239.793	123.38
240.027	118.38
240.26	142.38
240.494	147.38
240.728	147.38
240.961	148.38
241.195	144.38
241.429	124.38
241.662	127.38
241.896	135.38
242.13	122.38
242.363	128.38
242.597	130.38
242.83	132.38
243.064	135.38
243.298	135.38
243.531	143.38
243.765	149.38
243.998	132.38
244.232	145.38
244.465	137.38
244.699	156.38
244.932	147.38
245.166	144.38
245.399	141.38
245.633	156.38
245.866	156.38
246.099	140.38
246.333	155.38
246.566	145.38
246.8	162.38
247.033	152.38
247.266	171.38
247.5	153.38
247.733	177.38
247.966	159.38
248.2	158.38
248.433	180.38
248.666	172.38
248.899	182.38
249.133	181.38
249.366	189.38
249.599	200.38
249.832	201.38
250.066	169.38
250.299	178.38
250.532	188.38
250.765	205.38
250.998	203.38
251.231	213.38
251.465	197.38
251.698	206.38
251.931	191.38
252.164	201.38
252.397	201.38
252.63	211.38
252.863	214.38
253.096	212.38
253.329	214.38
253.562	233.38
253.795	202.38
254.028	207.38
254.261	213.38
254.494	234.38
254.727	236.38
254.96	273.38
255.193	257.38
255.426	236.38
255.659	212.38
255.892	216.38
256.124	231.38
256.357	226.38
256.59	226.38
256.823	202.38
257.056	193.38
257.289	212.38
257.521	202.38
257.754	217.38
257.987	194.38
258.22	225.38
258.452	191.38
258.685	205.38
258.918	204.38
259.151	217.38
259.383	222.38
259.616	224.38
259.849	216.38
260.081	224.38
260.314	245.38
260.547	256.38
260.779	244.38
261.012	233.38
261.244	230.38
261.477	222.38
261.71	241.38
261.942	230.38
262.175	219.38
262.407	230.38
262.64	211.38
262.872	232.38
263.105	233.38
263.337	224.38
263.57	215.38
263.802	228.38
264.035	216.38
264.267	220.38
264.499	226.38
264.732	228.38
264.964	242.38
265.197	215.38
265.429	215.38
265.661	231.38
265.894	236.38
266.126	224.38
266.358	225.38
266.591	224.38
266.823	232.38
267.055	249.38
267.287	251.38
267.52	237.38
267.752	241.38
267.984	223.38
268.216	249.38
268.448	242.38
268.681	253.38
268.913	262.38
269.145	260.38
269.377	287.38
269.609	277.38
269.841	247.38
270.073	280.38
270.306	297.38
270.538	332.38
270.77	307.38
271.002	305.38
271.234	297.38
271.466	290.38
271.698	318.38
271.93	306.38
272.162	323.38
272.394	309.38
272.626	322.38
272.858	283.38
273.09	286.38
273.322	267.38
273.553	260.38
273.785	275.38
274.017	285.38
274.249	279.38
274.481	266.38
274.713	265.38
274.945	283.38
275.176	286.38
275.408	284.38
275.64	275.38
275.872	283.38
276.104	285.38
276.335	279.38
276.567	287.38
276.799	289.38
277.031	309.38
277.262	311.38
277.494	351.38
277.726	318.38
277.957	300.38
278.189	297.38
278.421	319.38
278.652	271.38
278.884	296.38
279.115	295.38
279.347	290.38
279.579	287.38
279.81	280.38
280.042	288.38
280.273	291.38
280.505	290.38
280.736	292.38
280.968	293.38
281.199	289.38
281.431	288.38
281.662	285.38
281.894	287.38
282.125	304.38
282.356	316.38
282.588	320.38
282.819	307.38
283.051	301.38
283.282	294.38
283.513	306.38
283.745	308.38
283.976	301.38
284.207	307.38
284.439	327.38
284.67	308.38
284.901	326.38
285.132	296.38
285.364	293.38
285.595	300.38
285.826	301.38
286.057	304.38
286.288	312.38
286.52	289.38
286.751	317.38
286.982	308.38
287.213	322.38
287.444	308.38
287.675	326.38
287.906	307.38
288.138	332.38
288.369	320.38
288.6	318.38
288.831	319.38
289.062	321.38
289.293	324.38
289.524	325.38
289.755	326.38
289.986	322.38
290.217	326.38
290.448	321.38
290.679	313.38
290.91	328.38
291.141	321.38
291.371	318.38
291.602	326.38
291.833	336.38
292.064	309.38
292.295	320.38
292.526	311.38
292.757	319.38
292.987	332.38
293.218	299.38
293.449	330.38
293.68	342.38
293.91	326.38
294.141	329.38
294.372	333.38
294.603	321.38
294.833	308.38
295.064	343.38
295.295	317.38
295.525	312.38
295.756	331.38
295.987	325.38
296.217	341.38
296.448	344.38
296.679	340.38
296.909	332.38
297.14	327.38
297.37	324.38
297.601	348.38
297.831	323.38
298.062	332.38
298.292	352.38
298.523	352.38
298.753	332.38
298.984	342.38
299.214	335.38
299.445	341.38
299.675	336.38
299.905	321.38
300.136	333.38
300.366	347.38
300.597	345.38
300.827	327.38
301.057	368.38
301.288	368.38
301.518	363.38
301.748	358.38
301.979	353.38
302.209	359.38
302.439	367.38
302.669	364.38
302.9	360.38
303.13	372.38
303.36	361.38
303.59	362.38
303.82	371.38
304.051	366.38
304.281	365.38
304.511	357.38
304.741	373.38
304.971	352.38
305.201	356.38
305.431	351.38
305.661	347.38
305.891	360.38
306.121	382.38
306.352	363.38
306.582	372.38
306.812	357.38
307.042	369.38
307.272	385.38
307.502	358.38
307.731	379.38
307.961	363.38
308.191	367.38
308.421	345.38
308.651	362.38
308.881	369.38
309.111	383.38
309.341	375.38
309.571	381.38
309.8	393.38
310.03	390.38
310.26	376.38
310.49	373.38
310.72	386.38
310.949	396.38
311.179	402.38
311.409	389.38
311.639	399.38
311.868	383.38
312.098	387.38
312.328	394.38
312.557	411.38
312.787	417.38
313.017	410.38
313.246	403.38
313.476	386.38
313.706	378.38
313.935	401.38
314.165	401.38
314.394	429.38
314.624	429.38
314.853	403.38
315.083	382.38
315.312	392.38
315.542	388.38
315.771	397.38
316.001	399.38
316.23	385.38
316.46	390.38
316.689	400.38
316.919	385.38
317.148	389.38
317.377	420.38
317.607	398.38
317.836	389.38
318.065	408.38
318.295	390.38
318.524	385.38
318.753	400.38
318.983	404.38
319.212	405.38
319.441	397.38
319.67	409.38
319.9	382.38
320.129	420.38
320.358	407.38
320.587	409.38
320.816	426.38
321.046	407.38
321.275	421.38
321.504	407.38
321.733	418.38
321.962	421.38
322.191	414.38
322.42	441.38
322.649	438.38
322.878	443.38
323.108	445.38
323.337	467.38
323.566	484.38
323.795	488.38
324.024	529.38
324.253	583.38
324.482	788.38
324.71	1137.38
324.939	1577.38
325.168	1380.38
325.397	796.38
325.626	581.38
325.855	483.38
326.084	496.38
326.313	496.38
326.542	478.38
326.77	510.38
326.999	556.38
327.228	727.38
327.457	1013.38
327.686	1211.38
327.914	861.38
328.143	619.38
328.372	565.38
328.6	526.38
328.829	531.38
329.058	532.38
329.287	589.38
329.515	512.38
329.744	506.38
329.972	509.38
330.201	518.38
330.43	569.38
330.658	544.38
330.887	546.38
331.115	550.38
331.344	486.38
331.572	512.38
331.801	506.38
332.03	504.38
332.258	511.38
332.486	501.38
332.715	493.38
332.943	501.38
333.172	516.38
333.4	512.38
333.629	518.38
333.857	539.38
334.085	536.38
334.314	568.38
334.542	560.38
334.771	569.38
334.999	543.38
335.227	520.38
335.455	502.38
335.684	476.38
335.912	488.38
336.14	504.38
336.369	460.38
336.597	508.38
336.825	498.38
337.053	474.38
337.281	486.38
337.51	473.38
337.738	499.38
337.966	479.38
338.194	478.38
338.422	468.38
338.65	467.38
338.878	489.38
339.106	479.38
339.334	459.38
339.562	479.38
339.79	456.38
340.018	443.38
340.246	449.38
340.474	460.38
340.702	453.38
340.93	456.38
341.158	471.38
341.386	461.38
341.614	469.38
341.842	449.38
342.07	464.38
342.298	465.38
342.526	421.38
342.754	438.38
342.981	471.38
343.209	454.38
343.437	456.38
343.665	464.38
343.893	485.38
344.12	480.38
344.348	488.38
344.576	475.38
344.804	475.38
345.031	477.38
345.259	468.38
345.487	452.38
345.714	475.38
345.942	439.38
346.17	447.38
346.397	445.38
346.625	441.38
346.853	433.38
347.08	451.38
347.308	431.38
347.535	438.38
347.763	437.38
347.99	446.38
348.218	439.38
348.445	435.38
348.673	424.38
348.9	440.38
349.128	436.38
349.355	422.38
349.583	437.38
349.81	396.38
350.037	441.38
350.265	437.38
350.492	423.38
350.72	421.38
350.947	433.38
351.174	416.38
351.402	429.38
351.629	442.38
351.856	420.38
352.083	438.38
352.311	427.38
352.538	434.38
352.765	441.38
352.992	448.38
353.22	433.38
353.447	436.38
353.674	434.38
353.901	418.38
354.128	420.38
354.355	420.38
354.583	422.38
354.81	412.38
355.037	421.38
355.264	406.38
355.491	402.38
355.718	401.38
355.945	405.38
356.172	407.38
356.399	408.38
356.626	402.38
356.853	413.38
357.08	428.38
357.307	416.38
357.534	411.38
357.761	427.38
357.988	419.38
358.215	411.38
358.441	405.38
358.668	421.38
358.895	439.38
359.122	419.38
359.349	410.38
359.576	402.38
359.802	448.38
360.029	433.38
360.256	451.38
360.483	463.38
360.709	414.38
360.936	439.38
361.163	426.38
361.39	447.38
361.616	444.38
361.843	437.38
362.07	429.38
362.296	434.38
362.523	415.38
362.749	440.38
362.976	419.38
363.203	416.38
363.429	441.38
363.656	416.38
363.882	419.38
364.109	419.38
364.335	418.38
364.562	423.38
364.788	421.38
365.015	414.38
365.241	420.38
365.468	421.38
365.694	420.38
365.92	426.38
366.147	418.38
366.373	395.38
366.599	399.38
366.826	414.38
367.052	421.38
367.278	416.38
367.505	418.38
367.731	423.38
367.957	401.38
368.184	410.38
368.41	429.38
368.636	431.38
368.862	434.38
369.089	416.38
369.315	421.38
369.541	406.38
369.767	424.38
369.993	433.38
370.219	426.38
370.445	423.38
370.672	420.38
370.898	430.38
371.124	420.38
371.35	412.38
371.576	425.38
371.802	431.38
372.028	413.38
372.254	446.38
372.48	419.38
372.706	443.38
372.932	441.38
373.158	439.38
373.384	428.38
373.61	425.38
373.835	450.38
374.061	431.38
374.287	424.38
374.513	428.38
374.739	456.38
374.965	461.38
375.191	458.38
375.416	444.38
375.642	438.38
375.868	433.38
376.094	447.38
376.319	407.38
376.545	422.38
376.771	447.38
376.997	427.38
377.222	432.38
377.448	424.38
377.674	407.38
377.899	414.38
378.125	420.38
378.35	415.38
378.576	412.38
378.802	408.38
379.027	429.38
379.253	412.38
379.478	411.38
379.704	394.38
379.929	411.38
380.155	424.38
380.38	409.38
380.606	432.38
380.831	418.38
381.057	445.38
381.282	422.38
381.507	430.38
381.733	435.38
381.958	431.38
382.184	433.38
382.409	411.38
382.634	430.38
382.86	445.38
383.085	448.38
383.31	456.38
383.535	448.38
383.761	439.38
383.986	461.38
384.211	464.38
384.436	474.38
384.662	466.38
384.887	477.38
385.112	469.38
385.337	487.38
385.562	462.38
385.787	471.38
386.013	479.38
386.238	487.38
386.463	483.38
386.688	479.38
386.913	471.38
387.138	477.38
387.363	494.38
387.588	487.38
387.813	464.38
388.038	475.38
388.263	482.38
388.488	475.38
388.713	481.38
388.938	468.38
389.163	478.38
389.387	459.38
389.612	463.38
389.837	484.38
390.062	483.38
390.287	471.38
390.512	460.38
390.736	482.38
390.961	486.38
391.186	484.38
391.411	504.38
391.636	483.38
391.86	503.38
392.085	512.38
392.31	506.38
392.534	507.38
392.759	491.38
392.984	495.38
393.208	498.38
393.433	496.38
393.658	479.38
393.882	511.38
394.107	485.38
394.331	485.38
394.556	491.38
394.78	511.38
395.005	500.38
395.229	483.38
395.454	497.38
395.678	516.38
395.903	515.38
396.127	522.38
396.352	520.38
396.576	509.38
396.801	499.38
397.025	513.38
397.249	508.38
397.474	518.38
397.698	520.38
397.922	535.38
398.147	549.38
398.371	545.38
398.595	539.38
398.82	573.38
399.044	581.38
399.268	628.38
399.492	672.38
399.717	733.38
399.941	760.38
400.165	724.38
400.389	717.38
400.613	658.38
400.837	620.38
401.062	592.38
401.286	580.38
401.51	582.38
401.734	575.38
401.958	560.38
402.182	598.38
402.406	588.38
402.63	593.38
402.854	591.38
403.078	600.38
403.302	590.38
403.526	605.38
403.75	631.38
403.974	623.38
404.198	600.38
404.422	608.38
404.645	615.38
404.869	609.38
405.093	623.38
405.317	671.38
405.541	675.38
405.765	629.38
405.988	616.38
406.212	635.38
406.436	645.38
406.66	625.38
406.883	631.38
407.107	673.38
407.331	693.38
407.555	769.38
407.778	776.38
408.002	715.38
408.226	667.38
408.449	651.38
408.673	648.38
408.896	664.38
409.12	688.38
409.344	674.38
409.567	615.38
409.791	615.38
410.014	585.38
410.238	607.38
410.461	572.38
410.685	577.38
410.908	606.38
411.132	607.38
411.355	656.38
411.578	635.38
411.802	582.38
412.025	587.38
412.249	615.38
412.472	609.38
412.695	624.38
412.919	634.38
413.142	580.38
413.365	566.38
413.589	561.38
413.812	542.38
414.035	568.38
414.258	567.38
414.482	550.38
414.705	576.38
414.928	567.38
415.151	557.38
415.374	548.38
415.597	557.38
415.821	545.38
416.044	565.38
416.267	561.38
416.49	553.38
416.713	541.38
416.936	552.38
417.159	559.38
417.382	531.38
417.605	573.38
417.828	560.38
418.051	566.38
418.274	584.38
418.497	573.38
418.72	561.38
418.943	563.38
419.166	607.38
419.389	638.38
419.611	610.38
419.834	607.38
420.057	595.38
420.28	580.38
420.503	593.38
420.726	567.38
420.948	579.38
421.171	604.38
421.394	644.38
421.617	592.38
421.839	565.38
422.062	565.38
422.285	589.38
422.507	628.38
422.73	712.38
422.953	684.38
423.175	631.38
423.398	607.38
423.621	597.38
423.843	635.38
424.066	623.38
424.288	611.38
424.511	631.38
424.733	693.38
424.956	732.38
425.178	702.38
425.401	692.38
425.623	718.38
425.846	630.38
426.068	605.38
426.291	593.38
426.513	588.38
426.735	607.38
426.958	632.38
427.18	685.38
427.402	811.38
427.625	877.38
427.847	723.38
428.069	654.38
428.292	629.38
428.514	587.38
428.736	565.38
428.958	553.38
429.181	522.38
429.403	539.38
429.625	565.38
429.847	580.38
430.069	643.38
430.292	604.38
430.514	559.38
430.736	551.38
430.958	533.38
431.18	523.38
431.402	508.38
431.624	513.38
431.846	529.38
432.068	495.38
432.29	518.38
432.512	519.38
432.734	547.38
432.956	532.38
433.178	522.38
433.4	557.38
433.622	543.38
433.844	529.38
434.066	500.38
434.287	519.38
434.509	552.38
434.731	550.38
434.953	561.38
435.175	612.38
435.397	602.38
435.618	592.38
435.84	608.38
436.062	689.38
436.284	752.38
436.505	649.38
436.727	582.38
436.949	560.38
437.17	551.38
437.392	556.38
437.614	561.38
437.835	571.38
438.057	635.38
438.278	743.38
438.5	716.38
438.721	766.38
438.943	770.38
439.165	648.38
439.386	600.38
439.608	601.38
439.829	589.38
440.05	597.38
440.272	648.38
440.493	591.38
440.715	590.38
440.936	572.38
441.158	547.38
441.379	555.38
441.6	585.38
441.822	593.38
442.043	628.38
442.264	689.38
442.486	735.38
442.707	638.38
442.928	621.38
443.149	623.38
443.371	616.38
443.592	659.38
443.813	749.38
444.034	827.38
444.255	683.38
444.476	637.38
444.698	646.38
444.919	645.38
445.14	722.38
445.361	678.38
445.582	645.38
445.803	683.38
446.024	727.38
446.245	794.38
446.466	707.38
446.687	633.38
446.908	561.38
447.129	565.38
447.35	543.38
447.571	546.38
447.792	523.38
448.013	540.38
448.234	541.38
448.455	583.38
448.675	664.38
448.896	774.38
449.117	683.38
449.338	614.38
449.559	722.38
449.779	797.38
450	663.38
450.221	580.38
450.442	548.38
450.662	529.38
450.883	525.38
451.104	520.38
451.324	502.38
451.545	515.38
451.766	497.38
451.986	472.38
452.207	493.38
452.428	469.38
452.648	475.38
452.869	478.38
453.089	503.38
453.31	506.38
453.53	492.38
453.751	503.38
453.971	466.38
454.192	478.38
454.412	483.38
454.633	476.38
454.853	467.38
455.073	443.38
455.294	483.38
455.514	557.38
455.734	540.38
455.955	488.38
456.175	463.38
456.395	450.38
456.616	452.38
456.836	464.38
457.056	466.38
457.276	442.38
457.497	456.38
457.717	475.38
457.937	460.38
458.157	478.38
458.377	488.38
458.598	504.38
458.818	531.38
459.038	579.38
459.258	613.38
459.478	561.38
459.698	548.38
459.918	527.38
460.138	537.38
460.358	537.38
460.578	541.38
460.798	548.38
461.018	561.38
461.238	565.38
461.458	558.38
461.678	569.38
461.898	559.38
462.118	579.38
462.338	593.38
462.558	563.38
462.777	589.38
462.997	612.38
463.217	637.38
463.437	663.38
463.657	627.38
463.876	605.38
464.096	620.38
464.316	604.38
464.536	607.38
464.755	579.38
464.975	604.38
465.195	594.38
465.414	637.38
465.634	571.38
465.854	535.38
466.073	521.38
466.293	504.38
466.512	505.38
466.732	491.38
466.951	504.38
467.171	501.38
467.391	508.38
467.61	520.38
467.829	508.38
468.049	508.38
468.268	520.38
468.488	478.38
468.707	486.38
468.927	472.38
469.146	484.38
469.365	480.38
469.585	495.38
469.804	507.38
470.023	511.38
470.243	503.38
470.462	528.38
470.681	522.38
470.901	548.38
471.12	531.38
471.339	491.38
471.558	495.38
471.777	513.38
471.997	512.38
472.216	509.38
472.435	521.38
472.654	501.38
472.873	502.38
473.092	531.38
473.311	503.38
473.53	494.38
473.749	512.38
473.968	543.38
474.187	610.38
474.406	630.38
474.625	531.38
474.844	523.38
475.063	497.38
475.282	487.38
475.501	509.38
475.72	511.38
475.939	523.38
476.158	511.38
476.377	526.38
476.596	516.38
476.814	505.38
477.033	525.38
477.252	517.38
477.471	550.38
477.69	535.38
477.908	589.38
478.127	559.38
478.346	562.38
478.564	547.38
478.783	568.38
479.002	589.38
479.22	587.38
479.439	606.38
479.658	609.38
479.876	611.38
480.095	619.38
480.313	641.38
480.532	602.38
480.751	652.38
480.969	641.38
481.188	670.38
481.406	659.38
481.624	608.38
481.843	612.38
482.061	619.38
482.28	581.38
482.498	569.38
482.717	555.38
482.935	582.38
483.153	581.38
483.372	579.38
483.59	559.38
483.808	571.38
484.027	576.38
484.245	582.38
484.463	596.38
484.681	592.38
484.9	582.38
485.118	574.38
485.336	572.38
485.554	599.38
485.772	598.38
485.99	596.38
486.209	608.38
486.427	589.38
486.645	630.38
486.863	608.38
487.081	629.38
487.299	639.38
487.517	633.38
487.735	607.38
487.953	602.38
488.171	632.38
488.389	617.38
488.607	625.38
488.825	637.38
489.043	588.38
489.261	616.38
489.479	646.38
489.696	651.38
489.914	617.38
490.132	640.38
490.35	653.38
490.568	651.38
490.786	623.38
491.003	658.38
491.221	689.38
491.439	694.38
491.657	681.38
491.874	707.38
492.092	709.38
492.31	704.38
492.527	693.38
492.745	712.38
492.963	734.38
493.18	698.38
493.398	738.38
493.615	724.38
493.833	714.38
494.05	728.38
494.268	700.38
494.485	724.38
494.703	714.38
494.92	728.38
495.138	732.38
495.355	728.38
495.573	703.38
495.79	746.38
496.008	731.38
496.225	724.38
496.442	743.38
496.66	726.38
496.877	739.38
497.094	751.38
497.312	750.38
497.529	753.38
497.746	791.38
497.963	786.38
498.181	820.38
498.398	849.38
498.615	867.38
498.832	910.38
499.049	899.38
499.267	925.38
499.484	986.38
499.701	1042.38
499.918	1115.38
500.135	1208.38
500.352	1279.38
500.569	1277.38
500.786	1303.38
501.003	1282.38
501.22	1186.38
501.437	1128.38
501.654	1073.38
501.871	1061.38
502.088	960.38
502.305	926.38
502.522	905.38
502.739	895.38
502.956	835.38
503.172	792.38
503.389	799.38
503.606	785.38
503.823	804.38
504.04	769.38
504.256	765.38
504.473	747.38
504.69	758.38
504.907	743.38
505.123	727.38
505.34	726.38
505.557	714.38
505.773	710.38
505.99	700.38
506.207	687.38
506.423	707.38
506.64	684.38
506.856	665.38
507.073	678.38
507.289	649.38
507.506	658.38
507.722	644.38
507.939	666.38
508.155	648.38
508.372	648.38
508.588	655.38
508.805	651.38
509.021	631.38
509.238	649.38
509.454	651.38
509.67	672.38
509.887	635.38
510.103	649.38
510.319	622.38
510.536	688.38
510.752	961.38
510.968	811.38
511.184	633.38
511.401	605.38
511.617	623.38
511.833	607.38
512.049	630.38
512.265	591.38
512.481	598.38
512.698	594.38
512.914	603.38
513.13	615.38
513.346	564.38
513.562	587.38
513.778	587.38
513.994	593.38
514.21	598.38
514.426	590.38
514.642	635.38
514.858	662.38
515.074	682.38
515.29	772.38
515.506	953.38
515.721	837.38
515.937	660.38
516.153	631.38
516.369	631.38
516.585	636.38
516.801	649.38
517.016	662.38
517.232	659.38
517.448	686.38
517.664	678.38
517.879	673.38
518.095	694.38
518.311	669.38
518.527	667.38
518.742	652.38
518.958	630.38
519.173	644.38
519.389	627.38
519.605	605.38
519.82	607.38
520.036	606.38
520.251	643.38
520.467	617.38
520.682	637.38
520.898	625.38
521.113	620.38
521.329	644.38
521.544	697.38
521.76	806.38
521.975	1149.38
522.19	1141.38
522.406	745.38
522.621	609.38
522.836	578.38
523.052	574.38
523.267	560.38
523.482	559.38
523.698	539.38
523.913	555.38
524.128	531.38
524.343	537.38
524.559	530.38
524.774	545.38
524.989	548.38
525.204	533.38
525.419	543.38
525.634	507.38
525.849	510.38
526.064	504.38
526.28	518.38
526.495	518.38
526.71	495.38
526.925	487.38
527.14	486.38
527.355	491.38
527.57	478.38
527.785	496.38
527.999	496.38
528.214	508.38
528.429	522.38
528.644	511.38
528.859	495.38
529.074	485.38
529.289	524.38
529.503	562.38
529.718	544.38
529.933	523.38
530.148	499.38
530.363	532.38
530.577	497.38
530.792	488.38
531.007	491.38
531.221	494.38
531.436	503.38
531.651	474.38
531.865	495.38
532.08	509.38
532.295	503.38
532.509	488.38
532.724	487.38
532.938	507.38
533.153	498.38
533.367	481.38
533.582	493.38
533.796	464.38
534.011	496.38
534.225	495.38
534.44	468.38
534.654	469.38
534.868	454.38
535.083	478.38
535.297	483.38
535.511	504.38
535.726	498.38
535.94	485.38
536.154	488.38
536.369	477.38
536.583	472.38
536.797	486.38
537.011	456.38
537.225	456.38
537.44	464.38
537.654	462.38
537.868	464.38
538.082	475.38
538.296	471.38
538.51	475.38
538.724	466.38
538.938	461.38
539.153	461.38
539.367	488.38
539.581	460.38
539.795	465.38
540.009	470.38
540.222	481.38
540.436	462.38
540.65	456.38
540.864	450.38
541.078	461.38
541.292	467.38
541.506	479.38
541.72	454.38
541.934	452.38
542.147	450.38
542.361	447.38
542.575	452.38
542.789	455.38
543.002	461.38
543.216	469.38
543.43	470.38
543.644	462.38
543.857	475.38
544.071	486.38
544.285	493.38
544.498	475.38
544.712	468.38
544.925	482.38
545.139	468.38
545.352	458.38
545.566	477.38
545.779	472.38
545.993	445.38
546.206	448.38
546.42	463.38
546.633	464.38
546.847	453.38
547.06	484.38
547.274	464.38
547.487	460.38
547.7	450.38
547.914	460.38
548.127	451.38
548.34	484.38
548.554	448.38
548.767	478.38
548.98	457.38
549.193	462.38
549.407	486.38
549.62	465.38
549.833	476.38
550.046	450.38
550.259	465.38
550.473	447.38
550.686	461.38
550.899	453.38
551.112	458.38
551.325	445.38
551.538	434.38
551.751	460.38
551.964	446.38
552.177	451.38
552.39	456.38
552.603	463.38
552.816	474.38
553.029	469.38
553.242	471.38
553.455	469.38
553.667	484.38
553.88	506.38
554.093	477.38
554.306	476.38
554.519	463.38
554.732	452.38
554.944	453.38
555.157	442.38
555.37	445.38
555.583	450.38
555.795	435.38
556.008	440.38
556.221	416.38
556.433	429.38
556.646	434.38
556.859	421.38
557.071	401.38
557.284	428.38
557.496	412.38
557.709	415.38
557.921	413.38
558.134	413.38
558.346	406.38
558.559	417.38
558.771	402.38
558.984	406.38
559.196	396.38
559.409	399.38
559.621	415.38
559.833	404.38
560.046	399.38
560.258	397.38
560.47	386.38
560.683	385.38
560.895	391.38
561.107	398.38
561.32	397.38
561.532	397.38
561.744	400.38
561.956	399.38
562.168	427.38
562.381	419.38
562.593	423.38
562.805	399.38
563.017	413.38
563.229	404.38
563.441	414.38
563.653	411.38
563.865	421.38
564.077	402.38
564.289	428.38
564.501	447.38
564.713	445.38
564.925	429.38
565.137	439.38
565.349	448.38
565.561	476.38
565.773	452.38
565.985	459.38
566.197	489.38
566.408	510.38
566.62	559.38
566.832	574.38
567.044	546.38
567.255	585.38
567.467	579.38
567.679	630.38
567.891	622.38
568.102	608.38
568.314	582.38
568.526	567.38
568.737	536.38
568.949	519.38
569.161	476.38
569.372	462.38
569.584	458.38
569.795	424.38
570.007	436.38
570.218	452.38
570.43	436.38
570.641	413.38
570.853	422.38
571.064	422.38
571.276	422.38
571.487	399.38
571.698	401.38
571.91	382.38
572.121	388.38
572.333	380.38
572.544	387.38
572.755	371.38
572.966	355.38
573.178	365.38
573.389	365.38
573.6	355.38
573.811	352.38
574.023	335.38
574.234	352.38
574.445	362.38
574.656	341.38
574.867	354.38
575.078	358.38
575.289	348.38
575.501	366.38
575.712	336.38
575.923	333.38
576.134	325.38
576.345	339.38
576.556	350.38
576.767	339.38
576.978	338.38
577.188	347.38
577.399	335.38
577.61	339.38
577.821	333.38
578.032	339.38
578.243	347.38
578.454	439.38
578.665	375.38
578.875	320.38
579.086	321.38
579.297	313.38
579.508	315.38
579.718	326.38
579.929	317.38
580.14	311.38
580.35	323.38
580.561	314.38
580.772	306.38
580.982	321.38
581.193	324.38
581.403	325.38
581.614	306.38
581.825	328.38
582.035	307.38
582.246	317.38
582.456	324.38
582.667	307.38
582.877	310.38
583.087	341.38
583.298	312.38
583.508	312.38
583.719	311.38
583.929	313.38
584.139	319.38
584.35	312.38
584.56	311.38
584.77	319.38
584.981	305.38
585.191	307.38
585.401	300.38
585.611	303.38
585.821	295.38
586.032	319.38
586.242	313.38
586.452	306.38
586.662	302.38
586.872	296.38
587.082	324.38
587.292	301.38
587.502	293.38
587.713	296.38
587.923	300.38
588.133	307.38
588.343	312.38
588.553	286.38
588.762	303.38
588.972	301.38
589.182	317.38
589.392	287.38
589.602	318.38
589.812	308.38
590.022	326.38
590.232	305.38
590.441	312.38
590.651	309.38
590.861	309.38
591.071	306.38
591.281	309.38
591.49	325.38
591.7	315.38
591.91	314.38
592.119	315.38
592.329	330.38
592.539	331.38
592.748	353.38
592.958	331.38
593.167	353.38
593.377	342.38
593.587	363.38
593.796	367.38
594.006	366.38
594.215	348.38
594.424	348.38
594.634	349.38
594.843	342.38
595.053	328.38
595.262	355.38
595.472	331.38
595.681	312.38
595.89	309.38
596.1	304.38
596.309	308.38
596.518	303.38
596.727	303.38
596.937	300.38
597.146	303.38
597.355	304.38
597.564	293.38
597.774	285.38
597.983	289.38
598.192	274.38
598.401	269.38
598.61	267.38
598.819	258.38
599.028	283.38
599.237	269.38
599.446	281.38
599.655	277.38
599.864	288.38
600.073	269.38
600.282	269.38
600.491	261.38
600.7	248.38
600.909	263.38
601.118	263.38
601.327	255.38
601.536	283.38
601.745	259.38
601.953	254.38
602.162	265.38
602.371	282.38
602.58	270.38
602.789	262.38
602.997	279.38
603.206	268.38
603.415	284.38
603.623	236.38
603.832	255.38
604.041	254.38
604.249	240.38
604.458	258.38
604.666	255.38
604.875	277.38
605.084	251.38
605.292	259.38
605.501	261.38
605.709	253.38
605.918	256.38
606.126	252.38
606.334	260.38
606.543	244.38
606.751	253.38
606.96	269.38
607.168	257.38
607.376	254.38
607.585	240.38
607.793	253.38
608.001	241.38
608.21	243.38
608.418	254.38
608.626	244.38
608.834	253.38
609.043	235.38
609.251	229.38
609.459	236.38
609.667	249.38
609.875	241.38
610.083	236.38
610.291	244.38
610.499	273.38
610.707	237.38
610.916	259.38
611.124	235.38
611.332	234.38
611.54	232.38
611.748	242.38
611.955	247.38
612.163	241.38
612.371	247.38
612.579	239.38
612.787	255.38
612.995	256.38
613.203	235.38
613.411	249.38
613.618	236.38
613.826	248.38
614.034	252.38
614.242	244.38
614.449	248.38
614.657	263.38
614.865	262.38
615.072	236.38
615.28	228.38
615.488	240.38
615.695	230.38
615.903	237.38
616.111	251.38
616.318	246.38
616.526	245.38
616.733	225.38
616.941	226.38
617.148	235.38
617.356	245.38
617.563	242.38
617.771	227.38
617.978	241.38
618.185	253.38
618.393	230.38
618.6	221.38
618.807	240.38
619.015	253.38
619.222	247.38
619.429	230.38
619.637	228.38
619.844	226.38
620.051	231.38
620.258	236.38
620.466	208.38
620.673	226.38
620.88	229.38
621.087	223.38
621.294	226.38
621.501	238.38
621.708	215.38
621.915	225.38
622.122	220.38
622.329	225.38
622.536	240.38
622.743	202.38
622.95	242.38
623.157	237.38
623.364	227.38
623.571	216.38
623.778	211.38
623.985	231.38
624.192	214.38
624.399	229.38
624.606	223.38
624.812	209.38
625.019	208.38
625.226	231.38
625.433	225.38
625.639	197.38
625.846	209.38
626.053	238.38
626.259	224.38
626.466	212.38
626.673	203.38
626.879	214.38
627.086	214.38
627.293	203.38
627.499	221.38
627.706	215.38
627.912	220.38
628.119	193.38
628.325	208.38
628.532	202.38
628.738	216.38
628.945	197.38
629.151	196.38
629.357	190.38
629.564	202.38
629.77	205.38
629.976	190.38
630.183	205.38
630.389	179.38
630.595	204.38
630.802	199.38
631.008	196.38
631.214	200.38
631.42	207.38
631.627	198.38
631.833	189.38
632.039	206.38
632.245	189.38
632.451	192.38
632.657	176.38
632.863	182.38
633.069	199.38
633.275	195.38
633.481	205.38
633.688	200.38
633.893	180.38
634.099	205.38
634.305	191.38
634.511	185.38
634.717	181.38
634.923	189.38
635.129	182.38
635.335	190.38
635.541	164.38
635.747	207.38
635.952	185.38
636.158	192.38
636.364	200.38
636.57	180.38
636.775	198.38
636.981	188.38
637.187	192.38
637.392	173.38
637.598	202.38
637.804	182.38
638.009	173.38
638.215	182.38
638.421	168.38
638.626	160.38
638.832	176.38
639.037	169.38
639.243	175.38
639.448	181.38
639.654	185.38
639.859	175.38
640.065	171.38
640.27	168.38
640.475	159.38
640.681	174.38
640.886	171.38
641.091	169.38
641.297	181.38
641.502	180.38
641.707	158.38
641.913	178.38
642.118	175.38
642.323	166.38
642.528	176.38
642.733	183.38
642.939	188.38
643.144	185.38
643.349	171.38
643.554	165.38
643.759	157.38
643.964	168.38
644.169	179.38
644.374	165.38
644.579	192.38
644.784	176.38
644.989	177.38
645.194	167.38
645.399	173.38
645.604	157.38
645.809	167.38
646.014	168.38
646.219	176.38
646.423	169.38
646.628	160.38
646.833	180.38
647.038	176.38
647.243	183.38
647.447	165.38
647.652	179.38
647.857	180.38
648.062	162.38
648.266	155.38
648.471	145.38
648.676	184.38
648.88	175.38
649.085	182.38
649.289	183.38
649.494	180.38
649.698	191.38
649.903	197.38
650.107	155.38
650.312	167.38
650.516	161.38
650.721	156.38
650.925	147.38
651.13	137.38
651.334	156.38
651.539	176.38
651.743	131.38
651.947	143.38
652.152	147.38
652.356	147.38
652.56	163.38
652.764	156.38
652.969	139.38
653.173	146.38
653.377	143.38
653.581	150.38
653.785	153.38
653.99	124.38
654.194	129.38
654.398	151.38
654.602	141.38
654.806	139.38
655.01	135.38
655.214	147.38
655.418	142.38
655.622	130.38
655.826	118.38
656.03	125.38
656.234	119.38
656.438	127.38
656.642	138.38
656.846	134.38
657.049	127.38
657.253	129.38
657.457	115.38
657.661	130.38
657.865	115.38
658.068	114.38
658.272	105.38
658.476	107.38
658.68	98.38
658.883	103.38
659.087	120.38
659.291	101.38
659.494	96.38
659.698	80.38
659.901	95.38
660.105	87.38
660.309	90.38
660.512	88.38
660.716	92.38
660.919	100.38
661.123	91.38
661.326	91.38
661.53	93.38
661.733	99.38
661.936	86.38
662.14	75.38
662.343	79.38
662.546	89.38
662.75	88.38
662.953	81.38
663.156	70.38
663.36	76.38
663.563	77.38
663.766	81.38
663.969	75.38
664.173	89.38
664.376	70.38
664.579	83.38
664.782	74.38
664.985	72.38
665.188	73.38
665.391	86.38
665.594	75.38
665.797	81.38
666	77.38
666.203	80.38
666.406	88.38
666.609	84.38
666.812	86.38
667.015	76.38
667.218	83.38
667.421	80.38
667.624	78.38
667.827	71.38
668.03	67.38
668.232	81.38
668.435	76.38
668.638	75.38
668.841	78.38
669.043	70.38
669.246	88.38
669.449	79.38
669.651	76.38
669.854	68.38
670.057	77.38
670.259	64.38
670.462	67.38
670.665	76.38
670.867	76.38
671.07	73.38
671.272	83.38
671.475	86.38
671.677	80.38
671.88	78.38
672.082	80.38
672.284	88.38
672.487	79.38
672.689	83.38
672.892	77.38
