Data from 1973.PennyLincolnUp.Lamp.En5.5.200Scan.071719.P1.Changed Mount._HRD10591_15-43-40-852.txt Node
Date: Thu Jul 18 15:43:40 EDT 2019
User: cochatt
Spectrometer: HR+D1059
Trigger mode: 1
Integration Time (sec): 1.000000E-1
Scans to average: 1
Electric dark correction enabled: true
Nonlinearity correction enabled: false
Boxcar width: 0
XAxis mode: Wavelengths
Number of Pixels in Spectrum: 2048
>>>>>Begin Spectral Data<<<<<
223.165	-13.25
223.4	-13.25
223.635	-13.25
223.869	-23.25
224.104	-12.25
224.338	-23.25
224.573	1.75
224.808	-17.25
225.042	-10.25
225.277	-11.25
225.511	-2.25
225.746	-3.25
225.98	13.75
226.215	4.75
226.449	12.75
226.683	17.75
226.918	29.75
227.152	35.75
227.387	25.75
227.621	50.75
227.856	35.75
228.09	45.75
228.324	41.75
228.559	54.75
228.793	76.75
229.027	90.75
229.262	108.75
229.496	101.75
229.73	112.75
229.964	125.75
230.199	112.75
230.433	106.75
230.667	116.75
230.901	112.75
231.136	114.75
231.37	105.75
231.604	108.75
231.838	110.75
232.072	96.75
232.306	104.75
232.541	117.75
232.775	105.75
233.009	103.75
233.243	99.75
233.477	117.75
233.711	121.75
233.945	118.75
234.179	101.75
234.413	103.75
234.647	99.75
234.881	113.75
235.115	100.75
235.349	116.75
235.583	111.75
235.817	129.75
236.051	129.75
236.285	107.75
236.519	117.75
236.753	109.75
236.987	122.75
237.221	146.75
237.455	198.75
237.689	179.75
237.922	135.75
238.156	124.75
238.39	128.75
238.624	109.75
238.858	122.75
239.091	119.75
239.325	122.75
239.559	117.75
239.793	120.75
240.027	129.75
240.26	128.75
240.494	124.75
240.728	146.75
240.961	137.75
241.195	139.75
241.429	145.75
241.662	139.75
241.896	116.75
242.13	118.75
242.363	135.75
242.597	140.75
242.83	142.75
243.064	126.75
243.298	140.75
243.531	125.75
243.765	146.75
243.998	137.75
244.232	138.75
244.465	140.75
244.699	155.75
244.932	132.75
245.166	134.75
245.399	150.75
245.633	139.75
245.866	154.75
246.099	141.75
246.333	160.75
246.566	146.75
246.8	137.75
247.033	136.75
247.266	150.75
247.5	156.75
247.733	164.75
247.966	142.75
248.2	171.75
248.433	164.75
248.666	174.75
248.899	177.75
249.133	170.75
249.366	188.75
249.599	169.75
249.832	176.75
250.066	155.75
250.299	172.75
250.532	173.75
250.765	170.75
250.998	201.75
251.231	207.75
251.465	200.75
251.698	203.75
251.931	171.75
252.164	170.75
252.397	198.75
252.63	190.75
252.863	196.75
253.096	206.75
253.329	190.75
253.562	212.75
253.795	199.75
254.028	179.75
254.261	203.75
254.494	201.75
254.727	218.75
254.96	220.75
255.193	214.75
255.426	218.75
255.659	213.75
255.892	195.75
256.124	220.75
256.357	204.75
256.59	209.75
256.823	198.75
257.056	193.75
257.289	198.75
257.521	206.75
257.754	185.75
257.987	192.75
258.22	195.75
258.452	211.75
258.685	205.75
258.918	198.75
259.151	182.75
259.383	189.75
259.616	202.75
259.849	197.75
260.081	207.75
260.314	215.75
260.547	233.75
260.779	206.75
261.012	197.75
261.244	209.75
261.477	205.75
261.71	213.75
261.942	218.75
262.175	211.75
262.407	211.75
262.64	215.75
262.872	216.75
263.105	215.75
263.337	220.75
263.57	210.75
263.802	192.75
264.035	194.75
264.267	198.75
264.499	204.75
264.732	209.75
264.964	216.75
265.197	205.75
265.429	217.75
265.661	226.75
265.894	209.75
266.126	219.75
266.358	215.75
266.591	221.75
266.823	213.75
267.055	200.75
267.287	223.75
267.52	214.75
267.752	227.75
267.984	206.75
268.216	210.75
268.448	215.75
268.681	229.75
268.913	243.75
269.145	240.75
269.377	260.75
269.609	262.75
269.841	246.75
270.073	257.75
270.306	264.75
270.538	293.75
270.77	292.75
271.002	271.75
271.234	258.75
271.466	283.75
271.698	281.75
271.93	283.75
272.162	288.75
272.394	277.75
272.626	258.75
272.858	268.75
273.09	261.75
273.322	256.75
273.553	235.75
273.785	262.75
274.017	266.75
274.249	254.75
274.481	264.75
274.713	250.75
274.945	247.75
275.176	249.75
275.408	265.75
275.64	254.75
275.872	252.75
276.104	264.75
276.335	248.75
276.567	267.75
276.799	272.75
277.031	274.75
277.262	292.75
277.494	275.75
277.726	274.75
277.957	274.75
278.189	267.75
278.421	261.75
278.652	259.75
278.884	281.75
279.115	274.75
279.347	269.75
279.579	273.75
279.81	258.75
280.042	268.75
280.273	258.75
280.505	264.75
280.736	280.75
280.968	260.75
281.199	276.75
281.431	271.75
281.662	275.75
281.894	269.75
282.125	265.75
282.356	275.75
282.588	298.75
282.819	284.75
283.051	269.75
283.282	268.75
283.513	268.75
283.745	267.75
283.976	270.75
284.207	271.75
284.439	284.75
284.67	302.75
284.901	275.75
285.132	274.75
285.364	294.75
285.595	283.75
285.826	272.75
286.057	278.75
286.288	288.75
286.52	288.75
286.751	295.75
286.982	295.75
287.213	290.75
287.444	300.75
287.675	290.75
287.906	289.75
288.138	297.75
288.369	301.75
288.6	290.75
288.831	308.75
289.062	291.75
289.293	314.75
289.524	290.75
289.755	298.75
289.986	300.75
290.217	296.75
290.448	294.75
290.679	290.75
290.91	291.75
291.141	299.75
291.371	310.75
291.602	304.75
291.833	302.75
292.064	298.75
292.295	306.75
292.526	282.75
292.757	313.75
292.987	306.75
293.218	266.75
293.449	324.75
293.68	301.75
293.91	298.75
294.141	293.75
294.372	293.75
294.603	304.75
294.833	301.75
295.064	306.75
295.295	298.75
295.525	295.75
295.756	311.75
295.987	312.75
296.217	334.75
296.448	325.75
296.679	321.75
296.909	311.75
297.14	309.75
297.37	318.75
297.601	312.75
297.831	317.75
298.062	311.75
298.292	316.75
298.523	314.75
298.753	299.75
298.984	312.75
299.214	315.75
299.445	325.75
299.675	329.75
299.905	321.75
300.136	320.75
300.366	336.75
300.597	316.75
300.827	322.75
301.057	310.75
301.288	342.75
301.518	342.75
301.748	325.75
301.979	346.75
302.209	342.75
302.439	336.75
302.669	336.75
302.9	326.75
303.13	338.75
303.36	321.75
303.59	346.75
303.82	328.75
304.051	328.75
304.281	324.75
304.511	340.75
304.741	352.75
304.971	336.75
305.201	335.75
305.431	337.75
305.661	329.75
305.891	331.75
306.121	339.75
306.352	337.75
306.582	328.75
306.812	331.75
307.042	339.75
307.272	339.75
307.502	330.75
307.731	313.75
307.961	332.75
308.191	324.75
308.421	350.75
308.651	334.75
308.881	328.75
309.111	313.75
309.341	334.75
309.571	345.75
309.8	341.75
310.03	364.75
310.26	325.75
310.49	333.75
310.72	355.75
310.949	371.75
311.179	365.75
311.409	360.75
311.639	357.75
311.868	368.75
312.098	354.75
312.328	365.75
312.557	378.75
312.787	363.75
313.017	360.75
313.246	352.75
313.476	355.75
313.706	373.75
313.935	374.75
314.165	364.75
314.394	371.75
314.624	395.75
314.853	366.75
315.083	376.75
315.312	392.75
315.542	376.75
315.771	379.75
316.001	345.75
316.23	354.75
316.46	382.75
316.689	378.75
316.919	379.75
317.148	379.75
317.377	379.75
317.607	371.75
317.836	373.75
318.065	350.75
318.295	355.75
318.524	350.75
318.753	376.75
318.983	370.75
319.212	380.75
319.441	376.75
319.67	371.75
319.9	378.75
320.129	368.75
320.358	372.75
320.587	381.75
320.816	368.75
321.046	384.75
321.275	385.75
321.504	367.75
321.733	362.75
321.962	374.75
322.191	362.75
322.42	389.75
322.649	387.75
322.878	394.75
323.108	391.75
323.337	394.75
323.566	406.75
323.795	405.75
324.024	449.75
324.253	474.75
324.482	606.75
324.71	874.75
324.939	1211.75
325.168	1066.75
325.397	600.75
325.626	468.75
325.855	435.75
326.084	398.75
326.313	418.75
326.542	412.75
326.77	426.75
326.999	485.75
327.228	603.75
327.457	806.75
327.686	980.75
327.914	688.75
328.143	491.75
328.372	453.75
328.6	452.75
328.829	450.75
329.058	474.75
329.287	450.75
329.515	448.75
329.744	458.75
329.972	426.75
330.201	451.75
330.43	453.75
330.658	465.75
330.887	504.75
331.115	487.75
331.344	426.75
331.572	428.75
331.801	432.75
332.03	437.75
332.258	434.75
332.486	445.75
332.715	445.75
332.943	426.75
333.172	432.75
333.4	467.75
333.629	451.75
333.857	478.75
334.085	466.75
334.314	496.75
334.542	498.75
334.771	513.75
334.999	482.75
335.227	460.75
335.455	452.75
335.684	444.75
335.912	454.75
336.14	439.75
336.369	441.75
336.597	453.75
336.825	440.75
337.053	434.75
337.281	422.75
337.51	434.75
337.738	430.75
337.966	421.75
338.194	429.75
338.422	454.75
338.65	417.75
338.878	425.75
339.106	424.75
339.334	417.75
339.562	409.75
339.79	420.75
340.018	422.75
340.246	401.75
340.474	424.75
340.702	432.75
340.93	424.75
341.158	414.75
341.386	442.75
341.614	434.75
341.842	406.75
342.07	416.75
342.298	409.75
342.526	410.75
342.754	412.75
342.981	402.75
343.209	411.75
343.437	421.75
343.665	437.75
343.893	438.75
344.12	464.75
344.348	453.75
344.576	458.75
344.804	430.75
345.031	430.75
345.259	449.75
345.487	425.75
345.714	393.75
345.942	401.75
346.17	398.75
346.397	398.75
346.625	391.75
346.853	399.75
347.08	395.75
347.308	408.75
347.535	380.75
347.763	417.75
347.99	397.75
348.218	410.75
348.445	397.75
348.673	402.75
348.9	408.75
349.128	398.75
349.355	388.75
349.583	404.75
349.81	385.75
350.037	363.75
350.265	396.75
350.492	405.75
350.72	374.75
350.947	372.75
351.174	415.75
351.402	399.75
351.629	394.75
351.856	409.75
352.083	404.75
352.311	392.75
352.538	405.75
352.765	379.75
352.992	404.75
353.22	380.75
353.447	377.75
353.674	405.75
353.901	394.75
354.128	379.75
354.355	386.75
354.583	378.75
354.81	393.75
355.037	390.75
355.264	372.75
355.491	389.75
355.718	384.75
355.945	391.75
356.172	369.75
356.399	369.75
356.626	372.75
356.853	391.75
357.08	391.75
357.307	381.75
357.534	365.75
357.761	392.75
357.988	390.75
358.215	374.75
358.441	370.75
358.668	373.75
358.895	376.75
359.122	375.75
359.349	407.75
359.576	411.75
359.802	369.75
360.029	399.75
360.256	414.75
360.483	403.75
360.709	405.75
360.936	408.75
361.163	404.75
361.39	386.75
361.616	380.75
361.843	394.75
362.07	385.75
362.296	392.75
362.523	406.75
362.749	388.75
362.976	394.75
363.203	403.75
363.429	382.75
363.656	390.75
363.882	383.75
364.109	378.75
364.335	373.75
364.562	378.75
364.788	379.75
365.015	384.75
365.241	374.75
365.468	397.75
365.694	391.75
365.92	390.75
366.147	388.75
366.373	369.75
366.599	381.75
366.826	398.75
367.052	362.75
367.278	374.75
367.505	378.75
367.731	401.75
367.957	404.75
368.184	390.75
368.41	396.75
368.636	398.75
368.862	399.75
369.089	395.75
369.315	384.75
369.541	381.75
369.767	402.75
369.993	378.75
370.219	395.75
370.445	392.75
370.672	405.75
370.898	393.75
371.124	396.75
371.35	410.75
371.576	406.75
371.802	381.75
372.028	405.75
372.254	406.75
372.48	405.75
372.706	413.75
372.932	397.75
373.158	378.75
373.384	430.75
373.61	414.75
373.835	411.75
374.061	386.75
374.287	400.75
374.513	411.75
374.739	420.75
374.965	401.75
375.191	417.75
375.416	407.75
375.642	432.75
375.868	383.75
376.094	390.75
376.319	383.75
376.545	404.75
376.771	404.75
376.997	398.75
377.222	384.75
377.448	377.75
377.674	381.75
377.899	406.75
378.125	410.75
378.35	390.75
378.576	400.75
378.802	385.75
379.027	374.75
379.253	404.75
379.478	380.75
379.704	375.75
379.929	385.75
380.155	387.75
380.38	396.75
380.606	385.75
380.831	386.75
381.057	399.75
381.282	411.75
381.507	408.75
381.733	393.75
381.958	388.75
382.184	391.75
382.409	395.75
382.634	401.75
382.86	427.75
383.085	435.75
383.31	418.75
383.535	424.75
383.761	424.75
383.986	430.75
384.211	436.75
384.436	430.75
384.662	427.75
384.887	424.75
385.112	447.75
385.337	458.75
385.562	439.75
385.787	435.75
386.013	462.75
386.238	459.75
386.463	445.75
386.688	473.75
386.913	436.75
387.138	439.75
387.363	421.75
387.588	414.75
387.813	434.75
388.038	445.75
388.263	457.75
388.488	443.75
388.713	450.75
388.938	447.75
389.163	452.75
389.387	459.75
389.612	465.75
389.837	424.75
390.062	441.75
390.287	452.75
390.512	441.75
390.736	458.75
390.961	455.75
391.186	450.75
391.411	454.75
391.636	441.75
391.86	471.75
392.085	456.75
392.31	480.75
392.534	459.75
392.759	458.75
392.984	451.75
393.208	481.75
393.433	448.75
393.658	452.75
393.882	438.75
394.107	474.75
394.331	449.75
394.556	468.75
394.78	441.75
395.005	467.75
395.229	449.75
395.454	469.75
395.678	487.75
395.903	476.75
396.127	507.75
396.352	481.75
396.576	474.75
396.801	449.75
397.025	471.75
397.249	470.75
397.474	488.75
397.698	490.75
397.922	481.75
398.147	490.75
398.371	496.75
398.595	508.75
398.82	536.75
399.044	512.75
399.268	567.75
399.492	630.75
399.717	632.75
399.941	661.75
400.165	666.75
400.389	654.75
400.613	583.75
400.837	570.75
401.062	557.75
401.286	547.75
401.51	530.75
401.734	544.75
401.958	528.75
402.182	528.75
402.406	529.75
402.63	534.75
402.854	519.75
403.078	519.75
403.302	546.75
403.526	552.75
403.75	550.75
403.974	543.75
404.198	549.75
404.422	567.75
404.645	548.75
404.869	568.75
405.093	576.75
405.317	580.75
405.541	607.75
405.765	577.75
405.988	563.75
406.212	544.75
406.436	575.75
406.66	580.75
406.883	567.75
407.107	613.75
407.331	631.75
407.555	706.75
407.778	712.75
408.002	650.75
408.226	622.75
408.449	610.75
408.673	595.75
408.896	587.75
409.12	646.75
409.344	625.75
409.567	572.75
409.791	546.75
410.014	554.75
410.238	531.75
410.461	538.75
410.685	537.75
410.908	547.75
411.132	601.75
411.355	582.75
411.578	578.75
411.802	541.75
412.025	550.75
412.249	542.75
412.472	562.75
412.695	597.75
412.919	581.75
413.142	529.75
413.365	538.75
413.589	537.75
413.812	532.75
414.035	522.75
414.258	505.75
414.482	501.75
414.705	522.75
414.928	511.75
415.151	530.75
415.374	533.75
415.597	503.75
415.821	508.75
416.044	505.75
416.267	505.75
416.49	522.75
416.713	511.75
416.936	492.75
417.159	530.75
417.382	504.75
417.605	517.75
417.828	512.75
418.051	537.75
418.274	502.75
418.497	517.75
418.72	504.75
418.943	507.75
419.166	538.75
419.389	556.75
419.611	568.75
419.834	533.75
420.057	551.75
420.28	555.75
420.503	532.75
420.726	532.75
420.948	516.75
421.171	573.75
421.394	567.75
421.617	532.75
421.839	534.75
422.062	518.75
422.285	522.75
422.507	555.75
422.73	645.75
422.953	606.75
423.175	567.75
423.398	544.75
423.621	548.75
423.843	584.75
424.066	548.75
424.288	550.75
424.511	557.75
424.733	607.75
424.956	677.75
425.178	639.75
425.401	644.75
425.623	664.75
425.846	568.75
426.068	526.75
426.291	541.75
426.513	546.75
426.735	530.75
426.958	568.75
427.18	629.75
427.402	740.75
427.625	786.75
427.847	663.75
428.069	590.75
428.292	552.75
428.514	530.75
428.736	504.75
428.958	471.75
429.181	476.75
429.403	502.75
429.625	495.75
429.847	489.75
430.069	571.75
430.292	581.75
430.514	500.75
430.736	513.75
430.958	478.75
431.18	486.75
431.402	489.75
431.624	483.75
431.846	474.75
432.068	477.75
432.29	475.75
432.512	476.75
432.734	482.75
432.956	488.75
433.178	486.75
433.4	498.75
433.622	492.75
433.844	476.75
434.066	491.75
434.287	480.75
434.509	486.75
434.731	514.75
434.953	520.75
435.175	529.75
435.397	546.75
435.618	547.75
435.84	569.75
436.062	609.75
436.284	646.75
436.505	548.75
436.727	500.75
436.949	517.75
437.17	491.75
437.392	498.75
437.614	506.75
437.835	520.75
438.057	599.75
438.278	660.75
438.5	635.75
438.721	725.75
438.943	698.75
439.165	572.75
439.386	523.75
439.608	539.75
439.829	515.75
440.05	545.75
440.272	560.75
440.493	534.75
440.715	509.75
440.936	511.75
441.158	497.75
441.379	509.75
441.6	520.75
441.822	539.75
442.043	562.75
442.264	616.75
442.486	649.75
442.707	566.75
442.928	554.75
443.149	555.75
443.371	557.75
443.592	600.75
443.813	658.75
444.034	713.75
444.255	603.75
444.476	589.75
444.698	556.75
444.919	566.75
445.14	660.75
445.361	601.75
445.582	566.75
445.803	601.75
446.024	664.75
446.245	672.75
446.466	633.75
446.687	516.75
446.908	527.75
447.129	492.75
447.35	492.75
447.571	507.75
447.792	491.75
448.013	483.75
448.234	488.75
448.455	508.75
448.675	627.75
448.896	714.75
449.117	601.75
449.338	557.75
449.559	656.75
449.779	750.75
450	576.75
450.221	514.75
450.442	483.75
450.662	476.75
450.883	443.75
451.104	454.75
451.324	453.75
451.545	453.75
451.766	470.75
451.986	435.75
452.207	435.75
452.428	427.75
452.648	438.75
452.869	424.75
453.089	445.75
453.31	440.75
453.53	464.75
453.751	438.75
453.971	433.75
454.192	439.75
454.412	444.75
454.633	419.75
454.853	434.75
455.073	438.75
455.294	446.75
455.514	496.75
455.734	481.75
455.955	414.75
456.175	427.75
456.395	440.75
456.616	428.75
456.836	399.75
457.056	421.75
457.276	408.75
457.497	412.75
457.717	408.75
457.937	428.75
458.157	428.75
458.377	421.75
458.598	455.75
458.818	466.75
459.038	511.75
459.258	545.75
459.478	497.75
459.698	492.75
459.918	481.75
460.138	458.75
460.358	508.75
460.578	498.75
460.798	515.75
461.018	525.75
461.238	528.75
461.458	508.75
461.678	515.75
461.898	537.75
462.118	500.75
462.338	523.75
462.558	553.75
462.777	560.75
462.997	578.75
463.217	597.75
463.437	588.75
463.657	574.75
463.876	566.75
464.096	598.75
464.316	579.75
464.536	573.75
464.755	579.75
464.975	532.75
465.195	537.75
465.414	562.75
465.634	527.75
465.854	498.75
466.073	489.75
466.293	479.75
466.512	478.75
466.732	460.75
466.951	453.75
467.171	463.75
467.391	472.75
467.61	482.75
467.829	464.75
468.049	458.75
468.268	461.75
468.488	442.75
468.707	460.75
468.927	478.75
469.146	443.75
469.365	450.75
469.585	440.75
469.804	469.75
470.023	472.75
470.243	432.75
470.462	470.75
470.681	471.75
470.901	463.75
471.12	477.75
471.339	477.75
471.558	438.75
471.777	483.75
471.997	450.75
472.216	456.75
472.435	459.75
472.654	447.75
472.873	448.75
473.092	450.75
473.311	458.75
473.53	454.75
473.749	472.75
473.968	479.75
474.187	570.75
474.406	547.75
474.625	477.75
474.844	486.75
475.063	474.75
475.282	462.75
475.501	454.75
475.72	453.75
475.939	462.75
476.158	486.75
476.377	488.75
476.596	462.75
476.814	465.75
477.033	509.75
477.252	507.75
477.471	506.75
477.69	495.75
477.908	524.75
478.127	535.75
478.346	527.75
478.564	549.75
478.783	536.75
479.002	550.75
479.22	527.75
479.439	568.75
479.658	539.75
479.876	564.75
480.095	560.75
480.313	598.75
480.532	589.75
480.751	592.75
480.969	590.75
481.188	620.75
481.406	595.75
481.624	553.75
481.843	543.75
482.061	539.75
482.28	539.75
482.498	544.75
482.717	522.75
482.935	544.75
483.153	514.75
483.372	520.75
483.59	522.75
483.808	532.75
484.027	533.75
484.245	538.75
484.463	541.75
484.681	550.75
484.9	562.75
485.118	552.75
485.336	553.75
485.554	514.75
485.772	539.75
485.99	545.75
486.209	522.75
486.427	547.75
486.645	560.75
486.863	551.75
487.081	585.75
487.299	575.75
487.517	572.75
487.735	565.75
487.953	550.75
488.171	575.75
488.389	581.75
488.607	557.75
488.825	564.75
489.043	587.75
489.261	590.75
489.479	588.75
489.696	589.75
489.914	563.75
490.132	559.75
490.35	576.75
490.568	596.75
490.786	605.75
491.003	597.75
491.221	598.75
491.439	622.75
491.657	630.75
491.874	632.75
492.092	650.75
492.31	620.75
492.527	648.75
492.745	646.75
492.963	632.75
493.18	657.75
493.398	624.75
493.615	660.75
493.833	660.75
494.05	639.75
494.268	659.75
494.485	643.75
494.703	646.75
494.92	646.75
495.138	653.75
495.355	679.75
495.573	670.75
495.79	635.75
496.008	680.75
496.225	650.75
496.442	658.75
496.66	666.75
496.877	664.75
497.094	676.75
497.312	686.75
497.529	697.75
497.746	681.75
497.963	719.75
498.181	735.75
498.398	747.75
498.615	785.75
498.832	792.75
499.049	837.75
499.267	864.75
499.484	898.75
499.701	955.75
499.918	988.75
500.135	1093.75
500.352	1170.75
500.569	1199.75
500.786	1180.75
501.003	1171.75
501.22	1094.75
501.437	1039.75
501.654	972.75
501.871	930.75
502.088	862.75
502.305	841.75
502.522	823.75
502.739	784.75
502.956	741.75
503.172	758.75
503.389	732.75
503.606	701.75
503.823	682.75
504.04	698.75
504.256	680.75
504.473	698.75
504.69	704.75
504.907	710.75
505.123	675.75
505.34	638.75
505.557	614.75
505.773	613.75
505.99	639.75
506.207	600.75
506.423	622.75
506.64	619.75
506.856	583.75
507.073	590.75
507.289	598.75
507.506	588.75
507.722	594.75
507.939	601.75
508.155	574.75
508.372	591.75
508.588	572.75
508.805	572.75
509.021	561.75
509.238	593.75
509.454	569.75
509.67	573.75
509.887	561.75
510.103	554.75
510.319	560.75
510.536	617.75
510.752	797.75
510.968	686.75
511.184	548.75
511.401	541.75
511.617	540.75
511.833	538.75
512.049	553.75
512.265	557.75
512.481	525.75
512.698	528.75
512.914	533.75
513.13	545.75
513.346	521.75
513.562	532.75
513.778	550.75
513.994	534.75
514.21	529.75
514.426	532.75
514.642	571.75
514.858	585.75
515.074	598.75
515.29	627.75
515.506	794.75
515.721	712.75
515.937	587.75
516.153	573.75
516.369	566.75
516.585	596.75
516.801	585.75
517.016	578.75
517.232	616.75
517.448	596.75
517.664	606.75
517.879	623.75
518.095	621.75
518.311	627.75
518.527	630.75
518.742	616.75
518.958	592.75
519.173	571.75
519.389	551.75
519.605	569.75
519.82	560.75
520.036	564.75
520.251	557.75
520.467	570.75
520.682	558.75
520.898	539.75
521.113	548.75
521.329	586.75
521.544	589.75
521.76	668.75
521.975	900.75
522.19	895.75
522.406	593.75
522.621	541.75
522.836	534.75
523.052	525.75
523.267	513.75
523.482	505.75
523.698	494.75
523.913	482.75
524.128	483.75
524.343	493.75
524.559	476.75
524.774	470.75
524.989	475.75
525.204	480.75
525.419	465.75
525.634	481.75
525.849	473.75
526.064	452.75
526.28	464.75
526.495	468.75
526.71	466.75
526.925	487.75
527.14	461.75
527.355	469.75
527.57	465.75
527.785	483.75
527.999	457.75
528.214	448.75
528.429	482.75
528.644	478.75
528.859	470.75
529.074	452.75
529.289	481.75
529.503	497.75
529.718	500.75
529.933	462.75
530.148	450.75
530.363	468.75
530.577	450.75
530.792	450.75
531.007	467.75
531.221	471.75
531.436	456.75
531.651	449.75
531.865	440.75
532.08	470.75
532.295	462.75
532.509	457.75
532.724	452.75
532.938	472.75
533.153	462.75
533.367	450.75
533.582	470.75
533.796	438.75
534.011	445.75
534.225	456.75
534.44	441.75
534.654	451.75
534.868	435.75
535.083	450.75
535.297	433.75
535.511	451.75
535.726	466.75
535.94	454.75
536.154	424.75
536.369	451.75
536.583	462.75
536.797	441.75
537.011	446.75
537.225	423.75
537.44	426.75
537.654	446.75
537.868	432.75
538.082	450.75
538.296	446.75
538.51	432.75
538.724	417.75
538.938	437.75
539.153	445.75
539.367	435.75
539.581	446.75
539.795	419.75
540.009	422.75
540.222	436.75
540.436	444.75
540.65	428.75
540.864	428.75
541.078	436.75
541.292	455.75
541.506	437.75
541.72	433.75
541.934	441.75
542.147	432.75
542.361	438.75
542.575	432.75
542.789	450.75
543.002	418.75
543.216	437.75
543.43	428.75
543.644	434.75
543.857	450.75
544.071	435.75
544.285	413.75
544.498	436.75
544.712	427.75
544.925	427.75
545.139	447.75
545.352	421.75
545.566	427.75
545.779	430.75
545.993	449.75
546.206	455.75
546.42	440.75
546.633	448.75
546.847	423.75
547.06	442.75
547.274	444.75
547.487	429.75
547.7	446.75
547.914	454.75
548.127	437.75
548.34	421.75
548.554	445.75
548.767	450.75
548.98	432.75
549.193	443.75
549.407	438.75
549.62	425.75
549.833	440.75
550.046	432.75
550.259	439.75
550.473	445.75
550.686	434.75
550.899	427.75
551.112	415.75
551.325	420.75
551.538	418.75
551.751	429.75
551.964	415.75
552.177	424.75
552.39	419.75
552.603	453.75
552.816	452.75
553.029	445.75
553.242	458.75
553.455	460.75
553.667	461.75
553.88	458.75
554.093	444.75
554.306	426.75
554.519	426.75
554.732	430.75
554.944	420.75
555.157	435.75
555.37	411.75
555.583	418.75
555.795	394.75
556.008	404.75
556.221	401.75
556.433	397.75
556.646	406.75
556.859	407.75
557.071	392.75
557.284	386.75
557.496	382.75
557.709	380.75
557.921	402.75
558.134	398.75
558.346	376.75
558.559	381.75
558.771	382.75
558.984	389.75
559.196	372.75
559.409	375.75
559.621	383.75
559.833	377.75
560.046	371.75
560.258	378.75
560.47	388.75
560.683	379.75
560.895	385.75
561.107	401.75
561.32	389.75
561.532	385.75
561.744	377.75
561.956	398.75
562.168	386.75
562.381	390.75
562.593	394.75
562.805	396.75
563.017	395.75
563.229	383.75
563.441	386.75
563.653	393.75
563.865	376.75
564.077	376.75
564.289	380.75
564.501	391.75
564.713	410.75
564.925	404.75
565.137	409.75
565.349	410.75
565.561	422.75
565.773	424.75
565.985	450.75
566.197	453.75
566.408	467.75
566.62	529.75
566.832	523.75
567.044	541.75
567.255	540.75
567.467	544.75
567.679	571.75
567.891	577.75
568.102	573.75
568.314	566.75
568.526	524.75
568.737	514.75
568.949	485.75
569.161	436.75
569.372	421.75
569.584	434.75
569.795	409.75
570.007	408.75
570.218	406.75
570.43	425.75
570.641	393.75
570.853	393.75
571.064	396.75
571.276	393.75
571.487	388.75
571.698	377.75
571.91	370.75
572.121	374.75
572.333	366.75
572.544	341.75
572.755	348.75
572.966	360.75
573.178	358.75
573.389	352.75
573.6	339.75
573.811	331.75
574.023	326.75
574.234	345.75
574.445	358.75
574.656	329.75
574.867	333.75
575.078	348.75
575.289	315.75
575.501	340.75
575.712	329.75
575.923	320.75
576.134	342.75
576.345	314.75
576.556	323.75
576.767	328.75
576.978	323.75
577.188	339.75
577.399	328.75
577.61	323.75
577.821	326.75
578.032	321.75
578.243	346.75
578.454	384.75
578.665	353.75
578.875	314.75
579.086	304.75
579.297	316.75
579.508	301.75
579.718	320.75
579.929	310.75
580.14	312.75
580.35	287.75
580.561	283.75
580.772	312.75
580.982	313.75
581.193	312.75
581.403	313.75
581.614	296.75
581.825	288.75
582.035	289.75
582.246	320.75
582.456	306.75
582.667	304.75
582.877	294.75
583.087	313.75
583.298	307.75
583.508	290.75
583.719	295.75
583.929	295.75
584.139	306.75
584.35	298.75
584.56	309.75
584.77	295.75
584.981	304.75
585.191	296.75
585.401	279.75
585.611	290.75
585.821	306.75
586.032	309.75
586.242	300.75
586.452	304.75
586.662	293.75
586.872	280.75
587.082	284.75
587.292	290.75
587.502	288.75
587.713	277.75
587.923	300.75
588.133	278.75
588.343	312.75
588.553	299.75
588.762	287.75
588.972	314.75
589.182	301.75
589.392	304.75
589.602	290.75
589.812	317.75
590.022	315.75
590.232	288.75
590.441	312.75
590.651	323.75
590.861	304.75
591.071	284.75
591.281	296.75
591.49	312.75
591.7	321.75
591.91	315.75
592.119	324.75
592.329	330.75
592.539	313.75
592.748	332.75
592.958	323.75
593.167	333.75
593.377	334.75
593.587	344.75
593.796	344.75
594.006	334.75
594.215	345.75
594.424	355.75
594.634	339.75
594.843	337.75
595.053	328.75
595.262	312.75
595.472	301.75
595.681	309.75
595.89	282.75
596.1	300.75
596.309	291.75
596.518	296.75
596.727	288.75
596.937	309.75
597.146	268.75
597.355	286.75
597.564	285.75
597.774	291.75
597.983	287.75
598.192	276.75
598.401	292.75
598.61	275.75
598.819	269.75
599.028	281.75
599.237	266.75
599.446	276.75
599.655	258.75
599.864	266.75
600.073	259.75
600.282	263.75
600.491	251.75
600.7	248.75
600.909	252.75
601.118	247.75
601.327	259.75
601.536	249.75
601.745	254.75
601.953	267.75
602.162	276.75
602.371	259.75
602.58	245.75
602.789	258.75
602.997	242.75
603.206	255.75
603.415	252.75
603.623	254.75
603.832	249.75
604.041	249.75
604.249	241.75
604.458	251.75
604.666	256.75
604.875	257.75
605.084	261.75
605.292	253.75
605.501	259.75
605.709	244.75
605.918	258.75
606.126	277.75
606.334	250.75
606.543	257.75
606.751	262.75
606.96	257.75
607.168	249.75
607.376	241.75
607.585	238.75
607.793	242.75
608.001	231.75
608.21	256.75
608.418	242.75
608.626	252.75
608.834	249.75
609.043	251.75
609.251	250.75
609.459	246.75
609.667	259.75
609.875	258.75
610.083	241.75
610.291	235.75
610.499	246.75
610.707	243.75
610.916	254.75
611.124	258.75
611.332	266.75
611.54	248.75
611.748	238.75
611.955	241.75
612.163	244.75
612.371	257.75
612.579	249.75
612.787	263.75
612.995	243.75
613.203	256.75
613.411	238.75
613.618	238.75
613.826	234.75
614.034	248.75
614.242	241.75
614.449	252.75
614.657	256.75
614.865	251.75
615.072	234.75
615.28	232.75
615.488	243.75
615.695	243.75
615.903	248.75
616.111	251.75
616.318	259.75
616.526	254.75
616.733	245.75
616.941	246.75
617.148	258.75
617.356	220.75
617.563	253.75
617.771	237.75
617.978	250.75
618.185	246.75
618.393	231.75
618.6	233.75
618.807	252.75
619.015	245.75
619.222	242.75
619.429	232.75
619.637	229.75
619.844	229.75
620.051	226.75
620.258	234.75
620.466	236.75
620.673	233.75
620.88	216.75
621.087	220.75
621.294	223.75
621.501	233.75
621.708	228.75
621.915	215.75
622.122	224.75
622.329	222.75
622.536	218.75
622.743	219.75
622.95	219.75
623.157	221.75
623.364	236.75
623.571	216.75
623.778	203.75
623.985	220.75
624.192	209.75
624.399	215.75
624.606	219.75
624.812	196.75
625.019	212.75
625.226	213.75
625.433	219.75
625.639	221.75
625.846	200.75
626.053	214.75
626.259	219.75
626.466	212.75
626.673	207.75
626.879	193.75
627.086	193.75
627.293	189.75
627.499	209.75
627.706	208.75
627.912	213.75
628.119	212.75
628.325	225.75
628.532	216.75
628.738	224.75
628.945	213.75
629.151	210.75
629.357	210.75
629.564	203.75
629.77	206.75
629.976	201.75
630.183	205.75
630.389	183.75
630.595	207.75
630.802	192.75
631.008	199.75
631.214	198.75
631.42	202.75
631.627	218.75
631.833	222.75
632.039	194.75
632.245	198.75
632.451	193.75
632.657	203.75
632.863	195.75
633.069	211.75
633.275	208.75
633.481	180.75
633.688	191.75
633.893	186.75
634.099	186.75
634.305	180.75
634.511	190.75
634.717	197.75
634.923	182.75
635.129	200.75
635.335	181.75
635.541	174.75
635.747	184.75
635.952	167.75
636.158	183.75
636.364	194.75
636.57	176.75
636.775	196.75
636.981	192.75
637.187	176.75
637.392	184.75
637.598	186.75
637.804	187.75
638.009	180.75
638.215	202.75
638.421	191.75
638.626	183.75
638.832	173.75
639.037	178.75
639.243	166.75
639.448	168.75
639.654	194.75
639.859	176.75
640.065	175.75
640.27	187.75
640.475	167.75
640.681	186.75
640.886	172.75
641.091	171.75
641.297	169.75
641.502	169.75
641.707	181.75
641.913	181.75
642.118	167.75
642.323	184.75
642.528	157.75
642.733	170.75
642.939	164.75
643.144	160.75
643.349	171.75
643.554	181.75
643.759	182.75
643.964	167.75
644.169	178.75
644.374	177.75
644.579	184.75
644.784	185.75
644.989	188.75
645.194	180.75
645.399	161.75
645.604	166.75
645.809	146.75
646.014	149.75
646.219	171.75
646.423	166.75
646.628	171.75
646.833	164.75
647.038	181.75
647.243	167.75
647.447	189.75
647.652	182.75
647.857	182.75
648.062	185.75
648.266	170.75
648.471	165.75
648.676	185.75
648.88	180.75
649.085	174.75
649.289	173.75
649.494	188.75
649.698	164.75
649.903	188.75
650.107	169.75
650.312	171.75
650.516	169.75
650.721	158.75
650.925	142.75
651.13	144.75
651.334	151.75
651.539	146.75
651.743	156.75
651.947	153.75
652.152	153.75
652.356	153.75
652.56	155.75
652.764	151.75
652.969	154.75
653.173	153.75
653.377	142.75
653.581	141.75
653.785	146.75
653.99	138.75
654.194	137.75
654.398	140.75
654.602	144.75
654.806	138.75
655.01	147.75
655.214	134.75
655.418	141.75
655.622	149.75
655.826	129.75
656.03	148.75
656.234	142.75
656.438	149.75
656.642	133.75
656.846	159.75
657.049	140.75
657.253	124.75
657.457	128.75
657.661	114.75
657.865	116.75
658.068	109.75
658.272	107.75
658.476	114.75
658.68	104.75
658.883	103.75
659.087	103.75
659.291	108.75
659.494	94.75
659.698	95.75
659.901	97.75
660.105	92.75
660.309	105.75
660.512	84.75
660.716	88.75
660.919	73.75
661.123	82.75
661.326	85.75
661.53	94.75
661.733	87.75
661.936	87.75
662.14	83.75
662.343	93.75
662.546	96.75
662.75	77.75
662.953	85.75
663.156	85.75
663.36	90.75
663.563	78.75
663.766	76.75
663.969	94.75
664.173	85.75
664.376	69.75
664.579	85.75
664.782	75.75
664.985	85.75
665.188	86.75
665.391	89.75
665.594	82.75
665.797	77.75
666	84.75
666.203	79.75
666.406	80.75
666.609	79.75
666.812	84.75
667.015	78.75
667.218	74.75
667.421	86.75
667.624	91.75
667.827	90.75
668.03	89.75
668.232	96.75
668.435	88.75
668.638	75.75
668.841	83.75
669.043	80.75
669.246	97.75
669.449	83.75
669.651	80.75
669.854	90.75
670.057	79.75
670.259	65.75
670.462	95.75
670.665	79.75
670.867	73.75
671.07	92.75
671.272	84.75
671.475	80.75
671.677	88.75
671.88	79.75
672.082	68.75
672.284	75.75
672.487	81.75
672.689	81.75
672.892	82.75
