Data from 1973.PennyLincolnUp.Lamp.En5.5.200Scan.071719.P1.Changed Mount._HRD10591_15-43-57-852.txt Node
Date: Thu Jul 18 15:43:57 EDT 2019
User: cochatt
Spectrometer: HR+D1059
Trigger mode: 1
Integration Time (sec): 1.000000E-1
Scans to average: 1
Electric dark correction enabled: true
Nonlinearity correction enabled: false
Boxcar width: 0
XAxis mode: Wavelengths
Number of Pixels in Spectrum: 2048
>>>>>Begin Spectral Data<<<<<
223.165	-16.75
223.4	-16.75
223.635	-16.75
223.869	-11.75
224.104	-23.75
224.338	-19.75
224.573	-4.75
224.808	-5.75
225.042	-17.75
225.277	-2.75
225.511	-0.75
225.746	3.25
225.98	17.25
226.215	7.25
226.449	-2.75
226.683	23.25
226.918	22.25
227.152	33.25
227.387	28.25
227.621	22.25
227.856	51.25
228.09	44.25
228.324	59.25
228.559	54.25
228.793	63.25
229.027	95.25
229.262	93.25
229.496	112.25
229.73	131.25
229.964	135.25
230.199	123.25
230.433	102.25
230.667	105.25
230.901	102.25
231.136	114.25
231.37	112.25
231.604	119.25
231.838	118.25
232.072	104.25
232.306	112.25
232.541	108.25
232.775	109.25
233.009	115.25
233.243	104.25
233.477	111.25
233.711	123.25
233.945	135.25
234.179	127.25
234.413	93.25
234.647	119.25
234.881	120.25
235.115	132.25
235.349	125.25
235.583	124.25
235.817	117.25
236.051	127.25
236.285	117.25
236.519	111.25
236.753	131.25
236.987	134.25
237.221	152.25
237.455	208.25
237.689	151.25
237.922	122.25
238.156	119.25
238.39	136.25
238.624	129.25
238.858	107.25
239.091	117.25
239.325	125.25
239.559	112.25
239.793	129.25
240.027	126.25
240.26	140.25
240.494	141.25
240.728	155.25
240.961	133.25
241.195	129.25
241.429	148.25
241.662	136.25
241.896	126.25
242.13	151.25
242.363	145.25
242.597	123.25
242.83	141.25
243.064	134.25
243.298	146.25
243.531	145.25
243.765	145.25
243.998	139.25
244.232	143.25
244.465	135.25
244.699	145.25
244.932	150.25
245.166	147.25
245.399	150.25
245.633	155.25
245.866	133.25
246.099	152.25
246.333	155.25
246.566	159.25
246.8	155.25
247.033	170.25
247.266	149.25
247.5	160.25
247.733	166.25
247.966	165.25
248.2	172.25
248.433	168.25
248.666	157.25
248.899	174.25
249.133	187.25
249.366	203.25
249.599	189.25
249.832	183.25
250.066	175.25
250.299	177.25
250.532	181.25
250.765	192.25
250.998	210.25
251.231	212.25
251.465	190.25
251.698	209.25
251.931	195.25
252.164	189.25
252.397	187.25
252.63	202.25
252.863	187.25
253.096	202.25
253.329	205.25
253.562	201.25
253.795	201.25
254.028	205.25
254.261	213.25
254.494	216.25
254.727	227.25
254.96	253.25
255.193	236.25
255.426	234.25
255.659	221.25
255.892	221.25
256.124	229.25
256.357	219.25
256.59	195.25
256.823	208.25
257.056	203.25
257.289	209.25
257.521	224.25
257.754	226.25
257.987	201.25
258.22	220.25
258.452	188.25
258.685	189.25
258.918	200.25
259.151	212.25
259.383	218.25
259.616	225.25
259.849	220.25
260.081	232.25
260.314	246.25
260.547	232.25
260.779	218.25
261.012	239.25
261.244	218.25
261.477	228.25
261.71	221.25
261.942	230.25
262.175	228.25
262.407	223.25
262.64	221.25
262.872	219.25
263.105	215.25
263.337	214.25
263.57	201.25
263.802	219.25
264.035	224.25
264.267	210.25
264.499	202.25
264.732	209.25
264.964	230.25
265.197	221.25
265.429	220.25
265.661	223.25
265.894	212.25
266.126	236.25
266.358	218.25
266.591	214.25
266.823	233.25
267.055	234.25
267.287	230.25
267.52	215.25
267.752	227.25
267.984	237.25
268.216	256.25
268.448	239.25
268.681	239.25
268.913	252.25
269.145	273.25
269.377	266.25
269.609	270.25
269.841	262.25
270.073	260.25
270.306	289.25
270.538	311.25
270.77	315.25
271.002	294.25
271.234	283.25
271.466	289.25
271.698	309.25
271.93	289.25
272.162	309.25
272.394	304.25
272.626	302.25
272.858	283.25
273.09	290.25
273.322	254.25
273.553	280.25
273.785	273.25
274.017	251.25
274.249	275.25
274.481	283.25
274.713	258.25
274.945	255.25
275.176	248.25
275.408	265.25
275.64	279.25
275.872	265.25
276.104	291.25
276.335	273.25
276.567	271.25
276.799	264.25
277.031	306.25
277.262	315.25
277.494	329.25
277.726	299.25
277.957	289.25
278.189	290.25
278.421	278.25
278.652	264.25
278.884	260.25
279.115	281.25
279.347	278.25
279.579	262.25
279.81	293.25
280.042	288.25
280.273	306.25
280.505	287.25
280.736	284.25
280.968	300.25
281.199	291.25
281.431	272.25
281.662	293.25
281.894	280.25
282.125	286.25
282.356	290.25
282.588	305.25
282.819	292.25
283.051	294.25
283.282	297.25
283.513	297.25
283.745	299.25
283.976	302.25
284.207	303.25
284.439	313.25
284.67	294.25
284.901	295.25
285.132	292.25
285.364	316.25
285.595	321.25
285.826	297.25
286.057	300.25
286.288	297.25
286.52	316.25
286.751	303.25
286.982	294.25
287.213	305.25
287.444	301.25
287.675	308.25
287.906	314.25
288.138	310.25
288.369	314.25
288.6	322.25
288.831	337.25
289.062	327.25
289.293	301.25
289.524	324.25
289.755	302.25
289.986	307.25
290.217	293.25
290.448	314.25
290.679	307.25
290.91	313.25
291.141	308.25
291.371	307.25
291.602	290.25
291.833	306.25
292.064	308.25
292.295	311.25
292.526	300.25
292.757	325.25
292.987	312.25
293.218	304.25
293.449	319.25
293.68	308.25
293.91	313.25
294.141	315.25
294.372	300.25
294.603	319.25
294.833	323.25
295.064	329.25
295.295	325.25
295.525	315.25
295.756	315.25
295.987	325.25
296.217	339.25
296.448	335.25
296.679	326.25
296.909	330.25
297.14	329.25
297.37	327.25
297.601	320.25
297.831	328.25
298.062	325.25
298.292	343.25
298.523	330.25
298.753	321.25
298.984	339.25
299.214	351.25
299.445	332.25
299.675	322.25
299.905	334.25
300.136	329.25
300.366	324.25
300.597	331.25
300.827	367.25
301.057	341.25
301.288	359.25
301.518	368.25
301.748	334.25
301.979	348.25
302.209	360.25
302.439	344.25
302.669	343.25
302.9	353.25
303.13	362.25
303.36	354.25
303.59	345.25
303.82	339.25
304.051	368.25
304.281	357.25
304.511	353.25
304.741	353.25
304.971	322.25
305.201	368.25
305.431	345.25
305.661	340.25
305.891	357.25
306.121	346.25
306.352	363.25
306.582	351.25
306.812	350.25
307.042	330.25
307.272	337.25
307.502	347.25
307.731	339.25
307.961	352.25
308.191	364.25
308.421	333.25
308.651	376.25
308.881	337.25
309.111	353.25
309.341	367.25
309.571	372.25
309.8	354.25
310.03	367.25
310.26	377.25
310.49	379.25
310.72	371.25
310.949	376.25
311.179	399.25
311.409	387.25
311.639	372.25
311.868	379.25
312.098	397.25
312.328	379.25
312.557	383.25
312.787	386.25
313.017	393.25
313.246	379.25
313.476	372.25
313.706	370.25
313.935	394.25
314.165	392.25
314.394	399.25
314.624	417.25
314.853	414.25
315.083	379.25
315.312	390.25
315.542	387.25
315.771	401.25
316.001	387.25
316.23	390.25
316.46	388.25
316.689	387.25
316.919	394.25
317.148	391.25
317.377	402.25
317.607	387.25
317.836	375.25
318.065	379.25
318.295	381.25
318.524	392.25
318.753	396.25
318.983	396.25
319.212	388.25
319.441	391.25
319.67	384.25
319.9	395.25
320.129	391.25
320.358	374.25
320.587	381.25
320.816	392.25
321.046	393.25
321.275	390.25
321.504	417.25
321.733	385.25
321.962	380.25
322.191	403.25
322.42	423.25
322.649	427.25
322.878	431.25
323.108	420.25
323.337	425.25
323.566	436.25
323.795	445.25
324.024	488.25
324.253	553.25
324.482	717.25
324.71	1044.25
324.939	1437.25
325.168	1267.25
325.397	691.25
325.626	531.25
325.855	489.25
326.084	459.25
326.313	425.25
326.542	450.25
326.77	467.25
326.999	550.25
327.228	677.25
327.457	943.25
327.686	1131.25
327.914	804.25
328.143	561.25
328.372	544.25
328.6	525.25
328.829	491.25
329.058	487.25
329.287	520.25
329.515	463.25
329.744	455.25
329.972	477.25
330.201	485.25
330.43	482.25
330.658	507.25
330.887	517.25
331.115	539.25
331.344	456.25
331.572	487.25
331.801	499.25
332.03	465.25
332.258	440.25
332.486	451.25
332.715	435.25
332.943	448.25
333.172	475.25
333.4	495.25
333.629	515.25
333.857	522.25
334.085	509.25
334.314	520.25
334.542	525.25
334.771	514.25
334.999	509.25
335.227	500.25
335.455	475.25
335.684	479.25
335.912	450.25
336.14	476.25
336.369	466.25
336.597	469.25
336.825	467.25
337.053	459.25
337.281	467.25
337.51	442.25
337.738	432.25
337.966	448.25
338.194	459.25
338.422	443.25
338.65	442.25
338.878	432.25
339.106	433.25
339.334	449.25
339.562	452.25
339.79	427.25
340.018	442.25
340.246	428.25
340.474	452.25
340.702	410.25
340.93	417.25
341.158	440.25
341.386	440.25
341.614	443.25
341.842	449.25
342.07	427.25
342.298	447.25
342.526	452.25
342.754	437.25
342.981	418.25
343.209	411.25
343.437	426.25
343.665	462.25
343.893	474.25
344.12	487.25
344.348	472.25
344.576	458.25
344.804	459.25
345.031	457.25
345.259	439.25
345.487	447.25
345.714	429.25
345.942	426.25
346.17	440.25
346.397	423.25
346.625	398.25
346.853	415.25
347.08	418.25
347.308	407.25
347.535	438.25
347.763	422.25
347.99	421.25
348.218	429.25
348.445	427.25
348.673	450.25
348.9	425.25
349.128	404.25
349.355	401.25
349.583	394.25
349.81	401.25
350.037	400.25
350.265	402.25
350.492	410.25
350.72	406.25
350.947	406.25
351.174	400.25
351.402	402.25
351.629	420.25
351.856	404.25
352.083	397.25
352.311	423.25
352.538	416.25
352.765	402.25
352.992	404.25
353.22	405.25
353.447	415.25
353.674	394.25
353.901	404.25
354.128	396.25
354.355	400.25
354.583	381.25
354.81	385.25
355.037	413.25
355.264	413.25
355.491	398.25
355.718	383.25
355.945	397.25
356.172	400.25
356.399	403.25
356.626	400.25
356.853	400.25
357.08	397.25
357.307	397.25
357.534	396.25
357.761	392.25
357.988	393.25
358.215	403.25
358.441	405.25
358.668	394.25
358.895	396.25
359.122	397.25
359.349	409.25
359.576	423.25
359.802	420.25
360.029	443.25
360.256	459.25
360.483	448.25
360.709	400.25
360.936	397.25
361.163	404.25
361.39	409.25
361.616	395.25
361.843	408.25
362.07	417.25
362.296	404.25
362.523	402.25
362.749	401.25
362.976	407.25
363.203	421.25
363.429	379.25
363.656	397.25
363.882	397.25
364.109	384.25
364.335	378.25
364.562	409.25
364.788	387.25
365.015	414.25
365.241	383.25
365.468	410.25
365.694	395.25
365.92	381.25
366.147	415.25
366.373	403.25
366.599	423.25
366.826	409.25
367.052	386.25
367.278	380.25
367.505	392.25
367.731	397.25
367.957	401.25
368.184	407.25
368.41	399.25
368.636	389.25
368.862	413.25
369.089	405.25
369.315	390.25
369.541	416.25
369.767	422.25
369.993	380.25
370.219	404.25
370.445	400.25
370.672	393.25
370.898	409.25
371.124	412.25
371.35	407.25
371.576	408.25
371.802	424.25
372.028	406.25
372.254	424.25
372.48	430.25
372.706	431.25
372.932	403.25
373.158	392.25
373.384	409.25
373.61	424.25
373.835	405.25
374.061	417.25
374.287	415.25
374.513	425.25
374.739	409.25
374.965	426.25
375.191	434.25
375.416	405.25
375.642	441.25
375.868	435.25
376.094	423.25
376.319	406.25
376.545	389.25
376.771	409.25
376.997	397.25
377.222	412.25
377.448	419.25
377.674	409.25
377.899	401.25
378.125	411.25
378.35	401.25
378.576	410.25
378.802	403.25
379.027	398.25
379.253	409.25
379.478	393.25
379.704	418.25
379.929	391.25
380.155	392.25
380.38	410.25
380.606	406.25
380.831	395.25
381.057	421.25
381.282	409.25
381.507	415.25
381.733	410.25
381.958	420.25
382.184	406.25
382.409	415.25
382.634	433.25
382.86	421.25
383.085	408.25
383.31	429.25
383.535	442.25
383.761	412.25
383.986	424.25
384.211	422.25
384.436	449.25
384.662	446.25
384.887	433.25
385.112	459.25
385.337	465.25
385.562	453.25
385.787	449.25
386.013	461.25
386.238	470.25
386.463	473.25
386.688	473.25
386.913	454.25
387.138	476.25
387.363	438.25
387.588	453.25
387.813	460.25
388.038	472.25
388.263	444.25
388.488	447.25
388.713	467.25
388.938	472.25
389.163	457.25
389.387	476.25
389.612	454.25
389.837	442.25
390.062	458.25
390.287	447.25
390.512	445.25
390.736	455.25
390.961	473.25
391.186	447.25
391.411	459.25
391.636	482.25
391.86	490.25
392.085	477.25
392.31	467.25
392.534	478.25
392.759	468.25
392.984	484.25
393.208	466.25
393.433	443.25
393.658	467.25
393.882	480.25
394.107	456.25
394.331	493.25
394.556	439.25
394.78	471.25
395.005	469.25
395.229	492.25
395.454	476.25
395.678	483.25
395.903	479.25
396.127	511.25
396.352	532.25
396.576	497.25
396.801	461.25
397.025	494.25
397.249	487.25
397.474	496.25
397.698	515.25
397.922	507.25
398.147	522.25
398.371	513.25
398.595	537.25
398.82	529.25
399.044	546.25
399.268	572.25
399.492	612.25
399.717	652.25
399.941	691.25
400.165	684.25
400.389	669.25
400.613	583.25
400.837	573.25
401.062	535.25
401.286	541.25
401.51	537.25
401.734	547.25
401.958	547.25
402.182	553.25
402.406	555.25
402.63	554.25
402.854	535.25
403.078	536.25
403.302	566.25
403.526	589.25
403.75	591.25
403.974	571.25
404.198	590.25
404.422	580.25
404.645	591.25
404.869	592.25
405.093	592.25
405.317	626.25
405.541	647.25
405.765	615.25
405.988	575.25
406.212	583.25
406.436	618.25
406.66	627.25
406.883	608.25
407.107	649.25
407.331	679.25
407.555	736.25
407.778	722.25
408.002	666.25
408.226	645.25
408.449	612.25
408.673	606.25
408.896	608.25
409.12	653.25
409.344	659.25
409.567	572.25
409.791	545.25
410.014	555.25
410.238	556.25
410.461	562.25
410.685	552.25
410.908	579.25
411.132	608.25
411.355	632.25
411.578	592.25
411.802	551.25
412.025	575.25
412.249	559.25
412.472	580.25
412.695	596.25
412.919	603.25
413.142	547.25
413.365	557.25
413.589	552.25
413.812	493.25
414.035	534.25
414.258	531.25
414.482	516.25
414.705	525.25
414.928	540.25
415.151	534.25
415.374	516.25
415.597	540.25
415.821	508.25
416.044	522.25
416.267	536.25
416.49	504.25
416.713	524.25
416.936	521.25
417.159	498.25
417.382	509.25
417.605	501.25
417.828	516.25
418.051	534.25
418.274	559.25
418.497	539.25
418.72	533.25
418.943	520.25
419.166	569.25
419.389	585.25
419.611	584.25
419.834	545.25
420.057	553.25
420.28	553.25
420.503	531.25
420.726	537.25
420.948	548.25
421.171	613.25
421.394	628.25
421.617	552.25
421.839	561.25
422.062	533.25
422.285	552.25
422.507	572.25
422.73	657.25
422.953	636.25
423.175	568.25
423.398	563.25
423.621	570.25
423.843	581.25
424.066	587.25
424.288	582.25
424.511	592.25
424.733	628.25
424.956	685.25
425.178	680.25
425.401	660.25
425.623	696.25
425.846	613.25
426.068	598.25
426.291	564.25
426.513	569.25
426.735	550.25
426.958	604.25
427.18	640.25
427.402	732.25
427.625	828.25
427.847	717.25
428.069	620.25
428.292	575.25
428.514	519.25
428.736	531.25
428.958	520.25
429.181	531.25
429.403	512.25
429.625	530.25
429.847	546.25
430.069	582.25
430.292	589.25
430.514	537.25
430.736	506.25
430.958	518.25
431.18	496.25
431.402	520.25
431.624	490.25
431.846	484.25
432.068	496.25
432.29	488.25
432.512	510.25
432.734	513.25
432.956	486.25
433.178	485.25
433.4	505.25
433.622	531.25
433.844	525.25
434.066	501.25
434.287	489.25
434.509	515.25
434.731	525.25
434.953	534.25
435.175	555.25
435.397	547.25
435.618	550.25
435.84	580.25
436.062	637.25
436.284	699.25
436.505	617.25
436.727	547.25
436.949	524.25
437.17	536.25
437.392	523.25
437.614	500.25
437.835	533.25
438.057	604.25
438.278	693.25
438.5	682.25
438.721	755.25
438.943	711.25
439.165	576.25
439.386	536.25
439.608	565.25
439.829	563.25
440.05	558.25
440.272	601.25
440.493	580.25
440.715	528.25
440.936	510.25
441.158	527.25
441.379	531.25
441.6	532.25
441.822	569.25
442.043	585.25
442.264	659.25
442.486	681.25
442.707	615.25
442.928	575.25
443.149	564.25
443.371	580.25
443.592	635.25
443.813	727.25
444.034	748.25
444.255	665.25
444.476	613.25
444.698	587.25
444.919	583.25
445.14	689.25
445.361	643.25
445.582	592.25
445.803	634.25
446.024	713.25
446.245	732.25
446.466	661.25
446.687	593.25
446.908	559.25
447.129	511.25
447.35	505.25
447.571	509.25
447.792	506.25
448.013	519.25
448.234	515.25
448.455	559.25
448.675	642.25
448.896	744.25
449.117	614.25
449.338	614.25
449.559	676.25
449.779	789.25
450	637.25
450.221	540.25
450.442	517.25
450.662	504.25
450.883	474.25
451.104	505.25
451.324	499.25
451.545	466.25
451.766	462.25
451.986	445.25
452.207	424.25
452.428	442.25
452.648	459.25
452.869	458.25
453.089	471.25
453.31	466.25
453.53	456.25
453.751	452.25
453.971	466.25
454.192	459.25
454.412	440.25
454.633	444.25
454.853	447.25
455.073	439.25
455.294	467.25
455.514	507.25
455.734	509.25
455.955	447.25
456.175	455.25
456.395	438.25
456.616	434.25
456.836	441.25
457.056	432.25
457.276	425.25
457.497	445.25
457.717	454.25
457.937	449.25
458.157	464.25
458.377	454.25
458.598	476.25
458.818	498.25
459.038	561.25
459.258	583.25
459.478	539.25
459.698	502.25
459.918	498.25
460.138	488.25
460.358	517.25
460.578	515.25
460.798	530.25
461.018	536.25
461.238	534.25
461.458	530.25
461.678	515.25
461.898	529.25
462.118	536.25
462.338	532.25
462.558	543.25
462.777	567.25
462.997	591.25
463.217	619.25
463.437	637.25
463.657	627.25
463.876	601.25
464.096	579.25
464.316	588.25
464.536	586.25
464.755	582.25
464.975	596.25
465.195	568.25
465.414	596.25
465.634	548.25
465.854	522.25
466.073	519.25
466.293	503.25
466.512	480.25
466.732	483.25
466.951	483.25
467.171	470.25
467.391	501.25
467.61	484.25
467.829	472.25
468.049	504.25
468.268	483.25
468.488	450.25
468.707	455.25
468.927	468.25
469.146	460.25
469.365	477.25
469.585	469.25
469.804	454.25
470.023	484.25
470.243	495.25
470.462	487.25
470.681	508.25
470.901	494.25
471.12	484.25
471.339	475.25
471.558	483.25
471.777	484.25
471.997	442.25
472.216	472.25
472.435	511.25
472.654	499.25
472.873	480.25
473.092	489.25
473.311	475.25
473.53	496.25
473.749	475.25
473.968	505.25
474.187	580.25
474.406	595.25
474.625	504.25
474.844	457.25
475.063	492.25
475.282	473.25
475.501	486.25
475.72	497.25
475.939	484.25
476.158	479.25
476.377	500.25
476.596	475.25
476.814	493.25
477.033	505.25
477.252	523.25
477.471	531.25
477.69	496.25
477.908	525.25
478.127	529.25
478.346	529.25
478.564	525.25
478.783	543.25
479.002	566.25
479.22	573.25
479.439	571.25
479.658	567.25
479.876	544.25
480.095	580.25
480.313	609.25
480.532	606.25
480.751	613.25
480.969	595.25
481.188	629.25
481.406	612.25
481.624	579.25
481.843	589.25
482.061	546.25
482.28	540.25
482.498	565.25
482.717	539.25
482.935	531.25
483.153	546.25
483.372	544.25
483.59	537.25
483.808	562.25
484.027	556.25
484.245	550.25
484.463	573.25
484.681	570.25
484.9	566.25
485.118	561.25
485.336	538.25
485.554	596.25
485.772	569.25
485.99	567.25
486.209	548.25
486.427	573.25
486.645	594.25
486.863	584.25
487.081	609.25
487.299	603.25
487.517	586.25
487.735	576.25
487.953	570.25
488.171	583.25
488.389	587.25
488.607	600.25
488.825	565.25
489.043	594.25
489.261	599.25
489.479	595.25
489.696	572.25
489.914	600.25
490.132	615.25
490.35	596.25
490.568	608.25
490.786	608.25
491.003	616.25
491.221	648.25
491.439	634.25
491.657	629.25
491.874	653.25
492.092	667.25
492.31	658.25
492.527	685.25
492.745	654.25
492.963	648.25
493.18	671.25
493.398	672.25
493.615	681.25
493.833	677.25
494.05	665.25
494.268	680.25
494.485	656.25
494.703	663.25
494.92	694.25
495.138	693.25
495.355	674.25
495.573	694.25
495.79	697.25
496.008	675.25
496.225	691.25
496.442	690.25
496.66	705.25
496.877	694.25
497.094	687.25
497.312	702.25
497.529	707.25
497.746	713.25
497.963	731.25
498.181	749.25
498.398	761.25
498.615	820.25
498.832	821.25
499.049	859.25
499.267	893.25
499.484	907.25
499.701	984.25
499.918	1075.25
500.135	1155.25
500.352	1187.25
500.569	1202.25
500.786	1224.25
501.003	1192.25
501.22	1142.25
501.437	1051.25
501.654	1009.25
501.871	974.25
502.088	916.25
502.305	867.25
502.522	845.25
502.739	808.25
502.956	770.25
503.172	767.25
503.389	764.25
503.606	714.25
503.823	720.25
504.04	729.25
504.256	714.25
504.473	711.25
504.69	714.25
504.907	699.25
505.123	705.25
505.34	662.25
505.557	643.25
505.773	653.25
505.99	670.25
506.207	643.25
506.423	623.25
506.64	641.25
506.856	629.25
507.073	635.25
507.289	628.25
507.506	609.25
507.722	627.25
507.939	632.25
508.155	641.25
508.372	600.25
508.588	603.25
508.805	610.25
509.021	604.25
509.238	623.25
509.454	618.25
509.67	613.25
509.887	588.25
510.103	610.25
510.319	575.25
510.536	661.25
510.752	877.25
510.968	742.25
511.184	574.25
511.401	561.25
511.617	580.25
511.833	551.25
512.049	551.25
512.265	563.25
512.481	572.25
512.698	565.25
512.914	567.25
513.13	566.25
513.346	563.25
513.562	563.25
513.778	563.25
513.994	565.25
514.21	595.25
514.426	585.25
514.642	589.25
514.858	606.25
515.074	623.25
515.29	705.25
515.506	906.25
515.721	772.25
515.937	639.25
516.153	611.25
516.369	597.25
516.585	605.25
516.801	617.25
517.016	607.25
517.232	618.25
517.448	637.25
517.664	635.25
517.879	641.25
518.095	644.25
518.311	611.25
518.527	600.25
518.742	612.25
518.958	597.25
519.173	588.25
519.389	587.25
519.605	575.25
519.82	587.25
520.036	575.25
520.251	593.25
520.467	611.25
520.682	616.25
520.898	589.25
521.113	612.25
521.329	609.25
521.544	645.25
521.76	737.25
521.975	1081.25
522.19	1047.25
522.406	690.25
522.621	576.25
522.836	546.25
523.052	520.25
523.267	523.25
523.482	528.25
523.698	527.25
523.913	504.25
524.128	504.25
524.343	511.25
524.559	487.25
524.774	499.25
524.989	492.25
525.204	505.25
525.419	513.25
525.634	502.25
525.849	492.25
526.064	468.25
526.28	479.25
526.495	474.25
526.71	483.25
526.925	455.25
527.14	479.25
527.355	473.25
527.57	492.25
527.785	471.25
527.999	466.25
528.214	485.25
528.429	472.25
528.644	461.25
528.859	487.25
529.074	472.25
529.289	492.25
529.503	531.25
529.718	531.25
529.933	492.25
530.148	499.25
530.363	485.25
530.577	463.25
530.792	462.25
531.007	452.25
531.221	472.25
531.436	455.25
531.651	461.25
531.865	438.25
532.08	468.25
532.295	467.25
532.509	454.25
532.724	471.25
532.938	461.25
533.153	466.25
533.367	455.25
533.582	459.25
533.796	456.25
534.011	471.25
534.225	455.25
534.44	453.25
534.654	496.25
534.868	472.25
535.083	437.25
535.297	463.25
535.511	457.25
535.726	472.25
535.94	457.25
536.154	470.25
536.369	451.25
536.583	443.25
536.797	456.25
537.011	451.25
537.225	447.25
537.44	456.25
537.654	442.25
537.868	460.25
538.082	441.25
538.296	464.25
538.51	457.25
538.724	445.25
538.938	454.25
539.153	456.25
539.367	443.25
539.581	462.25
539.795	437.25
540.009	454.25
540.222	455.25
540.436	440.25
540.65	452.25
540.864	465.25
541.078	482.25
541.292	477.25
541.506	451.25
541.72	439.25
541.934	436.25
542.147	437.25
542.361	445.25
542.575	440.25
542.789	452.25
543.002	440.25
543.216	444.25
543.43	454.25
543.644	452.25
543.857	450.25
544.071	461.25
544.285	456.25
544.498	450.25
544.712	470.25
544.925	426.25
545.139	436.25
545.352	455.25
545.566	430.25
545.779	465.25
545.993	474.25
546.206	463.25
546.42	473.25
546.633	469.25
546.847	463.25
547.06	435.25
547.274	443.25
547.487	436.25
547.7	449.25
547.914	448.25
548.127	457.25
548.34	438.25
548.554	436.25
548.767	436.25
548.98	457.25
549.193	455.25
549.407	444.25
549.62	448.25
549.833	434.25
550.046	443.25
550.259	425.25
550.473	437.25
550.686	426.25
550.899	421.25
551.112	444.25
551.325	452.25
551.538	444.25
551.751	450.25
551.964	448.25
552.177	439.25
552.39	442.25
552.603	433.25
552.816	447.25
553.029	454.25
553.242	475.25
553.455	482.25
553.667	463.25
553.88	467.25
554.093	439.25
554.306	452.25
554.519	439.25
554.732	442.25
554.944	440.25
555.157	427.25
555.37	433.25
555.583	402.25
555.795	403.25
556.008	408.25
556.221	401.25
556.433	415.25
556.646	403.25
556.859	410.25
557.071	383.25
557.284	393.25
557.496	389.25
557.709	380.25
557.921	398.25
558.134	396.25
558.346	382.25
558.559	378.25
558.771	392.25
558.984	383.25
559.196	380.25
559.409	396.25
559.621	384.25
559.833	405.25
560.046	374.25
560.258	373.25
560.47	385.25
560.683	384.25
560.895	384.25
561.107	392.25
561.32	387.25
561.532	373.25
561.744	393.25
561.956	396.25
562.168	389.25
562.381	379.25
562.593	400.25
562.805	396.25
563.017	413.25
563.229	400.25
563.441	410.25
563.653	410.25
563.865	417.25
564.077	405.25
564.289	420.25
564.501	407.25
564.713	411.25
564.925	434.25
565.137	437.25
565.349	427.25
565.561	444.25
565.773	447.25
565.985	472.25
566.197	462.25
566.408	460.25
566.62	527.25
566.832	545.25
567.044	531.25
567.255	549.25
567.467	563.25
567.679	561.25
567.891	579.25
568.102	607.25
568.314	575.25
568.526	535.25
568.737	503.25
568.949	500.25
569.161	460.25
569.372	455.25
569.584	447.25
569.795	434.25
570.007	409.25
570.218	433.25
570.43	423.25
570.641	409.25
570.853	389.25
571.064	401.25
571.276	398.25
571.487	399.25
571.698	377.25
571.91	367.25
572.121	375.25
572.333	373.25
572.544	378.25
572.755	353.25
572.966	345.25
573.178	351.25
573.389	357.25
573.6	336.25
573.811	330.25
574.023	328.25
574.234	337.25
574.445	367.25
574.656	338.25
574.867	339.25
575.078	346.25
575.289	334.25
575.501	329.25
575.712	340.25
575.923	319.25
576.134	333.25
576.345	355.25
576.556	319.25
576.767	307.25
576.978	339.25
577.188	328.25
577.399	323.25
577.61	324.25
577.821	322.25
578.032	325.25
578.243	329.25
578.454	434.25
578.665	373.25
578.875	331.25
579.086	315.25
579.297	312.25
579.508	307.25
579.718	316.25
579.929	295.25
580.14	305.25
580.35	309.25
580.561	305.25
580.772	303.25
580.982	313.25
581.193	314.25
581.403	300.25
581.614	305.25
581.825	300.25
582.035	297.25
582.246	288.25
582.456	296.25
582.667	305.25
582.877	306.25
583.087	311.25
583.298	308.25
583.508	291.25
583.719	291.25
583.929	296.25
584.139	296.25
584.35	292.25
584.56	306.25
584.77	288.25
584.981	282.25
585.191	299.25
585.401	322.25
585.611	323.25
585.821	294.25
586.032	319.25
586.242	319.25
586.452	303.25
586.662	304.25
586.872	292.25
587.082	288.25
587.292	300.25
587.502	270.25
587.713	306.25
587.923	314.25
588.133	296.25
588.343	294.25
588.553	279.25
588.762	280.25
588.972	299.25
589.182	291.25
589.392	276.25
589.602	303.25
589.812	311.25
590.022	301.25
590.232	298.25
590.441	320.25
590.651	312.25
590.861	302.25
591.071	304.25
591.281	292.25
591.49	295.25
591.7	300.25
591.91	304.25
592.119	315.25
592.329	332.25
592.539	331.25
592.748	333.25
592.958	339.25
593.167	337.25
593.377	338.25
593.587	358.25
593.796	347.25
594.006	349.25
594.215	339.25
594.424	347.25
594.634	336.25
594.843	315.25
595.053	327.25
595.262	336.25
595.472	320.25
595.681	314.25
595.89	290.25
596.1	309.25
596.309	307.25
596.518	292.25
596.727	296.25
596.937	300.25
597.146	285.25
597.355	282.25
597.564	284.25
597.774	281.25
597.983	268.25
598.192	254.25
598.401	275.25
598.61	267.25
598.819	259.25
599.028	259.25
599.237	243.25
599.446	269.25
599.655	261.25
599.864	280.25
600.073	256.25
600.282	267.25
600.491	250.25
600.7	261.25
600.909	276.25
601.118	263.25
601.327	244.25
601.536	273.25
601.745	273.25
601.953	263.25
602.162	255.25
602.371	249.25
602.58	253.25
602.789	269.25
602.997	255.25
603.206	241.25
603.415	259.25
603.623	240.25
603.832	261.25
604.041	260.25
604.249	252.25
604.458	248.25
604.666	249.25
604.875	247.25
605.084	249.25
605.292	247.25
605.501	252.25
605.709	253.25
605.918	247.25
606.126	259.25
606.334	262.25
606.543	231.25
606.751	256.25
606.96	247.25
607.168	239.25
607.376	245.25
607.585	243.25
607.793	255.25
608.001	258.25
608.21	245.25
608.418	239.25
608.626	258.25
608.834	259.25
609.043	259.25
609.251	264.25
609.459	250.25
609.667	256.25
609.875	251.25
610.083	241.25
610.291	268.25
610.499	260.25
610.707	232.25
610.916	230.25
611.124	243.25
611.332	255.25
611.54	237.25
611.748	255.25
611.955	244.25
612.163	227.25
612.371	247.25
612.579	223.25
612.787	255.25
612.995	245.25
613.203	249.25
613.411	248.25
613.618	242.25
613.826	240.25
614.034	247.25
614.242	257.25
614.449	220.25
614.657	243.25
614.865	239.25
615.072	254.25
615.28	249.25
615.488	246.25
615.695	239.25
615.903	255.25
616.111	242.25
616.318	237.25
616.526	253.25
616.733	242.25
616.941	244.25
617.148	235.25
617.356	255.25
617.563	231.25
617.771	228.25
617.978	228.25
618.185	215.25
618.393	254.25
618.6	255.25
618.807	233.25
619.015	242.25
619.222	219.25
619.429	237.25
619.637	240.25
619.844	225.25
620.051	243.25
620.258	232.25
620.466	227.25
620.673	227.25
620.88	209.25
621.087	217.25
621.294	235.25
621.501	215.25
621.708	224.25
621.915	229.25
622.122	224.25
622.329	223.25
622.536	221.25
622.743	234.25
622.95	206.25
623.157	209.25
623.364	219.25
623.571	217.25
623.778	216.25
623.985	221.25
624.192	218.25
624.399	210.25
624.606	220.25
624.812	219.25
625.019	235.25
625.226	223.25
625.433	214.25
625.639	218.25
625.846	202.25
626.053	213.25
626.259	217.25
626.466	209.25
626.673	202.25
626.879	203.25
627.086	211.25
627.293	216.25
627.499	203.25
627.706	216.25
627.912	204.25
628.119	213.25
628.325	212.25
628.532	196.25
628.738	207.25
628.945	214.25
629.151	209.25
629.357	204.25
629.564	205.25
629.77	199.25
629.976	184.25
630.183	214.25
630.389	206.25
630.595	201.25
630.802	184.25
631.008	184.25
631.214	205.25
631.42	206.25
631.627	191.25
631.833	209.25
632.039	210.25
632.245	196.25
632.451	199.25
632.657	209.25
632.863	191.25
633.069	200.25
633.275	202.25
633.481	169.25
633.688	206.25
633.893	188.25
634.099	200.25
634.305	202.25
634.511	195.25
634.717	187.25
634.923	175.25
635.129	191.25
635.335	191.25
635.541	191.25
635.747	204.25
635.952	183.25
636.158	181.25
636.364	196.25
636.57	198.25
636.775	185.25
636.981	182.25
637.187	176.25
637.392	187.25
637.598	171.25
637.804	179.25
638.009	167.25
638.215	185.25
638.421	194.25
638.626	173.25
638.832	175.25
639.037	173.25
639.243	172.25
639.448	177.25
639.654	172.25
639.859	181.25
640.065	178.25
640.27	180.25
640.475	183.25
640.681	179.25
640.886	182.25
641.091	168.25
641.297	179.25
641.502	173.25
641.707	175.25
641.913	155.25
642.118	178.25
642.323	179.25
642.528	192.25
642.733	166.25
642.939	177.25
643.144	184.25
643.349	180.25
643.554	176.25
643.759	176.25
643.964	163.25
644.169	165.25
644.374	181.25
644.579	179.25
644.784	173.25
644.989	168.25
645.194	172.25
645.399	168.25
645.604	177.25
645.809	164.25
646.014	167.25
646.219	171.25
646.423	172.25
646.628	164.25
646.833	152.25
647.038	163.25
647.243	177.25
647.447	157.25
647.652	171.25
647.857	174.25
648.062	174.25
648.266	173.25
648.471	169.25
648.676	176.25
648.88	188.25
649.085	183.25
649.289	173.25
649.494	164.25
649.698	180.25
649.903	179.25
650.107	175.25
650.312	180.25
650.516	172.25
650.721	158.25
650.925	170.25
651.13	169.25
651.334	162.25
651.539	156.25
651.743	154.25
651.947	155.25
652.152	148.25
652.356	135.25
652.56	157.25
652.764	133.25
652.969	136.25
653.173	131.25
653.377	137.25
653.581	128.25
653.785	143.25
653.99	144.25
654.194	131.25
654.398	140.25
654.602	130.25
654.806	142.25
655.01	141.25
655.214	125.25
655.418	130.25
655.622	131.25
655.826	129.25
656.03	121.25
656.234	147.25
656.438	140.25
656.642	147.25
656.846	141.25
657.049	127.25
657.253	137.25
657.457	119.25
657.661	115.25
657.865	127.25
658.068	116.25
658.272	126.25
658.476	105.25
658.68	113.25
658.883	118.25
659.087	117.25
659.291	97.25
659.494	96.25
659.698	91.25
659.901	95.25
660.105	100.25
660.309	93.25
660.512	88.25
660.716	94.25
660.919	90.25
661.123	91.25
661.326	99.25
661.53	95.25
661.733	87.25
661.936	92.25
662.14	91.25
662.343	96.25
662.546	85.25
662.75	75.25
662.953	82.25
663.156	79.25
663.36	96.25
663.563	87.25
663.766	95.25
663.969	68.25
664.173	71.25
664.376	87.25
664.579	91.25
664.782	94.25
664.985	76.25
665.188	74.25
665.391	79.25
665.594	89.25
665.797	90.25
666	90.25
666.203	79.25
666.406	88.25
666.609	84.25
666.812	88.25
667.015	89.25
667.218	88.25
667.421	81.25
667.624	82.25
667.827	96.25
668.03	80.25
668.232	84.25
668.435	80.25
668.638	88.25
668.841	77.25
669.043	82.25
669.246	85.25
669.449	83.25
669.651	92.25
669.854	73.25
670.057	91.25
670.259	78.25
670.462	83.25
670.665	85.25
670.867	79.25
671.07	66.25
671.272	80.25
671.475	91.25
671.677	67.25
671.88	84.25
672.082	97.25
672.284	77.25
672.487	77.25
672.689	77.25
672.892	93.25
