Data from 1973.PennyLincolnUp.Lamp.En5.5.200Scan.071719.P1.Changed Mount._HRD10591_15-43-53-852.txt Node
Date: Thu Jul 18 15:43:53 EDT 2019
User: cochatt
Spectrometer: HR+D1059
Trigger mode: 1
Integration Time (sec): 1.000000E-1
Scans to average: 1
Electric dark correction enabled: true
Nonlinearity correction enabled: false
Boxcar width: 0
XAxis mode: Wavelengths
Number of Pixels in Spectrum: 2048
>>>>>Begin Spectral Data<<<<<
223.165	-5.19
223.4	-5.19
223.635	-5.19
223.869	-18.19
224.104	-32.19
224.338	-18.19
224.573	-9.19
224.808	-6.19
225.042	-7.19
225.277	-11.19
225.511	-8.19
225.746	-5.19
225.98	4.81
226.215	24.81
226.449	8.81
226.683	22.81
226.918	34.81
227.152	24.81
227.387	30.81
227.621	29.81
227.856	40.81
228.09	55.81
228.324	40.81
228.559	48.81
228.793	57.81
229.027	88.81
229.262	105.81
229.496	113.81
229.73	103.81
229.964	124.81
230.199	132.81
230.433	86.81
230.667	107.81
230.901	119.81
231.136	119.81
231.37	119.81
231.604	112.81
231.838	113.81
232.072	98.81
232.306	101.81
232.541	104.81
232.775	120.81
233.009	106.81
233.243	111.81
233.477	128.81
233.711	112.81
233.945	122.81
234.179	114.81
234.413	105.81
234.647	112.81
234.881	125.81
235.115	122.81
235.349	124.81
235.583	119.81
235.817	112.81
236.051	124.81
236.285	126.81
236.519	128.81
236.753	137.81
236.987	142.81
237.221	151.81
237.455	202.81
237.689	170.81
237.922	133.81
238.156	103.81
238.39	112.81
238.624	109.81
238.858	114.81
239.091	107.81
239.325	135.81
239.559	115.81
239.793	115.81
240.027	144.81
240.26	122.81
240.494	154.81
240.728	134.81
240.961	146.81
241.195	141.81
241.429	139.81
241.662	136.81
241.896	140.81
242.13	130.81
242.363	141.81
242.597	132.81
242.83	140.81
243.064	123.81
243.298	139.81
243.531	137.81
243.765	121.81
243.998	143.81
244.232	120.81
244.465	142.81
244.699	140.81
244.932	147.81
245.166	149.81
245.399	143.81
245.633	142.81
245.866	137.81
246.099	149.81
246.333	156.81
246.566	147.81
246.8	126.81
247.033	160.81
247.266	158.81
247.5	155.81
247.733	156.81
247.966	160.81
248.2	169.81
248.433	164.81
248.666	171.81
248.899	184.81
249.133	180.81
249.366	189.81
249.599	187.81
249.832	173.81
250.066	183.81
250.299	185.81
250.532	177.81
250.765	201.81
250.998	205.81
251.231	208.81
251.465	198.81
251.698	185.81
251.931	179.81
252.164	184.81
252.397	187.81
252.63	196.81
252.863	211.81
253.096	187.81
253.329	199.81
253.562	210.81
253.795	191.81
254.028	195.81
254.261	211.81
254.494	212.81
254.727	226.81
254.96	254.81
255.193	248.81
255.426	222.81
255.659	213.81
255.892	206.81
256.124	205.81
256.357	226.81
256.59	204.81
256.823	216.81
257.056	203.81
257.289	214.81
257.521	205.81
257.754	210.81
257.987	210.81
258.22	198.81
258.452	205.81
258.685	212.81
258.918	197.81
259.151	204.81
259.383	215.81
259.616	221.81
259.849	222.81
260.081	224.81
260.314	238.81
260.547	233.81
260.779	215.81
261.012	217.81
261.244	229.81
261.477	222.81
261.71	218.81
261.942	220.81
262.175	209.81
262.407	215.81
262.64	199.81
262.872	218.81
263.105	206.81
263.337	216.81
263.57	221.81
263.802	211.81
264.035	202.81
264.267	212.81
264.499	200.81
264.732	214.81
264.964	216.81
265.197	229.81
265.429	228.81
265.661	222.81
265.894	230.81
266.126	211.81
266.358	226.81
266.591	200.81
266.823	210.81
267.055	214.81
267.287	219.81
267.52	236.81
267.752	224.81
267.984	236.81
268.216	214.81
268.448	240.81
268.681	236.81
268.913	252.81
269.145	256.81
269.377	270.81
269.609	274.81
269.841	262.81
270.073	259.81
270.306	292.81
270.538	295.81
270.77	287.81
271.002	295.81
271.234	287.81
271.466	270.81
271.698	299.81
271.93	291.81
272.162	293.81
272.394	318.81
272.626	303.81
272.858	281.81
273.09	273.81
273.322	282.81
273.553	258.81
273.785	259.81
274.017	258.81
274.249	264.81
274.481	273.81
274.713	267.81
274.945	258.81
275.176	269.81
275.408	276.81
275.64	264.81
275.872	272.81
276.104	261.81
276.335	270.81
276.567	281.81
276.799	271.81
277.031	294.81
277.262	288.81
277.494	312.81
277.726	310.81
277.957	295.81
278.189	291.81
278.421	306.81
278.652	273.81
278.884	275.81
279.115	268.81
279.347	285.81
279.579	288.81
279.81	280.81
280.042	274.81
280.273	269.81
280.505	291.81
280.736	282.81
280.968	269.81
281.199	274.81
281.431	289.81
281.662	292.81
281.894	284.81
282.125	286.81
282.356	286.81
282.588	276.81
282.819	301.81
283.051	297.81
283.282	275.81
283.513	289.81
283.745	289.81
283.976	298.81
284.207	297.81
284.439	290.81
284.67	309.81
284.901	283.81
285.132	304.81
285.364	300.81
285.595	298.81
285.826	296.81
286.057	304.81
286.288	282.81
286.52	279.81
286.751	295.81
286.982	291.81
287.213	298.81
287.444	306.81
287.675	315.81
287.906	290.81
288.138	317.81
288.369	325.81
288.6	299.81
288.831	306.81
289.062	308.81
289.293	327.81
289.524	300.81
289.755	313.81
289.986	318.81
290.217	309.81
290.448	281.81
290.679	312.81
290.91	294.81
291.141	306.81
291.371	309.81
291.602	314.81
291.833	294.81
292.064	310.81
292.295	312.81
292.526	296.81
292.757	322.81
292.987	315.81
293.218	297.81
293.449	314.81
293.68	325.81
293.91	323.81
294.141	315.81
294.372	315.81
294.603	323.81
294.833	305.81
295.064	324.81
295.295	332.81
295.525	315.81
295.756	318.81
295.987	317.81
296.217	342.81
296.448	355.81
296.679	320.81
296.909	318.81
297.14	305.81
297.37	308.81
297.601	320.81
297.831	316.81
298.062	329.81
298.292	315.81
298.523	337.81
298.753	305.81
298.984	341.81
299.214	330.81
299.445	330.81
299.675	298.81
299.905	332.81
300.136	339.81
300.366	314.81
300.597	330.81
300.827	333.81
301.057	350.81
301.288	351.81
301.518	361.81
301.748	348.81
301.979	348.81
302.209	347.81
302.439	335.81
302.669	351.81
302.9	348.81
303.13	336.81
303.36	340.81
303.59	333.81
303.82	356.81
304.051	355.81
304.281	344.81
304.511	351.81
304.741	348.81
304.971	357.81
305.201	341.81
305.431	329.81
305.661	344.81
305.891	346.81
306.121	343.81
306.352	334.81
306.582	350.81
306.812	338.81
307.042	363.81
307.272	361.81
307.502	333.81
307.731	352.81
307.961	364.81
308.191	338.81
308.421	361.81
308.651	352.81
308.881	352.81
309.111	355.81
309.341	353.81
309.571	357.81
309.8	370.81
310.03	356.81
310.26	370.81
310.49	361.81
310.72	364.81
310.949	374.81
311.179	382.81
311.409	364.81
311.639	357.81
311.868	376.81
312.098	390.81
312.328	373.81
312.557	410.81
312.787	388.81
313.017	354.81
313.246	363.81
313.476	355.81
313.706	369.81
313.935	393.81
314.165	397.81
314.394	381.81
314.624	401.81
314.853	378.81
315.083	372.81
315.312	380.81
315.542	378.81
315.771	360.81
316.001	377.81
316.23	378.81
316.46	358.81
316.689	386.81
316.919	396.81
317.148	388.81
317.377	390.81
317.607	389.81
317.836	395.81
318.065	377.81
318.295	398.81
318.524	402.81
318.753	372.81
318.983	390.81
319.212	382.81
319.441	379.81
319.67	406.81
319.9	397.81
320.129	384.81
320.358	390.81
320.587	398.81
320.816	395.81
321.046	379.81
321.275	388.81
321.504	368.81
321.733	388.81
321.962	396.81
322.191	409.81
322.42	392.81
322.649	396.81
322.878	415.81
323.108	434.81
323.337	421.81
323.566	443.81
323.795	432.81
324.024	453.81
324.253	536.81
324.482	661.81
324.71	938.81
324.939	1340.81
325.168	1186.81
325.397	668.81
325.626	481.81
325.855	456.81
326.084	456.81
326.313	443.81
326.542	439.81
326.77	462.81
326.999	501.81
327.228	626.81
327.457	887.81
327.686	1016.81
327.914	747.81
328.143	532.81
328.372	492.81
328.6	474.81
328.829	464.81
329.058	492.81
329.287	460.81
329.515	472.81
329.744	475.81
329.972	468.81
330.201	482.81
330.43	488.81
330.658	520.81
330.887	492.81
331.115	508.81
331.344	478.81
331.572	453.81
331.801	452.81
332.03	478.81
332.258	452.81
332.486	468.81
332.715	473.81
332.943	462.81
333.172	461.81
333.4	505.81
333.629	500.81
333.857	527.81
334.085	518.81
334.314	546.81
334.542	526.81
334.771	524.81
334.999	498.81
335.227	493.81
335.455	470.81
335.684	481.81
335.912	464.81
336.14	438.81
336.369	456.81
336.597	437.81
336.825	462.81
337.053	452.81
337.281	452.81
337.51	459.81
337.738	451.81
337.966	432.81
338.194	450.81
338.422	458.81
338.65	432.81
338.878	444.81
339.106	449.81
339.334	456.81
339.562	437.81
339.79	434.81
340.018	433.81
340.246	434.81
340.474	425.81
340.702	434.81
340.93	424.81
341.158	434.81
341.386	426.81
341.614	449.81
341.842	443.81
342.07	434.81
342.298	416.81
342.526	413.81
342.754	436.81
342.981	426.81
343.209	427.81
343.437	440.81
343.665	454.81
343.893	461.81
344.12	488.81
344.348	451.81
344.576	453.81
344.804	466.81
345.031	460.81
345.259	453.81
345.487	451.81
345.714	440.81
345.942	424.81
346.17	426.81
346.397	423.81
346.625	435.81
346.853	408.81
347.08	398.81
347.308	427.81
347.535	406.81
347.763	422.81
347.99	448.81
348.218	424.81
348.445	410.81
348.673	409.81
348.9	424.81
349.128	411.81
349.355	403.81
349.583	403.81
349.81	405.81
350.037	393.81
350.265	418.81
350.492	397.81
350.72	410.81
350.947	405.81
351.174	422.81
351.402	393.81
351.629	396.81
351.856	414.81
352.083	434.81
352.311	419.81
352.538	420.81
352.765	401.81
352.992	427.81
353.22	404.81
353.447	393.81
353.674	402.81
353.901	395.81
354.128	385.81
354.355	411.81
354.583	393.81
354.81	390.81
355.037	407.81
355.264	416.81
355.491	406.81
355.718	395.81
355.945	395.81
356.172	381.81
356.399	401.81
356.626	399.81
356.853	403.81
357.08	395.81
357.307	408.81
357.534	401.81
357.761	405.81
357.988	395.81
358.215	388.81
358.441	414.81
358.668	405.81
358.895	398.81
359.122	408.81
359.349	389.81
359.576	407.81
359.802	421.81
360.029	416.81
360.256	451.81
360.483	423.81
360.709	410.81
360.936	424.81
361.163	403.81
361.39	392.81
361.616	403.81
361.843	390.81
362.07	394.81
362.296	413.81
362.523	409.81
362.749	378.81
362.976	409.81
363.203	414.81
363.429	376.81
363.656	373.81
363.882	396.81
364.109	394.81
364.335	394.81
364.562	388.81
364.788	394.81
365.015	399.81
365.241	414.81
365.468	412.81
365.694	398.81
365.92	388.81
366.147	386.81
366.373	395.81
366.599	393.81
366.826	405.81
367.052	408.81
367.278	398.81
367.505	407.81
367.731	386.81
367.957	391.81
368.184	411.81
368.41	396.81
368.636	418.81
368.862	404.81
369.089	394.81
369.315	412.81
369.541	390.81
369.767	404.81
369.993	396.81
370.219	420.81
370.445	388.81
370.672	394.81
370.898	401.81
371.124	416.81
371.35	397.81
371.576	398.81
371.802	397.81
372.028	396.81
372.254	392.81
372.48	400.81
372.706	413.81
372.932	421.81
373.158	418.81
373.384	423.81
373.61	409.81
373.835	411.81
374.061	419.81
374.287	443.81
374.513	421.81
374.739	425.81
374.965	444.81
375.191	405.81
375.416	428.81
375.642	398.81
375.868	411.81
376.094	400.81
376.319	395.81
376.545	424.81
376.771	398.81
376.997	407.81
377.222	404.81
377.448	420.81
377.674	412.81
377.899	398.81
378.125	416.81
378.35	409.81
378.576	413.81
378.802	414.81
379.027	427.81
379.253	398.81
379.478	402.81
379.704	410.81
379.929	397.81
380.155	396.81
380.38	403.81
380.606	405.81
380.831	426.81
381.057	422.81
381.282	402.81
381.507	420.81
381.733	432.81
381.958	429.81
382.184	400.81
382.409	422.81
382.634	432.81
382.86	417.81
383.085	410.81
383.31	418.81
383.535	455.81
383.761	455.81
383.986	457.81
384.211	451.81
384.436	438.81
384.662	428.81
384.887	470.81
385.112	461.81
385.337	451.81
385.562	459.81
385.787	439.81
386.013	471.81
386.238	441.81
386.463	487.81
386.688	468.81
386.913	450.81
387.138	475.81
387.363	466.81
387.588	459.81
387.813	450.81
388.038	477.81
388.263	452.81
388.488	468.81
388.713	463.81
388.938	467.81
389.163	466.81
389.387	464.81
389.612	457.81
389.837	457.81
390.062	457.81
390.287	443.81
390.512	458.81
390.736	460.81
390.961	462.81
391.186	477.81
391.411	462.81
391.636	472.81
391.86	465.81
392.085	489.81
392.31	484.81
392.534	486.81
392.759	482.81
392.984	470.81
393.208	478.81
393.433	482.81
393.658	475.81
393.882	469.81
394.107	466.81
394.331	477.81
394.556	469.81
394.78	484.81
395.005	477.81
395.229	466.81
395.454	514.81
395.678	489.81
395.903	508.81
396.127	519.81
396.352	492.81
396.576	490.81
396.801	467.81
397.025	489.81
397.249	504.81
397.474	494.81
397.698	500.81
397.922	504.81
398.147	547.81
398.371	521.81
398.595	537.81
398.82	520.81
399.044	542.81
399.268	578.81
399.492	619.81
399.717	663.81
399.941	688.81
400.165	693.81
400.389	668.81
400.613	636.81
400.837	585.81
401.062	574.81
401.286	566.81
401.51	534.81
401.734	530.81
401.958	561.81
402.182	576.81
402.406	549.81
402.63	563.81
402.854	594.81
403.078	558.81
403.302	580.81
403.526	572.81
403.75	597.81
403.974	599.81
404.198	581.81
404.422	602.81
404.645	583.81
404.869	571.81
405.093	599.81
405.317	630.81
405.541	650.81
405.765	593.81
405.988	596.81
406.212	573.81
406.436	609.81
406.66	595.81
406.883	593.81
407.107	651.81
407.331	660.81
407.555	731.81
407.778	722.81
408.002	674.81
408.226	642.81
408.449	619.81
408.673	624.81
408.896	627.81
409.12	646.81
409.344	629.81
409.567	580.81
409.791	585.81
410.014	562.81
410.238	570.81
410.461	577.81
410.685	568.81
410.908	562.81
411.132	605.81
411.355	629.81
411.578	590.81
411.802	558.81
412.025	566.81
412.249	557.81
412.472	582.81
412.695	616.81
412.919	605.81
413.142	565.81
413.365	574.81
413.589	526.81
413.812	542.81
414.035	531.81
414.258	545.81
414.482	524.81
414.705	530.81
414.928	534.81
415.151	523.81
415.374	520.81
415.597	539.81
415.821	516.81
416.044	512.81
416.267	521.81
416.49	530.81
416.713	517.81
416.936	532.81
417.159	523.81
417.382	520.81
417.605	531.81
417.828	545.81
418.051	555.81
418.274	548.81
418.497	536.81
418.72	526.81
418.943	534.81
419.166	553.81
419.389	586.81
419.611	554.81
419.834	585.81
420.057	553.81
420.28	546.81
420.503	534.81
420.726	523.81
420.948	544.81
421.171	560.81
421.394	619.81
421.617	574.81
421.839	546.81
422.062	547.81
422.285	549.81
422.507	605.81
422.73	660.81
422.953	668.81
423.175	590.81
423.398	585.81
423.621	581.81
423.843	594.81
424.066	587.81
424.288	596.81
424.511	591.81
424.733	644.81
424.956	690.81
425.178	635.81
425.401	660.81
425.623	664.81
425.846	596.81
426.068	529.81
426.291	544.81
426.513	569.81
426.735	569.81
426.958	603.81
427.18	648.81
427.402	790.81
427.625	823.81
427.847	693.81
428.069	612.81
428.292	546.81
428.514	524.81
428.736	542.81
428.958	526.81
429.181	533.81
429.403	526.81
429.625	506.81
429.847	536.81
430.069	598.81
430.292	600.81
430.514	527.81
430.736	498.81
430.958	499.81
431.18	510.81
431.402	518.81
431.624	495.81
431.846	490.81
432.068	516.81
432.29	521.81
432.512	485.81
432.734	503.81
432.956	494.81
433.178	501.81
433.4	504.81
433.622	485.81
433.844	528.81
434.066	496.81
434.287	475.81
434.509	521.81
434.731	520.81
434.953	520.81
435.175	526.81
435.397	556.81
435.618	566.81
435.84	569.81
436.062	649.81
436.284	724.81
436.505	598.81
436.727	548.81
436.949	520.81
437.17	526.81
437.392	502.81
437.614	524.81
437.835	542.81
438.057	610.81
438.278	668.81
438.5	666.81
438.721	745.81
438.943	705.81
439.165	585.81
439.386	533.81
439.608	562.81
439.829	540.81
440.05	543.81
440.272	588.81
440.493	569.81
440.715	555.81
440.936	526.81
441.158	536.81
441.379	539.81
441.6	544.81
441.822	547.81
442.043	596.81
442.264	666.81
442.486	665.81
442.707	610.81
442.928	569.81
443.149	572.81
443.371	590.81
443.592	594.81
443.813	686.81
444.034	722.81
444.255	646.81
444.476	594.81
444.698	597.81
444.919	586.81
445.14	652.81
445.361	618.81
445.582	588.81
445.803	630.81
446.024	717.81
446.245	719.81
446.466	669.81
446.687	570.81
446.908	544.81
447.129	528.81
447.35	505.81
447.571	524.81
447.792	511.81
448.013	510.81
448.234	513.81
448.455	540.81
448.675	634.81
448.896	734.81
449.117	612.81
449.338	613.81
449.559	676.81
449.779	760.81
450	617.81
450.221	526.81
450.442	481.81
450.662	477.81
450.883	479.81
451.104	489.81
451.324	456.81
451.545	487.81
451.766	468.81
451.986	448.81
452.207	448.81
452.428	443.81
452.648	446.81
452.869	459.81
453.089	443.81
453.31	456.81
453.53	474.81
453.751	445.81
453.971	456.81
454.192	458.81
454.412	456.81
454.633	432.81
454.853	454.81
455.073	420.81
455.294	427.81
455.514	529.81
455.734	494.81
455.955	449.81
456.175	436.81
456.395	440.81
456.616	414.81
456.836	419.81
457.056	436.81
457.276	432.81
457.497	442.81
457.717	429.81
457.937	453.81
458.157	450.81
458.377	457.81
458.598	482.81
458.818	488.81
459.038	555.81
459.258	579.81
459.478	524.81
459.698	491.81
459.918	489.81
460.138	481.81
460.358	519.81
460.578	534.81
460.798	529.81
461.018	539.81
461.238	533.81
461.458	537.81
461.678	523.81
461.898	530.81
462.118	541.81
462.338	540.81
462.558	559.81
462.777	590.81
462.997	590.81
463.217	586.81
463.437	634.81
463.657	614.81
463.876	601.81
464.096	591.81
464.316	576.81
464.536	577.81
464.755	589.81
464.975	563.81
465.195	581.81
465.414	594.81
465.634	537.81
465.854	523.81
466.073	498.81
466.293	502.81
466.512	480.81
466.732	488.81
466.951	455.81
467.171	488.81
467.391	493.81
467.61	461.81
467.829	486.81
468.049	486.81
468.268	485.81
468.488	482.81
468.707	462.81
468.927	477.81
469.146	464.81
469.365	475.81
469.585	458.81
469.804	481.81
470.023	470.81
470.243	478.81
470.462	478.81
470.681	483.81
470.901	509.81
471.12	473.81
471.339	483.81
471.558	483.81
471.777	473.81
471.997	490.81
472.216	467.81
472.435	494.81
472.654	498.81
472.873	458.81
473.092	464.81
473.311	459.81
473.53	476.81
473.749	487.81
473.968	501.81
474.187	571.81
474.406	600.81
474.625	523.81
474.844	480.81
475.063	464.81
475.282	448.81
475.501	483.81
475.72	493.81
475.939	475.81
476.158	500.81
476.377	486.81
476.596	504.81
476.814	496.81
477.033	483.81
477.252	518.81
477.471	517.81
477.69	529.81
477.908	544.81
478.127	531.81
478.346	531.81
478.564	550.81
478.783	547.81
479.002	558.81
479.22	556.81
479.439	573.81
479.658	574.81
479.876	581.81
480.095	601.81
480.313	617.81
480.532	594.81
480.751	610.81
480.969	593.81
481.188	592.81
481.406	621.81
481.624	573.81
481.843	572.81
482.061	580.81
482.28	562.81
482.498	560.81
482.717	521.81
482.935	527.81
483.153	530.81
483.372	555.81
483.59	550.81
483.808	548.81
484.027	553.81
484.245	557.81
484.463	553.81
484.681	563.81
484.9	537.81
485.118	555.81
485.336	570.81
485.554	562.81
485.772	609.81
485.99	562.81
486.209	572.81
486.427	554.81
486.645	582.81
486.863	593.81
487.081	590.81
487.299	572.81
487.517	587.81
487.735	562.81
487.953	593.81
488.171	584.81
488.389	576.81
488.607	596.81
488.825	582.81
489.043	575.81
489.261	603.81
489.479	630.81
489.696	597.81
489.914	597.81
490.132	594.81
490.35	617.81
490.568	603.81
490.786	607.81
491.003	609.81
491.221	629.81
491.439	633.81
491.657	643.81
491.874	652.81
492.092	646.81
492.31	628.81
492.527	665.81
492.745	662.81
492.963	664.81
493.18	668.81
493.398	693.81
493.615	672.81
493.833	706.81
494.05	679.81
494.268	681.81
494.485	697.81
494.703	688.81
494.92	683.81
495.138	678.81
495.355	680.81
495.573	705.81
495.79	661.81
496.008	688.81
496.225	677.81
496.442	672.81
496.66	681.81
496.877	689.81
497.094	693.81
497.312	707.81
497.529	734.81
497.746	734.81
497.963	734.81
498.181	746.81
498.398	778.81
498.615	786.81
498.832	839.81
499.049	841.81
499.267	886.81
499.484	932.81
499.701	975.81
499.918	1049.81
500.135	1117.81
500.352	1222.81
500.569	1260.81
500.786	1237.81
501.003	1200.81
501.22	1130.81
501.437	1035.81
501.654	1005.81
501.871	979.81
502.088	915.81
502.305	881.81
502.522	834.81
502.739	832.81
502.956	782.81
503.172	761.81
503.389	742.81
503.606	731.81
503.823	712.81
504.04	722.81
504.256	712.81
504.473	741.81
504.69	742.81
504.907	728.81
505.123	672.81
505.34	680.81
505.557	650.81
505.773	656.81
505.99	667.81
506.207	660.81
506.423	654.81
506.64	637.81
506.856	642.81
507.073	616.81
507.289	624.81
507.506	597.81
507.722	603.81
507.939	583.81
508.155	582.81
508.372	589.81
508.588	584.81
508.805	598.81
509.021	601.81
509.238	613.81
509.454	611.81
509.67	597.81
509.887	585.81
510.103	613.81
510.319	594.81
510.536	638.81
510.752	802.81
510.968	730.81
511.184	566.81
511.401	583.81
511.617	556.81
511.833	550.81
512.049	557.81
512.265	554.81
512.481	586.81
512.698	569.81
512.914	560.81
513.13	559.81
513.346	545.81
513.562	552.81
513.778	554.81
513.994	531.81
514.21	570.81
514.426	566.81
514.642	568.81
514.858	600.81
515.074	620.81
515.29	654.81
515.506	824.81
515.721	730.81
515.937	592.81
516.153	616.81
516.369	597.81
516.585	608.81
516.801	598.81
517.016	610.81
517.232	610.81
517.448	625.81
517.664	651.81
517.879	636.81
518.095	640.81
518.311	634.81
518.527	613.81
518.742	621.81
518.958	601.81
519.173	602.81
519.389	578.81
519.605	581.81
519.82	558.81
520.036	588.81
520.251	568.81
520.467	568.81
520.682	567.81
520.898	576.81
521.113	597.81
521.329	614.81
521.544	650.81
521.76	680.81
521.975	983.81
522.19	950.81
522.406	685.81
522.621	564.81
522.836	550.81
523.052	524.81
523.267	537.81
523.482	500.81
523.698	498.81
523.913	499.81
524.128	525.81
524.343	510.81
524.559	490.81
524.774	496.81
524.989	483.81
525.204	494.81
525.419	506.81
525.634	504.81
525.849	502.81
526.064	484.81
526.28	493.81
526.495	493.81
526.71	481.81
526.925	462.81
527.14	484.81
527.355	477.81
527.57	464.81
527.785	483.81
527.999	469.81
528.214	472.81
528.429	476.81
528.644	485.81
528.859	470.81
529.074	465.81
529.289	486.81
529.503	520.81
529.718	491.81
529.933	483.81
530.148	473.81
530.363	462.81
530.577	461.81
530.792	477.81
531.007	472.81
531.221	486.81
531.436	472.81
531.651	478.81
531.865	472.81
532.08	476.81
532.295	485.81
532.509	470.81
532.724	438.81
532.938	465.81
533.153	462.81
533.367	473.81
533.582	472.81
533.796	466.81
534.011	471.81
534.225	445.81
534.44	449.81
534.654	468.81
534.868	454.81
535.083	456.81
535.297	433.81
535.511	455.81
535.726	451.81
535.94	461.81
536.154	453.81
536.369	448.81
536.583	444.81
536.797	461.81
537.011	441.81
537.225	446.81
537.44	441.81
537.654	442.81
537.868	444.81
538.082	458.81
538.296	453.81
538.51	468.81
538.724	441.81
538.938	443.81
539.153	446.81
539.367	452.81
539.581	446.81
539.795	439.81
540.009	421.81
540.222	447.81
540.436	453.81
540.65	446.81
540.864	438.81
541.078	443.81
541.292	442.81
541.506	448.81
541.72	456.81
541.934	443.81
542.147	430.81
542.361	460.81
542.575	443.81
542.789	449.81
543.002	426.81
543.216	450.81
543.43	440.81
543.644	428.81
543.857	455.81
544.071	442.81
544.285	441.81
544.498	457.81
544.712	430.81
544.925	452.81
545.139	458.81
545.352	454.81
545.566	452.81
545.779	448.81
545.993	450.81
546.206	450.81
546.42	445.81
546.633	462.81
546.847	462.81
547.06	459.81
547.274	455.81
547.487	441.81
547.7	432.81
547.914	453.81
548.127	434.81
548.34	436.81
548.554	432.81
548.767	444.81
548.98	447.81
549.193	450.81
549.407	450.81
549.62	440.81
549.833	444.81
550.046	440.81
550.259	446.81
550.473	430.81
550.686	425.81
550.899	439.81
551.112	434.81
551.325	432.81
551.538	445.81
551.751	442.81
551.964	428.81
552.177	436.81
552.39	445.81
552.603	473.81
552.816	475.81
553.029	469.81
553.242	461.81
553.455	441.81
553.667	466.81
553.88	457.81
554.093	453.81
554.306	436.81
554.519	425.81
554.732	448.81
554.944	429.81
555.157	424.81
555.37	449.81
555.583	413.81
555.795	409.81
556.008	426.81
556.221	406.81
556.433	403.81
556.646	398.81
556.859	413.81
557.071	381.81
557.284	387.81
557.496	396.81
557.709	399.81
557.921	390.81
558.134	384.81
558.346	375.81
558.559	374.81
558.771	388.81
558.984	393.81
559.196	390.81
559.409	395.81
559.621	380.81
559.833	381.81
560.046	393.81
560.258	373.81
560.47	391.81
560.683	358.81
560.895	378.81
561.107	371.81
561.32	386.81
561.532	404.81
561.744	387.81
561.956	377.81
562.168	387.81
562.381	386.81
562.593	379.81
562.805	392.81
563.017	400.81
563.229	396.81
563.441	387.81
563.653	411.81
563.865	398.81
564.077	392.81
564.289	392.81
564.501	397.81
564.713	399.81
564.925	436.81
565.137	421.81
565.349	425.81
565.561	440.81
565.773	466.81
565.985	467.81
566.197	479.81
566.408	514.81
566.62	532.81
566.832	534.81
567.044	554.81
567.255	544.81
567.467	534.81
567.679	552.81
567.891	575.81
568.102	584.81
568.314	570.81
568.526	536.81
568.737	521.81
568.949	480.81
569.161	467.81
569.372	434.81
569.584	420.81
569.795	424.81
570.007	420.81
570.218	437.81
570.43	415.81
570.641	418.81
570.853	409.81
571.064	409.81
571.276	416.81
571.487	397.81
571.698	384.81
571.91	372.81
572.121	380.81
572.333	377.81
572.544	362.81
572.755	352.81
572.966	342.81
573.178	355.81
573.389	352.81
573.6	368.81
573.811	340.81
574.023	363.81
574.234	348.81
574.445	344.81
574.656	339.81
574.867	363.81
575.078	359.81
575.289	327.81
575.501	353.81
575.712	330.81
575.923	313.81
576.134	343.81
576.345	348.81
576.556	344.81
576.767	317.81
576.978	336.81
577.188	354.81
577.399	331.81
577.61	326.81
577.821	319.81
578.032	318.81
578.243	340.81
578.454	442.81
578.665	371.81
578.875	338.81
579.086	325.81
579.297	336.81
579.508	302.81
579.718	308.81
579.929	315.81
580.14	310.81
580.35	299.81
580.561	308.81
580.772	306.81
580.982	301.81
581.193	310.81
581.403	312.81
581.614	288.81
581.825	308.81
582.035	305.81
582.246	309.81
582.456	291.81
582.667	304.81
582.877	300.81
583.087	314.81
583.298	302.81
583.508	287.81
583.719	292.81
583.929	306.81
584.139	300.81
584.35	308.81
584.56	311.81
584.77	281.81
584.981	310.81
585.191	310.81
585.401	323.81
585.611	278.81
585.821	290.81
586.032	309.81
586.242	293.81
586.452	298.81
586.662	314.81
586.872	301.81
587.082	299.81
587.292	277.81
587.502	299.81
587.713	286.81
587.923	300.81
588.133	305.81
588.343	302.81
588.553	310.81
588.762	292.81
588.972	294.81
589.182	306.81
589.392	299.81
589.602	288.81
589.812	288.81
590.022	300.81
590.232	315.81
590.441	303.81
590.651	295.81
590.861	299.81
591.071	282.81
591.281	322.81
591.49	304.81
591.7	322.81
591.91	317.81
592.119	298.81
592.329	302.81
592.539	324.81
592.748	341.81
592.958	349.81
593.167	329.81
593.377	325.81
593.587	351.81
593.796	352.81
594.006	358.81
594.215	333.81
594.424	337.81
594.634	338.81
594.843	357.81
595.053	330.81
595.262	324.81
595.472	321.81
595.681	314.81
595.89	296.81
596.1	300.81
596.309	303.81
596.518	317.81
596.727	290.81
596.937	290.81
597.146	277.81
597.355	286.81
597.564	273.81
597.774	275.81
597.983	266.81
598.192	254.81
598.401	273.81
598.61	267.81
598.819	266.81
599.028	277.81
599.237	280.81
599.446	274.81
599.655	277.81
599.864	275.81
600.073	268.81
600.282	269.81
600.491	284.81
600.7	254.81
600.909	290.81
601.118	287.81
601.327	285.81
601.536	277.81
601.745	268.81
601.953	277.81
602.162	266.81
602.371	275.81
602.58	252.81
602.789	252.81
602.997	257.81
603.206	249.81
603.415	234.81
603.623	240.81
603.832	256.81
604.041	240.81
604.249	237.81
604.458	243.81
604.666	252.81
604.875	234.81
605.084	254.81
605.292	250.81
605.501	265.81
605.709	271.81
605.918	240.81
606.126	244.81
606.334	258.81
606.543	248.81
606.751	243.81
606.96	226.81
607.168	259.81
607.376	242.81
607.585	248.81
607.793	256.81
608.001	262.81
608.21	245.81
608.418	257.81
608.626	251.81
608.834	261.81
609.043	231.81
609.251	243.81
609.459	254.81
609.667	237.81
609.875	250.81
610.083	260.81
610.291	243.81
610.499	244.81
610.707	252.81
610.916	247.81
611.124	246.81
611.332	247.81
611.54	240.81
611.748	225.81
611.955	264.81
612.163	262.81
612.371	240.81
612.579	243.81
612.787	250.81
612.995	257.81
613.203	254.81
613.411	243.81
613.618	251.81
613.826	237.81
614.034	244.81
614.242	237.81
614.449	240.81
614.657	262.81
614.865	248.81
615.072	253.81
615.28	252.81
615.488	247.81
615.695	258.81
615.903	246.81
616.111	247.81
616.318	265.81
616.526	241.81
616.733	264.81
616.941	243.81
617.148	223.81
617.356	231.81
617.563	249.81
617.771	244.81
617.978	247.81
618.185	226.81
618.393	216.81
618.6	244.81
618.807	240.81
619.015	231.81
619.222	255.81
619.429	240.81
619.637	225.81
619.844	234.81
620.051	224.81
620.258	217.81
620.466	221.81
620.673	231.81
620.88	219.81
621.087	226.81
621.294	248.81
621.501	242.81
621.708	225.81
621.915	243.81
622.122	222.81
622.329	235.81
622.536	228.81
622.743	225.81
622.95	220.81
623.157	219.81
623.364	230.81
623.571	222.81
623.778	225.81
623.985	216.81
624.192	227.81
624.399	213.81
624.606	237.81
624.812	212.81
625.019	221.81
625.226	217.81
625.433	217.81
625.639	218.81
625.846	200.81
626.053	209.81
626.259	208.81
626.466	217.81
626.673	210.81
626.879	201.81
627.086	218.81
627.293	206.81
627.499	217.81
627.706	217.81
627.912	236.81
628.119	196.81
628.325	227.81
628.532	209.81
628.738	196.81
628.945	194.81
629.151	200.81
629.357	194.81
629.564	198.81
629.77	195.81
629.976	204.81
630.183	192.81
630.389	203.81
630.595	210.81
630.802	199.81
631.008	193.81
631.214	194.81
631.42	193.81
631.627	197.81
631.833	206.81
632.039	195.81
632.245	204.81
632.451	185.81
632.657	194.81
632.863	190.81
633.069	193.81
633.275	178.81
633.481	192.81
633.688	201.81
633.893	186.81
634.099	177.81
634.305	177.81
634.511	180.81
634.717	200.81
634.923	202.81
635.129	185.81
635.335	196.81
635.541	183.81
635.747	186.81
635.952	194.81
636.158	191.81
636.364	194.81
636.57	196.81
636.775	163.81
636.981	182.81
637.187	164.81
637.392	180.81
637.598	181.81
637.804	178.81
638.009	195.81
638.215	182.81
638.421	187.81
638.626	172.81
638.832	183.81
639.037	180.81
639.243	183.81
639.448	176.81
639.654	185.81
639.859	175.81
640.065	193.81
640.27	166.81
640.475	188.81
640.681	172.81
640.886	165.81
641.091	169.81
641.297	182.81
641.502	183.81
641.707	172.81
641.913	180.81
642.118	167.81
642.323	178.81
642.528	164.81
642.733	173.81
642.939	167.81
643.144	168.81
643.349	149.81
643.554	163.81
643.759	177.81
643.964	182.81
644.169	168.81
644.374	165.81
644.579	178.81
644.784	167.81
644.989	171.81
645.194	171.81
645.399	178.81
645.604	169.81
645.809	177.81
646.014	160.81
646.219	174.81
646.423	165.81
646.628	186.81
646.833	167.81
647.038	175.81
647.243	173.81
647.447	182.81
647.652	178.81
647.857	152.81
648.062	170.81
648.266	164.81
648.471	171.81
648.676	174.81
648.88	176.81
649.085	164.81
649.289	184.81
649.494	189.81
649.698	180.81
649.903	189.81
650.107	172.81
650.312	177.81
650.516	157.81
650.721	168.81
650.925	161.81
651.13	147.81
651.334	163.81
651.539	156.81
651.743	146.81
651.947	167.81
652.152	148.81
652.356	149.81
652.56	146.81
652.764	146.81
652.969	143.81
653.173	131.81
653.377	156.81
653.581	138.81
653.785	146.81
653.99	154.81
654.194	148.81
654.398	140.81
654.602	143.81
654.806	150.81
655.01	143.81
655.214	151.81
655.418	131.81
655.622	149.81
655.826	152.81
656.03	132.81
656.234	132.81
656.438	133.81
656.642	155.81
656.846	158.81
657.049	133.81
657.253	128.81
657.457	119.81
657.661	125.81
657.865	122.81
658.068	126.81
658.272	119.81
658.476	105.81
658.68	124.81
658.883	95.81
659.087	106.81
659.291	113.81
659.494	105.81
659.698	110.81
659.901	101.81
660.105	99.81
660.309	96.81
660.512	89.81
660.716	107.81
660.919	84.81
661.123	101.81
661.326	83.81
661.53	82.81
661.733	97.81
661.936	87.81
662.14	87.81
662.343	96.81
662.546	80.81
662.75	84.81
662.953	90.81
663.156	74.81
663.36	92.81
663.563	89.81
663.766	77.81
663.969	84.81
664.173	81.81
664.376	80.81
664.579	90.81
664.782	82.81
664.985	86.81
665.188	90.81
665.391	79.81
665.594	69.81
665.797	82.81
666	71.81
666.203	86.81
666.406	96.81
666.609	85.81
666.812	81.81
667.015	89.81
667.218	73.81
667.421	75.81
667.624	86.81
667.827	84.81
668.03	103.81
668.232	83.81
668.435	80.81
668.638	76.81
668.841	94.81
669.043	83.81
669.246	90.81
669.449	85.81
669.651	81.81
669.854	83.81
670.057	72.81
670.259	69.81
670.462	82.81
670.665	73.81
670.867	70.81
671.07	89.81
671.272	77.81
671.475	79.81
671.677	87.81
671.88	72.81
672.082	94.81
672.284	75.81
672.487	83.81
672.689	69.81
672.892	77.81
