Data from 1973.PennyLincolnUp.Lamp.En5.5.200Scan.071719.P1.Changed Mount._HRD10591_15-45-13-853.txt Node
Date: Thu Jul 18 15:45:13 EDT 2019
User: cochatt
Spectrometer: HR+D1059
Trigger mode: 1
Integration Time (sec): 1.000000E-1
Scans to average: 1
Electric dark correction enabled: true
Nonlinearity correction enabled: false
Boxcar width: 0
XAxis mode: Wavelengths
Number of Pixels in Spectrum: 2048
>>>>>Begin Spectral Data<<<<<
223.165	-12.06
223.4	-12.06
223.635	-12.06
223.869	-11.06
224.104	-19.06
224.338	-20.06
224.573	3.94
224.808	-11.06
225.042	-12.06
225.277	-16.06
225.511	3.94
225.746	-2.06
225.98	1.94
226.215	16.94
226.449	8.94
226.683	9.94
226.918	29.94
227.152	27.94
227.387	35.94
227.621	31.94
227.856	41.94
228.09	45.94
228.324	45.94
228.559	45.94
228.793	64.94
229.027	80.94
229.262	94.94
229.496	124.94
229.73	118.94
229.964	161.94
230.199	129.94
230.433	125.94
230.667	135.94
230.901	106.94
231.136	113.94
231.37	109.94
231.604	123.94
231.838	115.94
232.072	116.94
232.306	118.94
232.541	121.94
232.775	117.94
233.009	115.94
233.243	126.94
233.477	119.94
233.711	137.94
233.945	125.94
234.179	129.94
234.413	110.94
234.647	107.94
234.881	128.94
235.115	119.94
235.349	115.94
235.583	122.94
235.817	129.94
236.051	127.94
236.285	145.94
236.519	123.94
236.753	132.94
236.987	141.94
237.221	166.94
237.455	198.94
237.689	163.94
237.922	143.94
238.156	126.94
238.39	142.94
238.624	132.94
238.858	125.94
239.091	127.94
239.325	142.94
239.559	128.94
239.793	129.94
240.027	132.94
240.26	128.94
240.494	170.94
240.728	161.94
240.961	162.94
241.195	154.94
241.429	141.94
241.662	142.94
241.896	136.94
242.13	136.94
242.363	140.94
242.597	135.94
242.83	147.94
243.064	128.94
243.298	140.94
243.531	150.94
243.765	157.94
243.998	153.94
244.232	146.94
244.465	155.94
244.699	157.94
244.932	156.94
245.166	161.94
245.399	142.94
245.633	151.94
245.866	164.94
246.099	173.94
246.333	156.94
246.566	154.94
246.8	158.94
247.033	170.94
247.266	163.94
247.5	166.94
247.733	187.94
247.966	177.94
248.2	167.94
248.433	183.94
248.666	201.94
248.899	191.94
249.133	208.94
249.366	214.94
249.599	206.94
249.832	194.94
250.066	184.94
250.299	185.94
250.532	194.94
250.765	215.94
250.998	241.94
251.231	220.94
251.465	210.94
251.698	202.94
251.931	186.94
252.164	199.94
252.397	213.94
252.63	214.94
252.863	204.94
253.096	221.94
253.329	225.94
253.562	234.94
253.795	220.94
254.028	235.94
254.261	202.94
254.494	237.94
254.727	245.94
254.96	273.94
255.193	260.94
255.426	258.94
255.659	212.94
255.892	217.94
256.124	216.94
256.357	230.94
256.59	255.94
256.823	241.94
257.056	221.94
257.289	218.94
257.521	219.94
257.754	230.94
257.987	209.94
258.22	236.94
258.452	230.94
258.685	219.94
258.918	229.94
259.151	230.94
259.383	222.94
259.616	215.94
259.849	234.94
260.081	228.94
260.314	241.94
260.547	260.94
260.779	263.94
261.012	233.94
261.244	228.94
261.477	246.94
261.71	227.94
261.942	234.94
262.175	249.94
262.407	239.94
262.64	221.94
262.872	225.94
263.105	236.94
263.337	234.94
263.57	244.94
263.802	239.94
264.035	243.94
264.267	223.94
264.499	227.94
264.732	244.94
264.964	230.94
265.197	219.94
265.429	226.94
265.661	222.94
265.894	231.94
266.126	237.94
266.358	246.94
266.591	225.94
266.823	236.94
267.055	241.94
267.287	238.94
267.52	238.94
267.752	241.94
267.984	247.94
268.216	254.94
268.448	254.94
268.681	248.94
268.913	272.94
269.145	274.94
269.377	288.94
269.609	320.94
269.841	278.94
270.073	292.94
270.306	317.94
270.538	332.94
270.77	336.94
271.002	315.94
271.234	303.94
271.466	313.94
271.698	345.94
271.93	341.94
272.162	318.94
272.394	317.94
272.626	332.94
272.858	295.94
273.09	292.94
273.322	302.94
273.553	283.94
273.785	295.94
274.017	285.94
274.249	283.94
274.481	291.94
274.713	293.94
274.945	286.94
275.176	261.94
275.408	293.94
275.64	282.94
275.872	291.94
276.104	292.94
276.335	285.94
276.567	274.94
276.799	316.94
277.031	319.94
277.262	328.94
277.494	342.94
277.726	332.94
277.957	330.94
278.189	297.94
278.421	306.94
278.652	295.94
278.884	287.94
279.115	287.94
279.347	308.94
279.579	295.94
279.81	294.94
280.042	278.94
280.273	294.94
280.505	297.94
280.736	307.94
280.968	312.94
281.199	296.94
281.431	289.94
281.662	301.94
281.894	285.94
282.125	318.94
282.356	297.94
282.588	313.94
282.819	323.94
283.051	308.94
283.282	293.94
283.513	302.94
283.745	306.94
283.976	333.94
284.207	309.94
284.439	310.94
284.67	321.94
284.901	297.94
285.132	310.94
285.364	330.94
285.595	312.94
285.826	301.94
286.057	325.94
286.288	318.94
286.52	329.94
286.751	310.94
286.982	313.94
287.213	321.94
287.444	327.94
287.675	354.94
287.906	319.94
288.138	333.94
288.369	316.94
288.6	321.94
288.831	344.94
289.062	338.94
289.293	338.94
289.524	331.94
289.755	355.94
289.986	338.94
290.217	323.94
290.448	338.94
290.679	311.94
290.91	326.94
291.141	328.94
291.371	332.94
291.602	321.94
291.833	329.94
292.064	318.94
292.295	331.94
292.526	343.94
292.757	325.94
292.987	345.94
293.218	328.94
293.449	343.94
293.68	346.94
293.91	329.94
294.141	322.94
294.372	337.94
294.603	342.94
294.833	334.94
295.064	321.94
295.295	341.94
295.525	342.94
295.756	330.94
295.987	333.94
296.217	348.94
296.448	369.94
296.679	325.94
296.909	355.94
297.14	333.94
297.37	333.94
297.601	336.94
297.831	325.94
298.062	356.94
298.292	350.94
298.523	344.94
298.753	355.94
298.984	356.94
299.214	332.94
299.445	350.94
299.675	360.94
299.905	369.94
300.136	379.94
300.366	358.94
300.597	361.94
300.827	372.94
301.057	377.94
301.288	407.94
301.518	363.94
301.748	361.94
301.979	362.94
302.209	375.94
302.439	368.94
302.669	393.94
302.9	375.94
303.13	390.94
303.36	360.94
303.59	367.94
303.82	370.94
304.051	353.94
304.281	396.94
304.511	376.94
304.741	359.94
304.971	365.94
305.201	359.94
305.431	407.94
305.661	389.94
305.891	356.94
306.121	356.94
306.352	356.94
306.582	338.94
306.812	365.94
307.042	369.94
307.272	391.94
307.502	371.94
307.731	377.94
307.961	382.94
308.191	372.94
308.421	379.94
308.651	380.94
308.881	385.94
309.111	375.94
309.341	382.94
309.571	369.94
309.8	398.94
310.03	389.94
310.26	405.94
310.49	404.94
310.72	409.94
310.949	409.94
311.179	419.94
311.409	417.94
311.639	395.94
311.868	400.94
312.098	377.94
312.328	427.94
312.557	414.94
312.787	426.94
313.017	433.94
313.246	436.94
313.476	424.94
313.706	398.94
313.935	413.94
314.165	434.94
314.394	428.94
314.624	430.94
314.853	421.94
315.083	411.94
315.312	407.94
315.542	399.94
315.771	423.94
316.001	396.94
316.23	403.94
316.46	419.94
316.689	411.94
316.919	417.94
317.148	423.94
317.377	426.94
317.607	425.94
317.836	427.94
318.065	424.94
318.295	421.94
318.524	405.94
318.753	423.94
318.983	407.94
319.212	411.94
319.441	421.94
319.67	410.94
319.9	417.94
320.129	418.94
320.358	411.94
320.587	424.94
320.816	421.94
321.046	435.94
321.275	433.94
321.504	428.94
321.733	424.94
321.962	446.94
322.191	425.94
322.42	442.94
322.649	432.94
322.878	454.94
323.108	465.94
323.337	486.94
323.566	482.94
323.795	517.94
324.024	548.94
324.253	641.94
324.482	817.94
324.71	1156.94
324.939	1653.94
325.168	1499.94
325.397	818.94
325.626	591.94
325.855	541.94
326.084	500.94
326.313	473.94
326.542	483.94
326.77	525.94
326.999	595.94
327.228	773.94
327.457	1067.94
327.686	1285.94
327.914	892.94
328.143	645.94
328.372	604.94
328.6	563.94
328.829	545.94
329.058	569.94
329.287	558.94
329.515	526.94
329.744	497.94
329.972	529.94
330.201	519.94
330.43	567.94
330.658	559.94
330.887	591.94
331.115	569.94
331.344	542.94
331.572	509.94
331.801	515.94
332.03	518.94
332.258	505.94
332.486	526.94
332.715	486.94
332.943	506.94
333.172	517.94
333.4	552.94
333.629	539.94
333.857	550.94
334.085	569.94
334.314	530.94
334.542	584.94
334.771	581.94
334.999	545.94
335.227	507.94
335.455	541.94
335.684	514.94
335.912	512.94
336.14	473.94
336.369	485.94
336.597	481.94
336.825	500.94
337.053	477.94
337.281	477.94
337.51	507.94
337.738	511.94
337.966	500.94
338.194	488.94
338.422	470.94
338.65	477.94
338.878	472.94
339.106	460.94
339.334	460.94
339.562	481.94
339.79	471.94
340.018	469.94
340.246	459.94
340.474	490.94
340.702	467.94
340.93	462.94
341.158	453.94
341.386	461.94
341.614	481.94
341.842	471.94
342.07	429.94
342.298	473.94
342.526	472.94
342.754	449.94
342.981	449.94
343.209	458.94
343.437	462.94
343.665	481.94
343.893	494.94
344.12	519.94
344.348	483.94
344.576	470.94
344.804	487.94
345.031	479.94
345.259	488.94
345.487	462.94
345.714	459.94
345.942	451.94
346.17	456.94
346.397	461.94
346.625	446.94
346.853	446.94
347.08	445.94
347.308	452.94
347.535	449.94
347.763	462.94
347.99	435.94
348.218	451.94
348.445	478.94
348.673	452.94
348.9	447.94
349.128	438.94
349.355	424.94
349.583	446.94
349.81	453.94
350.037	426.94
350.265	447.94
350.492	452.94
350.72	449.94
350.947	415.94
351.174	459.94
351.402	465.94
351.629	439.94
351.856	440.94
352.083	452.94
352.311	452.94
352.538	446.94
352.765	437.94
352.992	448.94
353.22	449.94
353.447	432.94
353.674	440.94
353.901	439.94
354.128	428.94
354.355	420.94
354.583	437.94
354.81	425.94
355.037	425.94
355.264	424.94
355.491	415.94
355.718	437.94
355.945	420.94
356.172	436.94
356.399	424.94
356.626	425.94
356.853	417.94
357.08	411.94
357.307	403.94
357.534	433.94
357.761	405.94
357.988	440.94
358.215	422.94
358.441	440.94
358.668	423.94
358.895	411.94
359.122	421.94
359.349	447.94
359.576	456.94
359.802	482.94
360.029	465.94
360.256	472.94
360.483	450.94
360.709	433.94
360.936	430.94
361.163	450.94
361.39	425.94
361.616	437.94
361.843	438.94
362.07	433.94
362.296	433.94
362.523	442.94
362.749	423.94
362.976	421.94
363.203	444.94
363.429	440.94
363.656	451.94
363.882	426.94
364.109	427.94
364.335	427.94
364.562	402.94
364.788	425.94
365.015	411.94
365.241	434.94
365.468	423.94
365.694	449.94
365.92	429.94
366.147	415.94
366.373	424.94
366.599	408.94
366.826	399.94
367.052	423.94
367.278	428.94
367.505	434.94
367.731	415.94
367.957	439.94
368.184	428.94
368.41	424.94
368.636	451.94
368.862	452.94
369.089	455.94
369.315	423.94
369.541	421.94
369.767	421.94
369.993	435.94
370.219	440.94
370.445	417.94
370.672	430.94
370.898	408.94
371.124	413.94
371.35	430.94
371.576	420.94
371.802	427.94
372.028	426.94
372.254	431.94
372.48	444.94
372.706	435.94
372.932	445.94
373.158	445.94
373.384	441.94
373.61	465.94
373.835	457.94
374.061	447.94
374.287	440.94
374.513	450.94
374.739	460.94
374.965	460.94
375.191	461.94
375.416	462.94
375.642	429.94
375.868	453.94
376.094	441.94
376.319	454.94
376.545	467.94
376.771	446.94
376.997	437.94
377.222	437.94
377.448	475.94
377.674	436.94
377.899	430.94
378.125	429.94
378.35	420.94
378.576	430.94
378.802	403.94
379.027	423.94
379.253	457.94
379.478	428.94
379.704	421.94
379.929	419.94
380.155	414.94
380.38	444.94
380.606	434.94
380.831	437.94
381.057	438.94
381.282	421.94
381.507	438.94
381.733	453.94
381.958	458.94
382.184	438.94
382.409	439.94
382.634	450.94
382.86	439.94
383.085	442.94
383.31	463.94
383.535	467.94
383.761	455.94
383.986	458.94
384.211	468.94
384.436	478.94
384.662	458.94
384.887	461.94
385.112	465.94
385.337	505.94
385.562	486.94
385.787	501.94
386.013	503.94
386.238	494.94
386.463	488.94
386.688	491.94
386.913	495.94
387.138	497.94
387.363	477.94
387.588	474.94
387.813	464.94
388.038	490.94
388.263	490.94
388.488	494.94
388.713	484.94
388.938	479.94
389.163	489.94
389.387	495.94
389.612	497.94
389.837	495.94
390.062	477.94
390.287	486.94
390.512	493.94
390.736	484.94
390.961	506.94
391.186	531.94
391.411	485.94
391.636	491.94
391.86	505.94
392.085	513.94
392.31	517.94
392.534	529.94
392.759	489.94
392.984	501.94
393.208	510.94
393.433	513.94
393.658	495.94
393.882	511.94
394.107	510.94
394.331	500.94
394.556	500.94
394.78	502.94
395.005	512.94
395.229	513.94
395.454	527.94
395.678	514.94
395.903	526.94
396.127	555.94
396.352	561.94
396.576	525.94
396.801	513.94
397.025	485.94
397.249	494.94
397.474	532.94
397.698	543.94
397.922	536.94
398.147	534.94
398.371	570.94
398.595	557.94
398.82	555.94
399.044	583.94
399.268	635.94
399.492	679.94
399.717	733.94
399.941	738.94
400.165	729.94
400.389	703.94
400.613	650.94
400.837	633.94
401.062	580.94
401.286	583.94
401.51	580.94
401.734	559.94
401.958	595.94
402.182	596.94
402.406	592.94
402.63	594.94
402.854	588.94
403.078	586.94
403.302	613.94
403.526	605.94
403.75	615.94
403.974	611.94
404.198	597.94
404.422	596.94
404.645	621.94
404.869	639.94
405.093	658.94
405.317	699.94
405.541	714.94
405.765	650.94
405.988	639.94
406.212	635.94
406.436	646.94
406.66	653.94
406.883	650.94
407.107	697.94
407.331	750.94
407.555	793.94
407.778	761.94
408.002	732.94
408.226	670.94
408.449	680.94
408.673	667.94
408.896	675.94
409.12	704.94
409.344	691.94
409.567	641.94
409.791	618.94
410.014	600.94
410.238	587.94
410.461	599.94
410.685	616.94
410.908	622.94
411.132	643.94
411.355	648.94
411.578	653.94
411.802	601.94
412.025	592.94
412.249	599.94
412.472	623.94
412.695	657.94
412.919	650.94
413.142	605.94
413.365	588.94
413.589	586.94
413.812	562.94
414.035	575.94
414.258	557.94
414.482	547.94
414.705	535.94
414.928	583.94
415.151	565.94
415.374	571.94
415.597	572.94
415.821	551.94
416.044	561.94
416.267	565.94
416.49	570.94
416.713	545.94
416.936	571.94
417.159	553.94
417.382	581.94
417.605	569.94
417.828	567.94
418.051	579.94
418.274	584.94
418.497	578.94
418.72	562.94
418.943	579.94
419.166	608.94
419.389	650.94
419.611	619.94
419.834	614.94
420.057	601.94
420.28	590.94
420.503	578.94
420.726	579.94
420.948	565.94
421.171	636.94
421.394	676.94
421.617	599.94
421.839	595.94
422.062	599.94
422.285	603.94
422.507	654.94
422.73	681.94
422.953	681.94
423.175	651.94
423.398	630.94
423.621	611.94
423.843	628.94
424.066	620.94
424.288	611.94
424.511	649.94
424.733	672.94
424.956	750.94
425.178	704.94
425.401	700.94
425.623	701.94
425.846	647.94
426.068	614.94
426.291	607.94
426.513	610.94
426.735	614.94
426.958	615.94
427.18	716.94
427.402	855.94
427.625	907.94
427.847	773.94
428.069	682.94
428.292	605.94
428.514	583.94
428.736	552.94
428.958	575.94
429.181	569.94
429.403	561.94
429.625	560.94
429.847	559.94
430.069	617.94
430.292	630.94
430.514	577.94
430.736	567.94
430.958	557.94
431.18	537.94
431.402	547.94
431.624	523.94
431.846	532.94
432.068	545.94
432.29	550.94
432.512	550.94
432.734	569.94
432.956	543.94
433.178	554.94
433.4	575.94
433.622	531.94
433.844	542.94
434.066	533.94
434.287	533.94
434.509	547.94
434.731	576.94
434.953	572.94
435.175	601.94
435.397	603.94
435.618	619.94
435.84	635.94
436.062	710.94
436.284	742.94
436.505	645.94
436.727	580.94
436.949	587.94
437.17	541.94
437.392	539.94
437.614	538.94
437.835	575.94
438.057	648.94
438.278	757.94
438.5	751.94
438.721	848.94
438.943	795.94
439.165	650.94
439.386	608.94
439.608	558.94
439.829	584.94
440.05	603.94
440.272	643.94
440.493	627.94
440.715	596.94
440.936	556.94
441.158	557.94
441.379	563.94
441.6	593.94
441.822	587.94
442.043	633.94
442.264	707.94
442.486	755.94
442.707	680.94
442.928	629.94
443.149	625.94
443.371	635.94
443.592	689.94
443.813	765.94
444.034	831.94
444.255	700.94
444.476	647.94
444.698	636.94
444.919	664.94
445.14	757.94
445.361	685.94
445.582	639.94
445.803	656.94
446.024	739.94
446.245	796.94
446.466	723.94
446.687	662.94
446.908	607.94
447.129	569.94
447.35	563.94
447.571	558.94
447.792	556.94
448.013	546.94
448.234	573.94
448.455	597.94
448.675	717.94
448.896	802.94
449.117	679.94
449.338	647.94
449.559	736.94
449.779	862.94
450	673.94
450.221	583.94
450.442	551.94
450.662	541.94
450.883	509.94
451.104	554.94
451.324	535.94
451.545	514.94
451.766	491.94
451.986	495.94
452.207	492.94
452.428	497.94
452.648	477.94
452.869	478.94
453.089	513.94
453.31	519.94
453.53	489.94
453.751	499.94
453.971	471.94
454.192	499.94
454.412	472.94
454.633	482.94
454.853	477.94
455.073	457.94
455.294	523.94
455.514	553.94
455.734	552.94
455.955	481.94
456.175	474.94
456.395	468.94
456.616	453.94
456.836	463.94
457.056	468.94
457.276	455.94
457.497	463.94
457.717	455.94
457.937	477.94
458.157	473.94
458.377	473.94
458.598	499.94
458.818	541.94
459.038	575.94
459.258	641.94
459.478	575.94
459.698	535.94
459.918	549.94
460.138	547.94
460.358	533.94
460.578	581.94
460.798	557.94
461.018	595.94
461.238	548.94
461.458	575.94
461.678	532.94
461.898	559.94
462.118	563.94
462.338	590.94
462.558	594.94
462.777	611.94
462.997	651.94
463.217	651.94
463.437	659.94
463.657	622.94
463.876	638.94
464.096	620.94
464.316	614.94
464.536	617.94
464.755	612.94
464.975	617.94
465.195	624.94
465.414	641.94
465.634	594.94
465.854	550.94
466.073	554.94
466.293	523.94
466.512	515.94
466.732	515.94
466.951	494.94
467.171	482.94
467.391	506.94
467.61	518.94
467.829	534.94
468.049	526.94
468.268	505.94
468.488	481.94
468.707	510.94
468.927	475.94
469.146	488.94
469.365	513.94
469.585	539.94
469.804	513.94
470.023	547.94
470.243	522.94
470.462	528.94
470.681	528.94
470.901	540.94
471.12	525.94
471.339	517.94
471.558	551.94
471.777	505.94
471.997	523.94
472.216	515.94
472.435	520.94
472.654	526.94
472.873	497.94
473.092	484.94
473.311	506.94
473.53	496.94
473.749	509.94
473.968	546.94
474.187	629.94
474.406	645.94
474.625	548.94
474.844	515.94
475.063	497.94
475.282	522.94
475.501	512.94
475.72	502.94
475.939	521.94
476.158	507.94
476.377	525.94
476.596	515.94
476.814	547.94
477.033	539.94
477.252	535.94
477.471	561.94
477.69	551.94
477.908	556.94
478.127	563.94
478.346	583.94
478.564	577.94
478.783	576.94
479.002	583.94
479.22	591.94
479.439	607.94
479.658	593.94
479.876	611.94
480.095	622.94
480.313	657.94
480.532	655.94
480.751	658.94
480.969	641.94
481.188	670.94
481.406	675.94
481.624	637.94
481.843	619.94
482.061	603.94
482.28	600.94
482.498	576.94
482.717	582.94
482.935	589.94
483.153	584.94
483.372	595.94
483.59	592.94
483.808	599.94
484.027	584.94
484.245	578.94
484.463	587.94
484.681	599.94
484.9	612.94
485.118	595.94
485.336	617.94
485.554	613.94
485.772	612.94
485.99	596.94
486.209	611.94
486.427	623.94
486.645	612.94
486.863	623.94
487.081	634.94
487.299	633.94
487.517	622.94
487.735	617.94
487.953	618.94
488.171	598.94
488.389	639.94
488.607	618.94
488.825	636.94
489.043	605.94
489.261	633.94
489.479	650.94
489.696	643.94
489.914	670.94
490.132	655.94
490.35	637.94
490.568	681.94
490.786	663.94
491.003	693.94
491.221	686.94
491.439	713.94
491.657	731.94
491.874	734.94
492.092	717.94
492.31	693.94
492.527	714.94
492.745	717.94
492.963	724.94
493.18	713.94
493.398	699.94
493.615	724.94
493.833	730.94
494.05	747.94
494.268	733.94
494.485	740.94
494.703	750.94
494.92	710.94
495.138	746.94
495.355	733.94
495.573	727.94
495.79	764.94
496.008	718.94
496.225	740.94
496.442	729.94
496.66	743.94
496.877	754.94
497.094	756.94
497.312	738.94
497.529	777.94
497.746	769.94
497.963	776.94
498.181	819.94
498.398	841.94
498.615	860.94
498.832	883.94
499.049	887.94
499.267	925.94
499.484	1005.94
499.701	1049.94
499.918	1123.94
500.135	1190.94
500.352	1287.94
500.569	1347.94
500.786	1330.94
501.003	1283.94
501.22	1201.94
501.437	1153.94
501.654	1076.94
501.871	1009.94
502.088	1002.94
502.305	930.94
502.522	873.94
502.739	893.94
502.956	846.94
503.172	854.94
503.389	797.94
503.606	773.94
503.823	817.94
504.04	776.94
504.256	762.94
504.473	760.94
504.69	775.94
504.907	765.94
505.123	750.94
505.34	719.94
505.557	738.94
505.773	707.94
505.99	707.94
506.207	695.94
506.423	698.94
506.64	699.94
506.856	689.94
507.073	680.94
507.289	674.94
507.506	663.94
507.722	675.94
507.939	678.94
508.155	648.94
508.372	650.94
508.588	658.94
508.805	639.94
509.021	654.94
509.238	661.94
509.454	657.94
509.67	677.94
509.887	621.94
510.103	656.94
510.319	650.94
510.536	726.94
510.752	988.94
510.968	823.94
511.184	631.94
511.401	637.94
511.617	638.94
511.833	598.94
512.049	604.94
512.265	595.94
512.481	620.94
512.698	617.94
512.914	597.94
513.13	601.94
513.346	597.94
513.562	597.94
513.778	611.94
513.994	629.94
514.21	611.94
514.426	635.94
514.642	667.94
514.858	676.94
515.074	655.94
515.29	768.94
515.506	1018.94
515.721	901.94
515.937	696.94
516.153	639.94
516.369	632.94
516.585	645.94
516.801	641.94
517.016	663.94
517.232	676.94
517.448	678.94
517.664	690.94
517.879	679.94
518.095	706.94
518.311	679.94
518.527	697.94
518.742	694.94
518.958	669.94
519.173	642.94
519.389	606.94
519.605	635.94
519.82	638.94
520.036	611.94
520.251	642.94
520.467	649.94
520.682	630.94
520.898	646.94
521.113	641.94
521.329	667.94
521.544	705.94
521.76	811.94
521.975	1245.94
522.19	1240.94
522.406	762.94
522.621	642.94
522.836	592.94
523.052	595.94
523.267	566.94
523.482	569.94
523.698	551.94
523.913	546.94
524.128	545.94
524.343	539.94
524.559	553.94
524.774	536.94
524.989	561.94
525.204	543.94
525.419	523.94
525.634	524.94
525.849	515.94
526.064	513.94
526.28	509.94
526.495	495.94
526.71	505.94
526.925	511.94
527.14	507.94
527.355	518.94
527.57	498.94
527.785	506.94
527.999	510.94
528.214	517.94
528.429	493.94
528.644	501.94
528.859	526.94
529.074	516.94
529.289	531.94
529.503	558.94
529.718	556.94
529.933	525.94
530.148	519.94
530.363	509.94
530.577	510.94
530.792	517.94
531.007	505.94
531.221	507.94
531.436	482.94
531.651	499.94
531.865	509.94
532.08	494.94
532.295	502.94
532.509	502.94
532.724	476.94
532.938	501.94
533.153	476.94
533.367	486.94
533.582	517.94
533.796	503.94
534.011	475.94
534.225	484.94
534.44	505.94
534.654	494.94
534.868	479.94
535.083	477.94
535.297	479.94
535.511	474.94
535.726	517.94
535.94	511.94
536.154	491.94
536.369	465.94
536.583	482.94
536.797	469.94
537.011	472.94
537.225	481.94
537.44	485.94
537.654	466.94
537.868	466.94
538.082	491.94
538.296	478.94
538.51	478.94
538.724	478.94
538.938	463.94
539.153	479.94
539.367	482.94
539.581	486.94
539.795	459.94
540.009	449.94
540.222	468.94
540.436	451.94
540.65	471.94
540.864	486.94
541.078	474.94
541.292	476.94
541.506	476.94
541.72	435.94
541.934	492.94
542.147	478.94
542.361	471.94
542.575	456.94
542.789	472.94
543.002	490.94
543.216	492.94
543.43	484.94
543.644	461.94
543.857	459.94
544.071	477.94
544.285	474.94
544.498	486.94
544.712	467.94
544.925	501.94
545.139	470.94
545.352	477.94
545.566	486.94
545.779	458.94
545.993	468.94
546.206	460.94
546.42	490.94
546.633	467.94
546.847	469.94
547.06	466.94
547.274	468.94
547.487	455.94
547.7	473.94
547.914	465.94
548.127	472.94
548.34	455.94
548.554	471.94
548.767	454.94
548.98	487.94
549.193	485.94
549.407	458.94
549.62	467.94
549.833	469.94
550.046	462.94
550.259	473.94
550.473	467.94
550.686	451.94
550.899	465.94
551.112	447.94
551.325	446.94
551.538	454.94
551.751	454.94
551.964	441.94
552.177	464.94
552.39	462.94
552.603	475.94
552.816	459.94
553.029	482.94
553.242	478.94
553.455	498.94
553.667	516.94
553.88	490.94
554.093	463.94
554.306	476.94
554.519	497.94
554.732	434.94
554.944	465.94
555.157	438.94
555.37	445.94
555.583	458.94
555.795	445.94
556.008	429.94
556.221	436.94
556.433	420.94
556.646	431.94
556.859	437.94
557.071	418.94
557.284	424.94
557.496	436.94
557.709	421.94
557.921	415.94
558.134	426.94
558.346	387.94
558.559	418.94
558.771	411.94
558.984	419.94
559.196	412.94
559.409	412.94
559.621	425.94
559.833	403.94
560.046	409.94
560.258	409.94
560.47	422.94
560.683	414.94
560.895	397.94
561.107	417.94
561.32	398.94
561.532	415.94
561.744	395.94
561.956	419.94
562.168	419.94
562.381	418.94
562.593	408.94
562.805	406.94
563.017	420.94
563.229	406.94
563.441	403.94
563.653	407.94
563.865	419.94
564.077	433.94
564.289	421.94
564.501	435.94
564.713	467.94
564.925	439.94
565.137	439.94
565.349	466.94
565.561	464.94
565.773	456.94
565.985	493.94
566.197	465.94
566.408	503.94
566.62	545.94
566.832	556.94
567.044	579.94
567.255	577.94
567.467	592.94
567.679	601.94
567.891	621.94
568.102	619.94
568.314	599.94
568.526	585.94
568.737	551.94
568.949	534.94
569.161	499.94
569.372	480.94
569.584	467.94
569.795	435.94
570.007	442.94
570.218	462.94
570.43	430.94
570.641	433.94
570.853	417.94
571.064	439.94
571.276	413.94
571.487	403.94
571.698	409.94
571.91	383.94
572.121	409.94
572.333	389.94
572.544	376.94
572.755	359.94
572.966	363.94
573.178	381.94
573.389	371.94
573.6	362.94
573.811	373.94
574.023	364.94
574.234	357.94
574.445	359.94
574.656	348.94
574.867	364.94
575.078	341.94
575.289	363.94
575.501	356.94
575.712	365.94
575.923	351.94
576.134	332.94
576.345	349.94
576.556	366.94
576.767	346.94
576.978	348.94
577.188	362.94
577.399	330.94
577.61	348.94
577.821	336.94
578.032	350.94
578.243	345.94
578.454	487.94
578.665	408.94
578.875	353.94
579.086	332.94
579.297	342.94
579.508	330.94
579.718	339.94
579.929	330.94
580.14	327.94
580.35	329.94
580.561	314.94
580.772	316.94
580.982	322.94
581.193	326.94
581.403	323.94
581.614	328.94
581.825	324.94
582.035	327.94
582.246	327.94
582.456	330.94
582.667	321.94
582.877	321.94
583.087	324.94
583.298	321.94
583.508	340.94
583.719	317.94
583.929	319.94
584.139	328.94
584.35	316.94
584.56	302.94
584.77	315.94
584.981	318.94
585.191	320.94
585.401	318.94
585.611	310.94
585.821	317.94
586.032	311.94
586.242	305.94
586.452	298.94
586.662	307.94
586.872	316.94
587.082	309.94
587.292	303.94
587.502	313.94
587.713	307.94
587.923	300.94
588.133	297.94
588.343	316.94
588.553	289.94
588.762	311.94
588.972	334.94
589.182	326.94
589.392	300.94
589.602	318.94
589.812	325.94
590.022	300.94
590.232	306.94
590.441	329.94
590.651	312.94
590.861	335.94
591.071	326.94
591.281	313.94
591.49	322.94
591.7	335.94
591.91	317.94
592.119	328.94
592.329	315.94
592.539	338.94
592.748	335.94
592.958	347.94
593.167	356.94
593.377	348.94
593.587	361.94
593.796	346.94
594.006	343.94
594.215	364.94
594.424	361.94
594.634	356.94
594.843	346.94
595.053	345.94
595.262	334.94
595.472	327.94
595.681	335.94
595.89	339.94
596.1	313.94
596.309	313.94
596.518	298.94
596.727	306.94
596.937	309.94
597.146	310.94
597.355	308.94
597.564	296.94
597.774	298.94
597.983	297.94
598.192	289.94
598.401	303.94
598.61	302.94
598.819	282.94
599.028	283.94
599.237	292.94
599.446	289.94
599.655	281.94
599.864	285.94
600.073	276.94
600.282	285.94
600.491	286.94
600.7	271.94
600.909	267.94
601.118	276.94
601.327	267.94
601.536	289.94
601.745	274.94
601.953	271.94
602.162	266.94
602.371	250.94
602.58	257.94
602.789	271.94
602.997	261.94
603.206	277.94
603.415	264.94
603.623	244.94
603.832	260.94
604.041	267.94
604.249	265.94
604.458	254.94
604.666	247.94
604.875	242.94
605.084	263.94
605.292	260.94
605.501	259.94
605.709	267.94
605.918	262.94
606.126	261.94
606.334	286.94
606.543	254.94
606.751	266.94
606.96	253.94
607.168	260.94
607.376	261.94
607.585	271.94
607.793	247.94
608.001	245.94
608.21	265.94
608.418	260.94
608.626	251.94
608.834	243.94
609.043	238.94
609.251	250.94
609.459	235.94
609.667	257.94
609.875	251.94
610.083	234.94
610.291	238.94
610.499	264.94
610.707	255.94
610.916	255.94
611.124	262.94
611.332	261.94
611.54	265.94
611.748	258.94
611.955	250.94
612.163	268.94
612.371	258.94
612.579	267.94
612.787	244.94
612.995	259.94
613.203	253.94
613.411	250.94
613.618	239.94
613.826	249.94
614.034	258.94
614.242	229.94
614.449	255.94
614.657	262.94
614.865	235.94
615.072	245.94
615.28	250.94
615.488	237.94
615.695	234.94
615.903	238.94
616.111	244.94
616.318	254.94
616.526	284.94
616.733	263.94
616.941	269.94
617.148	258.94
617.356	223.94
617.563	232.94
617.771	245.94
617.978	250.94
618.185	236.94
618.393	235.94
618.6	268.94
618.807	241.94
619.015	251.94
619.222	232.94
619.429	251.94
619.637	243.94
619.844	254.94
620.051	243.94
620.258	251.94
620.466	254.94
620.673	245.94
620.88	236.94
621.087	244.94
621.294	233.94
621.501	208.94
621.708	219.94
621.915	242.94
622.122	237.94
622.329	234.94
622.536	246.94
622.743	239.94
622.95	235.94
623.157	223.94
623.364	201.94
623.571	220.94
623.778	231.94
623.985	228.94
624.192	234.94
624.399	213.94
624.606	226.94
624.812	221.94
625.019	225.94
625.226	217.94
625.433	222.94
625.639	214.94
625.846	237.94
626.053	220.94
626.259	209.94
626.466	222.94
626.673	214.94
626.879	218.94
627.086	206.94
627.293	213.94
627.499	215.94
627.706	223.94
627.912	214.94
628.119	205.94
628.325	223.94
628.532	207.94
628.738	220.94
628.945	207.94
629.151	202.94
629.357	221.94
629.564	207.94
629.77	227.94
629.976	207.94
630.183	202.94
630.389	222.94
630.595	201.94
630.802	217.94
631.008	203.94
631.214	185.94
631.42	205.94
631.627	201.94
631.833	202.94
632.039	219.94
632.245	193.94
632.451	213.94
632.657	212.94
632.863	184.94
633.069	189.94
633.275	201.94
633.481	196.94
633.688	202.94
633.893	200.94
634.099	194.94
634.305	193.94
634.511	193.94
634.717	181.94
634.923	215.94
635.129	193.94
635.335	189.94
635.541	189.94
635.747	190.94
635.952	191.94
636.158	189.94
636.364	188.94
636.57	190.94
636.775	198.94
636.981	189.94
637.187	193.94
637.392	190.94
637.598	185.94
637.804	182.94
638.009	172.94
638.215	183.94
638.421	178.94
638.626	175.94
638.832	189.94
639.037	183.94
639.243	178.94
639.448	186.94
639.654	188.94
639.859	189.94
640.065	186.94
640.27	197.94
640.475	170.94
640.681	184.94
640.886	177.94
641.091	170.94
641.297	185.94
641.502	177.94
641.707	181.94
641.913	180.94
642.118	178.94
642.323	164.94
642.528	180.94
642.733	188.94
642.939	177.94
643.144	197.94
643.349	161.94
643.554	165.94
643.759	167.94
643.964	162.94
644.169	187.94
644.374	170.94
644.579	161.94
644.784	173.94
644.989	166.94
645.194	160.94
645.399	169.94
645.604	164.94
645.809	157.94
646.014	189.94
646.219	193.94
646.423	169.94
646.628	179.94
646.833	177.94
647.038	152.94
647.243	174.94
647.447	178.94
647.652	185.94
647.857	177.94
648.062	174.94
648.266	181.94
648.471	179.94
648.676	187.94
648.88	189.94
649.085	186.94
649.289	172.94
649.494	181.94
649.698	181.94
649.903	178.94
650.107	192.94
650.312	181.94
650.516	164.94
650.721	161.94
650.925	178.94
651.13	159.94
651.334	164.94
651.539	153.94
651.743	157.94
651.947	168.94
652.152	155.94
652.356	139.94
652.56	161.94
652.764	154.94
652.969	140.94
653.173	142.94
653.377	153.94
653.581	143.94
653.785	151.94
653.99	134.94
654.194	129.94
654.398	135.94
654.602	135.94
654.806	139.94
655.01	149.94
655.214	134.94
655.418	137.94
655.622	129.94
655.826	144.94
656.03	137.94
656.234	149.94
656.438	132.94
656.642	149.94
656.846	129.94
657.049	139.94
657.253	140.94
657.457	125.94
657.661	115.94
657.865	132.94
658.068	117.94
658.272	104.94
658.476	109.94
658.68	100.94
658.883	96.94
659.087	110.94
659.291	94.94
659.494	108.94
659.698	96.94
659.901	103.94
660.105	108.94
660.309	92.94
660.512	82.94
660.716	97.94
660.919	90.94
661.123	99.94
661.326	89.94
661.53	101.94
661.733	90.94
661.936	103.94
662.14	94.94
662.343	85.94
662.546	84.94
662.75	92.94
662.953	86.94
663.156	92.94
663.36	93.94
663.563	81.94
663.766	78.94
663.969	73.94
664.173	81.94
664.376	90.94
664.579	81.94
664.782	84.94
664.985	100.94
665.188	82.94
665.391	83.94
665.594	77.94
665.797	93.94
666	98.94
666.203	85.94
666.406	95.94
666.609	88.94
666.812	77.94
667.015	84.94
667.218	105.94
667.421	85.94
667.624	80.94
667.827	75.94
668.03	76.94
668.232	77.94
668.435	78.94
668.638	72.94
668.841	87.94
669.043	86.94
669.246	81.94
669.449	66.94
669.651	75.94
669.854	87.94
670.057	84.94
670.259	84.94
670.462	86.94
670.665	93.94
670.867	78.94
671.07	92.94
671.272	85.94
671.475	85.94
671.677	74.94
671.88	82.94
672.082	76.94
672.284	90.94
672.487	87.94
672.689	78.94
672.892	86.94
