Data from 1973.PennyLincolnUp.Lamp.En5.5.200Scan.071719.P1.Changed Mount._HRD10591_15-45-54-853.txt Node
Date: Thu Jul 18 15:45:54 EDT 2019
User: cochatt
Spectrometer: HR+D1059
Trigger mode: 1
Integration Time (sec): 1.000000E-1
Scans to average: 1
Electric dark correction enabled: true
Nonlinearity correction enabled: false
Boxcar width: 0
XAxis mode: Wavelengths
Number of Pixels in Spectrum: 2048
>>>>>Begin Spectral Data<<<<<
223.165	-20.25
223.4	-20.25
223.635	-20.25
223.869	-24.25
224.104	-17.25
224.338	-13.25
224.573	-12.25
224.808	-13.25
225.042	3.75
225.277	-8.25
225.511	7.75
225.746	-4.25
225.98	10.75
226.215	19.75
226.449	21.75
226.683	15.75
226.918	14.75
227.152	18.75
227.387	34.75
227.621	29.75
227.856	53.75
228.09	53.75
228.324	50.75
228.559	49.75
228.793	65.75
229.027	105.75
229.262	101.75
229.496	121.75
229.73	125.75
229.964	133.75
230.199	112.75
230.433	122.75
230.667	117.75
230.901	120.75
231.136	111.75
231.37	122.75
231.604	127.75
231.838	115.75
232.072	118.75
232.306	118.75
232.541	106.75
232.775	117.75
233.009	113.75
233.243	131.75
233.477	125.75
233.711	133.75
233.945	127.75
234.179	126.75
234.413	116.75
234.647	122.75
234.881	127.75
235.115	134.75
235.349	118.75
235.583	120.75
235.817	130.75
236.051	131.75
236.285	139.75
236.519	138.75
236.753	139.75
236.987	139.75
237.221	185.75
237.455	238.75
237.689	183.75
237.922	131.75
238.156	136.75
238.39	135.75
238.624	133.75
238.858	135.75
239.091	122.75
239.325	127.75
239.559	138.75
239.793	144.75
240.027	150.75
240.26	149.75
240.494	164.75
240.728	145.75
240.961	150.75
241.195	153.75
241.429	157.75
241.662	127.75
241.896	146.75
242.13	146.75
242.363	158.75
242.597	144.75
242.83	150.75
243.064	159.75
243.298	143.75
243.531	159.75
243.765	145.75
243.998	171.75
244.232	159.75
244.465	152.75
244.699	158.75
244.932	143.75
245.166	148.75
245.399	143.75
245.633	164.75
245.866	165.75
246.099	149.75
246.333	158.75
246.566	147.75
246.8	162.75
247.033	161.75
247.266	174.75
247.5	183.75
247.733	178.75
247.966	176.75
248.2	177.75
248.433	189.75
248.666	176.75
248.899	193.75
249.133	187.75
249.366	204.75
249.599	202.75
249.832	185.75
250.066	187.75
250.299	177.75
250.532	188.75
250.765	187.75
250.998	221.75
251.231	234.75
251.465	221.75
251.698	227.75
251.931	200.75
252.164	194.75
252.397	203.75
252.63	201.75
252.863	204.75
253.096	215.75
253.329	215.75
253.562	219.75
253.795	220.75
254.028	215.75
254.261	216.75
254.494	231.75
254.727	274.75
254.96	288.75
255.193	261.75
255.426	253.75
255.659	238.75
255.892	243.75
256.124	230.75
256.357	237.75
256.59	233.75
256.823	218.75
257.056	235.75
257.289	220.75
257.521	215.75
257.754	228.75
257.987	231.75
258.22	227.75
258.452	222.75
258.685	207.75
258.918	208.75
259.151	229.75
259.383	229.75
259.616	237.75
259.849	234.75
260.081	238.75
260.314	271.75
260.547	265.75
260.779	240.75
261.012	265.75
261.244	247.75
261.477	251.75
261.71	235.75
261.942	245.75
262.175	250.75
262.407	230.75
262.64	207.75
262.872	221.75
263.105	219.75
263.337	222.75
263.57	214.75
263.802	246.75
264.035	251.75
264.267	243.75
264.499	226.75
264.732	230.75
264.964	234.75
265.197	229.75
265.429	234.75
265.661	239.75
265.894	243.75
266.126	237.75
266.358	235.75
266.591	226.75
266.823	242.75
267.055	246.75
267.287	264.75
267.52	239.75
267.752	254.75
267.984	246.75
268.216	250.75
268.448	238.75
268.681	248.75
268.913	280.75
269.145	277.75
269.377	299.75
269.609	288.75
269.841	297.75
270.073	312.75
270.306	313.75
270.538	318.75
270.77	329.75
271.002	309.75
271.234	317.75
271.466	303.75
271.698	326.75
271.93	343.75
272.162	336.75
272.394	327.75
272.626	332.75
272.858	301.75
273.09	300.75
273.322	285.75
273.553	300.75
273.785	279.75
274.017	271.75
274.249	293.75
274.481	288.75
274.713	294.75
274.945	289.75
275.176	317.75
275.408	289.75
275.64	270.75
275.872	272.75
276.104	293.75
276.335	293.75
276.567	283.75
276.799	317.75
277.031	315.75
277.262	338.75
277.494	355.75
277.726	331.75
277.957	306.75
278.189	313.75
278.421	310.75
278.652	291.75
278.884	300.75
279.115	315.75
279.347	314.75
279.579	306.75
279.81	282.75
280.042	289.75
280.273	289.75
280.505	311.75
280.736	293.75
280.968	298.75
281.199	296.75
281.431	298.75
281.662	311.75
281.894	309.75
282.125	297.75
282.356	327.75
282.588	325.75
282.819	329.75
283.051	317.75
283.282	303.75
283.513	320.75
283.745	300.75
283.976	298.75
284.207	313.75
284.439	303.75
284.67	300.75
284.901	318.75
285.132	325.75
285.364	335.75
285.595	316.75
285.826	312.75
286.057	310.75
286.288	320.75
286.52	328.75
286.751	321.75
286.982	328.75
287.213	322.75
287.444	342.75
287.675	326.75
287.906	334.75
288.138	332.75
288.369	342.75
288.6	330.75
288.831	331.75
289.062	320.75
289.293	318.75
289.524	325.75
289.755	343.75
289.986	313.75
290.217	335.75
290.448	332.75
290.679	331.75
290.91	341.75
291.141	317.75
291.371	313.75
291.602	318.75
291.833	341.75
292.064	317.75
292.295	314.75
292.526	344.75
292.757	318.75
292.987	328.75
293.218	328.75
293.449	337.75
293.68	327.75
293.91	360.75
294.141	323.75
294.372	313.75
294.603	321.75
294.833	332.75
295.064	346.75
295.295	337.75
295.525	346.75
295.756	357.75
295.987	331.75
296.217	355.75
296.448	350.75
296.679	349.75
296.909	328.75
297.14	331.75
297.37	341.75
297.601	351.75
297.831	346.75
298.062	349.75
298.292	347.75
298.523	353.75
298.753	354.75
298.984	339.75
299.214	337.75
299.445	339.75
299.675	350.75
299.905	336.75
300.136	350.75
300.366	355.75
300.597	345.75
300.827	362.75
301.057	376.75
301.288	377.75
301.518	378.75
301.748	370.75
301.979	379.75
302.209	359.75
302.439	360.75
302.669	382.75
302.9	374.75
303.13	364.75
303.36	365.75
303.59	359.75
303.82	369.75
304.051	380.75
304.281	381.75
304.511	377.75
304.741	366.75
304.971	359.75
305.201	369.75
305.431	391.75
305.661	366.75
305.891	367.75
306.121	393.75
306.352	391.75
306.582	351.75
306.812	359.75
307.042	369.75
307.272	370.75
307.502	396.75
307.731	361.75
307.961	370.75
308.191	361.75
308.421	368.75
308.651	365.75
308.881	368.75
309.111	385.75
309.341	377.75
309.571	376.75
309.8	369.75
310.03	416.75
310.26	421.75
310.49	395.75
310.72	417.75
310.949	400.75
311.179	435.75
311.409	395.75
311.639	396.75
311.868	399.75
312.098	397.75
312.328	403.75
312.557	401.75
312.787	423.75
313.017	417.75
313.246	395.75
313.476	407.75
313.706	385.75
313.935	419.75
314.165	423.75
314.394	418.75
314.624	403.75
314.853	413.75
315.083	403.75
315.312	400.75
315.542	414.75
315.771	421.75
316.001	400.75
316.23	405.75
316.46	421.75
316.689	411.75
316.919	403.75
317.148	425.75
317.377	427.75
317.607	415.75
317.836	414.75
318.065	409.75
318.295	399.75
318.524	400.75
318.753	397.75
318.983	412.75
319.212	417.75
319.441	414.75
319.67	411.75
319.9	424.75
320.129	409.75
320.358	426.75
320.587	411.75
320.816	417.75
321.046	426.75
321.275	411.75
321.504	406.75
321.733	415.75
321.962	418.75
322.191	429.75
322.42	455.75
322.649	443.75
322.878	454.75
323.108	455.75
323.337	466.75
323.566	468.75
323.795	506.75
324.024	530.75
324.253	594.75
324.482	788.75
324.71	1123.75
324.939	1605.75
325.168	1431.75
325.397	791.75
325.626	589.75
325.855	521.75
326.084	505.75
326.313	490.75
326.542	482.75
326.77	539.75
326.999	594.75
327.228	752.75
327.457	1037.75
327.686	1248.75
327.914	872.75
328.143	629.75
328.372	553.75
328.6	554.75
328.829	561.75
329.058	574.75
329.287	550.75
329.515	508.75
329.744	498.75
329.972	503.75
330.201	524.75
330.43	545.75
330.658	547.75
330.887	571.75
331.115	572.75
331.344	535.75
331.572	512.75
331.801	510.75
332.03	507.75
332.258	501.75
332.486	453.75
332.715	494.75
332.943	523.75
333.172	520.75
333.4	513.75
333.629	542.75
333.857	503.75
334.085	552.75
334.314	560.75
334.542	574.75
334.771	557.75
334.999	532.75
335.227	512.75
335.455	514.75
335.684	507.75
335.912	503.75
336.14	467.75
336.369	497.75
336.597	517.75
336.825	498.75
337.053	459.75
337.281	492.75
337.51	486.75
337.738	494.75
337.966	490.75
338.194	487.75
338.422	477.75
338.65	473.75
338.878	489.75
339.106	481.75
339.334	487.75
339.562	452.75
339.79	469.75
340.018	477.75
340.246	462.75
340.474	457.75
340.702	468.75
340.93	475.75
341.158	460.75
341.386	464.75
341.614	454.75
341.842	469.75
342.07	455.75
342.298	460.75
342.526	464.75
342.754	455.75
342.981	464.75
343.209	473.75
343.437	462.75
343.665	455.75
343.893	480.75
344.12	519.75
344.348	490.75
344.576	499.75
344.804	486.75
345.031	485.75
345.259	481.75
345.487	480.75
345.714	452.75
345.942	450.75
346.17	449.75
346.397	441.75
346.625	446.75
346.853	446.75
347.08	431.75
347.308	459.75
347.535	446.75
347.763	457.75
347.99	455.75
348.218	452.75
348.445	453.75
348.673	470.75
348.9	448.75
349.128	421.75
349.355	444.75
349.583	437.75
349.81	450.75
350.037	444.75
350.265	438.75
350.492	442.75
350.72	438.75
350.947	434.75
351.174	439.75
351.402	441.75
351.629	428.75
351.856	424.75
352.083	443.75
352.311	462.75
352.538	450.75
352.765	458.75
352.992	449.75
353.22	445.75
353.447	423.75
353.674	434.75
353.901	429.75
354.128	427.75
354.355	437.75
354.583	418.75
354.81	415.75
355.037	408.75
355.264	446.75
355.491	437.75
355.718	440.75
355.945	415.75
356.172	424.75
356.399	412.75
356.626	434.75
356.853	409.75
357.08	425.75
357.307	430.75
357.534	409.75
357.761	405.75
357.988	416.75
358.215	434.75
358.441	423.75
358.668	423.75
358.895	422.75
359.122	448.75
359.349	405.75
359.576	449.75
359.802	460.75
360.029	467.75
360.256	478.75
360.483	460.75
360.709	433.75
360.936	433.75
361.163	457.75
361.39	445.75
361.616	443.75
361.843	426.75
362.07	422.75
362.296	423.75
362.523	418.75
362.749	449.75
362.976	428.75
363.203	444.75
363.429	434.75
363.656	428.75
363.882	434.75
364.109	416.75
364.335	417.75
364.562	421.75
364.788	412.75
365.015	401.75
365.241	432.75
365.468	438.75
365.694	414.75
365.92	425.75
366.147	425.75
366.373	416.75
366.599	422.75
366.826	415.75
367.052	438.75
367.278	430.75
367.505	426.75
367.731	429.75
367.957	426.75
368.184	433.75
368.41	418.75
368.636	411.75
368.862	435.75
369.089	423.75
369.315	432.75
369.541	426.75
369.767	420.75
369.993	422.75
370.219	426.75
370.445	437.75
370.672	447.75
370.898	431.75
371.124	429.75
371.35	439.75
371.576	440.75
371.802	453.75
372.028	425.75
372.254	446.75
372.48	428.75
372.706	446.75
372.932	433.75
373.158	438.75
373.384	463.75
373.61	435.75
373.835	435.75
374.061	414.75
374.287	454.75
374.513	460.75
374.739	457.75
374.965	455.75
375.191	464.75
375.416	437.75
375.642	457.75
375.868	441.75
376.094	440.75
376.319	419.75
376.545	449.75
376.771	411.75
376.997	422.75
377.222	442.75
377.448	451.75
377.674	426.75
377.899	429.75
378.125	425.75
378.35	439.75
378.576	439.75
378.802	439.75
379.027	429.75
379.253	426.75
379.478	411.75
379.704	442.75
379.929	427.75
380.155	434.75
380.38	437.75
380.606	433.75
380.831	444.75
381.057	451.75
381.282	467.75
381.507	445.75
381.733	434.75
381.958	442.75
382.184	454.75
382.409	459.75
382.634	443.75
382.86	440.75
383.085	450.75
383.31	439.75
383.535	458.75
383.761	466.75
383.986	458.75
384.211	451.75
384.436	486.75
384.662	484.75
384.887	510.75
385.112	489.75
385.337	465.75
385.562	481.75
385.787	489.75
386.013	486.75
386.238	503.75
386.463	503.75
386.688	465.75
386.913	471.75
387.138	490.75
387.363	478.75
387.588	505.75
387.813	501.75
388.038	469.75
388.263	505.75
388.488	527.75
388.713	508.75
388.938	487.75
389.163	477.75
389.387	493.75
389.612	486.75
389.837	470.75
390.062	491.75
390.287	493.75
390.512	498.75
390.736	494.75
390.961	511.75
391.186	478.75
391.411	502.75
391.636	536.75
391.86	537.75
392.085	521.75
392.31	538.75
392.534	497.75
392.759	514.75
392.984	516.75
393.208	487.75
393.433	507.75
393.658	515.75
393.882	484.75
394.107	489.75
394.331	501.75
394.556	491.75
394.78	512.75
395.005	513.75
395.229	507.75
395.454	542.75
395.678	522.75
395.903	528.75
396.127	548.75
396.352	548.75
396.576	522.75
396.801	496.75
397.025	515.75
397.249	544.75
397.474	535.75
397.698	520.75
397.922	559.75
398.147	557.75
398.371	571.75
398.595	571.75
398.82	591.75
399.044	607.75
399.268	614.75
399.492	670.75
399.717	727.75
399.941	731.75
400.165	751.75
400.389	729.75
400.613	651.75
400.837	596.75
401.062	603.75
401.286	575.75
401.51	586.75
401.734	579.75
401.958	617.75
402.182	573.75
402.406	577.75
402.63	581.75
402.854	588.75
403.078	600.75
403.302	601.75
403.526	631.75
403.75	615.75
403.974	622.75
404.198	596.75
404.422	601.75
404.645	606.75
404.869	608.75
405.093	668.75
405.317	683.75
405.541	697.75
405.765	650.75
405.988	645.75
406.212	658.75
406.436	649.75
406.66	641.75
406.883	651.75
407.107	672.75
407.331	713.75
407.555	823.75
407.778	776.75
408.002	726.75
408.226	674.75
408.449	664.75
408.673	667.75
408.896	678.75
409.12	715.75
409.344	689.75
409.567	611.75
409.791	632.75
410.014	612.75
410.238	591.75
410.461	606.75
410.685	611.75
410.908	615.75
411.132	619.75
411.355	664.75
411.578	639.75
411.802	585.75
412.025	598.75
412.249	591.75
412.472	607.75
412.695	658.75
412.919	647.75
413.142	616.75
413.365	608.75
413.589	585.75
413.812	595.75
414.035	578.75
414.258	572.75
414.482	577.75
414.705	562.75
414.928	556.75
415.151	579.75
415.374	579.75
415.597	584.75
415.821	584.75
416.044	563.75
416.267	570.75
416.49	556.75
416.713	560.75
416.936	569.75
417.159	578.75
417.382	571.75
417.605	573.75
417.828	587.75
418.051	578.75
418.274	578.75
418.497	571.75
418.72	563.75
418.943	582.75
419.166	612.75
419.389	622.75
419.611	633.75
419.834	608.75
420.057	622.75
420.28	621.75
420.503	567.75
420.726	591.75
420.948	580.75
421.171	623.75
421.394	654.75
421.617	585.75
421.839	588.75
422.062	577.75
422.285	611.75
422.507	634.75
422.73	728.75
422.953	687.75
423.175	613.75
423.398	597.75
423.621	603.75
423.843	633.75
424.066	629.75
424.288	611.75
424.511	629.75
424.733	689.75
424.956	752.75
425.178	711.75
425.401	720.75
425.623	735.75
425.846	640.75
426.068	594.75
426.291	589.75
426.513	588.75
426.735	610.75
426.958	654.75
427.18	715.75
427.402	799.75
427.625	891.75
427.847	751.75
428.069	685.75
428.292	633.75
428.514	567.75
428.736	574.75
428.958	577.75
429.181	580.75
429.403	569.75
429.625	559.75
429.847	607.75
430.069	654.75
430.292	647.75
430.514	573.75
430.736	549.75
430.958	529.75
431.18	546.75
431.402	533.75
431.624	517.75
431.846	553.75
432.068	532.75
432.29	547.75
432.512	550.75
432.734	521.75
432.956	546.75
433.178	547.75
433.4	559.75
433.622	532.75
433.844	555.75
434.066	534.75
434.287	529.75
434.509	558.75
434.731	569.75
434.953	555.75
435.175	580.75
435.397	584.75
435.618	608.75
435.84	638.75
436.062	705.75
436.284	740.75
436.505	637.75
436.727	598.75
436.949	577.75
437.17	561.75
437.392	547.75
437.614	586.75
437.835	571.75
438.057	648.75
438.278	746.75
438.5	718.75
438.721	814.75
438.943	783.75
439.165	620.75
439.386	605.75
439.608	583.75
439.829	601.75
440.05	629.75
440.272	639.75
440.493	617.75
440.715	614.75
440.936	571.75
441.158	549.75
441.379	575.75
441.6	611.75
441.822	594.75
442.043	653.75
442.264	714.75
442.486	728.75
442.707	634.75
442.928	626.75
443.149	610.75
443.371	656.75
443.592	664.75
443.813	746.75
444.034	803.75
444.255	711.75
444.476	648.75
444.698	634.75
444.919	635.75
445.14	730.75
445.361	709.75
445.582	658.75
445.803	690.75
446.024	773.75
446.245	761.75
446.466	698.75
446.687	626.75
446.908	590.75
447.129	582.75
447.35	569.75
447.571	549.75
447.792	525.75
448.013	544.75
448.234	533.75
448.455	591.75
448.675	691.75
448.896	777.75
449.117	717.75
449.338	649.75
449.559	743.75
449.779	814.75
450	665.75
450.221	562.75
450.442	541.75
450.662	525.75
450.883	529.75
451.104	542.75
451.324	531.75
451.545	509.75
451.766	494.75
451.986	495.75
452.207	481.75
452.428	487.75
452.648	499.75
452.869	522.75
453.089	491.75
453.31	500.75
453.53	490.75
453.751	485.75
453.971	499.75
454.192	520.75
454.412	469.75
454.633	483.75
454.853	480.75
455.073	483.75
455.294	522.75
455.514	535.75
455.734	541.75
455.955	491.75
456.175	491.75
456.395	474.75
456.616	474.75
456.836	466.75
457.056	449.75
457.276	466.75
457.497	474.75
457.717	483.75
457.937	495.75
458.157	494.75
458.377	482.75
458.598	497.75
458.818	527.75
459.038	595.75
459.258	613.75
459.478	569.75
459.698	552.75
459.918	537.75
460.138	579.75
460.358	574.75
460.578	579.75
460.798	577.75
461.018	562.75
461.238	600.75
461.458	578.75
461.678	567.75
461.898	569.75
462.118	577.75
462.338	590.75
462.558	585.75
462.777	595.75
462.997	666.75
463.217	649.75
463.437	693.75
463.657	652.75
463.876	634.75
464.096	636.75
464.316	624.75
464.536	625.75
464.755	603.75
464.975	615.75
465.195	621.75
465.414	669.75
465.634	573.75
465.854	554.75
466.073	553.75
466.293	514.75
466.512	517.75
466.732	527.75
466.951	509.75
467.171	502.75
467.391	515.75
467.61	507.75
467.829	521.75
468.049	509.75
468.268	517.75
468.488	508.75
468.707	489.75
468.927	477.75
469.146	501.75
469.365	515.75
469.585	504.75
469.804	515.75
470.023	525.75
470.243	515.75
470.462	519.75
470.681	527.75
470.901	528.75
471.12	519.75
471.339	543.75
471.558	515.75
471.777	505.75
471.997	517.75
472.216	509.75
472.435	509.75
472.654	508.75
472.873	494.75
473.092	528.75
473.311	490.75
473.53	504.75
473.749	493.75
473.968	548.75
474.187	648.75
474.406	670.75
474.625	539.75
474.844	519.75
475.063	522.75
475.282	506.75
475.501	519.75
475.72	501.75
475.939	511.75
476.158	519.75
476.377	537.75
476.596	523.75
476.814	527.75
477.033	532.75
477.252	537.75
477.471	569.75
477.69	544.75
477.908	579.75
478.127	577.75
478.346	567.75
478.564	560.75
478.783	581.75
479.002	605.75
479.22	581.75
479.439	595.75
479.658	617.75
479.876	615.75
480.095	606.75
480.313	640.75
480.532	655.75
480.751	668.75
480.969	635.75
481.188	653.75
481.406	693.75
481.624	651.75
481.843	632.75
482.061	594.75
482.28	590.75
482.498	576.75
482.717	599.75
482.935	596.75
483.153	595.75
483.372	572.75
483.59	569.75
483.808	601.75
484.027	596.75
484.245	609.75
484.463	598.75
484.681	598.75
484.9	604.75
485.118	608.75
485.336	632.75
485.554	618.75
485.772	608.75
485.99	631.75
486.209	630.75
486.427	621.75
486.645	621.75
486.863	649.75
487.081	621.75
487.299	629.75
487.517	619.75
487.735	624.75
487.953	606.75
488.171	630.75
488.389	607.75
488.607	597.75
488.825	620.75
489.043	628.75
489.261	637.75
489.479	631.75
489.696	652.75
489.914	634.75
490.132	654.75
490.35	665.75
490.568	646.75
490.786	669.75
491.003	669.75
491.221	669.75
491.439	685.75
491.657	708.75
491.874	711.75
492.092	710.75
492.31	750.75
492.527	739.75
492.745	694.75
492.963	705.75
493.18	742.75
493.398	707.75
493.615	713.75
493.833	736.75
494.05	728.75
494.268	719.75
494.485	752.75
494.703	750.75
494.92	728.75
495.138	733.75
495.355	727.75
495.573	734.75
495.79	732.75
496.008	741.75
496.225	729.75
496.442	742.75
496.66	754.75
496.877	777.75
497.094	751.75
497.312	754.75
497.529	791.75
497.746	813.75
497.963	791.75
498.181	832.75
498.398	849.75
498.615	855.75
498.832	881.75
499.049	918.75
499.267	954.75
499.484	1024.75
499.701	1053.75
499.918	1119.75
500.135	1181.75
500.352	1280.75
500.569	1326.75
500.786	1287.75
501.003	1314.75
501.22	1226.75
501.437	1134.75
501.654	1098.75
501.871	1036.75
502.088	988.75
502.305	933.75
502.522	901.75
502.739	883.75
502.956	815.75
503.172	818.75
503.389	760.75
503.606	786.75
503.823	779.75
504.04	761.75
504.256	759.75
504.473	787.75
504.69	756.75
504.907	799.75
505.123	751.75
505.34	743.75
505.557	715.75
505.773	701.75
505.99	688.75
506.207	694.75
506.423	695.75
506.64	690.75
506.856	705.75
507.073	670.75
507.289	681.75
507.506	665.75
507.722	686.75
507.939	677.75
508.155	658.75
508.372	647.75
508.588	631.75
508.805	626.75
509.021	631.75
509.238	663.75
509.454	679.75
509.67	657.75
509.887	660.75
510.103	653.75
510.319	650.75
510.536	693.75
510.752	994.75
510.968	808.75
511.184	653.75
511.401	625.75
511.617	623.75
511.833	607.75
512.049	599.75
512.265	627.75
512.481	631.75
512.698	604.75
512.914	604.75
513.13	606.75
513.346	600.75
513.562	622.75
513.778	601.75
513.994	614.75
514.21	590.75
514.426	606.75
514.642	631.75
514.858	663.75
515.074	685.75
515.29	745.75
515.506	984.75
515.721	834.75
515.937	683.75
516.153	684.75
516.369	671.75
516.585	673.75
516.801	639.75
517.016	669.75
517.232	666.75
517.448	676.75
517.664	710.75
517.879	700.75
518.095	680.75
518.311	681.75
518.527	655.75
518.742	668.75
518.958	639.75
519.173	638.75
519.389	631.75
519.605	620.75
519.82	637.75
520.036	629.75
520.251	620.75
520.467	627.75
520.682	634.75
520.898	646.75
521.113	644.75
521.329	662.75
521.544	675.75
521.76	794.75
521.975	1146.75
522.19	1147.75
522.406	744.75
522.621	653.75
522.836	622.75
523.052	585.75
523.267	567.75
523.482	543.75
523.698	543.75
523.913	552.75
524.128	561.75
524.343	550.75
524.559	544.75
524.774	551.75
524.989	535.75
525.204	550.75
525.419	551.75
525.634	531.75
525.849	538.75
526.064	528.75
526.28	533.75
526.495	541.75
526.71	503.75
526.925	525.75
527.14	527.75
527.355	512.75
527.57	492.75
527.785	501.75
527.999	517.75
528.214	519.75
528.429	515.75
528.644	511.75
528.859	499.75
529.074	507.75
529.289	545.75
529.503	557.75
529.718	542.75
529.933	505.75
530.148	512.75
530.363	497.75
530.577	492.75
530.792	501.75
531.007	491.75
531.221	493.75
531.436	514.75
531.651	525.75
531.865	524.75
532.08	506.75
532.295	485.75
532.509	513.75
532.724	490.75
532.938	489.75
533.153	501.75
533.367	484.75
533.582	512.75
533.796	501.75
534.011	488.75
534.225	479.75
534.44	488.75
534.654	498.75
534.868	485.75
535.083	497.75
535.297	489.75
535.511	491.75
535.726	499.75
535.94	491.75
536.154	481.75
536.369	480.75
536.583	494.75
536.797	480.75
537.011	473.75
537.225	489.75
537.44	488.75
537.654	467.75
537.868	479.75
538.082	489.75
538.296	498.75
538.51	485.75
538.724	478.75
538.938	476.75
539.153	493.75
539.367	485.75
539.581	501.75
539.795	459.75
540.009	464.75
540.222	449.75
540.436	459.75
540.65	476.75
540.864	485.75
541.078	477.75
541.292	482.75
541.506	477.75
541.72	477.75
541.934	465.75
542.147	485.75
542.361	469.75
542.575	486.75
542.789	473.75
543.002	469.75
543.216	468.75
543.43	482.75
543.644	475.75
543.857	467.75
544.071	469.75
544.285	472.75
544.498	467.75
544.712	468.75
544.925	469.75
545.139	467.75
545.352	459.75
545.566	479.75
545.779	478.75
545.993	464.75
546.206	501.75
546.42	463.75
546.633	486.75
546.847	465.75
547.06	475.75
547.274	457.75
547.487	493.75
547.7	470.75
547.914	487.75
548.127	466.75
548.34	479.75
548.554	486.75
548.767	500.75
548.98	472.75
549.193	485.75
549.407	478.75
549.62	487.75
549.833	486.75
550.046	468.75
550.259	465.75
550.473	486.75
550.686	483.75
550.899	457.75
551.112	461.75
551.325	476.75
551.538	463.75
551.751	472.75
551.964	454.75
552.177	464.75
552.39	491.75
552.603	477.75
552.816	454.75
553.029	502.75
553.242	483.75
553.455	499.75
553.667	498.75
553.88	490.75
554.093	499.75
554.306	479.75
554.519	465.75
554.732	482.75
554.944	462.75
555.157	447.75
555.37	449.75
555.583	452.75
555.795	440.75
556.008	435.75
556.221	439.75
556.433	421.75
556.646	416.75
556.859	436.75
557.071	435.75
557.284	429.75
557.496	413.75
557.709	417.75
557.921	430.75
558.134	418.75
558.346	430.75
558.559	429.75
558.771	409.75
558.984	409.75
559.196	408.75
559.409	427.75
559.621	417.75
559.833	403.75
560.046	396.75
560.258	416.75
560.47	421.75
560.683	415.75
560.895	418.75
561.107	422.75
561.32	409.75
561.532	409.75
561.744	420.75
561.956	411.75
562.168	401.75
562.381	428.75
562.593	418.75
562.805	418.75
563.017	431.75
563.229	403.75
563.441	433.75
563.653	417.75
563.865	452.75
564.077	434.75
564.289	430.75
564.501	439.75
564.713	449.75
564.925	447.75
565.137	459.75
565.349	462.75
565.561	474.75
565.773	494.75
565.985	473.75
566.197	488.75
566.408	535.75
566.62	546.75
566.832	579.75
567.044	590.75
567.255	590.75
567.467	583.75
567.679	604.75
567.891	640.75
568.102	621.75
568.314	610.75
568.526	576.75
568.737	547.75
568.949	549.75
569.161	502.75
569.372	486.75
569.584	471.75
569.795	443.75
570.007	447.75
570.218	447.75
570.43	457.75
570.641	432.75
570.853	411.75
571.064	409.75
571.276	417.75
571.487	415.75
571.698	414.75
571.91	410.75
572.121	391.75
572.333	415.75
572.544	378.75
572.755	389.75
572.966	358.75
573.178	378.75
573.389	383.75
573.6	366.75
573.811	370.75
574.023	358.75
574.234	354.75
574.445	354.75
574.656	355.75
574.867	364.75
575.078	359.75
575.289	354.75
575.501	361.75
575.712	358.75
575.923	358.75
576.134	354.75
576.345	352.75
576.556	366.75
576.767	352.75
576.978	368.75
577.188	359.75
577.399	348.75
577.61	360.75
577.821	335.75
578.032	348.75
578.243	361.75
578.454	470.75
578.665	413.75
578.875	357.75
579.086	341.75
579.297	349.75
579.508	331.75
579.718	319.75
579.929	331.75
580.14	333.75
580.35	338.75
580.561	317.75
580.772	325.75
580.982	316.75
581.193	325.75
581.403	332.75
581.614	326.75
581.825	321.75
582.035	332.75
582.246	303.75
582.456	347.75
582.667	330.75
582.877	309.75
583.087	341.75
583.298	323.75
583.508	329.75
583.719	339.75
583.929	327.75
584.139	319.75
584.35	319.75
584.56	312.75
584.77	314.75
584.981	313.75
585.191	326.75
585.401	314.75
585.611	299.75
585.821	321.75
586.032	317.75
586.242	304.75
586.452	324.75
586.662	313.75
586.872	306.75
587.082	295.75
587.292	306.75
587.502	311.75
587.713	313.75
587.923	323.75
588.133	330.75
588.343	323.75
588.553	341.75
588.762	328.75
588.972	320.75
589.182	301.75
589.392	301.75
589.602	317.75
589.812	315.75
590.022	325.75
590.232	335.75
590.441	326.75
590.651	305.75
590.861	340.75
591.071	331.75
591.281	322.75
591.49	323.75
591.7	336.75
591.91	323.75
592.119	331.75
592.329	350.75
592.539	351.75
592.748	351.75
592.958	358.75
593.167	336.75
593.377	369.75
593.587	361.75
593.796	368.75
594.006	369.75
594.215	376.75
594.424	361.75
594.634	354.75
594.843	357.75
595.053	345.75
595.262	347.75
595.472	330.75
595.681	324.75
595.89	335.75
596.1	322.75
596.309	327.75
596.518	315.75
596.727	320.75
596.937	315.75
597.146	313.75
597.355	297.75
597.564	287.75
597.774	307.75
597.983	281.75
598.192	295.75
598.401	311.75
598.61	276.75
598.819	285.75
599.028	275.75
599.237	283.75
599.446	283.75
599.655	301.75
599.864	279.75
600.073	277.75
600.282	287.75
600.491	290.75
600.7	274.75
600.909	287.75
601.118	289.75
601.327	264.75
601.536	270.75
601.745	264.75
601.953	283.75
602.162	266.75
602.371	261.75
602.58	282.75
602.789	273.75
602.997	271.75
603.206	270.75
603.415	271.75
603.623	273.75
603.832	247.75
604.041	263.75
604.249	275.75
604.458	249.75
604.666	240.75
604.875	268.75
605.084	275.75
605.292	271.75
605.501	258.75
605.709	269.75
605.918	271.75
606.126	273.75
606.334	273.75
606.543	247.75
606.751	245.75
606.96	278.75
607.168	261.75
607.376	259.75
607.585	254.75
607.793	274.75
608.001	270.75
608.21	268.75
608.418	274.75
608.626	267.75
608.834	256.75
609.043	263.75
609.251	247.75
609.459	264.75
609.667	240.75
609.875	273.75
610.083	269.75
610.291	258.75
610.499	257.75
610.707	267.75
610.916	263.75
611.124	257.75
611.332	267.75
611.54	258.75
611.748	262.75
611.955	253.75
612.163	264.75
612.371	238.75
612.579	245.75
612.787	249.75
612.995	245.75
613.203	265.75
613.411	271.75
613.618	246.75
613.826	255.75
614.034	252.75
614.242	236.75
614.449	251.75
614.657	236.75
614.865	261.75
615.072	242.75
615.28	251.75
615.488	259.75
615.695	252.75
615.903	232.75
616.111	242.75
616.318	265.75
616.526	261.75
616.733	249.75
616.941	246.75
617.148	243.75
617.356	246.75
617.563	253.75
617.771	251.75
617.978	238.75
618.185	240.75
618.393	248.75
618.6	248.75
618.807	255.75
619.015	257.75
619.222	243.75
619.429	245.75
619.637	243.75
619.844	239.75
620.051	235.75
620.258	234.75
620.466	234.75
620.673	228.75
620.88	251.75
621.087	222.75
621.294	251.75
621.501	230.75
621.708	245.75
621.915	250.75
622.122	237.75
622.329	217.75
622.536	235.75
622.743	235.75
622.95	215.75
623.157	226.75
623.364	227.75
623.571	216.75
623.778	224.75
623.985	230.75
624.192	237.75
624.399	218.75
624.606	230.75
624.812	221.75
625.019	224.75
625.226	233.75
625.433	222.75
625.639	236.75
625.846	204.75
626.053	214.75
626.259	203.75
626.466	229.75
626.673	213.75
626.879	210.75
627.086	218.75
627.293	219.75
627.499	224.75
627.706	207.75
627.912	230.75
628.119	205.75
628.325	219.75
628.532	207.75
628.738	202.75
628.945	215.75
629.151	216.75
629.357	208.75
629.564	216.75
629.77	212.75
629.976	193.75
630.183	212.75
630.389	208.75
630.595	199.75
630.802	218.75
631.008	214.75
631.214	214.75
631.42	193.75
631.627	209.75
631.833	185.75
632.039	214.75
632.245	192.75
632.451	219.75
632.657	205.75
632.863	190.75
633.069	215.75
633.275	205.75
633.481	195.75
633.688	202.75
633.893	200.75
634.099	205.75
634.305	195.75
634.511	199.75
634.717	189.75
634.923	200.75
635.129	194.75
635.335	187.75
635.541	210.75
635.747	171.75
635.952	194.75
636.158	189.75
636.364	210.75
636.57	193.75
636.775	199.75
636.981	202.75
637.187	187.75
637.392	178.75
637.598	210.75
637.804	196.75
638.009	190.75
638.215	176.75
638.421	195.75
638.626	183.75
638.832	183.75
639.037	193.75
639.243	193.75
639.448	175.75
639.654	194.75
639.859	159.75
640.065	197.75
640.27	187.75
640.475	178.75
640.681	178.75
640.886	189.75
641.091	177.75
641.297	181.75
641.502	187.75
641.707	178.75
641.913	175.75
642.118	184.75
642.323	189.75
642.528	175.75
642.733	165.75
642.939	185.75
643.144	179.75
643.349	166.75
643.554	176.75
643.759	171.75
643.964	181.75
644.169	166.75
644.374	168.75
644.579	177.75
644.784	175.75
644.989	186.75
645.194	176.75
645.399	197.75
645.604	169.75
645.809	177.75
646.014	184.75
646.219	167.75
646.423	161.75
646.628	163.75
646.833	173.75
647.038	165.75
647.243	184.75
647.447	179.75
647.652	185.75
647.857	175.75
648.062	179.75
648.266	202.75
648.471	187.75
648.676	189.75
648.88	196.75
649.085	183.75
649.289	188.75
649.494	186.75
649.698	191.75
649.903	206.75
650.107	179.75
650.312	181.75
650.516	158.75
650.721	177.75
650.925	150.75
651.13	160.75
651.334	153.75
651.539	161.75
651.743	153.75
651.947	157.75
652.152	136.75
652.356	169.75
652.56	137.75
652.764	151.75
652.969	145.75
653.173	145.75
653.377	153.75
653.581	145.75
653.785	153.75
653.99	159.75
654.194	145.75
654.398	165.75
654.602	145.75
654.806	132.75
655.01	156.75
655.214	156.75
655.418	147.75
655.622	138.75
655.826	135.75
656.03	137.75
656.234	147.75
656.438	142.75
656.642	139.75
656.846	142.75
657.049	147.75
657.253	133.75
657.457	129.75
657.661	127.75
657.865	122.75
658.068	120.75
658.272	123.75
658.476	118.75
658.68	119.75
658.883	110.75
659.087	111.75
659.291	112.75
659.494	110.75
659.698	106.75
659.901	100.75
660.105	96.75
660.309	107.75
660.512	114.75
660.716	101.75
660.919	103.75
661.123	102.75
661.326	97.75
661.53	96.75
661.733	92.75
661.936	86.75
662.14	91.75
662.343	101.75
662.546	82.75
662.75	94.75
662.953	88.75
663.156	89.75
663.36	87.75
663.563	90.75
663.766	87.75
663.969	85.75
664.173	82.75
664.376	97.75
664.579	83.75
664.782	94.75
664.985	73.75
665.188	89.75
665.391	84.75
665.594	91.75
665.797	95.75
666	81.75
666.203	81.75
666.406	81.75
666.609	82.75
666.812	86.75
667.015	90.75
667.218	80.75
667.421	94.75
667.624	80.75
667.827	87.75
668.03	80.75
668.232	87.75
668.435	83.75
668.638	95.75
668.841	97.75
669.043	85.75
669.246	81.75
669.449	82.75
669.651	82.75
669.854	87.75
670.057	91.75
670.259	83.75
670.462	101.75
670.665	73.75
670.867	73.75
671.07	103.75
671.272	81.75
671.475	100.75
671.677	87.75
671.88	94.75
672.082	92.75
672.284	86.75
672.487	81.75
672.689	82.75
672.892	80.75
