Data from 1973.PennyLincolnUp.Lamp.En5.5.200Scan.071719.P1.Changed Mount._HRD10591_15-44-07-852.txt Node
Date: Thu Jul 18 15:44:07 EDT 2019
User: cochatt
Spectrometer: HR+D1059
Trigger mode: 1
Integration Time (sec): 1.000000E-1
Scans to average: 1
Electric dark correction enabled: true
Nonlinearity correction enabled: false
Boxcar width: 0
XAxis mode: Wavelengths
Number of Pixels in Spectrum: 2048
>>>>>Begin Spectral Data<<<<<
223.165	-18.75
223.4	-18.75
223.635	-18.75
223.869	-2.75
224.104	-17.75
224.338	-12.75
224.573	7.25
224.808	-21.75
225.042	-7.75
225.277	-16.75
225.511	-1.75
225.746	-13.75
225.98	-9.75
226.215	5.25
226.449	25.25
226.683	23.25
226.918	23.25
227.152	39.25
227.387	27.25
227.621	37.25
227.856	53.25
228.09	30.25
228.324	48.25
228.559	57.25
228.793	57.25
229.027	84.25
229.262	101.25
229.496	107.25
229.73	118.25
229.964	145.25
230.199	128.25
230.433	116.25
230.667	129.25
230.901	127.25
231.136	103.25
231.37	93.25
231.604	110.25
231.838	108.25
232.072	117.25
232.306	96.25
232.541	125.25
232.775	110.25
233.009	124.25
233.243	110.25
233.477	110.25
233.711	112.25
233.945	111.25
234.179	126.25
234.413	107.25
234.647	114.25
234.881	106.25
235.115	115.25
235.349	121.25
235.583	118.25
235.817	119.25
236.051	129.25
236.285	117.25
236.519	110.25
236.753	134.25
236.987	135.25
237.221	173.25
237.455	196.25
237.689	162.25
237.922	138.25
238.156	142.25
238.39	128.25
238.624	117.25
238.858	118.25
239.091	127.25
239.325	125.25
239.559	125.25
239.793	130.25
240.027	140.25
240.26	137.25
240.494	142.25
240.728	141.25
240.961	133.25
241.195	140.25
241.429	155.25
241.662	133.25
241.896	121.25
242.13	124.25
242.363	131.25
242.597	135.25
242.83	138.25
243.064	130.25
243.298	151.25
243.531	145.25
243.765	131.25
243.998	137.25
244.232	146.25
244.465	148.25
244.699	149.25
244.932	134.25
245.166	153.25
245.399	146.25
245.633	154.25
245.866	153.25
246.099	147.25
246.333	157.25
246.566	158.25
246.8	156.25
247.033	148.25
247.266	159.25
247.5	153.25
247.733	155.25
247.966	165.25
248.2	166.25
248.433	159.25
248.666	171.25
248.899	200.25
249.133	211.25
249.366	201.25
249.599	216.25
249.832	192.25
250.066	177.25
250.299	180.25
250.532	179.25
250.765	198.25
250.998	206.25
251.231	219.25
251.465	213.25
251.698	183.25
251.931	199.25
252.164	193.25
252.397	196.25
252.63	197.25
252.863	202.25
253.096	216.25
253.329	193.25
253.562	213.25
253.795	200.25
254.028	225.25
254.261	232.25
254.494	213.25
254.727	245.25
254.96	264.25
255.193	250.25
255.426	230.25
255.659	214.25
255.892	229.25
256.124	223.25
256.357	221.25
256.59	210.25
256.823	207.25
257.056	186.25
257.289	210.25
257.521	219.25
257.754	214.25
257.987	203.25
258.22	217.25
258.452	204.25
258.685	202.25
258.918	224.25
259.151	222.25
259.383	218.25
259.616	207.25
259.849	225.25
260.081	229.25
260.314	243.25
260.547	251.25
260.779	248.25
261.012	234.25
261.244	225.25
261.477	228.25
261.71	214.25
261.942	221.25
262.175	226.25
262.407	218.25
262.64	209.25
262.872	215.25
263.105	215.25
263.337	220.25
263.57	211.25
263.802	215.25
264.035	211.25
264.267	225.25
264.499	213.25
264.732	216.25
264.964	217.25
265.197	213.25
265.429	227.25
265.661	216.25
265.894	231.25
266.126	228.25
266.358	226.25
266.591	234.25
266.823	235.25
267.055	253.25
267.287	241.25
267.52	241.25
267.752	241.25
267.984	252.25
268.216	225.25
268.448	234.25
268.681	241.25
268.913	243.25
269.145	257.25
269.377	280.25
269.609	275.25
269.841	268.25
270.073	260.25
270.306	299.25
270.538	302.25
270.77	300.25
271.002	308.25
271.234	290.25
271.466	289.25
271.698	300.25
271.93	293.25
272.162	297.25
272.394	319.25
272.626	305.25
272.858	294.25
273.09	293.25
273.322	280.25
273.553	271.25
273.785	269.25
274.017	252.25
274.249	286.25
274.481	284.25
274.713	273.25
274.945	276.25
275.176	277.25
275.408	261.25
275.64	258.25
275.872	259.25
276.104	278.25
276.335	292.25
276.567	287.25
276.799	294.25
277.031	288.25
277.262	294.25
277.494	325.25
277.726	305.25
277.957	272.25
278.189	299.25
278.421	278.25
278.652	282.25
278.884	283.25
279.115	284.25
279.347	287.25
279.579	257.25
279.81	268.25
280.042	279.25
280.273	250.25
280.505	288.25
280.736	269.25
280.968	269.25
281.199	290.25
281.431	314.25
281.662	301.25
281.894	283.25
282.125	300.25
282.356	300.25
282.588	306.25
282.819	313.25
283.051	298.25
283.282	286.25
283.513	292.25
283.745	300.25
283.976	294.25
284.207	293.25
284.439	305.25
284.67	284.25
284.901	297.25
285.132	294.25
285.364	305.25
285.595	307.25
285.826	298.25
286.057	307.25
286.288	305.25
286.52	306.25
286.751	301.25
286.982	296.25
287.213	291.25
287.444	306.25
287.675	308.25
287.906	328.25
288.138	307.25
288.369	327.25
288.6	325.25
288.831	322.25
289.062	301.25
289.293	309.25
289.524	310.25
289.755	310.25
289.986	315.25
290.217	309.25
290.448	349.25
290.679	309.25
290.91	307.25
291.141	303.25
291.371	307.25
291.602	321.25
291.833	299.25
292.064	317.25
292.295	317.25
292.526	302.25
292.757	314.25
292.987	318.25
293.218	304.25
293.449	312.25
293.68	316.25
293.91	288.25
294.141	298.25
294.372	309.25
294.603	318.25
294.833	310.25
295.064	335.25
295.295	319.25
295.525	316.25
295.756	330.25
295.987	330.25
296.217	340.25
296.448	325.25
296.679	321.25
296.909	339.25
297.14	305.25
297.37	341.25
297.601	335.25
297.831	344.25
298.062	320.25
298.292	301.25
298.523	338.25
298.753	342.25
298.984	338.25
299.214	330.25
299.445	360.25
299.675	316.25
299.905	345.25
300.136	341.25
300.366	336.25
300.597	350.25
300.827	322.25
301.057	336.25
301.288	353.25
301.518	356.25
301.748	344.25
301.979	355.25
302.209	363.25
302.439	360.25
302.669	373.25
302.9	355.25
303.13	364.25
303.36	359.25
303.59	362.25
303.82	333.25
304.051	352.25
304.281	356.25
304.511	354.25
304.741	354.25
304.971	366.25
305.201	350.25
305.431	329.25
305.661	324.25
305.891	339.25
306.121	357.25
306.352	361.25
306.582	366.25
306.812	345.25
307.042	353.25
307.272	363.25
307.502	360.25
307.731	363.25
307.961	364.25
308.191	348.25
308.421	339.25
308.651	361.25
308.881	341.25
309.111	363.25
309.341	356.25
309.571	357.25
309.8	370.25
310.03	385.25
310.26	384.25
310.49	374.25
310.72	372.25
310.949	383.25
311.179	392.25
311.409	409.25
311.639	393.25
311.868	393.25
312.098	372.25
312.328	399.25
312.557	403.25
312.787	405.25
313.017	413.25
313.246	401.25
313.476	375.25
313.706	383.25
313.935	381.25
314.165	416.25
314.394	404.25
314.624	399.25
314.853	387.25
315.083	408.25
315.312	379.25
315.542	379.25
315.771	388.25
316.001	385.25
316.23	383.25
316.46	389.25
316.689	399.25
316.919	398.25
317.148	420.25
317.377	399.25
317.607	391.25
317.836	395.25
318.065	392.25
318.295	392.25
318.524	394.25
318.753	374.25
318.983	399.25
319.212	384.25
319.441	361.25
319.67	389.25
319.9	403.25
320.129	391.25
320.358	386.25
320.587	396.25
320.816	389.25
321.046	405.25
321.275	369.25
321.504	381.25
321.733	414.25
321.962	419.25
322.191	409.25
322.42	422.25
322.649	425.25
322.878	427.25
323.108	436.25
323.337	447.25
323.566	460.25
323.795	463.25
324.024	505.25
324.253	566.25
324.482	728.25
324.71	1070.25
324.939	1472.25
325.168	1221.25
325.397	731.25
325.626	531.25
325.855	477.25
326.084	469.25
326.313	452.25
326.542	446.25
326.77	482.25
326.999	558.25
327.228	710.25
327.457	970.25
327.686	1103.25
327.914	805.25
328.143	581.25
328.372	542.25
328.6	497.25
328.829	498.25
329.058	518.25
329.287	513.25
329.515	498.25
329.744	483.25
329.972	472.25
330.201	491.25
330.43	487.25
330.658	504.25
330.887	565.25
331.115	524.25
331.344	494.25
331.572	490.25
331.801	495.25
332.03	483.25
332.258	481.25
332.486	460.25
332.715	473.25
332.943	479.25
333.172	473.25
333.4	491.25
333.629	516.25
333.857	529.25
334.085	532.25
334.314	519.25
334.542	530.25
334.771	534.25
334.999	507.25
335.227	495.25
335.455	478.25
335.684	467.25
335.912	482.25
336.14	497.25
336.369	447.25
336.597	485.25
336.825	474.25
337.053	462.25
337.281	459.25
337.51	457.25
337.738	454.25
337.966	464.25
338.194	463.25
338.422	438.25
338.65	455.25
338.878	460.25
339.106	446.25
339.334	455.25
339.562	450.25
339.79	438.25
340.018	435.25
340.246	442.25
340.474	437.25
340.702	436.25
340.93	453.25
341.158	441.25
341.386	432.25
341.614	452.25
341.842	447.25
342.07	447.25
342.298	452.25
342.526	441.25
342.754	436.25
342.981	427.25
343.209	450.25
343.437	441.25
343.665	460.25
343.893	452.25
344.12	483.25
344.348	470.25
344.576	455.25
344.804	456.25
345.031	450.25
345.259	474.25
345.487	441.25
345.714	436.25
345.942	419.25
346.17	413.25
346.397	437.25
346.625	404.25
346.853	407.25
347.08	423.25
347.308	421.25
347.535	427.25
347.763	419.25
347.99	437.25
348.218	424.25
348.445	421.25
348.673	422.25
348.9	427.25
349.128	424.25
349.355	418.25
349.583	418.25
349.81	406.25
350.037	393.25
350.265	422.25
350.492	397.25
350.72	408.25
350.947	415.25
351.174	405.25
351.402	399.25
351.629	421.25
351.856	413.25
352.083	414.25
352.311	407.25
352.538	433.25
352.765	438.25
352.992	411.25
353.22	420.25
353.447	397.25
353.674	405.25
353.901	417.25
354.128	403.25
354.355	409.25
354.583	382.25
354.81	403.25
355.037	408.25
355.264	391.25
355.491	405.25
355.718	412.25
355.945	379.25
356.172	410.25
356.399	408.25
356.626	395.25
356.853	412.25
357.08	400.25
357.307	408.25
357.534	387.25
357.761	411.25
357.988	398.25
358.215	401.25
358.441	401.25
358.668	409.25
358.895	390.25
359.122	405.25
359.349	416.25
359.576	446.25
359.802	442.25
360.029	452.25
360.256	417.25
360.483	441.25
360.709	404.25
360.936	421.25
361.163	425.25
361.39	421.25
361.616	417.25
361.843	411.25
362.07	421.25
362.296	420.25
362.523	406.25
362.749	399.25
362.976	418.25
363.203	439.25
363.429	404.25
363.656	409.25
363.882	418.25
364.109	410.25
364.335	400.25
364.562	389.25
364.788	407.25
365.015	384.25
365.241	391.25
365.468	421.25
365.694	426.25
365.92	404.25
366.147	398.25
366.373	403.25
366.599	398.25
366.826	400.25
367.052	405.25
367.278	418.25
367.505	396.25
367.731	402.25
367.957	403.25
368.184	413.25
368.41	409.25
368.636	422.25
368.862	421.25
369.089	418.25
369.315	428.25
369.541	402.25
369.767	421.25
369.993	414.25
370.219	420.25
370.445	409.25
370.672	398.25
370.898	413.25
371.124	419.25
371.35	423.25
371.576	413.25
371.802	414.25
372.028	389.25
372.254	419.25
372.48	431.25
372.706	438.25
372.932	419.25
373.158	424.25
373.384	432.25
373.61	429.25
373.835	428.25
374.061	401.25
374.287	435.25
374.513	427.25
374.739	457.25
374.965	438.25
375.191	444.25
375.416	429.25
375.642	423.25
375.868	428.25
376.094	412.25
376.319	434.25
376.545	411.25
376.771	432.25
376.997	425.25
377.222	425.25
377.448	415.25
377.674	406.25
377.899	407.25
378.125	409.25
378.35	408.25
378.576	417.25
378.802	413.25
379.027	405.25
379.253	412.25
379.478	441.25
379.704	417.25
379.929	408.25
380.155	399.25
380.38	421.25
380.606	413.25
380.831	411.25
381.057	407.25
381.282	412.25
381.507	415.25
381.733	426.25
381.958	441.25
382.184	425.25
382.409	429.25
382.634	428.25
382.86	421.25
383.085	435.25
383.31	446.25
383.535	431.25
383.761	437.25
383.986	456.25
384.211	448.25
384.436	452.25
384.662	441.25
384.887	468.25
385.112	477.25
385.337	453.25
385.562	482.25
385.787	474.25
386.013	485.25
386.238	457.25
386.463	470.25
386.688	479.25
386.913	451.25
387.138	462.25
387.363	485.25
387.588	473.25
387.813	474.25
388.038	492.25
388.263	477.25
388.488	477.25
388.713	472.25
388.938	471.25
389.163	455.25
389.387	473.25
389.612	472.25
389.837	451.25
390.062	460.25
390.287	477.25
390.512	468.25
390.736	462.25
390.961	483.25
391.186	470.25
391.411	489.25
391.636	495.25
391.86	469.25
392.085	497.25
392.31	488.25
392.534	462.25
392.759	490.25
392.984	481.25
393.208	486.25
393.433	466.25
393.658	475.25
393.882	461.25
394.107	476.25
394.331	488.25
394.556	487.25
394.78	473.25
395.005	495.25
395.229	481.25
395.454	489.25
395.678	492.25
395.903	492.25
396.127	516.25
396.352	511.25
396.576	479.25
396.801	477.25
397.025	504.25
397.249	502.25
397.474	532.25
397.698	512.25
397.922	511.25
398.147	514.25
398.371	545.25
398.595	527.25
398.82	547.25
399.044	567.25
399.268	595.25
399.492	645.25
399.717	680.25
399.941	695.25
400.165	705.25
400.389	679.25
400.613	619.25
400.837	573.25
401.062	560.25
401.286	565.25
401.51	544.25
401.734	541.25
401.958	547.25
402.182	547.25
402.406	545.25
402.63	550.25
402.854	567.25
403.078	550.25
403.302	573.25
403.526	573.25
403.75	585.25
403.974	573.25
404.198	553.25
404.422	603.25
404.645	588.25
404.869	591.25
405.093	601.25
405.317	636.25
405.541	702.25
405.765	616.25
405.988	601.25
406.212	620.25
406.436	632.25
406.66	631.25
406.883	603.25
407.107	644.25
407.331	710.25
407.555	728.25
407.778	715.25
408.002	672.25
408.226	633.25
408.449	621.25
408.673	623.25
408.896	629.25
409.12	659.25
409.344	625.25
409.567	601.25
409.791	579.25
410.014	567.25
410.238	569.25
410.461	577.25
410.685	579.25
410.908	605.25
411.132	610.25
411.355	615.25
411.578	614.25
411.802	563.25
412.025	554.25
412.249	570.25
412.472	588.25
412.695	621.25
412.919	618.25
413.142	585.25
413.365	556.25
413.589	554.25
413.812	533.25
414.035	540.25
414.258	557.25
414.482	565.25
414.705	543.25
414.928	524.25
415.151	525.25
415.374	548.25
415.597	530.25
415.821	545.25
416.044	543.25
416.267	552.25
416.49	543.25
416.713	527.25
416.936	526.25
417.159	555.25
417.382	528.25
417.605	556.25
417.828	566.25
418.051	555.25
418.274	581.25
418.497	562.25
418.72	565.25
418.943	535.25
419.166	561.25
419.389	601.25
419.611	596.25
419.834	570.25
420.057	584.25
420.28	569.25
420.503	555.25
420.726	571.25
420.948	573.25
421.171	590.25
421.394	610.25
421.617	550.25
421.839	556.25
422.062	556.25
422.285	553.25
422.507	613.25
422.73	707.25
422.953	657.25
423.175	603.25
423.398	589.25
423.621	578.25
423.843	606.25
424.066	596.25
424.288	567.25
424.511	595.25
424.733	645.25
424.956	712.25
425.178	699.25
425.401	652.25
425.623	691.25
425.846	592.25
426.068	573.25
426.291	562.25
426.513	566.25
426.735	554.25
426.958	591.25
427.18	667.25
427.402	769.25
427.625	811.25
427.847	718.25
428.069	646.25
428.292	610.25
428.514	554.25
428.736	535.25
428.958	521.25
429.181	510.25
429.403	509.25
429.625	519.25
429.847	567.25
430.069	599.25
430.292	605.25
430.514	538.25
430.736	533.25
430.958	518.25
431.18	499.25
431.402	501.25
431.624	511.25
431.846	501.25
432.068	519.25
432.29	520.25
432.512	497.25
432.734	503.25
432.956	511.25
433.178	520.25
433.4	504.25
433.622	501.25
433.844	507.25
434.066	489.25
434.287	519.25
434.509	531.25
434.731	551.25
434.953	542.25
435.175	582.25
435.397	587.25
435.618	567.25
435.84	572.25
436.062	652.25
436.284	709.25
436.505	612.25
436.727	556.25
436.949	539.25
437.17	530.25
437.392	508.25
437.614	537.25
437.835	537.25
438.057	614.25
438.278	712.25
438.5	673.25
438.721	769.25
438.943	750.25
439.165	610.25
439.386	557.25
439.608	558.25
439.829	565.25
440.05	572.25
440.272	600.25
440.493	577.25
440.715	572.25
440.936	527.25
441.158	543.25
441.379	541.25
441.6	571.25
441.822	574.25
442.043	585.25
442.264	679.25
442.486	735.25
442.707	602.25
442.928	563.25
443.149	595.25
443.371	588.25
443.592	616.25
443.813	715.25
444.034	763.25
444.255	659.25
444.476	606.25
444.698	617.25
444.919	633.25
445.14	721.25
445.361	637.25
445.582	599.25
445.803	629.25
446.024	701.25
446.245	705.25
446.466	662.25
446.687	568.25
446.908	574.25
447.129	543.25
447.35	545.25
447.571	519.25
447.792	508.25
448.013	502.25
448.234	532.25
448.455	556.25
448.675	658.25
448.896	716.25
449.117	642.25
449.338	631.25
449.559	679.25
449.779	797.25
450	647.25
450.221	536.25
450.442	506.25
450.662	509.25
450.883	494.25
451.104	511.25
451.324	511.25
451.545	487.25
451.766	469.25
451.986	461.25
452.207	454.25
452.428	461.25
452.648	476.25
452.869	472.25
453.089	466.25
453.31	464.25
453.53	444.25
453.751	446.25
453.971	437.25
454.192	474.25
454.412	462.25
454.633	448.25
454.853	468.25
455.073	454.25
455.294	489.25
455.514	551.25
455.734	513.25
455.955	454.25
456.175	434.25
456.395	454.25
456.616	421.25
456.836	447.25
457.056	421.25
457.276	428.25
457.497	449.25
457.717	426.25
457.937	451.25
458.157	467.25
458.377	449.25
458.598	449.25
458.818	509.25
459.038	573.25
459.258	595.25
459.478	538.25
459.698	485.25
459.918	519.25
460.138	518.25
460.358	531.25
460.578	533.25
460.798	544.25
461.018	572.25
461.238	545.25
461.458	542.25
461.678	540.25
461.898	545.25
462.118	546.25
462.338	553.25
462.558	568.25
462.777	597.25
462.997	619.25
463.217	633.25
463.437	649.25
463.657	605.25
463.876	600.25
464.096	600.25
464.316	595.25
464.536	597.25
464.755	601.25
464.975	589.25
465.195	589.25
465.414	610.25
465.634	539.25
465.854	519.25
466.073	512.25
466.293	515.25
466.512	494.25
466.732	501.25
466.951	469.25
467.171	489.25
467.391	486.25
467.61	495.25
467.829	491.25
468.049	472.25
468.268	474.25
468.488	467.25
468.707	473.25
468.927	449.25
469.146	457.25
469.365	470.25
469.585	473.25
469.804	490.25
470.023	476.25
470.243	501.25
470.462	519.25
470.681	486.25
470.901	499.25
471.12	498.25
471.339	511.25
471.558	492.25
471.777	488.25
471.997	468.25
472.216	497.25
472.435	507.25
472.654	497.25
472.873	452.25
473.092	459.25
473.311	476.25
473.53	489.25
473.749	496.25
473.968	534.25
474.187	580.25
474.406	611.25
474.625	529.25
474.844	488.25
475.063	497.25
475.282	485.25
475.501	482.25
475.72	499.25
475.939	501.25
476.158	503.25
476.377	474.25
476.596	466.25
476.814	502.25
477.033	493.25
477.252	511.25
477.471	501.25
477.69	517.25
477.908	545.25
478.127	532.25
478.346	539.25
478.564	566.25
478.783	553.25
479.002	557.25
479.22	584.25
479.439	563.25
479.658	566.25
479.876	596.25
480.095	599.25
480.313	630.25
480.532	637.25
480.751	610.25
480.969	597.25
481.188	628.25
481.406	640.25
481.624	590.25
481.843	582.25
482.061	568.25
482.28	580.25
482.498	552.25
482.717	561.25
482.935	564.25
483.153	551.25
483.372	562.25
483.59	541.25
483.808	558.25
484.027	571.25
484.245	559.25
484.463	535.25
484.681	556.25
484.9	581.25
485.118	572.25
485.336	558.25
485.554	559.25
485.772	562.25
485.99	579.25
486.209	586.25
486.427	576.25
486.645	597.25
486.863	611.25
487.081	608.25
487.299	565.25
487.517	598.25
487.735	585.25
487.953	613.25
488.171	590.25
488.389	585.25
488.607	590.25
488.825	614.25
489.043	604.25
489.261	609.25
489.479	606.25
489.696	607.25
489.914	598.25
490.132	606.25
490.35	623.25
490.568	617.25
490.786	634.25
491.003	655.25
491.221	646.25
491.439	665.25
491.657	657.25
491.874	654.25
492.092	668.25
492.31	672.25
492.527	680.25
492.745	672.25
492.963	679.25
493.18	718.25
493.398	713.25
493.615	718.25
493.833	707.25
494.05	689.25
494.268	676.25
494.485	678.25
494.703	677.25
494.92	726.25
495.138	682.25
495.355	695.25
495.573	709.25
495.79	702.25
496.008	713.25
496.225	693.25
496.442	717.25
496.66	718.25
496.877	699.25
497.094	694.25
497.312	707.25
497.529	733.25
497.746	728.25
497.963	763.25
498.181	783.25
498.398	784.25
498.615	840.25
498.832	827.25
499.049	874.25
499.267	903.25
499.484	950.25
499.701	1013.25
499.918	1081.25
500.135	1143.25
500.352	1218.25
500.569	1269.25
500.786	1271.25
501.003	1206.25
501.22	1137.25
501.437	1113.25
501.654	983.25
501.871	981.25
502.088	917.25
502.305	897.25
502.522	841.25
502.739	810.25
502.956	785.25
503.172	775.25
503.389	745.25
503.606	753.25
503.823	755.25
504.04	741.25
504.256	727.25
504.473	737.25
504.69	742.25
504.907	728.25
505.123	731.25
505.34	695.25
505.557	663.25
505.773	658.25
505.99	668.25
506.207	658.25
506.423	659.25
506.64	652.25
506.856	642.25
507.073	630.25
507.289	634.25
507.506	661.25
507.722	648.25
507.939	639.25
508.155	635.25
508.372	626.25
508.588	605.25
508.805	625.25
509.021	588.25
509.238	629.25
509.454	614.25
509.67	607.25
509.887	600.25
510.103	599.25
510.319	626.25
510.536	643.25
510.752	938.25
510.968	771.25
511.184	625.25
511.401	573.25
511.617	561.25
511.833	587.25
512.049	577.25
512.265	576.25
512.481	572.25
512.698	559.25
512.914	582.25
513.13	569.25
513.346	570.25
513.562	581.25
513.778	582.25
513.994	586.25
514.21	580.25
514.426	605.25
514.642	611.25
514.858	616.25
515.074	653.25
515.29	712.25
515.506	931.25
515.721	805.25
515.937	651.25
516.153	609.25
516.369	597.25
516.585	620.25
516.801	603.25
517.016	622.25
517.232	641.25
517.448	669.25
517.664	646.25
517.879	679.25
518.095	647.25
518.311	647.25
518.527	636.25
518.742	635.25
518.958	603.25
519.173	612.25
519.389	594.25
519.605	582.25
519.82	582.25
520.036	596.25
520.251	582.25
520.467	597.25
520.682	622.25
520.898	567.25
521.113	598.25
521.329	633.25
521.544	656.25
521.76	755.25
521.975	1125.25
522.19	1109.25
522.406	693.25
522.621	594.25
522.836	568.25
523.052	551.25
523.267	527.25
523.482	533.25
523.698	535.25
523.913	536.25
524.128	535.25
524.343	528.25
524.559	481.25
524.774	495.25
524.989	502.25
525.204	517.25
525.419	480.25
525.634	473.25
525.849	492.25
526.064	511.25
526.28	472.25
526.495	499.25
526.71	505.25
526.925	470.25
527.14	508.25
527.355	495.25
527.57	481.25
527.785	476.25
527.999	482.25
528.214	510.25
528.429	493.25
528.644	478.25
528.859	473.25
529.074	468.25
529.289	525.25
529.503	573.25
529.718	532.25
529.933	515.25
530.148	486.25
530.363	490.25
530.577	486.25
530.792	483.25
531.007	474.25
531.221	469.25
531.436	477.25
531.651	469.25
531.865	495.25
532.08	473.25
532.295	478.25
532.509	479.25
532.724	484.25
532.938	471.25
533.153	477.25
533.367	465.25
533.582	477.25
533.796	457.25
534.011	479.25
534.225	460.25
534.44	442.25
534.654	468.25
534.868	461.25
535.083	462.25
535.297	464.25
535.511	473.25
535.726	473.25
535.94	491.25
536.154	476.25
536.369	449.25
536.583	435.25
536.797	462.25
537.011	465.25
537.225	449.25
537.44	453.25
537.654	438.25
537.868	437.25
538.082	453.25
538.296	443.25
538.51	468.25
538.724	431.25
538.938	455.25
539.153	455.25
539.367	465.25
539.581	460.25
539.795	456.25
540.009	437.25
540.222	446.25
540.436	461.25
540.65	438.25
540.864	446.25
541.078	460.25
541.292	450.25
541.506	455.25
541.72	442.25
541.934	437.25
542.147	444.25
542.361	439.25
542.575	433.25
542.789	447.25
543.002	450.25
543.216	448.25
543.43	459.25
543.644	473.25
543.857	457.25
544.071	464.25
544.285	458.25
544.498	463.25
544.712	457.25
544.925	439.25
545.139	442.25
545.352	443.25
545.566	460.25
545.779	442.25
545.993	441.25
546.206	447.25
546.42	457.25
546.633	464.25
546.847	435.25
547.06	453.25
547.274	426.25
547.487	432.25
547.7	451.25
547.914	462.25
548.127	451.25
548.34	444.25
548.554	447.25
548.767	450.25
548.98	459.25
549.193	463.25
549.407	463.25
549.62	459.25
549.833	458.25
550.046	450.25
550.259	428.25
550.473	437.25
550.686	441.25
550.899	448.25
551.112	441.25
551.325	450.25
551.538	433.25
551.751	437.25
551.964	446.25
552.177	466.25
552.39	465.25
552.603	445.25
552.816	472.25
553.029	449.25
553.242	489.25
553.455	488.25
553.667	474.25
553.88	483.25
554.093	467.25
554.306	462.25
554.519	457.25
554.732	457.25
554.944	457.25
555.157	418.25
555.37	414.25
555.583	434.25
555.795	430.25
556.008	411.25
556.221	412.25
556.433	409.25
556.646	420.25
556.859	420.25
557.071	399.25
557.284	411.25
557.496	406.25
557.709	395.25
557.921	397.25
558.134	383.25
558.346	407.25
558.559	400.25
558.771	412.25
558.984	401.25
559.196	381.25
559.409	384.25
559.621	386.25
559.833	390.25
560.046	390.25
560.258	393.25
560.47	405.25
560.683	410.25
560.895	410.25
561.107	389.25
561.32	386.25
561.532	391.25
561.744	400.25
561.956	408.25
562.168	389.25
562.381	377.25
562.593	380.25
562.805	401.25
563.017	386.25
563.229	393.25
563.441	389.25
563.653	406.25
563.865	404.25
564.077	405.25
564.289	406.25
564.501	421.25
564.713	433.25
564.925	423.25
565.137	439.25
565.349	454.25
565.561	449.25
565.773	475.25
565.985	460.25
566.197	474.25
566.408	478.25
566.62	516.25
566.832	529.25
567.044	554.25
567.255	543.25
567.467	569.25
567.679	565.25
567.891	595.25
568.102	604.25
568.314	565.25
568.526	528.25
568.737	543.25
568.949	475.25
569.161	476.25
569.372	466.25
569.584	442.25
569.795	437.25
570.007	423.25
570.218	441.25
570.43	424.25
570.641	405.25
570.853	379.25
571.064	400.25
571.276	397.25
571.487	381.25
571.698	404.25
571.91	371.25
572.121	390.25
572.333	365.25
572.544	361.25
572.755	348.25
572.966	363.25
573.178	354.25
573.389	355.25
573.6	361.25
573.811	359.25
574.023	342.25
574.234	340.25
574.445	350.25
574.656	357.25
574.867	343.25
575.078	334.25
575.289	349.25
575.501	333.25
575.712	352.25
575.923	329.25
576.134	336.25
576.345	343.25
576.556	355.25
576.767	337.25
576.978	325.25
577.188	348.25
577.399	350.25
577.61	329.25
577.821	339.25
578.032	332.25
578.243	354.25
578.454	459.25
578.665	387.25
578.875	336.25
579.086	342.25
579.297	327.25
579.508	324.25
579.718	325.25
579.929	311.25
580.14	322.25
580.35	325.25
580.561	313.25
580.772	313.25
580.982	306.25
581.193	308.25
581.403	324.25
581.614	323.25
581.825	310.25
582.035	308.25
582.246	301.25
582.456	320.25
582.667	311.25
582.877	306.25
583.087	302.25
583.298	315.25
583.508	303.25
583.719	303.25
583.929	319.25
584.139	323.25
584.35	327.25
584.56	311.25
584.77	307.25
584.981	299.25
585.191	307.25
585.401	290.25
585.611	307.25
585.821	307.25
586.032	312.25
586.242	310.25
586.452	294.25
586.662	302.25
586.872	295.25
587.082	282.25
587.292	323.25
587.502	298.25
587.713	327.25
587.923	293.25
588.133	294.25
588.343	300.25
588.553	301.25
588.762	297.25
588.972	290.25
589.182	311.25
589.392	317.25
589.602	300.25
589.812	314.25
590.022	307.25
590.232	305.25
590.441	307.25
590.651	295.25
590.861	311.25
591.071	304.25
591.281	309.25
591.49	315.25
591.7	321.25
591.91	324.25
592.119	325.25
592.329	327.25
592.539	322.25
592.748	341.25
592.958	331.25
593.167	341.25
593.377	348.25
593.587	333.25
593.796	359.25
594.006	343.25
594.215	361.25
594.424	353.25
594.634	334.25
594.843	355.25
595.053	353.25
595.262	322.25
595.472	318.25
595.681	316.25
595.89	320.25
596.1	305.25
596.309	307.25
596.518	308.25
596.727	293.25
596.937	284.25
597.146	301.25
597.355	280.25
597.564	292.25
597.774	286.25
597.983	287.25
598.192	296.25
598.401	293.25
598.61	265.25
598.819	272.25
599.028	271.25
599.237	277.25
599.446	281.25
599.655	278.25
599.864	273.25
600.073	271.25
600.282	265.25
600.491	267.25
600.7	267.25
600.909	268.25
601.118	275.25
601.327	272.25
601.536	259.25
601.745	275.25
601.953	271.25
602.162	261.25
602.371	269.25
602.58	236.25
602.789	263.25
602.997	265.25
603.206	264.25
603.415	250.25
603.623	257.25
603.832	275.25
604.041	272.25
604.249	261.25
604.458	269.25
604.666	242.25
604.875	254.25
605.084	238.25
605.292	275.25
605.501	272.25
605.709	258.25
605.918	258.25
606.126	255.25
606.334	241.25
606.543	262.25
606.751	261.25
606.96	254.25
607.168	250.25
607.376	229.25
607.585	253.25
607.793	256.25
608.001	250.25
608.21	231.25
608.418	264.25
608.626	243.25
608.834	238.25
609.043	243.25
609.251	244.25
609.459	246.25
609.667	243.25
609.875	242.25
610.083	239.25
610.291	256.25
610.499	242.25
610.707	233.25
610.916	265.25
611.124	255.25
611.332	247.25
611.54	261.25
611.748	250.25
611.955	249.25
612.163	245.25
612.371	267.25
612.579	250.25
612.787	255.25
612.995	242.25
613.203	245.25
613.411	258.25
613.618	233.25
613.826	247.25
614.034	234.25
614.242	237.25
614.449	236.25
614.657	239.25
614.865	232.25
615.072	249.25
615.28	252.25
615.488	237.25
615.695	255.25
615.903	257.25
616.111	243.25
616.318	241.25
616.526	238.25
616.733	243.25
616.941	233.25
617.148	255.25
617.356	243.25
617.563	247.25
617.771	269.25
617.978	239.25
618.185	250.25
618.393	233.25
618.6	247.25
618.807	247.25
619.015	242.25
619.222	244.25
619.429	232.25
619.637	225.25
619.844	244.25
620.051	235.25
620.258	219.25
620.466	237.25
620.673	219.25
620.88	226.25
621.087	230.25
621.294	239.25
621.501	229.25
621.708	222.25
621.915	244.25
622.122	242.25
622.329	218.25
622.536	213.25
622.743	225.25
622.95	216.25
623.157	223.25
623.364	222.25
623.571	221.25
623.778	233.25
623.985	245.25
624.192	227.25
624.399	235.25
624.606	221.25
624.812	212.25
625.019	223.25
625.226	232.25
625.433	217.25
625.639	217.25
625.846	230.25
626.053	220.25
626.259	212.25
626.466	219.25
626.673	220.25
626.879	191.25
627.086	188.25
627.293	220.25
627.499	217.25
627.706	214.25
627.912	199.25
628.119	208.25
628.325	211.25
628.532	191.25
628.738	197.25
628.945	210.25
629.151	213.25
629.357	220.25
629.564	205.25
629.77	220.25
629.976	206.25
630.183	206.25
630.389	189.25
630.595	193.25
630.802	189.25
631.008	203.25
631.214	205.25
631.42	211.25
631.627	197.25
631.833	198.25
632.039	213.25
632.245	202.25
632.451	174.25
632.657	204.25
632.863	192.25
633.069	185.25
633.275	198.25
633.481	182.25
633.688	187.25
633.893	201.25
634.099	209.25
634.305	196.25
634.511	188.25
634.717	195.25
634.923	202.25
635.129	179.25
635.335	190.25
635.541	171.25
635.747	193.25
635.952	185.25
636.158	171.25
636.364	199.25
636.57	195.25
636.775	187.25
636.981	195.25
637.187	204.25
637.392	185.25
637.598	190.25
637.804	201.25
638.009	186.25
638.215	166.25
638.421	180.25
638.626	163.25
638.832	185.25
639.037	167.25
639.243	161.25
639.448	166.25
639.654	176.25
639.859	181.25
640.065	181.25
640.27	175.25
640.475	161.25
640.681	193.25
640.886	182.25
641.091	181.25
641.297	183.25
641.502	166.25
641.707	177.25
641.913	185.25
642.118	170.25
642.323	174.25
642.528	185.25
642.733	183.25
642.939	168.25
643.144	169.25
643.349	163.25
643.554	173.25
643.759	183.25
643.964	166.25
644.169	179.25
644.374	189.25
644.579	177.25
644.784	173.25
644.989	170.25
645.194	156.25
645.399	162.25
645.604	180.25
645.809	168.25
646.014	170.25
646.219	181.25
646.423	153.25
646.628	187.25
646.833	169.25
647.038	170.25
647.243	161.25
647.447	173.25
647.652	181.25
647.857	185.25
648.062	171.25
648.266	178.25
648.471	170.25
648.676	190.25
648.88	179.25
649.085	180.25
649.289	180.25
649.494	189.25
649.698	181.25
649.903	193.25
650.107	185.25
650.312	169.25
650.516	166.25
650.721	180.25
650.925	159.25
651.13	152.25
651.334	156.25
651.539	158.25
651.743	155.25
651.947	148.25
652.152	153.25
652.356	152.25
652.56	152.25
652.764	157.25
652.969	135.25
653.173	153.25
653.377	140.25
653.581	141.25
653.785	144.25
653.99	137.25
654.194	137.25
654.398	151.25
654.602	140.25
654.806	145.25
655.01	140.25
655.214	145.25
655.418	131.25
655.622	142.25
655.826	153.25
656.03	148.25
656.234	149.25
656.438	142.25
656.642	149.25
656.846	143.25
657.049	141.25
657.253	127.25
657.457	129.25
657.661	118.25
657.865	122.25
658.068	114.25
658.272	114.25
658.476	105.25
658.68	109.25
658.883	103.25
659.087	89.25
659.291	107.25
659.494	113.25
659.698	110.25
659.901	99.25
660.105	114.25
660.309	113.25
660.512	98.25
660.716	107.25
660.919	92.25
661.123	90.25
661.326	82.25
661.53	88.25
661.733	106.25
661.936	73.25
662.14	81.25
662.343	83.25
662.546	90.25
662.75	100.25
662.953	96.25
663.156	81.25
663.36	90.25
663.563	86.25
663.766	77.25
663.969	84.25
664.173	84.25
664.376	93.25
664.579	93.25
664.782	78.25
664.985	74.25
665.188	71.25
665.391	86.25
665.594	72.25
665.797	83.25
666	91.25
666.203	92.25
666.406	82.25
666.609	83.25
666.812	88.25
667.015	75.25
667.218	84.25
667.421	83.25
667.624	76.25
667.827	77.25
668.03	73.25
668.232	69.25
668.435	84.25
668.638	72.25
668.841	75.25
669.043	85.25
669.246	70.25
669.449	85.25
669.651	69.25
669.854	84.25
670.057	88.25
670.259	81.25
670.462	94.25
670.665	90.25
670.867	76.25
671.07	90.25
671.272	76.25
671.475	79.25
671.677	80.25
671.88	82.25
672.082	76.25
672.284	87.25
672.487	70.25
672.689	94.25
672.892	88.25
