Data from 1973.PennyLincolnUp.Lamp.En5.5.200Scan.071719.P1.Changed Mount._HRD10591_15-45-43-853.txt Node
Date: Thu Jul 18 15:45:43 EDT 2019
User: cochatt
Spectrometer: HR+D1059
Trigger mode: 1
Integration Time (sec): 1.000000E-1
Scans to average: 1
Electric dark correction enabled: true
Nonlinearity correction enabled: false
Boxcar width: 0
XAxis mode: Wavelengths
Number of Pixels in Spectrum: 2048
>>>>>Begin Spectral Data<<<<<
223.165	-17.31
223.4	-17.31
223.635	-17.31
223.869	-10.31
224.104	-8.31
224.338	-12.31
224.573	-11.31
224.808	-12.31
225.042	-11.31
225.277	-7.31
225.511	-5.31
225.746	1.69
225.98	3.69
226.215	9.69
226.449	4.69
226.683	25.69
226.918	21.69
227.152	28.69
227.387	27.69
227.621	38.69
227.856	48.69
228.09	45.69
228.324	60.69
228.559	58.69
228.793	65.69
229.027	98.69
229.262	103.69
229.496	118.69
229.73	129.69
229.964	153.69
230.199	129.69
230.433	110.69
230.667	121.69
230.901	108.69
231.136	123.69
231.37	105.69
231.604	94.69
231.838	107.69
232.072	122.69
232.306	110.69
232.541	134.69
232.775	117.69
233.009	115.69
233.243	125.69
233.477	114.69
233.711	117.69
233.945	116.69
234.179	114.69
234.413	99.69
234.647	116.69
234.881	119.69
235.115	123.69
235.349	122.69
235.583	121.69
235.817	113.69
236.051	135.69
236.285	127.69
236.519	131.69
236.753	140.69
236.987	149.69
237.221	166.69
237.455	207.69
237.689	178.69
237.922	136.69
238.156	116.69
238.39	126.69
238.624	129.69
238.858	137.69
239.091	128.69
239.325	125.69
239.559	123.69
239.793	137.69
240.027	137.69
240.26	131.69
240.494	159.69
240.728	155.69
240.961	150.69
241.195	135.69
241.429	152.69
241.662	143.69
241.896	133.69
242.13	134.69
242.363	132.69
242.597	153.69
242.83	147.69
243.064	143.69
243.298	144.69
243.531	145.69
243.765	145.69
243.998	157.69
244.232	153.69
244.465	133.69
244.699	168.69
244.932	157.69
245.166	149.69
245.399	145.69
245.633	141.69
245.866	140.69
246.099	162.69
246.333	139.69
246.566	154.69
246.8	149.69
247.033	157.69
247.266	158.69
247.5	159.69
247.733	154.69
247.966	168.69
248.2	167.69
248.433	180.69
248.666	178.69
248.899	186.69
249.133	201.69
249.366	209.69
249.599	213.69
249.832	195.69
250.066	185.69
250.299	187.69
250.532	195.69
250.765	197.69
250.998	225.69
251.231	232.69
251.465	225.69
251.698	205.69
251.931	216.69
252.164	188.69
252.397	193.69
252.63	198.69
252.863	226.69
253.096	196.69
253.329	219.69
253.562	208.69
253.795	220.69
254.028	229.69
254.261	226.69
254.494	234.69
254.727	250.69
254.96	255.69
255.193	267.69
255.426	242.69
255.659	223.69
255.892	225.69
256.124	239.69
256.357	247.69
256.59	236.69
256.823	234.69
257.056	215.69
257.289	203.69
257.521	213.69
257.754	215.69
257.987	222.69
258.22	210.69
258.452	222.69
258.685	200.69
258.918	222.69
259.151	239.69
259.383	245.69
259.616	237.69
259.849	217.69
260.081	241.69
260.314	257.69
260.547	265.69
260.779	247.69
261.012	258.69
261.244	229.69
261.477	228.69
261.71	236.69
261.942	240.69
262.175	230.69
262.407	225.69
262.64	231.69
262.872	234.69
263.105	233.69
263.337	230.69
263.57	224.69
263.802	216.69
264.035	223.69
264.267	238.69
264.499	224.69
264.732	230.69
264.964	220.69
265.197	203.69
265.429	236.69
265.661	241.69
265.894	244.69
266.126	236.69
266.358	213.69
266.591	234.69
266.823	229.69
267.055	243.69
267.287	249.69
267.52	231.69
267.752	239.69
267.984	261.69
268.216	246.69
268.448	249.69
268.681	252.69
268.913	259.69
269.145	266.69
269.377	306.69
269.609	284.69
269.841	289.69
270.073	295.69
270.306	297.69
270.538	293.69
270.77	313.69
271.002	337.69
271.234	293.69
271.466	312.69
271.698	311.69
271.93	317.69
272.162	315.69
272.394	324.69
272.626	295.69
272.858	302.69
273.09	302.69
273.322	280.69
273.553	269.69
273.785	277.69
274.017	291.69
274.249	272.69
274.481	293.69
274.713	283.69
274.945	270.69
275.176	283.69
275.408	299.69
275.64	284.69
275.872	280.69
276.104	285.69
276.335	298.69
276.567	291.69
276.799	338.69
277.031	342.69
277.262	321.69
277.494	329.69
277.726	326.69
277.957	307.69
278.189	292.69
278.421	297.69
278.652	293.69
278.884	306.69
279.115	297.69
279.347	291.69
279.579	285.69
279.81	299.69
280.042	277.69
280.273	290.69
280.505	281.69
280.736	310.69
280.968	312.69
281.199	283.69
281.431	294.69
281.662	303.69
281.894	289.69
282.125	315.69
282.356	309.69
282.588	322.69
282.819	318.69
283.051	305.69
283.282	303.69
283.513	312.69
283.745	301.69
283.976	294.69
284.207	317.69
284.439	311.69
284.67	323.69
284.901	310.69
285.132	305.69
285.364	327.69
285.595	297.69
285.826	322.69
286.057	329.69
286.288	310.69
286.52	317.69
286.751	319.69
286.982	315.69
287.213	298.69
287.444	345.69
287.675	321.69
287.906	327.69
288.138	345.69
288.369	338.69
288.6	335.69
288.831	342.69
289.062	324.69
289.293	333.69
289.524	311.69
289.755	327.69
289.986	338.69
290.217	321.69
290.448	327.69
290.679	319.69
290.91	333.69
291.141	332.69
291.371	317.69
291.602	342.69
291.833	340.69
292.064	340.69
292.295	328.69
292.526	345.69
292.757	320.69
292.987	320.69
293.218	315.69
293.449	346.69
293.68	336.69
293.91	342.69
294.141	326.69
294.372	322.69
294.603	332.69
294.833	343.69
295.064	327.69
295.295	329.69
295.525	334.69
295.756	339.69
295.987	335.69
296.217	363.69
296.448	341.69
296.679	355.69
296.909	346.69
297.14	323.69
297.37	358.69
297.601	360.69
297.831	340.69
298.062	358.69
298.292	325.69
298.523	347.69
298.753	340.69
298.984	369.69
299.214	357.69
299.445	362.69
299.675	336.69
299.905	338.69
300.136	354.69
300.366	335.69
300.597	349.69
300.827	357.69
301.057	364.69
301.288	345.69
301.518	357.69
301.748	354.69
301.979	356.69
302.209	353.69
302.439	381.69
302.669	373.69
302.9	378.69
303.13	354.69
303.36	391.69
303.59	364.69
303.82	400.69
304.051	390.69
304.281	353.69
304.511	373.69
304.741	372.69
304.971	357.69
305.201	379.69
305.431	369.69
305.661	355.69
305.891	359.69
306.121	370.69
306.352	369.69
306.582	358.69
306.812	358.69
307.042	365.69
307.272	374.69
307.502	377.69
307.731	350.69
307.961	355.69
308.191	379.69
308.421	381.69
308.651	376.69
308.881	346.69
309.111	355.69
309.341	366.69
309.571	386.69
309.8	391.69
310.03	393.69
310.26	391.69
310.49	408.69
310.72	428.69
310.949	401.69
311.179	407.69
311.409	400.69
311.639	383.69
311.868	417.69
312.098	411.69
312.328	420.69
312.557	433.69
312.787	435.69
313.017	452.69
313.246	422.69
313.476	393.69
313.706	403.69
313.935	411.69
314.165	387.69
314.394	419.69
314.624	426.69
314.853	407.69
315.083	415.69
315.312	410.69
315.542	396.69
315.771	393.69
316.001	406.69
316.23	409.69
316.46	400.69
316.689	407.69
316.919	405.69
317.148	411.69
317.377	412.69
317.607	427.69
317.836	433.69
318.065	405.69
318.295	398.69
318.524	404.69
318.753	412.69
318.983	401.69
319.212	436.69
319.441	405.69
319.67	429.69
319.9	394.69
320.129	400.69
320.358	417.69
320.587	404.69
320.816	411.69
321.046	399.69
321.275	420.69
321.504	400.69
321.733	441.69
321.962	421.69
322.191	426.69
322.42	424.69
322.649	449.69
322.878	457.69
323.108	459.69
323.337	459.69
323.566	475.69
323.795	487.69
324.024	527.69
324.253	599.69
324.482	783.69
324.71	1100.69
324.939	1581.69
325.168	1411.69
325.397	743.69
325.626	580.69
325.855	520.69
326.084	499.69
326.313	480.69
326.542	475.69
326.77	522.69
326.999	582.69
327.228	747.69
327.457	1037.69
327.686	1223.69
327.914	862.69
328.143	621.69
328.372	579.69
328.6	527.69
328.829	540.69
329.058	521.69
329.287	540.69
329.515	540.69
329.744	482.69
329.972	504.69
330.201	529.69
330.43	536.69
330.658	546.69
330.887	574.69
331.115	537.69
331.344	515.69
331.572	478.69
331.801	523.69
332.03	515.69
332.258	494.69
332.486	494.69
332.715	488.69
332.943	498.69
333.172	488.69
333.4	525.69
333.629	526.69
333.857	542.69
334.085	559.69
334.314	560.69
334.542	589.69
334.771	571.69
334.999	553.69
335.227	499.69
335.455	518.69
335.684	501.69
335.912	502.69
336.14	517.69
336.369	503.69
336.597	487.69
336.825	501.69
337.053	488.69
337.281	479.69
337.51	485.69
337.738	479.69
337.966	486.69
338.194	466.69
338.422	481.69
338.65	486.69
338.878	470.69
339.106	474.69
339.334	472.69
339.562	455.69
339.79	462.69
340.018	480.69
340.246	474.69
340.474	481.69
340.702	465.69
340.93	446.69
341.158	447.69
341.386	456.69
341.614	479.69
341.842	444.69
342.07	449.69
342.298	434.69
342.526	466.69
342.754	456.69
342.981	473.69
343.209	438.69
343.437	458.69
343.665	485.69
343.893	494.69
344.12	504.69
344.348	500.69
344.576	485.69
344.804	462.69
345.031	491.69
345.259	477.69
345.487	462.69
345.714	450.69
345.942	470.69
346.17	450.69
346.397	457.69
346.625	447.69
346.853	445.69
347.08	442.69
347.308	466.69
347.535	446.69
347.763	468.69
347.99	429.69
348.218	426.69
348.445	442.69
348.673	445.69
348.9	453.69
349.128	443.69
349.355	439.69
349.583	427.69
349.81	429.69
350.037	445.69
350.265	438.69
350.492	419.69
350.72	420.69
350.947	438.69
351.174	426.69
351.402	439.69
351.629	444.69
351.856	425.69
352.083	451.69
352.311	427.69
352.538	458.69
352.765	454.69
352.992	453.69
353.22	416.69
353.447	418.69
353.674	451.69
353.901	417.69
354.128	421.69
354.355	418.69
354.583	412.69
354.81	444.69
355.037	421.69
355.264	407.69
355.491	420.69
355.718	418.69
355.945	427.69
356.172	425.69
356.399	410.69
356.626	396.69
356.853	417.69
357.08	423.69
357.307	414.69
357.534	429.69
357.761	409.69
357.988	427.69
358.215	411.69
358.441	403.69
358.668	445.69
358.895	411.69
359.122	428.69
359.349	443.69
359.576	418.69
359.802	444.69
360.029	439.69
360.256	471.69
360.483	464.69
360.709	449.69
360.936	425.69
361.163	427.69
361.39	457.69
361.616	439.69
361.843	441.69
362.07	446.69
362.296	454.69
362.523	435.69
362.749	417.69
362.976	445.69
363.203	406.69
363.429	401.69
363.656	413.69
363.882	441.69
364.109	435.69
364.335	421.69
364.562	402.69
364.788	426.69
365.015	435.69
365.241	419.69
365.468	422.69
365.694	434.69
365.92	441.69
366.147	432.69
366.373	422.69
366.599	401.69
366.826	427.69
367.052	391.69
367.278	428.69
367.505	409.69
367.731	435.69
367.957	428.69
368.184	418.69
368.41	427.69
368.636	432.69
368.862	441.69
369.089	434.69
369.315	418.69
369.541	409.69
369.767	451.69
369.993	433.69
370.219	429.69
370.445	439.69
370.672	430.69
370.898	421.69
371.124	435.69
371.35	436.69
371.576	421.69
371.802	452.69
372.028	420.69
372.254	436.69
372.48	428.69
372.706	450.69
372.932	447.69
373.158	442.69
373.384	451.69
373.61	430.69
373.835	421.69
374.061	438.69
374.287	453.69
374.513	443.69
374.739	448.69
374.965	443.69
375.191	451.69
375.416	469.69
375.642	444.69
375.868	457.69
376.094	441.69
376.319	428.69
376.545	437.69
376.771	423.69
376.997	447.69
377.222	430.69
377.448	454.69
377.674	437.69
377.899	435.69
378.125	426.69
378.35	418.69
378.576	423.69
378.802	419.69
379.027	444.69
379.253	421.69
379.478	425.69
379.704	428.69
379.929	445.69
380.155	449.69
380.38	440.69
380.606	451.69
380.831	428.69
381.057	441.69
381.282	443.69
381.507	438.69
381.733	419.69
381.958	454.69
382.184	427.69
382.409	446.69
382.634	423.69
382.86	452.69
383.085	442.69
383.31	469.69
383.535	453.69
383.761	451.69
383.986	450.69
384.211	459.69
384.436	466.69
384.662	481.69
384.887	471.69
385.112	476.69
385.337	484.69
385.562	482.69
385.787	490.69
386.013	497.69
386.238	496.69
386.463	508.69
386.688	514.69
386.913	483.69
387.138	503.69
387.363	481.69
387.588	500.69
387.813	486.69
388.038	506.69
388.263	479.69
388.488	498.69
388.713	491.69
388.938	479.69
389.163	467.69
389.387	479.69
389.612	466.69
389.837	467.69
390.062	508.69
390.287	496.69
390.512	479.69
390.736	492.69
390.961	507.69
391.186	501.69
391.411	493.69
391.636	514.69
391.86	515.69
392.085	514.69
392.31	502.69
392.534	499.69
392.759	533.69
392.984	505.69
393.208	502.69
393.433	510.69
393.658	482.69
393.882	479.69
394.107	510.69
394.331	486.69
394.556	500.69
394.78	483.69
395.005	492.69
395.229	519.69
395.454	505.69
395.678	520.69
395.903	514.69
396.127	544.69
396.352	552.69
396.576	515.69
396.801	521.69
397.025	515.69
397.249	525.69
397.474	549.69
397.698	520.69
397.922	528.69
398.147	548.69
398.371	562.69
398.595	565.69
398.82	578.69
399.044	595.69
399.268	611.69
399.492	682.69
399.717	731.69
399.941	750.69
400.165	717.69
400.389	725.69
400.613	664.69
400.837	608.69
401.062	598.69
401.286	597.69
401.51	568.69
401.734	582.69
401.958	577.69
402.182	581.69
402.406	587.69
402.63	603.69
402.854	586.69
403.078	586.69
403.302	628.69
403.526	605.69
403.75	599.69
403.974	603.69
404.198	621.69
404.422	596.69
404.645	606.69
404.869	630.69
405.093	653.69
405.317	677.69
405.541	732.69
405.765	664.69
405.988	625.69
406.212	632.69
406.436	649.69
406.66	681.69
406.883	654.69
407.107	683.69
407.331	710.69
407.555	779.69
407.778	789.69
408.002	711.69
408.226	673.69
408.449	634.69
408.673	663.69
408.896	653.69
409.12	743.69
409.344	659.69
409.567	633.69
409.791	635.69
410.014	614.69
410.238	598.69
410.461	603.69
410.685	603.69
410.908	626.69
411.132	616.69
411.355	679.69
411.578	625.69
411.802	619.69
412.025	608.69
412.249	616.69
412.472	622.69
412.695	637.69
412.919	627.69
413.142	628.69
413.365	591.69
413.589	574.69
413.812	587.69
414.035	565.69
414.258	564.69
414.482	580.69
414.705	551.69
414.928	570.69
415.151	539.69
415.374	553.69
415.597	555.69
415.821	563.69
416.044	567.69
416.267	586.69
416.49	570.69
416.713	538.69
416.936	557.69
417.159	537.69
417.382	547.69
417.605	545.69
417.828	579.69
418.051	573.69
418.274	575.69
418.497	601.69
418.72	567.69
418.943	576.69
419.166	604.69
419.389	625.69
419.611	627.69
419.834	629.69
420.057	596.69
420.28	604.69
420.503	583.69
420.726	594.69
420.948	599.69
421.171	626.69
421.394	640.69
421.617	606.69
421.839	580.69
422.062	575.69
422.285	580.69
422.507	628.69
422.73	729.69
422.953	691.69
423.175	634.69
423.398	617.69
423.621	614.69
423.843	628.69
424.066	635.69
424.288	637.69
424.511	632.69
424.733	693.69
424.956	738.69
425.178	724.69
425.401	716.69
425.623	714.69
425.846	646.69
426.068	609.69
426.291	625.69
426.513	595.69
426.735	573.69
426.958	638.69
427.18	703.69
427.402	811.69
427.625	892.69
427.847	748.69
428.069	676.69
428.292	617.69
428.514	574.69
428.736	550.69
428.958	549.69
429.181	538.69
429.403	528.69
429.625	554.69
429.847	586.69
430.069	602.69
430.292	638.69
430.514	568.69
430.736	527.69
430.958	551.69
431.18	523.69
431.402	533.69
431.624	534.69
431.846	541.69
432.068	527.69
432.29	517.69
432.512	542.69
432.734	536.69
432.956	538.69
433.178	551.69
433.4	542.69
433.622	519.69
433.844	567.69
434.066	545.69
434.287	543.69
434.509	523.69
434.731	542.69
434.953	565.69
435.175	585.69
435.397	604.69
435.618	582.69
435.84	618.69
436.062	702.69
436.284	760.69
436.505	667.69
436.727	587.69
436.949	550.69
437.17	567.69
437.392	558.69
437.614	567.69
437.835	592.69
438.057	643.69
438.278	715.69
438.5	726.69
438.721	809.69
438.943	807.69
439.165	656.69
439.386	596.69
439.608	591.69
439.829	603.69
440.05	614.69
440.272	613.69
440.493	593.69
440.715	582.69
440.936	571.69
441.158	572.69
441.379	565.69
441.6	613.69
441.822	595.69
442.043	626.69
442.264	689.69
442.486	726.69
442.707	621.69
442.928	607.69
443.149	644.69
443.371	635.69
443.592	661.69
443.813	758.69
444.034	813.69
444.255	709.69
444.476	641.69
444.698	617.69
444.919	626.69
445.14	725.69
445.361	698.69
445.582	653.69
445.803	693.69
446.024	751.69
446.245	765.69
446.466	711.69
446.687	633.69
446.908	589.69
447.129	572.69
447.35	566.69
447.571	533.69
447.792	535.69
448.013	543.69
448.234	541.69
448.455	580.69
448.675	680.69
448.896	787.69
449.117	701.69
449.338	653.69
449.559	721.69
449.779	827.69
450	692.69
450.221	579.69
450.442	520.69
450.662	532.69
450.883	537.69
451.104	542.69
451.324	524.69
451.545	505.69
451.766	486.69
451.986	513.69
452.207	483.69
452.428	487.69
452.648	494.69
452.869	477.69
453.089	501.69
453.31	508.69
453.53	501.69
453.751	486.69
453.971	477.69
454.192	486.69
454.412	477.69
454.633	485.69
454.853	472.69
455.073	469.69
455.294	471.69
455.514	548.69
455.734	525.69
455.955	498.69
456.175	462.69
456.395	476.69
456.616	455.69
456.836	460.69
457.056	476.69
457.276	456.69
457.497	446.69
457.717	458.69
457.937	477.69
458.157	478.69
458.377	493.69
458.598	514.69
458.818	533.69
459.038	601.69
459.258	629.69
459.478	566.69
459.698	547.69
459.918	553.69
460.138	550.69
460.358	553.69
460.578	575.69
460.798	589.69
461.018	583.69
461.238	554.69
461.458	551.69
461.678	582.69
461.898	563.69
462.118	576.69
462.338	577.69
462.558	594.69
462.777	594.69
462.997	646.69
463.217	673.69
463.437	695.69
463.657	656.69
463.876	650.69
464.096	632.69
464.316	605.69
464.536	625.69
464.755	645.69
464.975	618.69
465.195	634.69
465.414	637.69
465.634	595.69
465.854	513.69
466.073	531.69
466.293	527.69
466.512	502.69
466.732	508.69
466.951	539.69
467.171	521.69
467.391	528.69
467.61	516.69
467.829	517.69
468.049	489.69
468.268	497.69
468.488	515.69
468.707	488.69
468.927	510.69
469.146	483.69
469.365	511.69
469.585	506.69
469.804	507.69
470.023	519.69
470.243	531.69
470.462	516.69
470.681	563.69
470.901	513.69
471.12	522.69
471.339	521.69
471.558	531.69
471.777	513.69
471.997	488.69
472.216	519.69
472.435	503.69
472.654	516.69
472.873	513.69
473.092	487.69
473.311	503.69
473.53	495.69
473.749	511.69
473.968	556.69
474.187	620.69
474.406	632.69
474.625	559.69
474.844	535.69
475.063	500.69
475.282	509.69
475.501	510.69
475.72	520.69
475.939	507.69
476.158	523.69
476.377	532.69
476.596	537.69
476.814	550.69
477.033	536.69
477.252	557.69
477.471	559.69
477.69	580.69
477.908	551.69
478.127	577.69
478.346	581.69
478.564	580.69
478.783	594.69
479.002	602.69
479.22	637.69
479.439	611.69
479.658	635.69
479.876	613.69
480.095	620.69
480.313	666.69
480.532	669.69
480.751	655.69
480.969	652.69
481.188	673.69
481.406	680.69
481.624	616.69
481.843	606.69
482.061	583.69
482.28	613.69
482.498	586.69
482.717	595.69
482.935	575.69
483.153	586.69
483.372	620.69
483.59	614.69
483.808	588.69
484.027	575.69
484.245	584.69
484.463	583.69
484.681	599.69
484.9	589.69
485.118	611.69
485.336	595.69
485.554	601.69
485.772	637.69
485.99	594.69
486.209	608.69
486.427	601.69
486.645	625.69
486.863	628.69
487.081	625.69
487.299	643.69
487.517	637.69
487.735	624.69
487.953	653.69
488.171	630.69
488.389	605.69
488.607	635.69
488.825	625.69
489.043	633.69
489.261	662.69
489.479	638.69
489.696	642.69
489.914	636.69
490.132	652.69
490.35	633.69
490.568	652.69
490.786	684.69
491.003	681.69
491.221	693.69
491.439	692.69
491.657	680.69
491.874	719.69
492.092	713.69
492.31	722.69
492.527	715.69
492.745	730.69
492.963	719.69
493.18	727.69
493.398	725.69
493.615	745.69
493.833	748.69
494.05	745.69
494.268	731.69
494.485	743.69
494.703	744.69
494.92	765.69
495.138	743.69
495.355	747.69
495.573	766.69
495.79	715.69
496.008	764.69
496.225	735.69
496.442	738.69
496.66	729.69
496.877	736.69
497.094	773.69
497.312	751.69
497.529	773.69
497.746	773.69
497.963	783.69
498.181	824.69
498.398	836.69
498.615	869.69
498.832	878.69
499.049	906.69
499.267	952.69
499.484	1007.69
499.701	1047.69
499.918	1088.69
500.135	1201.69
500.352	1313.69
500.569	1313.69
500.786	1300.69
501.003	1281.69
501.22	1196.69
501.437	1134.69
501.654	1099.69
501.871	1012.69
502.088	991.69
502.305	916.69
502.522	911.69
502.739	857.69
502.956	845.69
503.172	810.69
503.389	811.69
503.606	817.69
503.823	775.69
504.04	761.69
504.256	783.69
504.473	760.69
504.69	777.69
504.907	777.69
505.123	739.69
505.34	739.69
505.557	705.69
505.773	716.69
505.99	712.69
506.207	743.69
506.423	714.69
506.64	662.69
506.856	663.69
507.073	655.69
507.289	668.69
507.506	656.69
507.722	675.69
507.939	669.69
508.155	667.69
508.372	645.69
508.588	629.69
508.805	649.69
509.021	667.69
509.238	655.69
509.454	653.69
509.67	651.69
509.887	639.69
510.103	649.69
510.319	625.69
510.536	693.69
510.752	962.69
510.968	819.69
511.184	653.69
511.401	603.69
511.617	613.69
511.833	602.69
512.049	615.69
512.265	612.69
512.481	620.69
512.698	606.69
512.914	608.69
513.13	632.69
513.346	612.69
513.562	595.69
513.778	584.69
513.994	616.69
514.21	614.69
514.426	644.69
514.642	641.69
514.858	655.69
515.074	678.69
515.29	749.69
515.506	966.69
515.721	867.69
515.937	681.69
516.153	649.69
516.369	639.69
516.585	637.69
516.801	651.69
517.016	676.69
517.232	693.69
517.448	671.69
517.664	693.69
517.879	697.69
518.095	707.69
518.311	699.69
518.527	680.69
518.742	678.69
518.958	646.69
519.173	628.69
519.389	636.69
519.605	626.69
519.82	603.69
520.036	618.69
520.251	627.69
520.467	629.69
520.682	638.69
520.898	621.69
521.113	614.69
521.329	642.69
521.544	718.69
521.76	795.69
521.975	1177.69
522.19	1109.69
522.406	743.69
522.621	615.69
522.836	570.69
523.052	583.69
523.267	591.69
523.482	556.69
523.698	550.69
523.913	557.69
524.128	567.69
524.343	541.69
524.559	510.69
524.774	513.69
524.989	540.69
525.204	524.69
525.419	544.69
525.634	543.69
525.849	494.69
526.064	509.69
526.28	509.69
526.495	525.69
526.71	519.69
526.925	507.69
527.14	523.69
527.355	515.69
527.57	518.69
527.785	504.69
527.999	531.69
528.214	499.69
528.429	523.69
528.644	490.69
528.859	535.69
529.074	507.69
529.289	541.69
529.503	574.69
529.718	558.69
529.933	520.69
530.148	524.69
530.363	490.69
530.577	511.69
530.792	511.69
531.007	518.69
531.221	504.69
531.436	504.69
531.651	506.69
531.865	497.69
532.08	531.69
532.295	465.69
532.509	485.69
532.724	492.69
532.938	499.69
533.153	501.69
533.367	501.69
533.582	491.69
533.796	474.69
534.011	506.69
534.225	494.69
534.44	493.69
534.654	478.69
534.868	497.69
535.083	491.69
535.297	508.69
535.511	472.69
535.726	488.69
535.94	491.69
536.154	494.69
536.369	512.69
536.583	489.69
536.797	470.69
537.011	474.69
537.225	477.69
537.44	468.69
537.654	473.69
537.868	475.69
538.082	483.69
538.296	476.69
538.51	463.69
538.724	466.69
538.938	485.69
539.153	484.69
539.367	491.69
539.581	456.69
539.795	475.69
540.009	494.69
540.222	471.69
540.436	471.69
540.65	462.69
540.864	462.69
541.078	475.69
541.292	483.69
541.506	461.69
541.72	473.69
541.934	465.69
542.147	475.69
542.361	449.69
542.575	486.69
542.789	460.69
543.002	479.69
543.216	453.69
543.43	464.69
543.644	476.69
543.857	471.69
544.071	485.69
544.285	489.69
544.498	481.69
544.712	483.69
544.925	516.69
545.139	478.69
545.352	460.69
545.566	481.69
545.779	485.69
545.993	480.69
546.206	484.69
546.42	466.69
546.633	474.69
546.847	488.69
547.06	469.69
547.274	457.69
547.487	478.69
547.7	485.69
547.914	475.69
548.127	475.69
548.34	494.69
548.554	450.69
548.767	484.69
548.98	472.69
549.193	482.69
549.407	489.69
549.62	472.69
549.833	499.69
550.046	488.69
550.259	478.69
550.473	468.69
550.686	462.69
550.899	458.69
551.112	470.69
551.325	445.69
551.538	457.69
551.751	462.69
551.964	475.69
552.177	454.69
552.39	455.69
552.603	485.69
552.816	484.69
553.029	511.69
553.242	492.69
553.455	492.69
553.667	520.69
553.88	507.69
554.093	475.69
554.306	491.69
554.519	483.69
554.732	447.69
554.944	479.69
555.157	454.69
555.37	455.69
555.583	450.69
555.795	458.69
556.008	453.69
556.221	430.69
556.433	428.69
556.646	445.69
556.859	417.69
557.071	407.69
557.284	428.69
557.496	415.69
557.709	421.69
557.921	403.69
558.134	419.69
558.346	419.69
558.559	426.69
558.771	417.69
558.984	391.69
559.196	399.69
559.409	408.69
559.621	440.69
559.833	417.69
560.046	411.69
560.258	413.69
560.47	421.69
560.683	410.69
560.895	397.69
561.107	411.69
561.32	430.69
561.532	420.69
561.744	410.69
561.956	408.69
562.168	403.69
562.381	401.69
562.593	429.69
562.805	413.69
563.017	405.69
563.229	422.69
563.441	406.69
563.653	419.69
563.865	424.69
564.077	412.69
564.289	446.69
564.501	430.69
564.713	446.69
564.925	442.69
565.137	445.69
565.349	461.69
565.561	484.69
565.773	483.69
565.985	492.69
566.197	499.69
566.408	511.69
566.62	535.69
566.832	556.69
567.044	561.69
567.255	589.69
567.467	579.69
567.679	614.69
567.891	639.69
568.102	623.69
568.314	617.69
568.526	590.69
568.737	546.69
568.949	513.69
569.161	498.69
569.372	472.69
569.584	453.69
569.795	429.69
570.007	456.69
570.218	454.69
570.43	433.69
570.641	418.69
570.853	414.69
571.064	438.69
571.276	424.69
571.487	400.69
571.698	404.69
571.91	398.69
572.121	420.69
572.333	398.69
572.544	380.69
572.755	377.69
572.966	364.69
573.178	379.69
573.389	361.69
573.6	385.69
573.811	385.69
574.023	374.69
574.234	381.69
574.445	382.69
574.656	362.69
574.867	349.69
575.078	365.69
575.289	365.69
575.501	369.69
575.712	358.69
575.923	365.69
576.134	330.69
576.345	347.69
576.556	337.69
576.767	350.69
576.978	338.69
577.188	338.69
577.399	364.69
577.61	348.69
577.821	354.69
578.032	332.69
578.243	365.69
578.454	467.69
578.665	394.69
578.875	339.69
579.086	335.69
579.297	355.69
579.508	330.69
579.718	322.69
579.929	339.69
580.14	321.69
580.35	316.69
580.561	335.69
580.772	335.69
580.982	318.69
581.193	306.69
581.403	340.69
581.614	337.69
581.825	308.69
582.035	321.69
582.246	335.69
582.456	317.69
582.667	322.69
582.877	321.69
583.087	306.69
583.298	313.69
583.508	321.69
583.719	323.69
583.929	326.69
584.139	319.69
584.35	319.69
584.56	338.69
584.77	308.69
584.981	319.69
585.191	327.69
585.401	313.69
585.611	303.69
585.821	323.69
586.032	302.69
586.242	325.69
586.452	315.69
586.662	317.69
586.872	306.69
587.082	317.69
587.292	312.69
587.502	298.69
587.713	303.69
587.923	309.69
588.133	300.69
588.343	298.69
588.553	301.69
588.762	314.69
588.972	311.69
589.182	327.69
589.392	299.69
589.602	317.69
589.812	311.69
590.022	317.69
590.232	283.69
590.441	323.69
590.651	307.69
590.861	298.69
591.071	312.69
591.281	322.69
591.49	313.69
591.7	307.69
591.91	331.69
592.119	323.69
592.329	322.69
592.539	355.69
592.748	347.69
592.958	344.69
593.167	354.69
593.377	365.69
593.587	376.69
593.796	337.69
594.006	376.69
594.215	365.69
594.424	373.69
594.634	356.69
594.843	350.69
595.053	349.69
595.262	329.69
595.472	310.69
595.681	329.69
595.89	333.69
596.1	306.69
596.309	329.69
596.518	295.69
596.727	317.69
596.937	305.69
597.146	307.69
597.355	299.69
597.564	282.69
597.774	284.69
597.983	296.69
598.192	290.69
598.401	290.69
598.61	287.69
598.819	288.69
599.028	280.69
599.237	302.69
599.446	295.69
599.655	290.69
599.864	288.69
600.073	287.69
600.282	274.69
600.491	283.69
600.7	281.69
600.909	276.69
601.118	282.69
601.327	291.69
601.536	264.69
601.745	285.69
601.953	273.69
602.162	257.69
602.371	275.69
602.58	279.69
602.789	269.69
602.997	254.69
603.206	266.69
603.415	276.69
603.623	270.69
603.832	274.69
604.041	252.69
604.249	273.69
604.458	251.69
604.666	266.69
604.875	245.69
605.084	234.69
605.292	257.69
605.501	276.69
605.709	266.69
605.918	255.69
606.126	261.69
606.334	268.69
606.543	281.69
606.751	271.69
606.96	257.69
607.168	250.69
607.376	249.69
607.585	262.69
607.793	244.69
608.001	253.69
608.21	258.69
608.418	245.69
608.626	257.69
608.834	261.69
609.043	244.69
609.251	257.69
609.459	267.69
609.667	272.69
609.875	263.69
610.083	228.69
610.291	273.69
610.499	245.69
610.707	259.69
610.916	262.69
611.124	258.69
611.332	265.69
611.54	269.69
611.748	251.69
611.955	266.69
612.163	246.69
612.371	237.69
612.579	253.69
612.787	251.69
612.995	274.69
613.203	237.69
613.411	242.69
613.618	223.69
613.826	251.69
614.034	255.69
614.242	252.69
614.449	245.69
614.657	229.69
614.865	238.69
615.072	270.69
615.28	252.69
615.488	253.69
615.695	258.69
615.903	246.69
616.111	254.69
616.318	260.69
616.526	250.69
616.733	261.69
616.941	250.69
617.148	261.69
617.356	266.69
617.563	243.69
617.771	257.69
617.978	245.69
618.185	232.69
618.393	245.69
618.6	249.69
618.807	241.69
619.015	262.69
619.222	242.69
619.429	234.69
619.637	242.69
619.844	228.69
620.051	231.69
620.258	256.69
620.466	241.69
620.673	217.69
620.88	229.69
621.087	237.69
621.294	243.69
621.501	239.69
621.708	243.69
621.915	225.69
622.122	238.69
622.329	229.69
622.536	229.69
622.743	223.69
622.95	232.69
623.157	242.69
623.364	228.69
623.571	236.69
623.778	237.69
623.985	222.69
624.192	219.69
624.399	225.69
624.606	230.69
624.812	222.69
625.019	230.69
625.226	226.69
625.433	228.69
625.639	220.69
625.846	221.69
626.053	207.69
626.259	215.69
626.466	210.69
626.673	203.69
626.879	221.69
627.086	218.69
627.293	214.69
627.499	227.69
627.706	234.69
627.912	229.69
628.119	214.69
628.325	212.69
628.532	206.69
628.738	225.69
628.945	205.69
629.151	214.69
629.357	211.69
629.564	222.69
629.77	203.69
629.976	214.69
630.183	206.69
630.389	210.69
630.595	214.69
630.802	203.69
631.008	199.69
631.214	213.69
631.42	193.69
631.627	204.69
631.833	194.69
632.039	193.69
632.245	204.69
632.451	196.69
632.657	207.69
632.863	205.69
633.069	187.69
633.275	210.69
633.481	196.69
633.688	198.69
633.893	185.69
634.099	199.69
634.305	216.69
634.511	193.69
634.717	204.69
634.923	198.69
635.129	166.69
635.335	204.69
635.541	193.69
635.747	212.69
635.952	194.69
636.158	196.69
636.364	187.69
636.57	198.69
636.775	209.69
636.981	194.69
637.187	182.69
637.392	184.69
637.598	191.69
637.804	189.69
638.009	207.69
638.215	189.69
638.421	194.69
638.626	199.69
638.832	185.69
639.037	183.69
639.243	183.69
639.448	188.69
639.654	174.69
639.859	179.69
640.065	181.69
640.27	190.69
640.475	183.69
640.681	175.69
640.886	196.69
641.091	181.69
641.297	174.69
641.502	169.69
641.707	190.69
641.913	183.69
642.118	177.69
642.323	194.69
642.528	179.69
642.733	163.69
642.939	195.69
643.144	175.69
643.349	195.69
643.554	174.69
643.759	167.69
643.964	159.69
644.169	163.69
644.374	165.69
644.579	185.69
644.784	168.69
644.989	167.69
645.194	172.69
645.399	167.69
645.604	187.69
645.809	181.69
646.014	180.69
646.219	165.69
646.423	164.69
646.628	155.69
646.833	155.69
647.038	187.69
647.243	179.69
647.447	188.69
647.652	185.69
647.857	187.69
648.062	167.69
648.266	173.69
648.471	182.69
648.676	187.69
648.88	178.69
649.085	164.69
649.289	196.69
649.494	190.69
649.698	177.69
649.903	190.69
650.107	165.69
650.312	179.69
650.516	185.69
650.721	157.69
650.925	161.69
651.13	157.69
651.334	170.69
651.539	156.69
651.743	153.69
651.947	151.69
652.152	161.69
652.356	166.69
652.56	139.69
652.764	142.69
652.969	143.69
653.173	141.69
653.377	151.69
653.581	146.69
653.785	162.69
653.99	141.69
654.194	168.69
654.398	143.69
654.602	151.69
654.806	139.69
655.01	140.69
655.214	137.69
655.418	142.69
655.622	136.69
655.826	135.69
656.03	131.69
656.234	147.69
656.438	135.69
656.642	152.69
656.846	142.69
657.049	145.69
657.253	113.69
657.457	121.69
657.661	114.69
657.865	121.69
658.068	130.69
658.272	109.69
658.476	94.69
658.68	113.69
658.883	107.69
659.087	99.69
659.291	114.69
659.494	105.69
659.698	87.69
659.901	92.69
660.105	101.69
660.309	99.69
660.512	123.69
660.716	86.69
660.919	91.69
661.123	103.69
661.326	96.69
661.53	102.69
661.733	100.69
661.936	77.69
662.14	90.69
662.343	94.69
662.546	77.69
662.75	104.69
662.953	93.69
663.156	98.69
663.36	86.69
663.563	73.69
663.766	84.69
663.969	93.69
664.173	78.69
664.376	95.69
664.579	78.69
664.782	90.69
664.985	89.69
665.188	79.69
665.391	82.69
665.594	65.69
665.797	70.69
666	91.69
666.203	90.69
666.406	86.69
666.609	77.69
666.812	74.69
667.015	70.69
667.218	73.69
667.421	83.69
667.624	87.69
667.827	86.69
668.03	82.69
668.232	86.69
668.435	76.69
668.638	77.69
668.841	98.69
669.043	82.69
669.246	82.69
669.449	87.69
669.651	96.69
669.854	83.69
670.057	76.69
670.259	93.69
670.462	84.69
670.665	84.69
670.867	79.69
671.07	87.69
671.272	81.69
671.475	94.69
671.677	78.69
671.88	69.69
672.082	86.69
672.284	80.69
672.487	82.69
672.689	83.69
672.892	84.69
