Data from 1973.PennyLincolnUp.Lamp.En5.5.200Scan.071719.P1.Changed Mount._HRD10591_15-44-41-852.txt Node
Date: Thu Jul 18 15:44:41 EDT 2019
User: cochatt
Spectrometer: HR+D1059
Trigger mode: 1
Integration Time (sec): 1.000000E-1
Scans to average: 1
Electric dark correction enabled: true
Nonlinearity correction enabled: false
Boxcar width: 0
XAxis mode: Wavelengths
Number of Pixels in Spectrum: 2048
>>>>>Begin Spectral Data<<<<<
223.165	-17.19
223.4	-17.19
223.635	-17.19
223.869	-13.19
224.104	-25.19
224.338	-16.19
224.573	-14.19
224.808	-10.19
225.042	-12.19
225.277	2.81
225.511	11.81
225.746	1.81
225.98	7.81
226.215	2.81
226.449	12.81
226.683	32.81
226.918	8.81
227.152	26.81
227.387	36.81
227.621	42.81
227.856	25.81
228.09	49.81
228.324	58.81
228.559	49.81
228.793	68.81
229.027	97.81
229.262	90.81
229.496	100.81
229.73	113.81
229.964	135.81
230.199	129.81
230.433	111.81
230.667	117.81
230.901	123.81
231.136	106.81
231.37	118.81
231.604	111.81
231.838	101.81
232.072	105.81
232.306	105.81
232.541	122.81
232.775	117.81
233.009	119.81
233.243	104.81
233.477	113.81
233.711	122.81
233.945	114.81
234.179	116.81
234.413	107.81
234.647	108.81
234.881	108.81
235.115	104.81
235.349	122.81
235.583	135.81
235.817	125.81
236.051	129.81
236.285	129.81
236.519	135.81
236.753	122.81
236.987	153.81
237.221	165.81
237.455	212.81
237.689	169.81
237.922	135.81
238.156	131.81
238.39	123.81
238.624	135.81
238.858	122.81
239.091	120.81
239.325	118.81
239.559	136.81
239.793	132.81
240.027	132.81
240.26	136.81
240.494	152.81
240.728	150.81
240.961	141.81
241.195	145.81
241.429	142.81
241.662	136.81
241.896	142.81
242.13	121.81
242.363	134.81
242.597	137.81
242.83	140.81
243.064	142.81
243.298	143.81
243.531	152.81
243.765	148.81
243.998	141.81
244.232	133.81
244.465	140.81
244.699	151.81
244.932	157.81
245.166	152.81
245.399	145.81
245.633	149.81
245.866	153.81
246.099	161.81
246.333	151.81
246.566	138.81
246.8	155.81
247.033	161.81
247.266	159.81
247.5	153.81
247.733	157.81
247.966	167.81
248.2	147.81
248.433	186.81
248.666	170.81
248.899	184.81
249.133	179.81
249.366	194.81
249.599	189.81
249.832	172.81
250.066	189.81
250.299	189.81
250.532	173.81
250.765	188.81
250.998	224.81
251.231	228.81
251.465	210.81
251.698	205.81
251.931	208.81
252.164	213.81
252.397	191.81
252.63	191.81
252.863	198.81
253.096	201.81
253.329	227.81
253.562	218.81
253.795	218.81
254.028	216.81
254.261	207.81
254.494	219.81
254.727	258.81
254.96	267.81
255.193	258.81
255.426	228.81
255.659	217.81
255.892	225.81
256.124	232.81
256.357	239.81
256.59	217.81
256.823	217.81
257.056	206.81
257.289	204.81
257.521	213.81
257.754	218.81
257.987	192.81
258.22	213.81
258.452	223.81
258.685	216.81
258.918	223.81
259.151	218.81
259.383	217.81
259.616	209.81
259.849	235.81
260.081	240.81
260.314	252.81
260.547	247.81
260.779	226.81
261.012	234.81
261.244	240.81
261.477	231.81
261.71	231.81
261.942	220.81
262.175	236.81
262.407	236.81
262.64	216.81
262.872	229.81
263.105	220.81
263.337	227.81
263.57	221.81
263.802	206.81
264.035	211.81
264.267	205.81
264.499	215.81
264.732	209.81
264.964	217.81
265.197	223.81
265.429	231.81
265.661	218.81
265.894	227.81
266.126	239.81
266.358	222.81
266.591	219.81
266.823	224.81
267.055	231.81
267.287	244.81
267.52	235.81
267.752	243.81
267.984	253.81
268.216	260.81
268.448	256.81
268.681	239.81
268.913	259.81
269.145	268.81
269.377	281.81
269.609	291.81
269.841	276.81
270.073	274.81
270.306	281.81
270.538	317.81
270.77	307.81
271.002	307.81
271.234	282.81
271.466	285.81
271.698	299.81
271.93	306.81
272.162	328.81
272.394	327.81
272.626	314.81
272.858	286.81
273.09	293.81
273.322	281.81
273.553	275.81
273.785	287.81
274.017	278.81
274.249	277.81
274.481	281.81
274.713	272.81
274.945	275.81
275.176	269.81
275.408	269.81
275.64	275.81
275.872	280.81
276.104	276.81
276.335	283.81
276.567	281.81
276.799	304.81
277.031	320.81
277.262	322.81
277.494	303.81
277.726	314.81
277.957	283.81
278.189	270.81
278.421	268.81
278.652	287.81
278.884	277.81
279.115	281.81
279.347	285.81
279.579	286.81
279.81	298.81
280.042	304.81
280.273	285.81
280.505	278.81
280.736	281.81
280.968	280.81
281.199	278.81
281.431	285.81
281.662	299.81
281.894	293.81
282.125	287.81
282.356	297.81
282.588	304.81
282.819	318.81
283.051	296.81
283.282	285.81
283.513	288.81
283.745	296.81
283.976	293.81
284.207	305.81
284.439	289.81
284.67	293.81
284.901	299.81
285.132	298.81
285.364	294.81
285.595	300.81
285.826	299.81
286.057	307.81
286.288	322.81
286.52	323.81
286.751	293.81
286.982	300.81
287.213	289.81
287.444	314.81
287.675	311.81
287.906	317.81
288.138	334.81
288.369	335.81
288.6	341.81
288.831	326.81
289.062	317.81
289.293	309.81
289.524	297.81
289.755	313.81
289.986	310.81
290.217	318.81
290.448	311.81
290.679	301.81
290.91	325.81
291.141	315.81
291.371	311.81
291.602	300.81
291.833	323.81
292.064	314.81
292.295	326.81
292.526	299.81
292.757	329.81
292.987	313.81
293.218	321.81
293.449	316.81
293.68	313.81
293.91	307.81
294.141	324.81
294.372	331.81
294.603	310.81
294.833	311.81
295.064	316.81
295.295	326.81
295.525	330.81
295.756	334.81
295.987	323.81
296.217	339.81
296.448	344.81
296.679	330.81
296.909	312.81
297.14	313.81
297.37	337.81
297.601	345.81
297.831	332.81
298.062	343.81
298.292	345.81
298.523	345.81
298.753	348.81
298.984	332.81
299.214	349.81
299.445	329.81
299.675	323.81
299.905	364.81
300.136	340.81
300.366	346.81
300.597	349.81
300.827	346.81
301.057	348.81
301.288	352.81
301.518	351.81
301.748	353.81
301.979	371.81
302.209	342.81
302.439	360.81
302.669	348.81
302.9	351.81
303.13	360.81
303.36	360.81
303.59	355.81
303.82	359.81
304.051	372.81
304.281	359.81
304.511	381.81
304.741	381.81
304.971	359.81
305.201	358.81
305.431	361.81
305.661	349.81
305.891	342.81
306.121	354.81
306.352	353.81
306.582	353.81
306.812	377.81
307.042	352.81
307.272	362.81
307.502	348.81
307.731	376.81
307.961	358.81
308.191	355.81
308.421	376.81
308.651	373.81
308.881	363.81
309.111	371.81
309.341	370.81
309.571	395.81
309.8	373.81
310.03	384.81
310.26	393.81
310.49	405.81
310.72	398.81
310.949	401.81
311.179	408.81
311.409	379.81
311.639	387.81
311.868	381.81
312.098	388.81
312.328	396.81
312.557	404.81
312.787	406.81
313.017	402.81
313.246	389.81
313.476	389.81
313.706	395.81
313.935	412.81
314.165	401.81
314.394	405.81
314.624	403.81
314.853	397.81
315.083	439.81
315.312	401.81
315.542	399.81
315.771	398.81
316.001	396.81
316.23	379.81
316.46	388.81
316.689	377.81
316.919	406.81
317.148	400.81
317.377	395.81
317.607	408.81
317.836	401.81
318.065	394.81
318.295	403.81
318.524	393.81
318.753	382.81
318.983	377.81
319.212	396.81
319.441	388.81
319.67	435.81
319.9	399.81
320.129	389.81
320.358	398.81
320.587	410.81
320.816	424.81
321.046	396.81
321.275	398.81
321.504	394.81
321.733	424.81
321.962	403.81
322.191	396.81
322.42	404.81
322.649	433.81
322.878	453.81
323.108	438.81
323.337	466.81
323.566	489.81
323.795	472.81
324.024	486.81
324.253	565.81
324.482	730.81
324.71	1066.81
324.939	1517.81
325.168	1332.81
325.397	751.81
325.626	535.81
325.855	485.81
326.084	490.81
326.313	431.81
326.542	476.81
326.77	506.81
326.999	567.81
327.228	701.81
327.457	979.81
327.686	1159.81
327.914	831.81
328.143	600.81
328.372	545.81
328.6	537.81
328.829	531.81
329.058	534.81
329.287	530.81
329.515	502.81
329.744	480.81
329.972	489.81
330.201	501.81
330.43	531.81
330.658	533.81
330.887	532.81
331.115	545.81
331.344	502.81
331.572	500.81
331.801	493.81
332.03	489.81
332.258	499.81
332.486	491.81
332.715	467.81
332.943	503.81
333.172	510.81
333.4	517.81
333.629	533.81
333.857	540.81
334.085	535.81
334.314	540.81
334.542	555.81
334.771	546.81
334.999	529.81
335.227	498.81
335.455	511.81
335.684	496.81
335.912	477.81
336.14	475.81
336.369	464.81
336.597	496.81
336.825	490.81
337.053	481.81
337.281	453.81
337.51	479.81
337.738	475.81
337.966	467.81
338.194	465.81
338.422	479.81
338.65	449.81
338.878	458.81
339.106	451.81
339.334	455.81
339.562	455.81
339.79	467.81
340.018	456.81
340.246	445.81
340.474	461.81
340.702	470.81
340.93	456.81
341.158	441.81
341.386	459.81
341.614	432.81
341.842	433.81
342.07	454.81
342.298	441.81
342.526	444.81
342.754	419.81
342.981	444.81
343.209	433.81
343.437	452.81
343.665	467.81
343.893	468.81
344.12	488.81
344.348	495.81
344.576	483.81
344.804	451.81
345.031	443.81
345.259	458.81
345.487	461.81
345.714	450.81
345.942	440.81
346.17	422.81
346.397	424.81
346.625	433.81
346.853	424.81
347.08	445.81
347.308	424.81
347.535	417.81
347.763	440.81
347.99	449.81
348.218	437.81
348.445	434.81
348.673	437.81
348.9	427.81
349.128	424.81
349.355	416.81
349.583	412.81
349.81	417.81
350.037	423.81
350.265	406.81
350.492	433.81
350.72	408.81
350.947	412.81
351.174	423.81
351.402	420.81
351.629	411.81
351.856	416.81
352.083	422.81
352.311	426.81
352.538	428.81
352.765	419.81
352.992	438.81
353.22	425.81
353.447	419.81
353.674	404.81
353.901	401.81
354.128	403.81
354.355	413.81
354.583	423.81
354.81	399.81
355.037	397.81
355.264	412.81
355.491	395.81
355.718	401.81
355.945	396.81
356.172	421.81
356.399	415.81
356.626	404.81
356.853	405.81
357.08	434.81
357.307	418.81
357.534	399.81
357.761	414.81
357.988	422.81
358.215	409.81
358.441	411.81
358.668	415.81
358.895	398.81
359.122	418.81
359.349	431.81
359.576	433.81
359.802	441.81
360.029	440.81
360.256	449.81
360.483	445.81
360.709	417.81
360.936	414.81
361.163	435.81
361.39	423.81
361.616	423.81
361.843	420.81
362.07	393.81
362.296	421.81
362.523	421.81
362.749	416.81
362.976	422.81
363.203	424.81
363.429	420.81
363.656	417.81
363.882	416.81
364.109	423.81
364.335	424.81
364.562	407.81
364.788	398.81
365.015	410.81
365.241	408.81
365.468	409.81
365.694	426.81
365.92	435.81
366.147	412.81
366.373	423.81
366.599	409.81
366.826	409.81
367.052	410.81
367.278	385.81
367.505	398.81
367.731	403.81
367.957	421.81
368.184	408.81
368.41	397.81
368.636	429.81
368.862	432.81
369.089	435.81
369.315	424.81
369.541	417.81
369.767	435.81
369.993	409.81
370.219	410.81
370.445	394.81
370.672	425.81
370.898	434.81
371.124	401.81
371.35	418.81
371.576	413.81
371.802	421.81
372.028	409.81
372.254	424.81
372.48	432.81
372.706	449.81
372.932	435.81
373.158	418.81
373.384	435.81
373.61	427.81
373.835	428.81
374.061	444.81
374.287	432.81
374.513	420.81
374.739	424.81
374.965	450.81
375.191	451.81
375.416	426.81
375.642	429.81
375.868	424.81
376.094	421.81
376.319	441.81
376.545	429.81
376.771	441.81
376.997	433.81
377.222	431.81
377.448	404.81
377.674	393.81
377.899	422.81
378.125	383.81
378.35	421.81
378.576	428.81
378.802	421.81
379.027	417.81
379.253	440.81
379.478	415.81
379.704	423.81
379.929	400.81
380.155	424.81
380.38	429.81
380.606	427.81
380.831	421.81
381.057	424.81
381.282	426.81
381.507	427.81
381.733	423.81
381.958	423.81
382.184	423.81
382.409	452.81
382.634	441.81
382.86	431.81
383.085	445.81
383.31	438.81
383.535	438.81
383.761	448.81
383.986	440.81
384.211	444.81
384.436	461.81
384.662	459.81
384.887	458.81
385.112	461.81
385.337	459.81
385.562	480.81
385.787	455.81
386.013	496.81
386.238	487.81
386.463	485.81
386.688	490.81
386.913	469.81
387.138	479.81
387.363	491.81
387.588	467.81
387.813	480.81
388.038	447.81
388.263	491.81
388.488	467.81
388.713	475.81
388.938	473.81
389.163	502.81
389.387	486.81
389.612	458.81
389.837	496.81
390.062	467.81
390.287	465.81
390.512	462.81
390.736	467.81
390.961	490.81
391.186	478.81
391.411	501.81
391.636	469.81
391.86	496.81
392.085	476.81
392.31	501.81
392.534	507.81
392.759	512.81
392.984	499.81
393.208	474.81
393.433	489.81
393.658	481.81
393.882	474.81
394.107	474.81
394.331	489.81
394.556	492.81
394.78	489.81
395.005	490.81
395.229	484.81
395.454	480.81
395.678	509.81
395.903	511.81
396.127	541.81
396.352	545.81
396.576	482.81
396.801	497.81
397.025	501.81
397.249	481.81
397.474	518.81
397.698	531.81
397.922	546.81
398.147	511.81
398.371	542.81
398.595	534.81
398.82	541.81
399.044	563.81
399.268	607.81
399.492	647.81
399.717	678.81
399.941	699.81
400.165	721.81
400.389	720.81
400.613	639.81
400.837	597.81
401.062	572.81
401.286	560.81
401.51	541.81
401.734	565.81
401.958	553.81
402.182	545.81
402.406	560.81
402.63	603.81
402.854	602.81
403.078	576.81
403.302	576.81
403.526	583.81
403.75	596.81
403.974	572.81
404.198	583.81
404.422	587.81
404.645	620.81
404.869	602.81
405.093	626.81
405.317	636.81
405.541	677.81
405.765	643.81
405.988	616.81
406.212	620.81
406.436	592.81
406.66	641.81
406.883	660.81
407.107	666.81
407.331	679.81
407.555	744.81
407.778	745.81
408.002	692.81
408.226	651.81
408.449	650.81
408.673	627.81
408.896	637.81
409.12	679.81
409.344	640.81
409.567	606.81
409.791	596.81
410.014	586.81
410.238	586.81
410.461	569.81
410.685	586.81
410.908	580.81
411.132	627.81
411.355	645.81
411.578	617.81
411.802	583.81
412.025	564.81
412.249	587.81
412.472	591.81
412.695	653.81
412.919	620.81
413.142	559.81
413.365	575.81
413.589	583.81
413.812	552.81
414.035	545.81
414.258	526.81
414.482	546.81
414.705	554.81
414.928	546.81
415.151	552.81
415.374	562.81
415.597	572.81
415.821	540.81
416.044	537.81
416.267	555.81
416.49	553.81
416.713	539.81
416.936	564.81
417.159	547.81
417.382	560.81
417.605	540.81
417.828	547.81
418.051	544.81
418.274	582.81
418.497	565.81
418.72	578.81
418.943	566.81
419.166	582.81
419.389	604.81
419.611	587.81
419.834	567.81
420.057	588.81
420.28	563.81
420.503	554.81
420.726	560.81
420.948	587.81
421.171	651.81
421.394	634.81
421.617	583.81
421.839	561.81
422.062	575.81
422.285	581.81
422.507	628.81
422.73	698.81
422.953	663.81
423.175	602.81
423.398	572.81
423.621	589.81
423.843	615.81
424.066	613.81
424.288	589.81
424.511	610.81
424.733	663.81
424.956	715.81
425.178	676.81
425.401	715.81
425.623	701.81
425.846	626.81
426.068	575.81
426.291	585.81
426.513	572.81
426.735	584.81
426.958	595.81
427.18	681.81
427.402	789.81
427.625	850.81
427.847	727.81
428.069	649.81
428.292	626.81
428.514	574.81
428.736	545.81
428.958	549.81
429.181	529.81
429.403	539.81
429.625	538.81
429.847	564.81
430.069	609.81
430.292	599.81
430.514	546.81
430.736	523.81
430.958	523.81
431.18	512.81
431.402	495.81
431.624	511.81
431.846	544.81
432.068	517.81
432.29	537.81
432.512	513.81
432.734	547.81
432.956	514.81
433.178	514.81
433.4	539.81
433.622	519.81
433.844	495.81
434.066	534.81
434.287	531.81
434.509	570.81
434.731	563.81
434.953	549.81
435.175	573.81
435.397	587.81
435.618	597.81
435.84	612.81
436.062	687.81
436.284	754.81
436.505	645.81
436.727	561.81
436.949	544.81
437.17	519.81
437.392	534.81
437.614	545.81
437.835	567.81
438.057	623.81
438.278	710.81
438.5	736.81
438.721	794.81
438.943	770.81
439.165	626.81
439.386	573.81
439.608	582.81
439.829	570.81
440.05	597.81
440.272	604.81
440.493	591.81
440.715	567.81
440.936	554.81
441.158	525.81
441.379	567.81
441.6	579.81
441.822	587.81
442.043	636.81
442.264	670.81
442.486	709.81
442.707	618.81
442.928	601.81
443.149	607.81
443.371	636.81
443.592	657.81
443.813	721.81
444.034	794.81
444.255	660.81
444.476	618.81
444.698	621.81
444.919	625.81
445.14	739.81
445.361	672.81
445.582	631.81
445.803	651.81
446.024	722.81
446.245	725.81
446.466	659.81
446.687	587.81
446.908	552.81
447.129	552.81
447.35	540.81
447.571	526.81
447.792	515.81
448.013	530.81
448.234	543.81
448.455	565.81
448.675	673.81
448.896	754.81
449.117	647.81
449.338	631.81
449.559	713.81
449.779	789.81
450	654.81
450.221	528.81
450.442	529.81
450.662	508.81
450.883	501.81
451.104	523.81
451.324	508.81
451.545	482.81
451.766	483.81
451.986	475.81
452.207	487.81
452.428	479.81
452.648	469.81
452.869	472.81
453.089	466.81
453.31	502.81
453.53	483.81
453.751	487.81
453.971	483.81
454.192	490.81
454.412	459.81
454.633	479.81
454.853	457.81
455.073	473.81
455.294	471.81
455.514	539.81
455.734	534.81
455.955	469.81
456.175	455.81
456.395	426.81
456.616	433.81
456.836	443.81
457.056	434.81
457.276	437.81
457.497	455.81
457.717	444.81
457.937	471.81
458.157	453.81
458.377	471.81
458.598	499.81
458.818	530.81
459.038	575.81
459.258	607.81
459.478	570.81
459.698	520.81
459.918	517.81
460.138	524.81
460.358	544.81
460.578	536.81
460.798	537.81
461.018	527.81
461.238	584.81
461.458	557.81
461.678	531.81
461.898	567.81
462.118	555.81
462.338	557.81
462.558	570.81
462.777	599.81
462.997	616.81
463.217	626.81
463.437	647.81
463.657	602.81
463.876	607.81
464.096	600.81
464.316	587.81
464.536	621.81
464.755	592.81
464.975	588.81
465.195	600.81
465.414	612.81
465.634	570.81
465.854	546.81
466.073	516.81
466.293	502.81
466.512	507.81
466.732	476.81
466.951	487.81
467.171	486.81
467.391	482.81
467.61	506.81
467.829	493.81
468.049	513.81
468.268	495.81
468.488	486.81
468.707	490.81
468.927	478.81
469.146	473.81
469.365	503.81
469.585	471.81
469.804	491.81
470.023	500.81
470.243	517.81
470.462	520.81
470.681	513.81
470.901	525.81
471.12	503.81
471.339	492.81
471.558	484.81
471.777	492.81
471.997	476.81
472.216	467.81
472.435	530.81
472.654	501.81
472.873	485.81
473.092	483.81
473.311	452.81
473.53	492.81
473.749	521.81
473.968	545.81
474.187	594.81
474.406	619.81
474.625	537.81
474.844	488.81
475.063	492.81
475.282	497.81
475.501	492.81
475.72	523.81
475.939	529.81
476.158	505.81
476.377	507.81
476.596	502.81
476.814	518.81
477.033	516.81
477.252	520.81
477.471	530.81
477.69	537.81
477.908	532.81
478.127	565.81
478.346	548.81
478.564	570.81
478.783	537.81
479.002	583.81
479.22	561.81
479.439	595.81
479.658	573.81
479.876	588.81
480.095	592.81
480.313	623.81
480.532	633.81
480.751	625.81
480.969	612.81
481.188	636.81
481.406	647.81
481.624	605.81
481.843	565.81
482.061	592.81
482.28	579.81
482.498	526.81
482.717	545.81
482.935	546.81
483.153	545.81
483.372	550.81
483.59	569.81
483.808	573.81
484.027	544.81
484.245	575.81
484.463	595.81
484.681	589.81
484.9	576.81
485.118	587.81
485.336	589.81
485.554	581.81
485.772	588.81
485.99	586.81
486.209	615.81
486.427	608.81
486.645	604.81
486.863	617.81
487.081	599.81
487.299	615.81
487.517	598.81
487.735	589.81
487.953	607.81
488.171	625.81
488.389	612.81
488.607	602.81
488.825	621.81
489.043	617.81
489.261	612.81
489.479	611.81
489.696	628.81
489.914	612.81
490.132	653.81
490.35	623.81
490.568	618.81
490.786	659.81
491.003	661.81
491.221	661.81
491.439	690.81
491.657	649.81
491.874	667.81
492.092	671.81
492.31	699.81
492.527	699.81
492.745	703.81
492.963	706.81
493.18	690.81
493.398	699.81
493.615	707.81
493.833	725.81
494.05	699.81
494.268	693.81
494.485	698.81
494.703	707.81
494.92	715.81
495.138	662.81
495.355	708.81
495.573	712.81
495.79	752.81
496.008	706.81
496.225	717.81
496.442	721.81
496.66	751.81
496.877	717.81
497.094	716.81
497.312	758.81
497.529	746.81
497.746	762.81
497.963	766.81
498.181	775.81
498.398	830.81
498.615	834.81
498.832	872.81
499.049	898.81
499.267	917.81
499.484	983.81
499.701	1021.81
499.918	1109.81
500.135	1155.81
500.352	1217.81
500.569	1276.81
500.786	1305.81
501.003	1219.81
501.22	1172.81
501.437	1100.81
501.654	1043.81
501.871	1012.81
502.088	940.81
502.305	879.81
502.522	825.81
502.739	858.81
502.956	823.81
503.172	774.81
503.389	779.81
503.606	747.81
503.823	742.81
504.04	738.81
504.256	742.81
504.473	727.81
504.69	731.81
504.907	736.81
505.123	740.81
505.34	701.81
505.557	695.81
505.773	696.81
505.99	705.81
506.207	660.81
506.423	676.81
506.64	663.81
506.856	672.81
507.073	654.81
507.289	634.81
507.506	665.81
507.722	652.81
507.939	626.81
508.155	645.81
508.372	635.81
508.588	595.81
508.805	616.81
509.021	629.81
509.238	649.81
509.454	631.81
509.67	655.81
509.887	651.81
510.103	608.81
510.319	625.81
510.536	626.81
510.752	913.81
510.968	770.81
511.184	628.81
511.401	584.81
511.617	577.81
511.833	598.81
512.049	579.81
512.265	581.81
512.481	604.81
512.698	582.81
512.914	587.81
513.13	569.81
513.346	574.81
513.562	581.81
513.778	580.81
513.994	584.81
514.21	596.81
514.426	609.81
514.642	616.81
514.858	624.81
515.074	655.81
515.29	724.81
515.506	941.81
515.721	827.81
515.937	643.81
516.153	625.81
516.369	648.81
516.585	649.81
516.801	635.81
517.016	663.81
517.232	647.81
517.448	671.81
517.664	652.81
517.879	694.81
518.095	663.81
518.311	654.81
518.527	641.81
518.742	646.81
518.958	626.81
519.173	629.81
519.389	610.81
519.605	610.81
519.82	616.81
520.036	613.81
520.251	610.81
520.467	603.81
520.682	596.81
520.898	594.81
521.113	629.81
521.329	676.81
521.544	665.81
521.76	763.81
521.975	1140.81
522.19	1101.81
522.406	739.81
522.621	619.81
522.836	576.81
523.052	545.81
523.267	536.81
523.482	567.81
523.698	543.81
523.913	516.81
524.128	535.81
524.343	525.81
524.559	501.81
524.774	526.81
524.989	523.81
525.204	517.81
525.419	533.81
525.634	530.81
525.849	500.81
526.064	525.81
526.28	512.81
526.495	498.81
526.71	493.81
526.925	485.81
527.14	484.81
527.355	495.81
527.57	488.81
527.785	490.81
527.999	484.81
528.214	502.81
528.429	519.81
528.644	487.81
528.859	505.81
529.074	487.81
529.289	493.81
529.503	563.81
529.718	544.81
529.933	511.81
530.148	505.81
530.363	492.81
530.577	482.81
530.792	480.81
531.007	493.81
531.221	494.81
531.436	508.81
531.651	500.81
531.865	518.81
532.08	501.81
532.295	477.81
532.509	460.81
532.724	478.81
532.938	501.81
533.153	509.81
533.367	467.81
533.582	484.81
533.796	467.81
534.011	491.81
534.225	485.81
534.44	456.81
534.654	468.81
534.868	457.81
535.083	465.81
535.297	498.81
535.511	469.81
535.726	483.81
535.94	464.81
536.154	460.81
536.369	482.81
536.583	467.81
536.797	466.81
537.011	454.81
537.225	450.81
537.44	456.81
537.654	459.81
537.868	465.81
538.082	455.81
538.296	465.81
538.51	452.81
538.724	457.81
538.938	471.81
539.153	466.81
539.367	454.81
539.581	456.81
539.795	451.81
540.009	455.81
540.222	456.81
540.436	471.81
540.65	437.81
540.864	465.81
541.078	465.81
541.292	477.81
541.506	450.81
541.72	467.81
541.934	471.81
542.147	480.81
542.361	451.81
542.575	459.81
542.789	452.81
543.002	448.81
543.216	492.81
543.43	457.81
543.644	443.81
543.857	442.81
544.071	456.81
544.285	464.81
544.498	465.81
544.712	456.81
544.925	447.81
545.139	456.81
545.352	452.81
545.566	453.81
545.779	475.81
545.993	467.81
546.206	476.81
546.42	487.81
546.633	468.81
546.847	455.81
547.06	465.81
547.274	457.81
547.487	433.81
547.7	439.81
547.914	477.81
548.127	464.81
548.34	451.81
548.554	459.81
548.767	461.81
548.98	454.81
549.193	460.81
549.407	474.81
549.62	463.81
549.833	473.81
550.046	448.81
550.259	441.81
550.473	457.81
550.686	464.81
550.899	454.81
551.112	442.81
551.325	438.81
551.538	450.81
551.751	460.81
551.964	438.81
552.177	455.81
552.39	454.81
552.603	471.81
552.816	469.81
553.029	471.81
553.242	465.81
553.455	472.81
553.667	497.81
553.88	488.81
554.093	475.81
554.306	465.81
554.519	467.81
554.732	456.81
554.944	456.81
555.157	445.81
555.37	442.81
555.583	425.81
555.795	449.81
556.008	418.81
556.221	439.81
556.433	407.81
556.646	400.81
556.859	398.81
557.071	429.81
557.284	424.81
557.496	404.81
557.709	395.81
557.921	406.81
558.134	408.81
558.346	409.81
558.559	422.81
558.771	395.81
558.984	389.81
559.196	393.81
559.409	401.81
559.621	396.81
559.833	421.81
560.046	411.81
560.258	387.81
560.47	385.81
560.683	383.81
560.895	382.81
561.107	418.81
561.32	393.81
561.532	404.81
561.744	396.81
561.956	388.81
562.168	415.81
562.381	401.81
562.593	400.81
562.805	403.81
563.017	392.81
563.229	411.81
563.441	411.81
563.653	418.81
563.865	430.81
564.077	425.81
564.289	415.81
564.501	410.81
564.713	432.81
564.925	437.81
565.137	433.81
565.349	453.81
565.561	457.81
565.773	474.81
565.985	453.81
566.197	482.81
566.408	482.81
566.62	514.81
566.832	552.81
567.044	553.81
567.255	566.81
567.467	577.81
567.679	573.81
567.891	609.81
568.102	615.81
568.314	610.81
568.526	549.81
568.737	548.81
568.949	515.81
569.161	476.81
569.372	452.81
569.584	441.81
569.795	444.81
570.007	432.81
570.218	437.81
570.43	435.81
570.641	427.81
570.853	426.81
571.064	409.81
571.276	427.81
571.487	405.81
571.698	382.81
571.91	386.81
572.121	378.81
572.333	368.81
572.544	389.81
572.755	367.81
572.966	372.81
573.178	372.81
573.389	372.81
573.6	341.81
573.811	353.81
574.023	356.81
574.234	365.81
574.445	350.81
574.656	355.81
574.867	371.81
575.078	360.81
575.289	343.81
575.501	343.81
575.712	341.81
575.923	347.81
576.134	352.81
576.345	338.81
576.556	325.81
576.767	346.81
576.978	343.81
577.188	345.81
577.399	327.81
577.61	344.81
577.821	346.81
578.032	333.81
578.243	367.81
578.454	474.81
578.665	391.81
578.875	326.81
579.086	336.81
579.297	332.81
579.508	327.81
579.718	333.81
579.929	342.81
580.14	323.81
580.35	289.81
580.561	330.81
580.772	317.81
580.982	323.81
581.193	311.81
581.403	322.81
581.614	322.81
581.825	308.81
582.035	297.81
582.246	315.81
582.456	296.81
582.667	313.81
582.877	305.81
583.087	309.81
583.298	323.81
583.508	297.81
583.719	299.81
583.929	307.81
584.139	303.81
584.35	300.81
584.56	300.81
584.77	308.81
584.981	295.81
585.191	315.81
585.401	306.81
585.611	329.81
585.821	299.81
586.032	304.81
586.242	301.81
586.452	297.81
586.662	286.81
586.872	303.81
587.082	291.81
587.292	299.81
587.502	311.81
587.713	299.81
587.923	295.81
588.133	311.81
588.343	294.81
588.553	293.81
588.762	308.81
588.972	315.81
589.182	309.81
589.392	312.81
589.602	308.81
589.812	307.81
590.022	323.81
590.232	291.81
590.441	301.81
590.651	302.81
590.861	305.81
591.071	315.81
591.281	297.81
591.49	315.81
591.7	314.81
591.91	324.81
592.119	311.81
592.329	313.81
592.539	339.81
592.748	338.81
592.958	343.81
593.167	316.81
593.377	343.81
593.587	375.81
593.796	368.81
594.006	329.81
594.215	356.81
594.424	364.81
594.634	343.81
594.843	342.81
595.053	332.81
595.262	316.81
595.472	331.81
595.681	317.81
595.89	307.81
596.1	328.81
596.309	301.81
596.518	313.81
596.727	293.81
596.937	289.81
597.146	296.81
597.355	299.81
597.564	273.81
597.774	273.81
597.983	266.81
598.192	277.81
598.401	277.81
598.61	296.81
598.819	282.81
599.028	278.81
599.237	269.81
599.446	275.81
599.655	285.81
599.864	269.81
600.073	272.81
600.282	275.81
600.491	262.81
600.7	265.81
600.909	281.81
601.118	279.81
601.327	279.81
601.536	269.81
601.745	280.81
601.953	264.81
602.162	279.81
602.371	255.81
602.58	253.81
602.789	259.81
602.997	267.81
603.206	259.81
603.415	253.81
603.623	260.81
603.832	258.81
604.041	263.81
604.249	256.81
604.458	268.81
604.666	249.81
604.875	257.81
605.084	251.81
605.292	253.81
605.501	266.81
605.709	265.81
605.918	252.81
606.126	256.81
606.334	261.81
606.543	275.81
606.751	254.81
606.96	273.81
607.168	243.81
607.376	244.81
607.585	244.81
607.793	256.81
608.001	245.81
608.21	235.81
608.418	237.81
608.626	239.81
608.834	236.81
609.043	250.81
609.251	254.81
609.459	246.81
609.667	237.81
609.875	265.81
610.083	247.81
610.291	242.81
610.499	248.81
610.707	246.81
610.916	229.81
611.124	242.81
611.332	264.81
611.54	257.81
611.748	263.81
611.955	261.81
612.163	266.81
612.371	250.81
612.579	245.81
612.787	263.81
612.995	257.81
613.203	245.81
613.411	244.81
613.618	243.81
613.826	243.81
614.034	245.81
614.242	235.81
614.449	231.81
614.657	241.81
614.865	223.81
615.072	236.81
615.28	244.81
615.488	243.81
615.695	233.81
615.903	239.81
616.111	243.81
616.318	251.81
616.526	250.81
616.733	238.81
616.941	232.81
617.148	241.81
617.356	244.81
617.563	244.81
617.771	243.81
617.978	228.81
618.185	231.81
618.393	260.81
618.6	245.81
618.807	246.81
619.015	242.81
619.222	235.81
619.429	254.81
619.637	242.81
619.844	249.81
620.051	245.81
620.258	231.81
620.466	227.81
620.673	231.81
620.88	239.81
621.087	234.81
621.294	245.81
621.501	224.81
621.708	239.81
621.915	228.81
622.122	226.81
622.329	229.81
622.536	233.81
622.743	222.81
622.95	215.81
623.157	227.81
623.364	223.81
623.571	208.81
623.778	230.81
623.985	243.81
624.192	232.81
624.399	203.81
624.606	225.81
624.812	227.81
625.019	199.81
625.226	221.81
625.433	223.81
625.639	223.81
625.846	233.81
626.053	217.81
626.259	216.81
626.466	216.81
626.673	222.81
626.879	219.81
627.086	212.81
627.293	220.81
627.499	205.81
627.706	202.81
627.912	211.81
628.119	201.81
628.325	219.81
628.532	214.81
628.738	199.81
628.945	223.81
629.151	213.81
629.357	206.81
629.564	204.81
629.77	205.81
629.976	209.81
630.183	196.81
630.389	196.81
630.595	193.81
630.802	210.81
631.008	209.81
631.214	196.81
631.42	194.81
631.627	199.81
631.833	205.81
632.039	190.81
632.245	184.81
632.451	184.81
632.657	203.81
632.863	207.81
633.069	215.81
633.275	183.81
633.481	180.81
633.688	186.81
633.893	197.81
634.099	208.81
634.305	195.81
634.511	183.81
634.717	197.81
634.923	178.81
635.129	185.81
635.335	197.81
635.541	196.81
635.747	184.81
635.952	202.81
636.158	193.81
636.364	175.81
636.57	183.81
636.775	186.81
636.981	187.81
637.187	202.81
637.392	185.81
637.598	182.81
637.804	191.81
638.009	191.81
638.215	183.81
638.421	167.81
638.626	188.81
638.832	180.81
639.037	183.81
639.243	179.81
639.448	177.81
639.654	179.81
639.859	180.81
640.065	160.81
640.27	187.81
640.475	186.81
640.681	187.81
640.886	185.81
641.091	179.81
641.297	168.81
641.502	190.81
641.707	171.81
641.913	183.81
642.118	161.81
642.323	170.81
642.528	173.81
642.733	165.81
642.939	164.81
643.144	178.81
643.349	181.81
643.554	182.81
643.759	165.81
643.964	177.81
644.169	178.81
644.374	169.81
644.579	179.81
644.784	162.81
644.989	170.81
645.194	186.81
645.399	169.81
645.604	175.81
645.809	186.81
646.014	172.81
646.219	166.81
646.423	171.81
646.628	175.81
646.833	154.81
647.038	165.81
647.243	166.81
647.447	177.81
647.652	172.81
647.857	175.81
648.062	175.81
648.266	162.81
648.471	176.81
648.676	168.81
648.88	177.81
649.085	178.81
649.289	177.81
649.494	173.81
649.698	199.81
649.903	187.81
650.107	171.81
650.312	168.81
650.516	153.81
650.721	156.81
650.925	152.81
651.13	162.81
651.334	169.81
651.539	153.81
651.743	164.81
651.947	169.81
652.152	130.81
652.356	143.81
652.56	154.81
652.764	146.81
652.969	137.81
653.173	144.81
653.377	150.81
653.581	124.81
653.785	138.81
653.99	148.81
654.194	137.81
654.398	130.81
654.602	142.81
654.806	134.81
655.01	151.81
655.214	144.81
655.418	134.81
655.622	143.81
655.826	144.81
656.03	131.81
656.234	124.81
656.438	130.81
656.642	132.81
656.846	148.81
657.049	137.81
657.253	141.81
657.457	118.81
657.661	120.81
657.865	117.81
658.068	120.81
658.272	118.81
658.476	115.81
658.68	110.81
658.883	98.81
659.087	104.81
659.291	98.81
659.494	106.81
659.698	100.81
659.901	110.81
660.105	91.81
660.309	95.81
660.512	88.81
660.716	87.81
660.919	99.81
661.123	99.81
661.326	81.81
661.53	86.81
661.733	84.81
661.936	95.81
662.14	82.81
662.343	83.81
662.546	87.81
662.75	96.81
662.953	82.81
663.156	88.81
663.36	85.81
663.563	78.81
663.766	79.81
663.969	78.81
664.173	85.81
664.376	71.81
664.579	93.81
664.782	82.81
664.985	88.81
665.188	81.81
665.391	77.81
665.594	96.81
665.797	86.81
666	70.81
666.203	80.81
666.406	87.81
666.609	74.81
666.812	86.81
667.015	79.81
667.218	77.81
667.421	80.81
667.624	73.81
667.827	64.81
668.03	82.81
668.232	74.81
668.435	68.81
668.638	79.81
668.841	95.81
669.043	85.81
669.246	91.81
669.449	96.81
669.651	85.81
669.854	87.81
670.057	88.81
670.259	80.81
670.462	82.81
670.665	85.81
670.867	91.81
671.07	90.81
671.272	81.81
671.475	95.81
671.677	99.81
671.88	73.81
672.082	70.81
672.284	79.81
672.487	90.81
672.689	85.81
672.892	77.81
