Data from 1973.PennyLincolnUp.Lamp.En5.5.200Scan.071719.P1.Changed Mount._HRD10591_15-45-35-854.txt Node
Date: Thu Jul 18 15:45:35 EDT 2019
User: cochatt
Spectrometer: HR+D1059
Trigger mode: 1
Integration Time (sec): 1.000000E-1
Scans to average: 1
Electric dark correction enabled: true
Nonlinearity correction enabled: false
Boxcar width: 0
XAxis mode: Wavelengths
Number of Pixels in Spectrum: 2048
>>>>>Begin Spectral Data<<<<<
223.165	-5.12
223.4	-5.12
223.635	-5.12
223.869	-6.12
224.104	-21.12
224.338	-14.12
224.573	-13.12
224.808	-14.12
225.042	3.88
225.277	-16.12
225.511	-10.12
225.746	-21.12
225.98	12.88
226.215	12.88
226.449	18.88
226.683	16.88
226.918	21.88
227.152	33.88
227.387	12.88
227.621	46.88
227.856	38.88
228.09	43.88
228.324	44.88
228.559	41.88
228.793	65.88
229.027	97.88
229.262	91.88
229.496	102.88
229.73	104.88
229.964	135.88
230.199	117.88
230.433	104.88
230.667	100.88
230.901	111.88
231.136	105.88
231.37	112.88
231.604	114.88
231.838	103.88
232.072	110.88
232.306	92.88
232.541	120.88
232.775	122.88
233.009	111.88
233.243	122.88
233.477	128.88
233.711	109.88
233.945	119.88
234.179	134.88
234.413	122.88
234.647	108.88
234.881	114.88
235.115	118.88
235.349	124.88
235.583	109.88
235.817	121.88
236.051	133.88
236.285	130.88
236.519	112.88
236.753	120.88
236.987	146.88
237.221	162.88
237.455	209.88
237.689	158.88
237.922	142.88
238.156	130.88
238.39	118.88
238.624	115.88
238.858	135.88
239.091	131.88
239.325	129.88
239.559	118.88
239.793	122.88
240.027	127.88
240.26	139.88
240.494	141.88
240.728	159.88
240.961	136.88
241.195	145.88
241.429	135.88
241.662	136.88
241.896	139.88
242.13	140.88
242.363	130.88
242.597	140.88
242.83	140.88
243.064	133.88
243.298	128.88
243.531	134.88
243.765	140.88
243.998	146.88
244.232	152.88
244.465	161.88
244.699	140.88
244.932	164.88
245.166	133.88
245.399	141.88
245.633	149.88
245.866	155.88
246.099	145.88
246.333	141.88
246.566	144.88
246.8	155.88
247.033	153.88
247.266	171.88
247.5	166.88
247.733	174.88
247.966	177.88
248.2	172.88
248.433	176.88
248.666	152.88
248.899	178.88
249.133	191.88
249.366	204.88
249.599	199.88
249.832	182.88
250.066	180.88
250.299	181.88
250.532	187.88
250.765	199.88
250.998	216.88
251.231	219.88
251.465	209.88
251.698	204.88
251.931	185.88
252.164	197.88
252.397	198.88
252.63	199.88
252.863	207.88
253.096	215.88
253.329	216.88
253.562	218.88
253.795	217.88
254.028	225.88
254.261	211.88
254.494	222.88
254.727	248.88
254.96	264.88
255.193	255.88
255.426	233.88
255.659	220.88
255.892	230.88
256.124	223.88
256.357	229.88
256.59	209.88
256.823	232.88
257.056	217.88
257.289	206.88
257.521	225.88
257.754	215.88
257.987	212.88
258.22	210.88
258.452	225.88
258.685	211.88
258.918	208.88
259.151	210.88
259.383	209.88
259.616	223.88
259.849	236.88
260.081	214.88
260.314	243.88
260.547	262.88
260.779	244.88
261.012	235.88
261.244	242.88
261.477	252.88
261.71	239.88
261.942	234.88
262.175	230.88
262.407	239.88
262.64	223.88
262.872	228.88
263.105	215.88
263.337	211.88
263.57	227.88
263.802	234.88
264.035	227.88
264.267	229.88
264.499	214.88
264.732	235.88
264.964	230.88
265.197	227.88
265.429	219.88
265.661	215.88
265.894	223.88
266.126	238.88
266.358	223.88
266.591	235.88
266.823	230.88
267.055	241.88
267.287	244.88
267.52	247.88
267.752	242.88
267.984	250.88
268.216	227.88
268.448	242.88
268.681	254.88
268.913	273.88
269.145	263.88
269.377	261.88
269.609	283.88
269.841	271.88
270.073	296.88
270.306	306.88
270.538	335.88
270.77	325.88
271.002	299.88
271.234	302.88
271.466	305.88
271.698	321.88
271.93	316.88
272.162	319.88
272.394	309.88
272.626	308.88
272.858	287.88
273.09	286.88
273.322	291.88
273.553	260.88
273.785	275.88
274.017	277.88
274.249	282.88
274.481	303.88
274.713	276.88
274.945	279.88
275.176	261.88
275.408	268.88
275.64	289.88
275.872	283.88
276.104	281.88
276.335	272.88
276.567	279.88
276.799	294.88
277.031	323.88
277.262	332.88
277.494	332.88
277.726	317.88
277.957	312.88
278.189	302.88
278.421	291.88
278.652	287.88
278.884	277.88
279.115	287.88
279.347	289.88
279.579	290.88
279.81	313.88
280.042	307.88
280.273	303.88
280.505	288.88
280.736	294.88
280.968	287.88
281.199	294.88
281.431	290.88
281.662	302.88
281.894	293.88
282.125	311.88
282.356	310.88
282.588	307.88
282.819	312.88
283.051	278.88
283.282	302.88
283.513	295.88
283.745	302.88
283.976	318.88
284.207	292.88
284.439	307.88
284.67	291.88
284.901	270.88
285.132	320.88
285.364	313.88
285.595	300.88
285.826	315.88
286.057	313.88
286.288	313.88
286.52	322.88
286.751	306.88
286.982	304.88
287.213	315.88
287.444	324.88
287.675	315.88
287.906	313.88
288.138	342.88
288.369	346.88
288.6	332.88
288.831	327.88
289.062	335.88
289.293	306.88
289.524	322.88
289.755	336.88
289.986	303.88
290.217	332.88
290.448	327.88
290.679	310.88
290.91	322.88
291.141	325.88
291.371	304.88
291.602	346.88
291.833	321.88
292.064	318.88
292.295	308.88
292.526	313.88
292.757	328.88
292.987	335.88
293.218	335.88
293.449	327.88
293.68	329.88
293.91	331.88
294.141	310.88
294.372	313.88
294.603	329.88
294.833	331.88
295.064	339.88
295.295	311.88
295.525	318.88
295.756	321.88
295.987	351.88
296.217	347.88
296.448	364.88
296.679	334.88
296.909	340.88
297.14	343.88
297.37	347.88
297.601	335.88
297.831	343.88
298.062	331.88
298.292	346.88
298.523	358.88
298.753	326.88
298.984	350.88
299.214	333.88
299.445	340.88
299.675	355.88
299.905	342.88
300.136	345.88
300.366	342.88
300.597	343.88
300.827	355.88
301.057	363.88
301.288	344.88
301.518	362.88
301.748	353.88
301.979	366.88
302.209	341.88
302.439	358.88
302.669	375.88
302.9	371.88
303.13	357.88
303.36	376.88
303.59	378.88
303.82	372.88
304.051	369.88
304.281	367.88
304.511	357.88
304.741	362.88
304.971	372.88
305.201	361.88
305.431	347.88
305.661	382.88
305.891	345.88
306.121	382.88
306.352	378.88
306.582	363.88
306.812	356.88
307.042	366.88
307.272	382.88
307.502	376.88
307.731	355.88
307.961	384.88
308.191	357.88
308.421	346.88
308.651	377.88
308.881	376.88
309.111	356.88
309.341	376.88
309.571	392.88
309.8	383.88
310.03	385.88
310.26	390.88
310.49	404.88
310.72	384.88
310.949	384.88
311.179	407.88
311.409	395.88
311.639	384.88
311.868	379.88
312.098	403.88
312.328	395.88
312.557	405.88
312.787	415.88
313.017	432.88
313.246	410.88
313.476	392.88
313.706	402.88
313.935	398.88
314.165	416.88
314.394	421.88
314.624	428.88
314.853	402.88
315.083	406.88
315.312	396.88
315.542	410.88
315.771	399.88
316.001	408.88
316.23	409.88
316.46	403.88
316.689	397.88
316.919	401.88
317.148	428.88
317.377	404.88
317.607	431.88
317.836	396.88
318.065	394.88
318.295	389.88
318.524	410.88
318.753	415.88
318.983	402.88
319.212	397.88
319.441	418.88
319.67	411.88
319.9	411.88
320.129	416.88
320.358	393.88
320.587	399.88
320.816	402.88
321.046	415.88
321.275	424.88
321.504	425.88
321.733	422.88
321.962	423.88
322.191	415.88
322.42	446.88
322.649	460.88
322.878	453.88
323.108	465.88
323.337	472.88
323.566	475.88
323.795	493.88
324.024	546.88
324.253	607.88
324.482	794.88
324.71	1129.88
324.939	1579.88
325.168	1390.88
325.397	786.88
325.626	572.88
325.855	504.88
326.084	480.88
326.313	488.88
326.542	480.88
326.77	528.88
326.999	554.88
327.228	710.88
327.457	1025.88
327.686	1220.88
327.914	889.88
328.143	626.88
328.372	547.88
328.6	544.88
328.829	538.88
329.058	531.88
329.287	543.88
329.515	528.88
329.744	498.88
329.972	496.88
330.201	535.88
330.43	552.88
330.658	548.88
330.887	551.88
331.115	561.88
331.344	516.88
331.572	502.88
331.801	534.88
332.03	516.88
332.258	523.88
332.486	489.88
332.715	496.88
332.943	522.88
333.172	501.88
333.4	501.88
333.629	527.88
333.857	528.88
334.085	539.88
334.314	577.88
334.542	567.88
334.771	571.88
334.999	534.88
335.227	515.88
335.455	515.88
335.684	503.88
335.912	494.88
336.14	495.88
336.369	500.88
336.597	502.88
336.825	497.88
337.053	502.88
337.281	459.88
337.51	464.88
337.738	458.88
337.966	471.88
338.194	470.88
338.422	464.88
338.65	473.88
338.878	474.88
339.106	472.88
339.334	463.88
339.562	456.88
339.79	472.88
340.018	458.88
340.246	455.88
340.474	465.88
340.702	471.88
340.93	452.88
341.158	469.88
341.386	450.88
341.614	464.88
341.842	457.88
342.07	465.88
342.298	416.88
342.526	440.88
342.754	454.88
342.981	426.88
343.209	465.88
343.437	447.88
343.665	474.88
343.893	494.88
344.12	513.88
344.348	488.88
344.576	480.88
344.804	471.88
345.031	483.88
345.259	473.88
345.487	472.88
345.714	439.88
345.942	457.88
346.17	432.88
346.397	436.88
346.625	440.88
346.853	436.88
347.08	438.88
347.308	451.88
347.535	459.88
347.763	467.88
347.99	468.88
348.218	436.88
348.445	427.88
348.673	450.88
348.9	451.88
349.128	433.88
349.355	423.88
349.583	408.88
349.81	418.88
350.037	443.88
350.265	413.88
350.492	420.88
350.72	434.88
350.947	441.88
351.174	454.88
351.402	423.88
351.629	430.88
351.856	451.88
352.083	435.88
352.311	453.88
352.538	424.88
352.765	441.88
352.992	454.88
353.22	425.88
353.447	420.88
353.674	412.88
353.901	426.88
354.128	404.88
354.355	440.88
354.583	408.88
354.81	416.88
355.037	435.88
355.264	426.88
355.491	394.88
355.718	427.88
355.945	434.88
356.172	413.88
356.399	410.88
356.626	427.88
356.853	418.88
357.08	416.88
357.307	413.88
357.534	409.88
357.761	408.88
357.988	404.88
358.215	411.88
358.441	407.88
358.668	404.88
358.895	402.88
359.122	417.88
359.349	434.88
359.576	412.88
359.802	427.88
360.029	448.88
360.256	460.88
360.483	433.88
360.709	436.88
360.936	427.88
361.163	436.88
361.39	439.88
361.616	423.88
361.843	420.88
362.07	416.88
362.296	419.88
362.523	441.88
362.749	431.88
362.976	409.88
363.203	419.88
363.429	433.88
363.656	423.88
363.882	421.88
364.109	419.88
364.335	411.88
364.562	394.88
364.788	420.88
365.015	411.88
365.241	436.88
365.468	423.88
365.694	427.88
365.92	417.88
366.147	402.88
366.373	405.88
366.599	417.88
366.826	402.88
367.052	407.88
367.278	420.88
367.505	421.88
367.731	427.88
367.957	405.88
368.184	430.88
368.41	426.88
368.636	428.88
368.862	435.88
369.089	414.88
369.315	441.88
369.541	402.88
369.767	419.88
369.993	418.88
370.219	420.88
370.445	434.88
370.672	430.88
370.898	422.88
371.124	423.88
371.35	432.88
371.576	443.88
371.802	418.88
372.028	432.88
372.254	425.88
372.48	427.88
372.706	436.88
372.932	422.88
373.158	417.88
373.384	443.88
373.61	423.88
373.835	447.88
374.061	425.88
374.287	459.88
374.513	449.88
374.739	422.88
374.965	438.88
375.191	452.88
375.416	455.88
375.642	449.88
375.868	446.88
376.094	438.88
376.319	435.88
376.545	436.88
376.771	430.88
376.997	419.88
377.222	415.88
377.448	428.88
377.674	434.88
377.899	428.88
378.125	424.88
378.35	430.88
378.576	426.88
378.802	410.88
379.027	421.88
379.253	426.88
379.478	428.88
379.704	430.88
379.929	422.88
380.155	417.88
380.38	403.88
380.606	428.88
380.831	430.88
381.057	446.88
381.282	440.88
381.507	445.88
381.733	450.88
381.958	433.88
382.184	436.88
382.409	426.88
382.634	444.88
382.86	434.88
383.085	444.88
383.31	434.88
383.535	465.88
383.761	455.88
383.986	454.88
384.211	485.88
384.436	465.88
384.662	483.88
384.887	485.88
385.112	472.88
385.337	481.88
385.562	484.88
385.787	487.88
386.013	515.88
386.238	463.88
386.463	463.88
386.688	495.88
386.913	480.88
387.138	474.88
387.363	501.88
387.588	471.88
387.813	499.88
388.038	485.88
388.263	464.88
388.488	479.88
388.713	464.88
388.938	478.88
389.163	480.88
389.387	463.88
389.612	491.88
389.837	482.88
390.062	459.88
390.287	482.88
390.512	481.88
390.736	476.88
390.961	489.88
391.186	482.88
391.411	503.88
391.636	511.88
391.86	520.88
392.085	506.88
392.31	535.88
392.534	489.88
392.759	514.88
392.984	504.88
393.208	493.88
393.433	484.88
393.658	504.88
393.882	497.88
394.107	478.88
394.331	485.88
394.556	479.88
394.78	520.88
395.005	521.88
395.229	510.88
395.454	503.88
395.678	515.88
395.903	516.88
396.127	534.88
396.352	528.88
396.576	503.88
396.801	510.88
397.025	501.88
397.249	516.88
397.474	524.88
397.698	532.88
397.922	508.88
398.147	553.88
398.371	578.88
398.595	558.88
398.82	569.88
399.044	573.88
399.268	602.88
399.492	668.88
399.717	714.88
399.941	742.88
400.165	708.88
400.389	735.88
400.613	648.88
400.837	613.88
401.062	615.88
401.286	587.88
401.51	565.88
401.734	550.88
401.958	559.88
402.182	581.88
402.406	596.88
402.63	576.88
402.854	594.88
403.078	608.88
403.302	591.88
403.526	642.88
403.75	612.88
403.974	594.88
404.198	612.88
404.422	615.88
404.645	615.88
404.869	619.88
405.093	633.88
405.317	667.88
405.541	679.88
405.765	642.88
405.988	582.88
406.212	626.88
406.436	651.88
406.66	642.88
406.883	639.88
407.107	661.88
407.331	693.88
407.555	746.88
407.778	756.88
408.002	712.88
408.226	690.88
408.449	651.88
408.673	653.88
408.896	666.88
409.12	686.88
409.344	658.88
409.567	639.88
409.791	603.88
410.014	605.88
410.238	624.88
410.461	607.88
410.685	622.88
410.908	601.88
411.132	642.88
411.355	642.88
411.578	604.88
411.802	618.88
412.025	575.88
412.249	613.88
412.472	601.88
412.695	653.88
412.919	626.88
413.142	591.88
413.365	581.88
413.589	588.88
413.812	598.88
414.035	586.88
414.258	565.88
414.482	577.88
414.705	564.88
414.928	565.88
415.151	565.88
415.374	569.88
415.597	561.88
415.821	551.88
416.044	562.88
416.267	564.88
416.49	533.88
416.713	551.88
416.936	578.88
417.159	548.88
417.382	546.88
417.605	564.88
417.828	568.88
418.051	598.88
418.274	548.88
418.497	581.88
418.72	577.88
418.943	568.88
419.166	584.88
419.389	626.88
419.611	634.88
419.834	595.88
420.057	570.88
420.28	589.88
420.503	572.88
420.726	596.88
420.948	592.88
421.171	629.88
421.394	639.88
421.617	594.88
421.839	578.88
422.062	570.88
422.285	587.88
422.507	628.88
422.73	706.88
422.953	692.88
423.175	634.88
423.398	600.88
423.621	594.88
423.843	641.88
424.066	627.88
424.288	629.88
424.511	617.88
424.733	678.88
424.956	728.88
425.178	706.88
425.401	723.88
425.623	750.88
425.846	646.88
426.068	592.88
426.291	597.88
426.513	592.88
426.735	618.88
426.958	634.88
427.18	695.88
427.402	792.88
427.625	869.88
427.847	760.88
428.069	634.88
428.292	600.88
428.514	566.88
428.736	568.88
428.958	553.88
429.181	548.88
429.403	543.88
429.625	574.88
429.847	568.88
430.069	619.88
430.292	626.88
430.514	567.88
430.736	544.88
430.958	553.88
431.18	515.88
431.402	532.88
431.624	516.88
431.846	531.88
432.068	515.88
432.29	540.88
432.512	531.88
432.734	532.88
432.956	527.88
433.178	510.88
433.4	548.88
433.622	534.88
433.844	539.88
434.066	536.88
434.287	510.88
434.509	550.88
434.731	555.88
434.953	568.88
435.175	584.88
435.397	592.88
435.618	588.88
435.84	626.88
436.062	708.88
436.284	764.88
436.505	646.88
436.727	565.88
436.949	562.88
437.17	563.88
437.392	567.88
437.614	538.88
437.835	566.88
438.057	631.88
438.278	730.88
438.5	715.88
438.721	818.88
438.943	784.88
439.165	608.88
439.386	606.88
439.608	605.88
439.829	588.88
440.05	597.88
440.272	632.88
440.493	609.88
440.715	560.88
440.936	569.88
441.158	572.88
441.379	556.88
441.6	559.88
441.822	598.88
442.043	644.88
442.264	702.88
442.486	720.88
442.707	646.88
442.928	622.88
443.149	608.88
443.371	636.88
443.592	678.88
443.813	731.88
444.034	807.88
444.255	694.88
444.476	658.88
444.698	633.88
444.919	661.88
445.14	724.88
445.361	676.88
445.582	621.88
445.803	691.88
446.024	721.88
446.245	760.88
446.466	670.88
446.687	618.88
446.908	582.88
447.129	545.88
447.35	551.88
447.571	550.88
447.792	516.88
448.013	543.88
448.234	558.88
448.455	566.88
448.675	693.88
448.896	790.88
449.117	668.88
449.338	642.88
449.559	720.88
449.779	824.88
450	683.88
450.221	586.88
450.442	554.88
450.662	554.88
450.883	525.88
451.104	531.88
451.324	514.88
451.545	512.88
451.766	502.88
451.986	489.88
452.207	507.88
452.428	470.88
452.648	455.88
452.869	469.88
453.089	487.88
453.31	481.88
453.53	486.88
453.751	487.88
453.971	481.88
454.192	510.88
454.412	462.88
454.633	472.88
454.853	494.88
455.073	466.88
455.294	506.88
455.514	538.88
455.734	548.88
455.955	468.88
456.175	463.88
456.395	444.88
456.616	438.88
456.836	462.88
457.056	450.88
457.276	427.88
457.497	472.88
457.717	460.88
457.937	465.88
458.157	455.88
458.377	472.88
458.598	496.88
458.818	553.88
459.038	579.88
459.258	635.88
459.478	576.88
459.698	518.88
459.918	519.88
460.138	532.88
460.358	554.88
460.578	545.88
460.798	532.88
461.018	574.88
461.238	562.88
461.458	580.88
461.678	559.88
461.898	571.88
462.118	568.88
462.338	579.88
462.558	587.88
462.777	596.88
462.997	622.88
463.217	654.88
463.437	665.88
463.657	650.88
463.876	622.88
464.096	591.88
464.316	610.88
464.536	611.88
464.755	608.88
464.975	595.88
465.195	630.88
465.414	624.88
465.634	580.88
465.854	529.88
466.073	548.88
466.293	522.88
466.512	523.88
466.732	535.88
466.951	503.88
467.171	526.88
467.391	518.88
467.61	520.88
467.829	518.88
468.049	516.88
468.268	508.88
468.488	496.88
468.707	489.88
468.927	497.88
469.146	496.88
469.365	497.88
469.585	486.88
469.804	503.88
470.023	514.88
470.243	501.88
470.462	510.88
470.681	520.88
470.901	536.88
471.12	508.88
471.339	511.88
471.558	514.88
471.777	498.88
471.997	511.88
472.216	519.88
472.435	526.88
472.654	524.88
472.873	504.88
473.092	496.88
473.311	527.88
473.53	504.88
473.749	494.88
473.968	543.88
474.187	623.88
474.406	631.88
474.625	544.88
474.844	523.88
475.063	518.88
475.282	500.88
475.501	504.88
475.72	512.88
475.939	484.88
476.158	521.88
476.377	516.88
476.596	511.88
476.814	521.88
477.033	515.88
477.252	542.88
477.471	555.88
477.69	563.88
477.908	547.88
478.127	560.88
478.346	579.88
478.564	571.88
478.783	585.88
479.002	585.88
479.22	584.88
479.439	599.88
479.658	618.88
479.876	600.88
480.095	610.88
480.313	646.88
480.532	628.88
480.751	645.88
480.969	624.88
481.188	661.88
481.406	678.88
481.624	628.88
481.843	583.88
482.061	600.88
482.28	563.88
482.498	576.88
482.717	562.88
482.935	596.88
483.153	596.88
483.372	577.88
483.59	568.88
483.808	567.88
484.027	573.88
484.245	588.88
484.463	596.88
484.681	617.88
484.9	585.88
485.118	602.88
485.336	580.88
485.554	570.88
485.772	570.88
485.99	580.88
486.209	597.88
486.427	611.88
486.645	611.88
486.863	623.88
487.081	630.88
487.299	623.88
487.517	619.88
487.735	609.88
487.953	623.88
488.171	592.88
488.389	622.88
488.607	634.88
488.825	612.88
489.043	606.88
489.261	634.88
489.479	613.88
489.696	645.88
489.914	628.88
490.132	626.88
490.35	655.88
490.568	655.88
490.786	661.88
491.003	641.88
491.221	660.88
491.439	703.88
491.657	713.88
491.874	688.88
492.092	708.88
492.31	712.88
492.527	703.88
492.745	737.88
492.963	737.88
493.18	722.88
493.398	733.88
493.615	736.88
493.833	758.88
494.05	727.88
494.268	726.88
494.485	724.88
494.703	738.88
494.92	719.88
495.138	712.88
495.355	718.88
495.573	705.88
495.79	716.88
496.008	738.88
496.225	730.88
496.442	741.88
496.66	723.88
496.877	746.88
497.094	734.88
497.312	754.88
497.529	777.88
497.746	770.88
497.963	773.88
498.181	819.88
498.398	830.88
498.615	839.88
498.832	875.88
499.049	922.88
499.267	952.88
499.484	994.88
499.701	1042.88
499.918	1105.88
500.135	1186.88
500.352	1296.88
500.569	1315.88
500.786	1312.88
501.003	1253.88
501.22	1186.88
501.437	1119.88
501.654	1078.88
501.871	983.88
502.088	971.88
502.305	950.88
502.522	912.88
502.739	845.88
502.956	823.88
503.172	786.88
503.389	804.88
503.606	763.88
503.823	753.88
504.04	736.88
504.256	757.88
504.473	734.88
504.69	770.88
504.907	744.88
505.123	734.88
505.34	722.88
505.557	711.88
505.773	730.88
505.99	683.88
506.207	708.88
506.423	694.88
506.64	673.88
506.856	670.88
507.073	663.88
507.289	669.88
507.506	681.88
507.722	659.88
507.939	657.88
508.155	683.88
508.372	627.88
508.588	620.88
508.805	641.88
509.021	632.88
509.238	623.88
509.454	664.88
509.67	648.88
509.887	644.88
510.103	624.88
510.319	613.88
510.536	686.88
510.752	982.88
510.968	838.88
511.184	627.88
511.401	631.88
511.617	599.88
511.833	616.88
512.049	602.88
512.265	595.88
512.481	592.88
512.698	581.88
512.914	602.88
513.13	595.88
513.346	599.88
513.562	587.88
513.778	608.88
513.994	603.88
514.21	606.88
514.426	614.88
514.642	634.88
514.858	658.88
515.074	660.88
515.29	730.88
515.506	990.88
515.721	848.88
515.937	683.88
516.153	632.88
516.369	662.88
516.585	640.88
516.801	638.88
517.016	671.88
517.232	667.88
517.448	676.88
517.664	719.88
517.879	678.88
518.095	666.88
518.311	668.88
518.527	668.88
518.742	677.88
518.958	633.88
519.173	628.88
519.389	614.88
519.605	626.88
519.82	632.88
520.036	612.88
520.251	611.88
520.467	639.88
520.682	656.88
520.898	627.88
521.113	617.88
521.329	644.88
521.544	698.88
521.76	803.88
521.975	1209.88
522.19	1154.88
522.406	740.88
522.621	652.88
522.836	583.88
523.052	562.88
523.267	554.88
523.482	546.88
523.698	551.88
523.913	563.88
524.128	543.88
524.343	544.88
524.559	536.88
524.774	532.88
524.989	530.88
525.204	530.88
525.419	528.88
525.634	518.88
525.849	524.88
526.064	534.88
526.28	538.88
526.495	518.88
526.71	495.88
526.925	503.88
527.14	496.88
527.355	503.88
527.57	502.88
527.785	494.88
527.999	503.88
528.214	498.88
528.429	521.88
528.644	498.88
528.859	522.88
529.074	518.88
529.289	536.88
529.503	550.88
529.718	545.88
529.933	530.88
530.148	525.88
530.363	508.88
530.577	506.88
530.792	520.88
531.007	488.88
531.221	507.88
531.436	482.88
531.651	514.88
531.865	512.88
532.08	511.88
532.295	481.88
532.509	489.88
532.724	469.88
532.938	505.88
533.153	483.88
533.367	490.88
533.582	485.88
533.796	492.88
534.011	497.88
534.225	486.88
534.44	462.88
534.654	498.88
534.868	478.88
535.083	492.88
535.297	491.88
535.511	475.88
535.726	473.88
535.94	489.88
536.154	499.88
536.369	470.88
536.583	446.88
536.797	468.88
537.011	453.88
537.225	463.88
537.44	477.88
537.654	470.88
537.868	471.88
538.082	489.88
538.296	468.88
538.51	470.88
538.724	479.88
538.938	465.88
539.153	465.88
539.367	479.88
539.581	470.88
539.795	489.88
540.009	460.88
540.222	482.88
540.436	478.88
540.65	475.88
540.864	505.88
541.078	472.88
541.292	459.88
541.506	472.88
541.72	474.88
541.934	459.88
542.147	467.88
542.361	460.88
542.575	478.88
542.789	457.88
543.002	462.88
543.216	480.88
543.43	446.88
543.644	456.88
543.857	481.88
544.071	456.88
544.285	463.88
544.498	480.88
544.712	472.88
544.925	498.88
545.139	461.88
545.352	467.88
545.566	476.88
545.779	445.88
545.993	471.88
546.206	458.88
546.42	448.88
546.633	470.88
546.847	449.88
547.06	456.88
547.274	445.88
547.487	454.88
547.7	464.88
547.914	469.88
548.127	466.88
548.34	445.88
548.554	453.88
548.767	467.88
548.98	490.88
549.193	469.88
549.407	457.88
549.62	474.88
549.833	472.88
550.046	468.88
550.259	435.88
550.473	432.88
550.686	464.88
550.899	458.88
551.112	454.88
551.325	458.88
551.538	452.88
551.751	445.88
551.964	456.88
552.177	459.88
552.39	454.88
552.603	461.88
552.816	480.88
553.029	487.88
553.242	494.88
553.455	496.88
553.667	512.88
553.88	494.88
554.093	479.88
554.306	446.88
554.519	496.88
554.732	464.88
554.944	458.88
555.157	452.88
555.37	420.88
555.583	426.88
555.795	434.88
556.008	415.88
556.221	425.88
556.433	425.88
556.646	431.88
556.859	425.88
557.071	412.88
557.284	407.88
557.496	427.88
557.709	419.88
557.921	423.88
558.134	405.88
558.346	412.88
558.559	416.88
558.771	396.88
558.984	410.88
559.196	408.88
559.409	396.88
559.621	400.88
559.833	395.88
560.046	404.88
560.258	405.88
560.47	384.88
560.683	402.88
560.895	406.88
561.107	384.88
561.32	404.88
561.532	392.88
561.744	393.88
561.956	397.88
562.168	394.88
562.381	406.88
562.593	403.88
562.805	421.88
563.017	416.88
563.229	392.88
563.441	401.88
563.653	414.88
563.865	410.88
564.077	400.88
564.289	416.88
564.501	393.88
564.713	411.88
564.925	440.88
565.137	448.88
565.349	452.88
565.561	456.88
565.773	463.88
565.985	506.88
566.197	499.88
566.408	500.88
566.62	499.88
566.832	552.88
567.044	578.88
567.255	582.88
567.467	597.88
567.679	590.88
567.891	611.88
568.102	625.88
568.314	610.88
568.526	548.88
568.737	523.88
568.949	520.88
569.161	475.88
569.372	474.88
569.584	454.88
569.795	443.88
570.007	443.88
570.218	441.88
570.43	448.88
570.641	434.88
570.853	395.88
571.064	418.88
571.276	408.88
571.487	392.88
571.698	417.88
571.91	386.88
572.121	391.88
572.333	393.88
572.544	386.88
572.755	391.88
572.966	387.88
573.178	346.88
573.389	364.88
573.6	372.88
573.811	370.88
574.023	366.88
574.234	352.88
574.445	348.88
574.656	349.88
574.867	345.88
575.078	348.88
575.289	350.88
575.501	338.88
575.712	342.88
575.923	348.88
576.134	343.88
576.345	347.88
576.556	338.88
576.767	332.88
576.978	335.88
577.188	336.88
577.399	345.88
577.61	340.88
577.821	325.88
578.032	331.88
578.243	344.88
578.454	487.88
578.665	390.88
578.875	338.88
579.086	315.88
579.297	342.88
579.508	343.88
579.718	325.88
579.929	341.88
580.14	305.88
580.35	316.88
580.561	302.88
580.772	312.88
580.982	311.88
581.193	327.88
581.403	318.88
581.614	327.88
581.825	320.88
582.035	328.88
582.246	306.88
582.456	314.88
582.667	303.88
582.877	333.88
583.087	323.88
583.298	311.88
583.508	299.88
583.719	334.88
583.929	318.88
584.139	314.88
584.35	309.88
584.56	309.88
584.77	320.88
584.981	296.88
585.191	304.88
585.401	313.88
585.611	322.88
585.821	293.88
586.032	305.88
586.242	310.88
586.452	304.88
586.662	293.88
586.872	291.88
587.082	319.88
587.292	312.88
587.502	303.88
587.713	311.88
587.923	298.88
588.133	319.88
588.343	311.88
588.553	294.88
588.762	310.88
588.972	314.88
589.182	311.88
589.392	310.88
589.602	315.88
589.812	320.88
590.022	294.88
590.232	307.88
590.441	297.88
590.651	313.88
590.861	315.88
591.071	311.88
591.281	313.88
591.49	304.88
591.7	311.88
591.91	307.88
592.119	319.88
592.329	316.88
592.539	326.88
592.748	321.88
592.958	342.88
593.167	363.88
593.377	343.88
593.587	354.88
593.796	342.88
594.006	350.88
594.215	370.88
594.424	361.88
594.634	344.88
594.843	370.88
595.053	341.88
595.262	323.88
595.472	322.88
595.681	321.88
595.89	326.88
596.1	310.88
596.309	318.88
596.518	305.88
596.727	315.88
596.937	292.88
597.146	275.88
597.355	303.88
597.564	282.88
597.774	276.88
597.983	268.88
598.192	262.88
598.401	267.88
598.61	276.88
598.819	288.88
599.028	274.88
599.237	278.88
599.446	278.88
599.655	282.88
599.864	276.88
600.073	269.88
600.282	286.88
600.491	275.88
600.7	275.88
600.909	260.88
601.118	262.88
601.327	270.88
601.536	270.88
601.745	274.88
601.953	260.88
602.162	272.88
602.371	275.88
602.58	280.88
602.789	266.88
602.997	252.88
603.206	254.88
603.415	263.88
603.623	245.88
603.832	247.88
604.041	275.88
604.249	265.88
604.458	240.88
604.666	259.88
604.875	262.88
605.084	256.88
605.292	264.88
605.501	266.88
605.709	259.88
605.918	246.88
606.126	256.88
606.334	263.88
606.543	251.88
606.751	254.88
606.96	243.88
607.168	255.88
607.376	250.88
607.585	247.88
607.793	249.88
608.001	256.88
608.21	236.88
608.418	262.88
608.626	256.88
608.834	263.88
609.043	242.88
609.251	238.88
609.459	258.88
609.667	236.88
609.875	252.88
610.083	241.88
610.291	248.88
610.499	254.88
610.707	254.88
610.916	233.88
611.124	267.88
611.332	260.88
611.54	251.88
611.748	256.88
611.955	245.88
612.163	242.88
612.371	262.88
612.579	239.88
612.787	259.88
612.995	267.88
613.203	259.88
613.411	244.88
613.618	244.88
613.826	231.88
614.034	252.88
614.242	259.88
614.449	248.88
614.657	255.88
614.865	232.88
615.072	260.88
615.28	262.88
615.488	250.88
615.695	241.88
615.903	248.88
616.111	256.88
616.318	248.88
616.526	246.88
616.733	249.88
616.941	242.88
617.148	242.88
617.356	235.88
617.563	227.88
617.771	243.88
617.978	260.88
618.185	235.88
618.393	221.88
618.6	218.88
618.807	241.88
619.015	239.88
619.222	242.88
619.429	258.88
619.637	243.88
619.844	244.88
620.051	239.88
620.258	249.88
620.466	229.88
620.673	232.88
620.88	230.88
621.087	220.88
621.294	249.88
621.501	231.88
621.708	240.88
621.915	226.88
622.122	230.88
622.329	238.88
622.536	242.88
622.743	230.88
622.95	234.88
623.157	212.88
623.364	219.88
623.571	244.88
623.778	233.88
623.985	225.88
624.192	219.88
624.399	218.88
624.606	215.88
624.812	209.88
625.019	196.88
625.226	221.88
625.433	211.88
625.639	214.88
625.846	212.88
626.053	194.88
626.259	215.88
626.466	218.88
626.673	221.88
626.879	207.88
627.086	209.88
627.293	227.88
627.499	225.88
627.706	219.88
627.912	224.88
628.119	206.88
628.325	192.88
628.532	211.88
628.738	200.88
628.945	222.88
629.151	211.88
629.357	195.88
629.564	202.88
629.77	206.88
629.976	209.88
630.183	192.88
630.389	198.88
630.595	200.88
630.802	195.88
631.008	203.88
631.214	202.88
631.42	196.88
631.627	209.88
631.833	196.88
632.039	200.88
632.245	215.88
632.451	200.88
632.657	192.88
632.863	171.88
633.069	193.88
633.275	213.88
633.481	194.88
633.688	176.88
633.893	197.88
634.099	194.88
634.305	196.88
634.511	191.88
634.717	162.88
634.923	182.88
635.129	173.88
635.335	186.88
635.541	183.88
635.747	187.88
635.952	192.88
636.158	179.88
636.364	186.88
636.57	178.88
636.775	184.88
636.981	190.88
637.187	190.88
637.392	182.88
637.598	179.88
637.804	180.88
638.009	186.88
638.215	183.88
638.421	193.88
638.626	191.88
638.832	164.88
639.037	182.88
639.243	179.88
639.448	189.88
639.654	193.88
639.859	181.88
640.065	178.88
640.27	185.88
640.475	169.88
640.681	166.88
640.886	176.88
641.091	168.88
641.297	182.88
641.502	178.88
641.707	171.88
641.913	177.88
642.118	176.88
642.323	148.88
642.528	182.88
642.733	167.88
642.939	174.88
643.144	163.88
643.349	172.88
643.554	178.88
643.759	167.88
643.964	174.88
644.169	171.88
644.374	167.88
644.579	157.88
644.784	176.88
644.989	162.88
645.194	170.88
645.399	163.88
645.604	175.88
645.809	150.88
646.014	160.88
646.219	171.88
646.423	160.88
646.628	166.88
646.833	163.88
647.038	162.88
647.243	172.88
647.447	164.88
647.652	186.88
647.857	171.88
648.062	164.88
648.266	171.88
648.471	200.88
648.676	165.88
648.88	170.88
649.085	193.88
649.289	168.88
649.494	190.88
649.698	205.88
649.903	192.88
650.107	177.88
650.312	182.88
650.516	170.88
650.721	160.88
650.925	166.88
651.13	159.88
651.334	151.88
651.539	139.88
651.743	139.88
651.947	160.88
652.152	152.88
652.356	140.88
652.56	143.88
652.764	147.88
652.969	167.88
653.173	156.88
653.377	143.88
653.581	135.88
653.785	138.88
653.99	134.88
654.194	141.88
654.398	134.88
654.602	134.88
654.806	147.88
655.01	134.88
655.214	138.88
655.418	129.88
655.622	116.88
655.826	139.88
656.03	144.88
656.234	122.88
656.438	131.88
656.642	131.88
656.846	132.88
657.049	122.88
657.253	132.88
657.457	124.88
657.661	111.88
657.865	118.88
658.068	114.88
658.272	93.88
658.476	114.88
658.68	91.88
658.883	99.88
659.087	95.88
659.291	105.88
659.494	104.88
659.698	104.88
659.901	98.88
660.105	104.88
660.309	89.88
660.512	107.88
660.716	94.88
660.919	95.88
661.123	90.88
661.326	94.88
661.53	85.88
661.733	96.88
661.936	96.88
662.14	91.88
662.343	101.88
662.546	73.88
662.75	98.88
662.953	84.88
663.156	88.88
663.36	73.88
663.563	75.88
663.766	88.88
663.969	88.88
664.173	73.88
664.376	66.88
664.579	84.88
664.782	73.88
664.985	83.88
665.188	66.88
665.391	83.88
665.594	73.88
665.797	81.88
666	82.88
666.203	84.88
666.406	84.88
666.609	74.88
666.812	66.88
667.015	75.88
667.218	96.88
667.421	84.88
667.624	83.88
667.827	71.88
668.03	83.88
668.232	78.88
668.435	87.88
668.638	90.88
668.841	90.88
669.043	86.88
669.246	71.88
669.449	70.88
669.651	90.88
669.854	73.88
670.057	78.88
670.259	85.88
670.462	81.88
670.665	56.88
670.867	82.88
671.07	72.88
671.272	82.88
671.475	76.88
671.677	89.88
671.88	81.88
672.082	63.88
672.284	80.88
672.487	64.88
672.689	67.88
672.892	80.88
