Data from 1973.PennyLincolnUp.Lamp.En5.5.200Scan.071719.P1.Changed Mount._HRD10591_15-45-04-852.txt Node
Date: Thu Jul 18 15:45:04 EDT 2019
User: cochatt
Spectrometer: HR+D1059
Trigger mode: 1
Integration Time (sec): 1.000000E-1
Scans to average: 1
Electric dark correction enabled: true
Nonlinearity correction enabled: false
Boxcar width: 0
XAxis mode: Wavelengths
Number of Pixels in Spectrum: 2048
>>>>>Begin Spectral Data<<<<<
223.165	1.88
223.4	1.88
223.635	1.88
223.869	-8.12
224.104	-29.12
224.338	-22.12
224.573	-11.12
224.808	-18.12
225.042	1.88
225.277	-3.12
225.511	1.88
225.746	2.88
225.98	-7.12
226.215	-1.12
226.449	22.88
226.683	16.88
226.918	30.88
227.152	20.88
227.387	40.88
227.621	44.88
227.856	39.88
228.09	30.88
228.324	58.88
228.559	57.88
228.793	80.88
229.027	90.88
229.262	111.88
229.496	121.88
229.73	116.88
229.964	134.88
230.199	128.88
230.433	112.88
230.667	117.88
230.901	98.88
231.136	125.88
231.37	122.88
231.604	110.88
231.838	120.88
232.072	118.88
232.306	104.88
232.541	129.88
232.775	130.88
233.009	131.88
233.243	124.88
233.477	109.88
233.711	126.88
233.945	124.88
234.179	106.88
234.413	126.88
234.647	134.88
234.881	128.88
235.115	118.88
235.349	117.88
235.583	119.88
235.817	128.88
236.051	124.88
236.285	129.88
236.519	120.88
236.753	131.88
236.987	143.88
237.221	171.88
237.455	216.88
237.689	177.88
237.922	146.88
238.156	155.88
238.39	133.88
238.624	130.88
238.858	128.88
239.091	128.88
239.325	139.88
239.559	125.88
239.793	140.88
240.027	142.88
240.26	156.88
240.494	143.88
240.728	158.88
240.961	150.88
241.195	154.88
241.429	150.88
241.662	145.88
241.896	128.88
242.13	143.88
242.363	137.88
242.597	145.88
242.83	139.88
243.064	150.88
243.298	152.88
243.531	157.88
243.765	140.88
243.998	148.88
244.232	161.88
244.465	154.88
244.699	158.88
244.932	144.88
245.166	152.88
245.399	146.88
245.633	156.88
245.866	158.88
246.099	154.88
246.333	145.88
246.566	153.88
246.8	159.88
247.033	163.88
247.266	161.88
247.5	169.88
247.733	173.88
247.966	168.88
248.2	185.88
248.433	177.88
248.666	162.88
248.899	180.88
249.133	188.88
249.366	193.88
249.599	189.88
249.832	182.88
250.066	182.88
250.299	180.88
250.532	197.88
250.765	197.88
250.998	230.88
251.231	221.88
251.465	208.88
251.698	226.88
251.931	205.88
252.164	194.88
252.397	201.88
252.63	191.88
252.863	210.88
253.096	222.88
253.329	220.88
253.562	233.88
253.795	226.88
254.028	216.88
254.261	217.88
254.494	218.88
254.727	256.88
254.96	276.88
255.193	272.88
255.426	231.88
255.659	238.88
255.892	225.88
256.124	250.88
256.357	238.88
256.59	218.88
256.823	214.88
257.056	217.88
257.289	223.88
257.521	233.88
257.754	230.88
257.987	237.88
258.22	210.88
258.452	223.88
258.685	220.88
258.918	227.88
259.151	215.88
259.383	214.88
259.616	233.88
259.849	224.88
260.081	234.88
260.314	263.88
260.547	265.88
260.779	254.88
261.012	239.88
261.244	239.88
261.477	233.88
261.71	233.88
261.942	230.88
262.175	235.88
262.407	228.88
262.64	246.88
262.872	224.88
263.105	234.88
263.337	228.88
263.57	226.88
263.802	230.88
264.035	218.88
264.267	237.88
264.499	236.88
264.732	237.88
264.964	239.88
265.197	236.88
265.429	224.88
265.661	213.88
265.894	222.88
266.126	229.88
266.358	247.88
266.591	256.88
266.823	249.88
267.055	250.88
267.287	241.88
267.52	238.88
267.752	260.88
267.984	246.88
268.216	219.88
268.448	266.88
268.681	242.88
268.913	252.88
269.145	269.88
269.377	307.88
269.609	286.88
269.841	277.88
270.073	266.88
270.306	288.88
270.538	325.88
270.77	332.88
271.002	323.88
271.234	319.88
271.466	309.88
271.698	319.88
271.93	335.88
272.162	345.88
272.394	330.88
272.626	306.88
272.858	318.88
273.09	304.88
273.322	282.88
273.553	281.88
273.785	267.88
274.017	269.88
274.249	264.88
274.481	276.88
274.713	289.88
274.945	278.88
275.176	268.88
275.408	285.88
275.64	287.88
275.872	273.88
276.104	288.88
276.335	283.88
276.567	307.88
276.799	308.88
277.031	338.88
277.262	340.88
277.494	327.88
277.726	309.88
277.957	298.88
278.189	293.88
278.421	297.88
278.652	295.88
278.884	293.88
279.115	275.88
279.347	277.88
279.579	297.88
279.81	299.88
280.042	288.88
280.273	277.88
280.505	304.88
280.736	310.88
280.968	291.88
281.199	308.88
281.431	286.88
281.662	298.88
281.894	288.88
282.125	281.88
282.356	327.88
282.588	342.88
282.819	333.88
283.051	302.88
283.282	297.88
283.513	292.88
283.745	298.88
283.976	304.88
284.207	309.88
284.439	292.88
284.67	308.88
284.901	288.88
285.132	287.88
285.364	308.88
285.595	308.88
285.826	294.88
286.057	322.88
286.288	310.88
286.52	316.88
286.751	297.88
286.982	313.88
287.213	318.88
287.444	292.88
287.675	323.88
287.906	304.88
288.138	336.88
288.369	330.88
288.6	324.88
288.831	324.88
289.062	321.88
289.293	328.88
289.524	318.88
289.755	313.88
289.986	338.88
290.217	336.88
290.448	342.88
290.679	316.88
290.91	321.88
291.141	337.88
291.371	324.88
291.602	305.88
291.833	308.88
292.064	326.88
292.295	324.88
292.526	317.88
292.757	332.88
292.987	327.88
293.218	304.88
293.449	320.88
293.68	319.88
293.91	318.88
294.141	330.88
294.372	334.88
294.603	347.88
294.833	329.88
295.064	321.88
295.295	325.88
295.525	333.88
295.756	335.88
295.987	339.88
296.217	346.88
296.448	358.88
296.679	344.88
296.909	318.88
297.14	332.88
297.37	337.88
297.601	341.88
297.831	337.88
298.062	344.88
298.292	318.88
298.523	324.88
298.753	336.88
298.984	331.88
299.214	354.88
299.445	333.88
299.675	324.88
299.905	337.88
300.136	353.88
300.366	362.88
300.597	344.88
300.827	350.88
301.057	360.88
301.288	364.88
301.518	364.88
301.748	337.88
301.979	364.88
302.209	354.88
302.439	380.88
302.669	364.88
302.9	347.88
303.13	357.88
303.36	359.88
303.59	366.88
303.82	362.88
304.051	350.88
304.281	368.88
304.511	362.88
304.741	360.88
304.971	348.88
305.201	346.88
305.431	358.88
305.661	365.88
305.891	359.88
306.121	369.88
306.352	381.88
306.582	357.88
306.812	365.88
307.042	376.88
307.272	356.88
307.502	356.88
307.731	362.88
307.961	353.88
308.191	369.88
308.421	354.88
308.651	350.88
308.881	362.88
309.111	365.88
309.341	368.88
309.571	374.88
309.8	387.88
310.03	378.88
310.26	389.88
310.49	391.88
310.72	378.88
310.949	399.88
311.179	412.88
311.409	398.88
311.639	401.88
311.868	400.88
312.098	402.88
312.328	409.88
312.557	415.88
312.787	416.88
313.017	424.88
313.246	402.88
313.476	388.88
313.706	390.88
313.935	420.88
314.165	432.88
314.394	413.88
314.624	428.88
314.853	410.88
315.083	392.88
315.312	422.88
315.542	390.88
315.771	384.88
316.001	398.88
316.23	396.88
316.46	400.88
316.689	392.88
316.919	423.88
317.148	414.88
317.377	403.88
317.607	414.88
317.836	415.88
318.065	401.88
318.295	403.88
318.524	396.88
318.753	375.88
318.983	397.88
319.212	414.88
319.441	402.88
319.67	426.88
319.9	413.88
320.129	418.88
320.358	395.88
320.587	408.88
320.816	404.88
321.046	396.88
321.275	434.88
321.504	410.88
321.733	419.88
321.962	431.88
322.191	445.88
322.42	445.88
322.649	457.88
322.878	468.88
323.108	464.88
323.337	465.88
323.566	477.88
323.795	506.88
324.024	524.88
324.253	616.88
324.482	832.88
324.71	1248.88
324.939	1740.88
325.168	1533.88
325.397	820.88
325.626	585.88
325.855	515.88
326.084	492.88
326.313	481.88
326.542	510.88
326.77	520.88
326.999	580.88
327.228	776.88
327.457	1069.88
327.686	1352.88
327.914	947.88
328.143	654.88
328.372	578.88
328.6	570.88
328.829	542.88
329.058	585.88
329.287	558.88
329.515	530.88
329.744	508.88
329.972	511.88
330.201	512.88
330.43	540.88
330.658	573.88
330.887	566.88
331.115	596.88
331.344	518.88
331.572	502.88
331.801	498.88
332.03	486.88
332.258	511.88
332.486	507.88
332.715	482.88
332.943	492.88
333.172	479.88
333.4	503.88
333.629	502.88
333.857	510.88
334.085	538.88
334.314	553.88
334.542	572.88
334.771	568.88
334.999	552.88
335.227	525.88
335.455	526.88
335.684	475.88
335.912	501.88
336.14	478.88
336.369	487.88
336.597	490.88
336.825	477.88
337.053	487.88
337.281	488.88
337.51	474.88
337.738	488.88
337.966	468.88
338.194	476.88
338.422	475.88
338.65	455.88
338.878	482.88
339.106	475.88
339.334	470.88
339.562	459.88
339.79	478.88
340.018	475.88
340.246	464.88
340.474	471.88
340.702	445.88
340.93	452.88
341.158	452.88
341.386	453.88
341.614	446.88
341.842	434.88
342.07	441.88
342.298	466.88
342.526	441.88
342.754	446.88
342.981	445.88
343.209	433.88
343.437	465.88
343.665	486.88
343.893	485.88
344.12	495.88
344.348	491.88
344.576	479.88
344.804	464.88
345.031	473.88
345.259	456.88
345.487	465.88
345.714	447.88
345.942	427.88
346.17	443.88
346.397	443.88
346.625	412.88
346.853	421.88
347.08	428.88
347.308	444.88
347.535	449.88
347.763	457.88
347.99	443.88
348.218	433.88
348.445	445.88
348.673	450.88
348.9	429.88
349.128	436.88
349.355	424.88
349.583	436.88
349.81	428.88
350.037	434.88
350.265	413.88
350.492	437.88
350.72	412.88
350.947	423.88
351.174	428.88
351.402	466.88
351.629	428.88
351.856	418.88
352.083	473.88
352.311	449.88
352.538	424.88
352.765	426.88
352.992	430.88
353.22	432.88
353.447	436.88
353.674	429.88
353.901	412.88
354.128	422.88
354.355	400.88
354.583	417.88
354.81	424.88
355.037	436.88
355.264	413.88
355.491	402.88
355.718	405.88
355.945	422.88
356.172	418.88
356.399	417.88
356.626	425.88
356.853	428.88
357.08	429.88
357.307	429.88
357.534	402.88
357.761	414.88
357.988	409.88
358.215	403.88
358.441	423.88
358.668	412.88
358.895	391.88
359.122	418.88
359.349	420.88
359.576	427.88
359.802	448.88
360.029	468.88
360.256	486.88
360.483	463.88
360.709	436.88
360.936	434.88
361.163	446.88
361.39	468.88
361.616	432.88
361.843	421.88
362.07	424.88
362.296	428.88
362.523	417.88
362.749	428.88
362.976	437.88
363.203	424.88
363.429	420.88
363.656	432.88
363.882	422.88
364.109	403.88
364.335	417.88
364.562	402.88
364.788	415.88
365.015	414.88
365.241	422.88
365.468	433.88
365.694	422.88
365.92	424.88
366.147	426.88
366.373	424.88
366.599	444.88
366.826	410.88
367.052	422.88
367.278	423.88
367.505	424.88
367.731	433.88
367.957	422.88
368.184	424.88
368.41	428.88
368.636	433.88
368.862	444.88
369.089	426.88
369.315	428.88
369.541	416.88
369.767	412.88
369.993	433.88
370.219	410.88
370.445	406.88
370.672	412.88
370.898	406.88
371.124	413.88
371.35	421.88
371.576	416.88
371.802	438.88
372.028	436.88
372.254	423.88
372.48	434.88
372.706	426.88
372.932	421.88
373.158	447.88
373.384	433.88
373.61	456.88
373.835	429.88
374.061	431.88
374.287	431.88
374.513	432.88
374.739	441.88
374.965	436.88
375.191	450.88
375.416	440.88
375.642	441.88
375.868	437.88
376.094	456.88
376.319	440.88
376.545	424.88
376.771	417.88
376.997	415.88
377.222	429.88
377.448	430.88
377.674	414.88
377.899	405.88
378.125	427.88
378.35	431.88
378.576	425.88
378.802	409.88
379.027	424.88
379.253	439.88
379.478	426.88
379.704	425.88
379.929	442.88
380.155	419.88
380.38	428.88
380.606	445.88
380.831	417.88
381.057	419.88
381.282	417.88
381.507	431.88
381.733	414.88
381.958	418.88
382.184	427.88
382.409	446.88
382.634	440.88
382.86	437.88
383.085	453.88
383.31	452.88
383.535	455.88
383.761	456.88
383.986	466.88
384.211	460.88
384.436	464.88
384.662	465.88
384.887	473.88
385.112	476.88
385.337	470.88
385.562	484.88
385.787	468.88
386.013	497.88
386.238	460.88
386.463	480.88
386.688	470.88
386.913	489.88
387.138	480.88
387.363	448.88
387.588	488.88
387.813	475.88
388.038	489.88
388.263	473.88
388.488	473.88
388.713	462.88
388.938	481.88
389.163	466.88
389.387	481.88
389.612	464.88
389.837	462.88
390.062	471.88
390.287	458.88
390.512	466.88
390.736	474.88
390.961	478.88
391.186	486.88
391.411	482.88
391.636	482.88
391.86	507.88
392.085	493.88
392.31	505.88
392.534	510.88
392.759	474.88
392.984	482.88
393.208	495.88
393.433	502.88
393.658	470.88
393.882	480.88
394.107	469.88
394.331	485.88
394.556	462.88
394.78	479.88
395.005	501.88
395.229	488.88
395.454	509.88
395.678	495.88
395.903	516.88
396.127	522.88
396.352	536.88
396.576	502.88
396.801	492.88
397.025	520.88
397.249	497.88
397.474	493.88
397.698	510.88
397.922	549.88
398.147	534.88
398.371	553.88
398.595	562.88
398.82	555.88
399.044	567.88
399.268	620.88
399.492	650.88
399.717	699.88
399.941	710.88
400.165	735.88
400.389	720.88
400.613	631.88
400.837	614.88
401.062	590.88
401.286	580.88
401.51	581.88
401.734	578.88
401.958	572.88
402.182	574.88
402.406	587.88
402.63	599.88
402.854	580.88
403.078	621.88
403.302	592.88
403.526	610.88
403.75	594.88
403.974	597.88
404.198	574.88
404.422	609.88
404.645	613.88
404.869	616.88
405.093	639.88
405.317	681.88
405.541	684.88
405.765	645.88
405.988	615.88
406.212	634.88
406.436	651.88
406.66	659.88
406.883	656.88
407.107	656.88
407.331	689.88
407.555	760.88
407.778	738.88
408.002	718.88
408.226	671.88
408.449	636.88
408.673	649.88
408.896	648.88
409.12	681.88
409.344	678.88
409.567	625.88
409.791	610.88
410.014	591.88
410.238	584.88
410.461	594.88
410.685	569.88
410.908	606.88
411.132	623.88
411.355	655.88
411.578	643.88
411.802	609.88
412.025	578.88
412.249	577.88
412.472	596.88
412.695	642.88
412.919	621.88
413.142	587.88
413.365	579.88
413.589	572.88
413.812	558.88
414.035	556.88
414.258	573.88
414.482	572.88
414.705	561.88
414.928	562.88
415.151	558.88
415.374	560.88
415.597	553.88
415.821	538.88
416.044	545.88
416.267	545.88
416.49	543.88
416.713	545.88
416.936	569.88
417.159	541.88
417.382	549.88
417.605	554.88
417.828	569.88
418.051	588.88
418.274	575.88
418.497	554.88
418.72	564.88
418.943	544.88
419.166	586.88
419.389	640.88
419.611	628.88
419.834	587.88
420.057	601.88
420.28	573.88
420.503	580.88
420.726	572.88
420.948	586.88
421.171	628.88
421.394	646.88
421.617	588.88
421.839	564.88
422.062	534.88
422.285	582.88
422.507	625.88
422.73	719.88
422.953	657.88
423.175	617.88
423.398	602.88
423.621	578.88
423.843	613.88
424.066	637.88
424.288	602.88
424.511	631.88
424.733	677.88
424.956	760.88
425.178	701.88
425.401	669.88
425.623	713.88
425.846	633.88
426.068	598.88
426.291	585.88
426.513	615.88
426.735	615.88
426.958	618.88
427.18	701.88
427.402	838.88
427.625	881.88
427.847	783.88
428.069	680.88
428.292	606.88
428.514	575.88
428.736	563.88
428.958	574.88
429.181	548.88
429.403	534.88
429.625	548.88
429.847	583.88
430.069	652.88
430.292	615.88
430.514	560.88
430.736	545.88
430.958	546.88
431.18	554.88
431.402	538.88
431.624	524.88
431.846	546.88
432.068	504.88
432.29	530.88
432.512	519.88
432.734	525.88
432.956	526.88
433.178	548.88
433.4	542.88
433.622	542.88
433.844	537.88
434.066	522.88
434.287	521.88
434.509	521.88
434.731	552.88
434.953	576.88
435.175	576.88
435.397	609.88
435.618	605.88
435.84	636.88
436.062	708.88
436.284	762.88
436.505	636.88
436.727	598.88
436.949	552.88
437.17	560.88
437.392	557.88
437.614	570.88
437.835	576.88
438.057	648.88
438.278	785.88
438.5	741.88
438.721	818.88
438.943	783.88
439.165	633.88
439.386	592.88
439.608	581.88
439.829	600.88
440.05	629.88
440.272	636.88
440.493	617.88
440.715	564.88
440.936	575.88
441.158	567.88
441.379	543.88
441.6	572.88
441.822	582.88
442.043	650.88
442.264	686.88
442.486	719.88
442.707	646.88
442.928	620.88
443.149	616.88
443.371	641.88
443.592	664.88
443.813	748.88
444.034	806.88
444.255	679.88
444.476	644.88
444.698	641.88
444.919	625.88
445.14	729.88
445.361	668.88
445.582	635.88
445.803	695.88
446.024	768.88
446.245	770.88
446.466	695.88
446.687	617.88
446.908	572.88
447.129	562.88
447.35	541.88
447.571	534.88
447.792	526.88
448.013	537.88
448.234	552.88
448.455	573.88
448.675	681.88
448.896	783.88
449.117	669.88
449.338	658.88
449.559	730.88
449.779	826.88
450	690.88
450.221	562.88
450.442	555.88
450.662	522.88
450.883	528.88
451.104	522.88
451.324	526.88
451.545	522.88
451.766	517.88
451.986	478.88
452.207	468.88
452.428	480.88
452.648	479.88
452.869	476.88
453.089	480.88
453.31	490.88
453.53	515.88
453.751	489.88
453.971	480.88
454.192	501.88
454.412	467.88
454.633	475.88
454.853	472.88
455.073	462.88
455.294	509.88
455.514	541.88
455.734	541.88
455.955	490.88
456.175	456.88
456.395	433.88
456.616	454.88
456.836	449.88
457.056	455.88
457.276	459.88
457.497	471.88
457.717	459.88
457.937	468.88
458.157	471.88
458.377	470.88
458.598	481.88
458.818	527.88
459.038	593.88
459.258	631.88
459.478	552.88
459.698	545.88
459.918	534.88
460.138	543.88
460.358	552.88
460.578	569.88
460.798	545.88
461.018	590.88
461.238	546.88
461.458	556.88
461.678	543.88
461.898	565.88
462.118	576.88
462.338	562.88
462.558	609.88
462.777	599.88
462.997	627.88
463.217	622.88
463.437	649.88
463.657	606.88
463.876	628.88
464.096	598.88
464.316	591.88
464.536	610.88
464.755	611.88
464.975	577.88
465.195	626.88
465.414	666.88
465.634	618.88
465.854	566.88
466.073	522.88
466.293	519.88
466.512	477.88
466.732	494.88
466.951	477.88
467.171	501.88
467.391	504.88
467.61	519.88
467.829	489.88
468.049	510.88
468.268	494.88
468.488	514.88
468.707	492.88
468.927	496.88
469.146	511.88
469.365	479.88
469.585	498.88
469.804	507.88
470.023	505.88
470.243	490.88
470.462	536.88
470.681	525.88
470.901	545.88
471.12	536.88
471.339	498.88
471.558	511.88
471.777	490.88
471.997	492.88
472.216	517.88
472.435	544.88
472.654	509.88
472.873	472.88
473.092	489.88
473.311	488.88
473.53	484.88
473.749	512.88
473.968	546.88
474.187	619.88
474.406	640.88
474.625	540.88
474.844	523.88
475.063	488.88
475.282	508.88
475.501	512.88
475.72	510.88
475.939	488.88
476.158	524.88
476.377	518.88
476.596	542.88
476.814	546.88
477.033	538.88
477.252	533.88
477.471	541.88
477.69	555.88
477.908	557.88
478.127	546.88
478.346	549.88
478.564	571.88
478.783	561.88
479.002	572.88
479.22	593.88
479.439	592.88
479.658	615.88
479.876	605.88
480.095	607.88
480.313	648.88
480.532	642.88
480.751	625.88
480.969	640.88
481.188	644.88
481.406	673.88
481.624	632.88
481.843	600.88
482.061	582.88
482.28	579.88
482.498	589.88
482.717	551.88
482.935	583.88
483.153	569.88
483.372	582.88
483.59	591.88
483.808	558.88
484.027	577.88
484.245	584.88
484.463	573.88
484.681	585.88
484.9	572.88
485.118	590.88
485.336	565.88
485.554	589.88
485.772	602.88
485.99	612.88
486.209	586.88
486.427	613.88
486.645	598.88
486.863	619.88
487.081	634.88
487.299	625.88
487.517	602.88
487.735	617.88
487.953	611.88
488.171	629.88
488.389	628.88
488.607	640.88
488.825	624.88
489.043	596.88
489.261	630.88
489.479	638.88
489.696	641.88
489.914	644.88
490.132	637.88
490.35	622.88
490.568	650.88
490.786	662.88
491.003	670.88
491.221	663.88
491.439	686.88
491.657	700.88
491.874	699.88
492.092	698.88
492.31	708.88
492.527	730.88
492.745	714.88
492.963	715.88
493.18	713.88
493.398	692.88
493.615	746.88
493.833	723.88
494.05	727.88
494.268	700.88
494.485	741.88
494.703	734.88
494.92	735.88
495.138	712.88
495.355	720.88
495.573	716.88
495.79	732.88
496.008	725.88
496.225	718.88
496.442	737.88
496.66	750.88
496.877	748.88
497.094	761.88
497.312	767.88
497.529	761.88
497.746	784.88
497.963	786.88
498.181	800.88
498.398	801.88
498.615	838.88
498.832	897.88
499.049	874.88
499.267	961.88
499.484	963.88
499.701	1016.88
499.918	1069.88
500.135	1146.88
500.352	1255.88
500.569	1314.88
500.786	1284.88
501.003	1228.88
501.22	1190.88
501.437	1127.88
501.654	1043.88
501.871	1006.88
502.088	951.88
502.305	916.88
502.522	863.88
502.739	862.88
502.956	837.88
503.172	791.88
503.389	783.88
503.606	789.88
503.823	786.88
504.04	766.88
504.256	722.88
504.473	726.88
504.69	774.88
504.907	782.88
505.123	725.88
505.34	738.88
505.557	708.88
505.773	710.88
505.99	704.88
506.207	687.88
506.423	689.88
506.64	669.88
506.856	681.88
507.073	659.88
507.289	642.88
507.506	656.88
507.722	668.88
507.939	681.88
508.155	680.88
508.372	632.88
508.588	655.88
508.805	636.88
509.021	614.88
509.238	634.88
509.454	692.88
509.67	640.88
509.887	642.88
510.103	649.88
510.319	651.88
510.536	745.88
510.752	1082.88
510.968	895.88
511.184	644.88
511.401	633.88
511.617	590.88
511.833	587.88
512.049	628.88
512.265	600.88
512.481	606.88
512.698	590.88
512.914	594.88
513.13	605.88
513.346	598.88
513.562	611.88
513.778	624.88
513.994	591.88
514.21	622.88
514.426	628.88
514.642	646.88
514.858	680.88
515.074	693.88
515.29	761.88
515.506	1071.88
515.721	977.88
515.937	713.88
516.153	662.88
516.369	637.88
516.585	665.88
516.801	669.88
517.016	662.88
517.232	672.88
517.448	647.88
517.664	688.88
517.879	680.88
518.095	688.88
518.311	694.88
518.527	679.88
518.742	646.88
518.958	643.88
519.173	640.88
519.389	631.88
519.605	606.88
519.82	610.88
520.036	605.88
520.251	654.88
520.467	643.88
520.682	623.88
520.898	636.88
521.113	638.88
521.329	674.88
521.544	754.88
521.76	858.88
521.975	1382.88
522.19	1318.88
522.406	784.88
522.621	636.88
522.836	609.88
523.052	590.88
523.267	566.88
523.482	571.88
523.698	558.88
523.913	540.88
524.128	549.88
524.343	538.88
524.559	561.88
524.774	548.88
524.989	497.88
525.204	527.88
525.419	517.88
525.634	508.88
525.849	520.88
526.064	517.88
526.28	539.88
526.495	506.88
526.71	515.88
526.925	516.88
527.14	512.88
527.355	517.88
527.57	494.88
527.785	493.88
527.999	489.88
528.214	502.88
528.429	506.88
528.644	523.88
528.859	517.88
529.074	511.88
529.289	530.88
529.503	581.88
529.718	534.88
529.933	512.88
530.148	506.88
530.363	504.88
530.577	492.88
530.792	493.88
531.007	497.88
531.221	489.88
531.436	513.88
531.651	495.88
531.865	486.88
532.08	501.88
532.295	473.88
532.509	485.88
532.724	497.88
532.938	476.88
533.153	474.88
533.367	478.88
533.582	472.88
533.796	491.88
534.011	492.88
534.225	493.88
534.44	470.88
534.654	464.88
534.868	484.88
535.083	484.88
535.297	493.88
535.511	494.88
535.726	498.88
535.94	502.88
536.154	470.88
536.369	467.88
536.583	471.88
536.797	485.88
537.011	470.88
537.225	485.88
537.44	465.88
537.654	466.88
537.868	481.88
538.082	448.88
538.296	448.88
538.51	471.88
538.724	492.88
538.938	466.88
539.153	464.88
539.367	489.88
539.581	483.88
539.795	449.88
540.009	478.88
540.222	491.88
540.436	459.88
540.65	443.88
540.864	470.88
541.078	489.88
541.292	490.88
541.506	470.88
541.72	470.88
541.934	449.88
542.147	471.88
542.361	474.88
542.575	453.88
542.789	464.88
543.002	462.88
543.216	478.88
543.43	470.88
543.644	469.88
543.857	470.88
544.071	460.88
544.285	477.88
544.498	462.88
544.712	463.88
544.925	466.88
545.139	437.88
545.352	454.88
545.566	472.88
545.779	492.88
545.993	468.88
546.206	470.88
546.42	484.88
546.633	455.88
546.847	475.88
547.06	470.88
547.274	468.88
547.487	446.88
547.7	473.88
547.914	466.88
548.127	476.88
548.34	468.88
548.554	460.88
548.767	461.88
548.98	464.88
549.193	449.88
549.407	481.88
549.62	464.88
549.833	472.88
550.046	463.88
550.259	466.88
550.473	462.88
550.686	444.88
550.899	449.88
551.112	456.88
551.325	473.88
551.538	423.88
551.751	456.88
551.964	449.88
552.177	470.88
552.39	449.88
552.603	467.88
552.816	464.88
553.029	485.88
553.242	469.88
553.455	468.88
553.667	445.88
553.88	496.88
554.093	489.88
554.306	455.88
554.519	475.88
554.732	464.88
554.944	436.88
555.157	457.88
555.37	436.88
555.583	438.88
555.795	437.88
556.008	429.88
556.221	415.88
556.433	412.88
556.646	420.88
556.859	420.88
557.071	401.88
557.284	413.88
557.496	413.88
557.709	405.88
557.921	399.88
558.134	421.88
558.346	386.88
558.559	397.88
558.771	385.88
558.984	426.88
559.196	392.88
559.409	400.88
559.621	417.88
559.833	406.88
560.046	420.88
560.258	416.88
560.47	396.88
560.683	386.88
560.895	386.88
561.107	399.88
561.32	406.88
561.532	408.88
561.744	416.88
561.956	399.88
562.168	396.88
562.381	408.88
562.593	399.88
562.805	388.88
563.017	404.88
563.229	412.88
563.441	400.88
563.653	406.88
563.865	397.88
564.077	410.88
564.289	418.88
564.501	424.88
564.713	418.88
564.925	428.88
565.137	452.88
565.349	448.88
565.561	448.88
565.773	466.88
565.985	485.88
566.197	476.88
566.408	490.88
566.62	498.88
566.832	567.88
567.044	568.88
567.255	550.88
567.467	601.88
567.679	589.88
567.891	608.88
568.102	622.88
568.314	608.88
568.526	568.88
568.737	538.88
568.949	493.88
569.161	492.88
569.372	437.88
569.584	449.88
569.795	444.88
570.007	430.88
570.218	456.88
570.43	464.88
570.641	420.88
570.853	415.88
571.064	406.88
571.276	418.88
571.487	395.88
571.698	403.88
571.91	403.88
572.121	365.88
572.333	390.88
572.544	359.88
572.755	359.88
572.966	378.88
573.178	388.88
573.389	360.88
573.6	359.88
573.811	357.88
574.023	367.88
574.234	361.88
574.445	351.88
574.656	350.88
574.867	357.88
575.078	372.88
575.289	363.88
575.501	355.88
575.712	349.88
575.923	333.88
576.134	335.88
576.345	336.88
576.556	365.88
576.767	358.88
576.978	347.88
577.188	344.88
577.399	350.88
577.61	330.88
577.821	352.88
578.032	335.88
578.243	361.88
578.454	511.88
578.665	406.88
578.875	359.88
579.086	312.88
579.297	326.88
579.508	341.88
579.718	325.88
579.929	321.88
580.14	322.88
580.35	298.88
580.561	322.88
580.772	318.88
580.982	310.88
581.193	317.88
581.403	314.88
581.614	338.88
581.825	320.88
582.035	312.88
582.246	322.88
582.456	318.88
582.667	318.88
582.877	318.88
583.087	311.88
583.298	328.88
583.508	328.88
583.719	325.88
583.929	308.88
584.139	320.88
584.35	326.88
584.56	289.88
584.77	311.88
584.981	303.88
585.191	313.88
585.401	304.88
585.611	316.88
585.821	306.88
586.032	305.88
586.242	290.88
586.452	324.88
586.662	302.88
586.872	298.88
587.082	313.88
587.292	297.88
587.502	301.88
587.713	325.88
587.923	317.88
588.133	312.88
588.343	311.88
588.553	301.88
588.762	294.88
588.972	321.88
589.182	316.88
589.392	304.88
589.602	296.88
589.812	326.88
590.022	337.88
590.232	316.88
590.441	305.88
590.651	288.88
590.861	319.88
591.071	323.88
591.281	334.88
591.49	303.88
591.7	316.88
591.91	330.88
592.119	329.88
592.329	338.88
592.539	332.88
592.748	341.88
592.958	336.88
593.167	338.88
593.377	350.88
593.587	354.88
593.796	358.88
594.006	349.88
594.215	368.88
594.424	359.88
594.634	346.88
594.843	348.88
595.053	324.88
595.262	327.88
595.472	312.88
595.681	308.88
595.89	309.88
596.1	315.88
596.309	326.88
596.518	297.88
596.727	308.88
596.937	297.88
597.146	295.88
597.355	300.88
597.564	275.88
597.774	309.88
597.983	276.88
598.192	285.88
598.401	269.88
598.61	285.88
598.819	290.88
599.028	278.88
599.237	286.88
599.446	296.88
599.655	277.88
599.864	280.88
600.073	276.88
600.282	280.88
600.491	264.88
600.7	261.88
600.909	281.88
601.118	282.88
601.327	273.88
601.536	261.88
601.745	249.88
601.953	268.88
602.162	274.88
602.371	273.88
602.58	268.88
602.789	257.88
602.997	257.88
603.206	267.88
603.415	256.88
603.623	250.88
603.832	262.88
604.041	265.88
604.249	264.88
604.458	256.88
604.666	258.88
604.875	269.88
605.084	244.88
605.292	251.88
605.501	266.88
605.709	248.88
605.918	255.88
606.126	262.88
606.334	266.88
606.543	252.88
606.751	258.88
606.96	251.88
607.168	246.88
607.376	260.88
607.585	256.88
607.793	256.88
608.001	246.88
608.21	255.88
608.418	248.88
608.626	235.88
608.834	252.88
609.043	260.88
609.251	248.88
609.459	244.88
609.667	230.88
609.875	232.88
610.083	257.88
610.291	272.88
610.499	274.88
610.707	250.88
610.916	257.88
611.124	257.88
611.332	261.88
611.54	260.88
611.748	257.88
611.955	244.88
612.163	248.88
612.371	261.88
612.579	262.88
612.787	248.88
612.995	243.88
613.203	257.88
613.411	266.88
613.618	254.88
613.826	264.88
614.034	255.88
614.242	243.88
614.449	249.88
614.657	267.88
614.865	252.88
615.072	245.88
615.28	253.88
615.488	252.88
615.695	251.88
615.903	245.88
616.111	236.88
616.318	262.88
616.526	257.88
616.733	237.88
616.941	258.88
617.148	244.88
617.356	256.88
617.563	256.88
617.771	232.88
617.978	257.88
618.185	251.88
618.393	253.88
618.6	248.88
618.807	246.88
619.015	242.88
619.222	226.88
619.429	249.88
619.637	246.88
619.844	227.88
620.051	248.88
620.258	232.88
620.466	245.88
620.673	229.88
620.88	230.88
621.087	247.88
621.294	241.88
621.501	245.88
621.708	235.88
621.915	218.88
622.122	249.88
622.329	242.88
622.536	240.88
622.743	224.88
622.95	222.88
623.157	217.88
623.364	252.88
623.571	209.88
623.778	216.88
623.985	255.88
624.192	226.88
624.399	236.88
624.606	239.88
624.812	206.88
625.019	224.88
625.226	256.88
625.433	219.88
625.639	225.88
625.846	207.88
626.053	201.88
626.259	214.88
626.466	205.88
626.673	203.88
626.879	212.88
627.086	215.88
627.293	218.88
627.499	214.88
627.706	210.88
627.912	200.88
628.119	204.88
628.325	223.88
628.532	219.88
628.738	200.88
628.945	194.88
629.151	214.88
629.357	193.88
629.564	193.88
629.77	207.88
629.976	211.88
630.183	216.88
630.389	214.88
630.595	206.88
630.802	212.88
631.008	200.88
631.214	214.88
631.42	201.88
631.627	202.88
631.833	206.88
632.039	192.88
632.245	199.88
632.451	205.88
632.657	193.88
632.863	201.88
633.069	203.88
633.275	198.88
633.481	201.88
633.688	195.88
633.893	211.88
634.099	191.88
634.305	202.88
634.511	176.88
634.717	205.88
634.923	183.88
635.129	194.88
635.335	184.88
635.541	184.88
635.747	185.88
635.952	191.88
636.158	191.88
636.364	180.88
636.57	207.88
636.775	188.88
636.981	204.88
637.187	199.88
637.392	177.88
637.598	173.88
637.804	203.88
638.009	185.88
638.215	187.88
638.421	198.88
638.626	187.88
638.832	184.88
639.037	183.88
639.243	173.88
639.448	182.88
639.654	184.88
639.859	180.88
640.065	166.88
640.27	192.88
640.475	173.88
640.681	180.88
640.886	184.88
641.091	189.88
641.297	154.88
641.502	190.88
641.707	174.88
641.913	190.88
642.118	181.88
642.323	173.88
642.528	183.88
642.733	164.88
642.939	178.88
643.144	168.88
643.349	184.88
643.554	179.88
643.759	186.88
643.964	173.88
644.169	186.88
644.374	158.88
644.579	190.88
644.784	184.88
644.989	168.88
645.194	173.88
645.399	175.88
645.604	171.88
645.809	173.88
646.014	170.88
646.219	160.88
646.423	170.88
646.628	174.88
646.833	174.88
647.038	167.88
647.243	186.88
647.447	170.88
647.652	161.88
647.857	184.88
648.062	171.88
648.266	180.88
648.471	190.88
648.676	186.88
648.88	173.88
649.085	180.88
649.289	180.88
649.494	177.88
649.698	171.88
649.903	194.88
650.107	171.88
650.312	176.88
650.516	184.88
650.721	176.88
650.925	157.88
651.13	151.88
651.334	180.88
651.539	164.88
651.743	170.88
651.947	164.88
652.152	156.88
652.356	159.88
652.56	148.88
652.764	153.88
652.969	153.88
653.173	151.88
653.377	146.88
653.581	146.88
653.785	158.88
653.99	144.88
654.194	134.88
654.398	141.88
654.602	144.88
654.806	145.88
655.01	142.88
655.214	161.88
655.418	124.88
655.622	148.88
655.826	144.88
656.03	132.88
656.234	136.88
656.438	136.88
656.642	143.88
656.846	139.88
657.049	130.88
657.253	132.88
657.457	126.88
657.661	142.88
657.865	126.88
658.068	117.88
658.272	116.88
658.476	113.88
658.68	126.88
658.883	115.88
659.087	102.88
659.291	109.88
659.494	112.88
659.698	104.88
659.901	98.88
660.105	100.88
660.309	101.88
660.512	105.88
660.716	99.88
660.919	90.88
661.123	95.88
661.326	92.88
661.53	81.88
661.733	97.88
661.936	86.88
662.14	89.88
662.343	89.88
662.546	86.88
662.75	92.88
662.953	84.88
663.156	86.88
663.36	107.88
663.563	100.88
663.766	86.88
663.969	72.88
664.173	85.88
664.376	83.88
664.579	91.88
664.782	95.88
664.985	84.88
665.188	81.88
665.391	103.88
665.594	92.88
665.797	84.88
666	81.88
666.203	90.88
666.406	87.88
666.609	87.88
666.812	102.88
667.015	102.88
667.218	88.88
667.421	87.88
667.624	90.88
667.827	76.88
668.03	88.88
668.232	83.88
668.435	70.88
668.638	98.88
668.841	89.88
669.043	92.88
669.246	95.88
669.449	95.88
669.651	84.88
669.854	79.88
670.057	75.88
670.259	86.88
670.462	94.88
670.665	83.88
670.867	89.88
671.07	87.88
671.272	94.88
671.475	92.88
671.677	85.88
671.88	86.88
672.082	82.88
672.284	80.88
672.487	87.88
672.689	94.88
672.892	88.88
