Data from 1973.PennyLincolnUp.Lamp.En5.5.200Scan.071719.P1.Changed Mount._HRD10591_15-45-27-853.txt Node
Date: Thu Jul 18 15:45:27 EDT 2019
User: cochatt
Spectrometer: HR+D1059
Trigger mode: 1
Integration Time (sec): 1.000000E-1
Scans to average: 1
Electric dark correction enabled: true
Nonlinearity correction enabled: false
Boxcar width: 0
XAxis mode: Wavelengths
Number of Pixels in Spectrum: 2048
>>>>>Begin Spectral Data<<<<<
223.165	-15.62
223.4	-15.62
223.635	-15.62
223.869	-4.62
224.104	-22.62
224.338	-3.62
224.573	-12.62
224.808	-24.62
225.042	-9.62
225.277	-18.62
225.511	1.38
225.746	11.38
225.98	5.38
226.215	8.38
226.449	11.38
226.683	28.38
226.918	26.38
227.152	19.38
227.387	20.38
227.621	34.38
227.856	48.38
228.09	61.38
228.324	54.38
228.559	57.38
228.793	63.38
229.027	110.38
229.262	109.38
229.496	97.38
229.73	120.38
229.964	133.38
230.199	131.38
230.433	134.38
230.667	108.38
230.901	122.38
231.136	108.38
231.37	105.38
231.604	128.38
231.838	125.38
232.072	110.38
232.306	128.38
232.541	102.38
232.775	121.38
233.009	106.38
233.243	111.38
233.477	116.38
233.711	127.38
233.945	118.38
234.179	115.38
234.413	114.38
234.647	133.38
234.881	127.38
235.115	112.38
235.349	116.38
235.583	128.38
235.817	117.38
236.051	124.38
236.285	133.38
236.519	126.38
236.753	124.38
236.987	133.38
237.221	167.38
237.455	225.38
237.689	184.38
237.922	147.38
238.156	124.38
238.39	147.38
238.624	135.38
238.858	130.38
239.091	129.38
239.325	125.38
239.559	132.38
239.793	134.38
240.027	146.38
240.26	145.38
240.494	156.38
240.728	160.38
240.961	153.38
241.195	141.38
241.429	141.38
241.662	138.38
241.896	130.38
242.13	133.38
242.363	138.38
242.597	140.38
242.83	143.38
243.064	142.38
243.298	141.38
243.531	151.38
243.765	147.38
243.998	146.38
244.232	136.38
244.465	149.38
244.699	148.38
244.932	147.38
245.166	136.38
245.399	149.38
245.633	147.38
245.866	153.38
246.099	141.38
246.333	147.38
246.566	130.38
246.8	166.38
247.033	164.38
247.266	157.38
247.5	160.38
247.733	159.38
247.966	169.38
248.2	196.38
248.433	191.38
248.666	178.38
248.899	191.38
249.133	201.38
249.366	237.38
249.599	210.38
249.832	195.38
250.066	168.38
250.299	173.38
250.532	186.38
250.765	204.38
250.998	225.38
251.231	215.38
251.465	219.38
251.698	211.38
251.931	204.38
252.164	201.38
252.397	191.38
252.63	198.38
252.863	206.38
253.096	201.38
253.329	219.38
253.562	240.38
253.795	225.38
254.028	206.38
254.261	218.38
254.494	225.38
254.727	244.38
254.96	268.38
255.193	261.38
255.426	242.38
255.659	264.38
255.892	225.38
256.124	239.38
256.357	255.38
256.59	229.38
256.823	218.38
257.056	212.38
257.289	233.38
257.521	220.38
257.754	215.38
257.987	196.38
258.22	213.38
258.452	205.38
258.685	210.38
258.918	213.38
259.151	220.38
259.383	209.38
259.616	250.38
259.849	227.38
260.081	246.38
260.314	274.38
260.547	263.38
260.779	234.38
261.012	252.38
261.244	243.38
261.477	237.38
261.71	227.38
261.942	222.38
262.175	237.38
262.407	229.38
262.64	234.38
262.872	258.38
263.105	224.38
263.337	224.38
263.57	212.38
263.802	227.38
264.035	236.38
264.267	221.38
264.499	219.38
264.732	226.38
264.964	212.38
265.197	221.38
265.429	236.38
265.661	239.38
265.894	213.38
266.126	218.38
266.358	223.38
266.591	232.38
266.823	235.38
267.055	232.38
267.287	242.38
267.52	242.38
267.752	244.38
267.984	241.38
268.216	228.38
268.448	247.38
268.681	222.38
268.913	253.38
269.145	281.38
269.377	283.38
269.609	288.38
269.841	264.38
270.073	285.38
270.306	312.38
270.538	329.38
270.77	323.38
271.002	322.38
271.234	308.38
271.466	296.38
271.698	324.38
271.93	335.38
272.162	328.38
272.394	314.38
272.626	323.38
272.858	318.38
273.09	296.38
273.322	302.38
273.553	299.38
273.785	286.38
274.017	292.38
274.249	281.38
274.481	287.38
274.713	298.38
274.945	280.38
275.176	291.38
275.408	282.38
275.64	281.38
275.872	277.38
276.104	277.38
276.335	286.38
276.567	294.38
276.799	298.38
277.031	330.38
277.262	343.38
277.494	332.38
277.726	300.38
277.957	293.38
278.189	317.38
278.421	305.38
278.652	288.38
278.884	297.38
279.115	285.38
279.347	305.38
279.579	285.38
279.81	288.38
280.042	288.38
280.273	285.38
280.505	292.38
280.736	276.38
280.968	285.38
281.199	306.38
281.431	297.38
281.662	297.38
281.894	298.38
282.125	296.38
282.356	299.38
282.588	327.38
282.819	348.38
283.051	308.38
283.282	308.38
283.513	307.38
283.745	324.38
283.976	313.38
284.207	322.38
284.439	309.38
284.67	311.38
284.901	288.38
285.132	318.38
285.364	308.38
285.595	295.38
285.826	304.38
286.057	309.38
286.288	307.38
286.52	321.38
286.751	293.38
286.982	331.38
287.213	301.38
287.444	318.38
287.675	310.38
287.906	336.38
288.138	333.38
288.369	360.38
288.6	334.38
288.831	339.38
289.062	327.38
289.293	337.38
289.524	320.38
289.755	330.38
289.986	325.38
290.217	321.38
290.448	342.38
290.679	330.38
290.91	313.38
291.141	297.38
291.371	298.38
291.602	310.38
291.833	318.38
292.064	316.38
292.295	334.38
292.526	333.38
292.757	312.38
292.987	316.38
293.218	310.38
293.449	327.38
293.68	322.38
293.91	309.38
294.141	320.38
294.372	316.38
294.603	314.38
294.833	312.38
295.064	319.38
295.295	313.38
295.525	332.38
295.756	334.38
295.987	349.38
296.217	362.38
296.448	365.38
296.679	338.38
296.909	334.38
297.14	330.38
297.37	350.38
297.601	336.38
297.831	347.38
298.062	315.38
298.292	352.38
298.523	320.38
298.753	342.38
298.984	338.38
299.214	340.38
299.445	339.38
299.675	340.38
299.905	353.38
300.136	357.38
300.366	346.38
300.597	341.38
300.827	353.38
301.057	366.38
301.288	369.38
301.518	349.38
301.748	344.38
301.979	361.38
302.209	369.38
302.439	377.38
302.669	372.38
302.9	352.38
303.13	358.38
303.36	362.38
303.59	374.38
303.82	376.38
304.051	388.38
304.281	374.38
304.511	364.38
304.741	352.38
304.971	372.38
305.201	358.38
305.431	360.38
305.661	341.38
305.891	375.38
306.121	359.38
306.352	365.38
306.582	395.38
306.812	368.38
307.042	366.38
307.272	354.38
307.502	375.38
307.731	360.38
307.961	368.38
308.191	370.38
308.421	360.38
308.651	389.38
308.881	368.38
309.111	378.38
309.341	377.38
309.571	381.38
309.8	376.38
310.03	389.38
310.26	404.38
310.49	384.38
310.72	394.38
310.949	422.38
311.179	419.38
311.409	391.38
311.639	402.38
311.868	407.38
312.098	406.38
312.328	376.38
312.557	432.38
312.787	420.38
313.017	422.38
313.246	410.38
313.476	399.38
313.706	424.38
313.935	410.38
314.165	418.38
314.394	429.38
314.624	426.38
314.853	422.38
315.083	408.38
315.312	416.38
315.542	414.38
315.771	407.38
316.001	408.38
316.23	397.38
316.46	386.38
316.689	408.38
316.919	400.38
317.148	434.38
317.377	393.38
317.607	423.38
317.836	421.38
318.065	393.38
318.295	416.38
318.524	399.38
318.753	398.38
318.983	405.38
319.212	406.38
319.441	411.38
319.67	424.38
319.9	412.38
320.129	402.38
320.358	427.38
320.587	426.38
320.816	420.38
321.046	440.38
321.275	439.38
321.504	429.38
321.733	442.38
321.962	421.38
322.191	445.38
322.42	431.38
322.649	441.38
322.878	472.38
323.108	475.38
323.337	467.38
323.566	482.38
323.795	492.38
324.024	533.38
324.253	608.38
324.482	835.38
324.71	1227.38
324.939	1783.38
325.168	1565.38
325.397	849.38
325.626	606.38
325.855	517.38
326.084	512.38
326.313	486.38
326.542	500.38
326.77	545.38
326.999	629.38
327.228	774.38
327.457	1120.38
327.686	1367.38
327.914	945.38
328.143	644.38
328.372	590.38
328.6	591.38
328.829	552.38
329.058	559.38
329.287	568.38
329.515	557.38
329.744	528.38
329.972	531.38
330.201	546.38
330.43	581.38
330.658	563.38
330.887	582.38
331.115	543.38
331.344	504.38
331.572	520.38
331.801	507.38
332.03	518.38
332.258	506.38
332.486	491.38
332.715	484.38
332.943	494.38
333.172	523.38
333.4	526.38
333.629	527.38
333.857	548.38
334.085	545.38
334.314	560.38
334.542	582.38
334.771	576.38
334.999	551.38
335.227	530.38
335.455	515.38
335.684	496.38
335.912	502.38
336.14	505.38
336.369	485.38
336.597	514.38
336.825	475.38
337.053	489.38
337.281	478.38
337.51	473.38
337.738	475.38
337.966	474.38
338.194	469.38
338.422	488.38
338.65	494.38
338.878	477.38
339.106	485.38
339.334	478.38
339.562	467.38
339.79	456.38
340.018	468.38
340.246	467.38
340.474	471.38
340.702	460.38
340.93	459.38
341.158	478.38
341.386	476.38
341.614	456.38
341.842	474.38
342.07	475.38
342.298	456.38
342.526	446.38
342.754	444.38
342.981	434.38
343.209	468.38
343.437	458.38
343.665	485.38
343.893	478.38
344.12	494.38
344.348	501.38
344.576	500.38
344.804	493.38
345.031	461.38
345.259	469.38
345.487	483.38
345.714	474.38
345.942	445.38
346.17	440.38
346.397	446.38
346.625	444.38
346.853	427.38
347.08	444.38
347.308	434.38
347.535	438.38
347.763	457.38
347.99	452.38
348.218	458.38
348.445	474.38
348.673	454.38
348.9	441.38
349.128	442.38
349.355	459.38
349.583	445.38
349.81	440.38
350.037	452.38
350.265	442.38
350.492	436.38
350.72	423.38
350.947	440.38
351.174	472.38
351.402	452.38
351.629	444.38
351.856	445.38
352.083	439.38
352.311	456.38
352.538	445.38
352.765	444.38
352.992	429.38
353.22	436.38
353.447	438.38
353.674	434.38
353.901	444.38
354.128	435.38
354.355	426.38
354.583	429.38
354.81	411.38
355.037	421.38
355.264	401.38
355.491	420.38
355.718	412.38
355.945	416.38
356.172	428.38
356.399	405.38
356.626	416.38
356.853	421.38
357.08	423.38
357.307	415.38
357.534	411.38
357.761	414.38
357.988	425.38
358.215	427.38
358.441	415.38
358.668	411.38
358.895	440.38
359.122	417.38
359.349	441.38
359.576	438.38
359.802	462.38
360.029	475.38
360.256	490.38
360.483	449.38
360.709	443.38
360.936	438.38
361.163	445.38
361.39	440.38
361.616	432.38
361.843	436.38
362.07	433.38
362.296	462.38
362.523	444.38
362.749	445.38
362.976	442.38
363.203	443.38
363.429	423.38
363.656	404.38
363.882	425.38
364.109	421.38
364.335	436.38
364.562	438.38
364.788	416.38
365.015	434.38
365.241	438.38
365.468	433.38
365.694	445.38
365.92	429.38
366.147	434.38
366.373	414.38
366.599	437.38
366.826	430.38
367.052	430.38
367.278	404.38
367.505	421.38
367.731	436.38
367.957	406.38
368.184	433.38
368.41	426.38
368.636	438.38
368.862	438.38
369.089	427.38
369.315	422.38
369.541	426.38
369.767	427.38
369.993	434.38
370.219	425.38
370.445	424.38
370.672	442.38
370.898	433.38
371.124	426.38
371.35	442.38
371.576	443.38
371.802	432.38
372.028	432.38
372.254	411.38
372.48	419.38
372.706	448.38
372.932	421.38
373.158	431.38
373.384	438.38
373.61	418.38
373.835	430.38
374.061	430.38
374.287	441.38
374.513	419.38
374.739	446.38
374.965	451.38
375.191	456.38
375.416	442.38
375.642	464.38
375.868	446.38
376.094	449.38
376.319	426.38
376.545	437.38
376.771	441.38
376.997	423.38
377.222	420.38
377.448	424.38
377.674	413.38
377.899	420.38
378.125	425.38
378.35	425.38
378.576	427.38
378.802	424.38
379.027	425.38
379.253	430.38
379.478	434.38
379.704	420.38
379.929	455.38
380.155	432.38
380.38	425.38
380.606	427.38
380.831	449.38
381.057	460.38
381.282	433.38
381.507	452.38
381.733	410.38
381.958	434.38
382.184	443.38
382.409	450.38
382.634	437.38
382.86	458.38
383.085	440.38
383.31	460.38
383.535	459.38
383.761	452.38
383.986	453.38
384.211	464.38
384.436	484.38
384.662	485.38
384.887	480.38
385.112	481.38
385.337	450.38
385.562	482.38
385.787	488.38
386.013	492.38
386.238	474.38
386.463	501.38
386.688	491.38
386.913	489.38
387.138	484.38
387.363	496.38
387.588	482.38
387.813	490.38
388.038	467.38
388.263	490.38
388.488	454.38
388.713	481.38
388.938	507.38
389.163	472.38
389.387	491.38
389.612	502.38
389.837	482.38
390.062	477.38
390.287	481.38
390.512	471.38
390.736	504.38
390.961	508.38
391.186	493.38
391.411	483.38
391.636	504.38
391.86	503.38
392.085	524.38
392.31	498.38
392.534	498.38
392.759	522.38
392.984	485.38
393.208	490.38
393.433	506.38
393.658	510.38
393.882	519.38
394.107	505.38
394.331	491.38
394.556	489.38
394.78	503.38
395.005	495.38
395.229	483.38
395.454	506.38
395.678	516.38
395.903	541.38
396.127	557.38
396.352	528.38
396.576	531.38
396.801	521.38
397.025	535.38
397.249	515.38
397.474	518.38
397.698	527.38
397.922	513.38
398.147	568.38
398.371	564.38
398.595	572.38
398.82	555.38
399.044	581.38
399.268	627.38
399.492	660.38
399.717	732.38
399.941	750.38
400.165	742.38
400.389	694.38
400.613	629.38
400.837	584.38
401.062	590.38
401.286	586.38
401.51	593.38
401.734	592.38
401.958	589.38
402.182	593.38
402.406	604.38
402.63	583.38
402.854	582.38
403.078	601.38
403.302	611.38
403.526	598.38
403.75	628.38
403.974	600.38
404.198	610.38
404.422	629.38
404.645	616.38
404.869	606.38
405.093	656.38
405.317	699.38
405.541	712.38
405.765	659.38
405.988	638.38
406.212	652.38
406.436	649.38
406.66	668.38
406.883	646.38
407.107	681.38
407.331	723.38
407.555	787.38
407.778	788.38
408.002	717.38
408.226	655.38
408.449	690.38
408.673	658.38
408.896	655.38
409.12	705.38
409.344	652.38
409.567	614.38
409.791	614.38
410.014	603.38
410.238	594.38
410.461	594.38
410.685	594.38
410.908	642.38
411.132	652.38
411.355	662.38
411.578	644.38
411.802	595.38
412.025	582.38
412.249	627.38
412.472	624.38
412.695	650.38
412.919	643.38
413.142	614.38
413.365	579.38
413.589	572.38
413.812	564.38
414.035	557.38
414.258	574.38
414.482	552.38
414.705	554.38
414.928	561.38
415.151	550.38
415.374	551.38
415.597	560.38
415.821	557.38
416.044	548.38
416.267	567.38
416.49	564.38
416.713	552.38
416.936	542.38
417.159	564.38
417.382	560.38
417.605	581.38
417.828	588.38
418.051	591.38
418.274	575.38
418.497	578.38
418.72	565.38
418.943	557.38
419.166	586.38
419.389	612.38
419.611	626.38
419.834	614.38
420.057	596.38
420.28	610.38
420.503	588.38
420.726	584.38
420.948	595.38
421.171	642.38
421.394	653.38
421.617	599.38
421.839	594.38
422.062	579.38
422.285	592.38
422.507	638.38
422.73	708.38
422.953	692.38
423.175	635.38
423.398	626.38
423.621	604.38
423.843	619.38
424.066	627.38
424.288	633.38
424.511	635.38
424.733	689.38
424.956	736.38
425.178	731.38
425.401	738.38
425.623	728.38
425.846	648.38
426.068	619.38
426.291	592.38
426.513	588.38
426.735	600.38
426.958	626.38
427.18	701.38
427.402	820.38
427.625	913.38
427.847	762.38
428.069	672.38
428.292	660.38
428.514	594.38
428.736	602.38
428.958	579.38
429.181	544.38
429.403	542.38
429.625	545.38
429.847	556.38
430.069	654.38
430.292	624.38
430.514	568.38
430.736	560.38
430.958	539.38
431.18	544.38
431.402	521.38
431.624	558.38
431.846	535.38
432.068	525.38
432.29	522.38
432.512	567.38
432.734	537.38
432.956	533.38
433.178	548.38
433.4	536.38
433.622	544.38
433.844	533.38
434.066	549.38
434.287	533.38
434.509	543.38
434.731	568.38
434.953	556.38
435.175	563.38
435.397	600.38
435.618	601.38
435.84	638.38
436.062	698.38
436.284	775.38
436.505	662.38
436.727	610.38
436.949	585.38
437.17	566.38
437.392	539.38
437.614	540.38
437.835	578.38
438.057	664.38
438.278	724.38
438.5	778.38
438.721	830.38
438.943	773.38
439.165	659.38
439.386	612.38
439.608	611.38
439.829	596.38
440.05	620.38
440.272	662.38
440.493	629.38
440.715	596.38
440.936	562.38
441.158	569.38
441.379	579.38
441.6	585.38
441.822	593.38
442.043	632.38
442.264	696.38
442.486	757.38
442.707	674.38
442.928	624.38
443.149	624.38
443.371	624.38
443.592	677.38
443.813	756.38
444.034	814.38
444.255	716.38
444.476	660.38
444.698	642.38
444.919	644.38
445.14	765.38
445.361	696.38
445.582	659.38
445.803	679.38
446.024	790.38
446.245	779.38
446.466	747.38
446.687	632.38
446.908	612.38
447.129	562.38
447.35	538.38
447.571	548.38
447.792	549.38
448.013	534.38
448.234	558.38
448.455	599.38
448.675	704.38
448.896	802.38
449.117	693.38
449.338	662.38
449.559	745.38
449.779	845.38
450	684.38
450.221	585.38
450.442	549.38
450.662	527.38
450.883	540.38
451.104	536.38
451.324	533.38
451.545	513.38
451.766	522.38
451.986	518.38
452.207	493.38
452.428	510.38
452.648	490.38
452.869	480.38
453.089	507.38
453.31	518.38
453.53	509.38
453.751	489.38
453.971	490.38
454.192	499.38
454.412	464.38
454.633	486.38
454.853	492.38
455.073	484.38
455.294	513.38
455.514	530.38
455.734	554.38
455.955	486.38
456.175	486.38
456.395	444.38
456.616	466.38
456.836	473.38
457.056	464.38
457.276	467.38
457.497	454.38
457.717	454.38
457.937	492.38
458.157	471.38
458.377	480.38
458.598	492.38
458.818	566.38
459.038	611.38
459.258	639.38
459.478	560.38
459.698	548.38
459.918	526.38
460.138	563.38
460.358	554.38
460.578	585.38
460.798	562.38
461.018	557.38
461.238	594.38
461.458	553.38
461.678	534.38
461.898	576.38
462.118	584.38
462.338	599.38
462.558	612.38
462.777	626.38
462.997	645.38
463.217	667.38
463.437	668.38
463.657	620.38
463.876	632.38
464.096	619.38
464.316	615.38
464.536	592.38
464.755	629.38
464.975	619.38
465.195	617.38
465.414	669.38
465.634	613.38
465.854	560.38
466.073	569.38
466.293	522.38
466.512	518.38
466.732	510.38
466.951	533.38
467.171	506.38
467.391	527.38
467.61	523.38
467.829	499.38
468.049	530.38
468.268	519.38
468.488	523.38
468.707	492.38
468.927	504.38
469.146	478.38
469.365	536.38
469.585	492.38
469.804	514.38
470.023	520.38
470.243	527.38
470.462	527.38
470.681	548.38
470.901	545.38
471.12	540.38
471.339	508.38
471.558	521.38
471.777	522.38
471.997	508.38
472.216	492.38
472.435	532.38
472.654	518.38
472.873	512.38
473.092	479.38
473.311	508.38
473.53	515.38
473.749	523.38
473.968	549.38
474.187	642.38
474.406	664.38
474.625	564.38
474.844	522.38
475.063	515.38
475.282	532.38
475.501	502.38
475.72	529.38
475.939	499.38
476.158	530.38
476.377	512.38
476.596	501.38
476.814	523.38
477.033	515.38
477.252	529.38
477.471	529.38
477.69	539.38
477.908	552.38
478.127	575.38
478.346	547.38
478.564	583.38
478.783	576.38
479.002	597.38
479.22	603.38
479.439	618.38
479.658	593.38
479.876	637.38
480.095	635.38
480.313	663.38
480.532	676.38
480.751	639.38
480.969	648.38
481.188	666.38
481.406	689.38
481.624	640.38
481.843	603.38
482.061	591.38
482.28	594.38
482.498	574.38
482.717	595.38
482.935	578.38
483.153	587.38
483.372	570.38
483.59	598.38
483.808	596.38
484.027	596.38
484.245	596.38
484.463	606.38
484.681	595.38
484.9	582.38
485.118	596.38
485.336	593.38
485.554	634.38
485.772	627.38
485.99	600.38
486.209	620.38
486.427	627.38
486.645	625.38
486.863	672.38
487.081	635.38
487.299	606.38
487.517	611.38
487.735	629.38
487.953	629.38
488.171	618.38
488.389	630.38
488.607	640.38
488.825	623.38
489.043	626.38
489.261	637.38
489.479	658.38
489.696	641.38
489.914	656.38
490.132	665.38
490.35	644.38
490.568	667.38
490.786	690.38
491.003	661.38
491.221	662.38
491.439	701.38
491.657	684.38
491.874	723.38
492.092	690.38
492.31	716.38
492.527	709.38
492.745	718.38
492.963	724.38
493.18	724.38
493.398	725.38
493.615	755.38
493.833	732.38
494.05	707.38
494.268	739.38
494.485	723.38
494.703	744.38
494.92	742.38
495.138	774.38
495.355	724.38
495.573	754.38
495.79	740.38
496.008	742.38
496.225	733.38
496.442	745.38
496.66	755.38
496.877	768.38
497.094	763.38
497.312	760.38
497.529	774.38
497.746	773.38
497.963	805.38
498.181	817.38
498.398	852.38
498.615	880.38
498.832	889.38
499.049	940.38
499.267	972.38
499.484	1008.38
499.701	1065.38
499.918	1110.38
500.135	1170.38
500.352	1277.38
500.569	1313.38
500.786	1318.38
501.003	1283.38
501.22	1195.38
501.437	1157.38
501.654	1090.38
501.871	1006.38
502.088	1013.38
502.305	917.38
502.522	903.38
502.739	864.38
502.956	836.38
503.172	820.38
503.389	792.38
503.606	814.38
503.823	791.38
504.04	784.38
504.256	766.38
504.473	784.38
504.69	773.38
504.907	796.38
505.123	746.38
505.34	741.38
505.557	728.38
505.773	731.38
505.99	700.38
506.207	694.38
506.423	700.38
506.64	672.38
506.856	701.38
507.073	690.38
507.289	663.38
507.506	664.38
507.722	694.38
507.939	696.38
508.155	639.38
508.372	635.38
508.588	670.38
508.805	635.38
509.021	658.38
509.238	677.38
509.454	675.38
509.67	665.38
509.887	635.38
510.103	670.38
510.319	666.38
510.536	730.38
510.752	1087.38
510.968	882.38
511.184	636.38
511.401	618.38
511.617	628.38
511.833	612.38
512.049	610.38
512.265	606.38
512.481	627.38
512.698	604.38
512.914	620.38
513.13	613.38
513.346	614.38
513.562	589.38
513.778	614.38
513.994	622.38
514.21	621.38
514.426	624.38
514.642	646.38
514.858	701.38
515.074	688.38
515.29	798.38
515.506	1105.38
515.721	948.38
515.937	702.38
516.153	678.38
516.369	655.38
516.585	671.38
516.801	665.38
517.016	664.38
517.232	688.38
517.448	685.38
517.664	692.38
517.879	699.38
518.095	694.38
518.311	702.38
518.527	673.38
518.742	670.38
518.958	636.38
519.173	668.38
519.389	639.38
519.605	617.38
519.82	626.38
520.036	636.38
520.251	641.38
520.467	654.38
520.682	653.38
520.898	662.38
521.113	664.38
521.329	684.38
521.544	734.38
521.76	871.38
521.975	1368.38
522.19	1355.38
522.406	794.38
522.621	644.38
522.836	622.38
523.052	594.38
523.267	573.38
523.482	552.38
523.698	568.38
523.913	572.38
524.128	564.38
524.343	530.38
524.559	555.38
524.774	527.38
524.989	534.38
525.204	557.38
525.419	532.38
525.634	505.38
525.849	540.38
526.064	526.38
526.28	522.38
526.495	530.38
526.71	514.38
526.925	506.38
527.14	516.38
527.355	506.38
527.57	516.38
527.785	508.38
527.999	501.38
528.214	505.38
528.429	501.38
528.644	510.38
528.859	528.38
529.074	538.38
529.289	512.38
529.503	568.38
529.718	552.38
529.933	545.38
530.148	531.38
530.363	526.38
530.577	501.38
530.792	500.38
531.007	539.38
531.221	501.38
531.436	489.38
531.651	518.38
531.865	516.38
532.08	485.38
532.295	500.38
532.509	487.38
532.724	498.38
532.938	509.38
533.153	493.38
533.367	493.38
533.582	480.38
533.796	505.38
534.011	528.38
534.225	515.38
534.44	506.38
534.654	473.38
534.868	497.38
535.083	508.38
535.297	500.38
535.511	497.38
535.726	500.38
535.94	479.38
536.154	495.38
536.369	477.38
536.583	472.38
536.797	462.38
537.011	501.38
537.225	477.38
537.44	474.38
537.654	481.38
537.868	485.38
538.082	456.38
538.296	482.38
538.51	492.38
538.724	477.38
538.938	432.38
539.153	492.38
539.367	482.38
539.581	479.38
539.795	473.38
540.009	487.38
540.222	465.38
540.436	465.38
540.65	485.38
540.864	462.38
541.078	482.38
541.292	504.38
541.506	471.38
541.72	474.38
541.934	461.38
542.147	465.38
542.361	474.38
542.575	491.38
542.789	465.38
543.002	474.38
543.216	467.38
543.43	482.38
543.644	488.38
543.857	457.38
544.071	467.38
544.285	492.38
544.498	453.38
544.712	472.38
544.925	473.38
545.139	496.38
545.352	474.38
545.566	484.38
545.779	463.38
545.993	485.38
546.206	482.38
546.42	492.38
546.633	464.38
546.847	465.38
547.06	469.38
547.274	445.38
547.487	464.38
547.7	440.38
547.914	467.38
548.127	477.38
548.34	465.38
548.554	461.38
548.767	459.38
548.98	483.38
549.193	457.38
549.407	454.38
549.62	485.38
549.833	475.38
550.046	456.38
550.259	480.38
550.473	473.38
550.686	485.38
550.899	477.38
551.112	460.38
551.325	462.38
551.538	449.38
551.751	466.38
551.964	451.38
552.177	471.38
552.39	473.38
552.603	495.38
552.816	454.38
553.029	490.38
553.242	486.38
553.455	498.38
553.667	495.38
553.88	491.38
554.093	487.38
554.306	466.38
554.519	479.38
554.732	480.38
554.944	450.38
555.157	448.38
555.37	456.38
555.583	462.38
555.795	436.38
556.008	425.38
556.221	427.38
556.433	418.38
556.646	448.38
556.859	413.38
557.071	416.38
557.284	420.38
557.496	396.38
557.709	430.38
557.921	418.38
558.134	409.38
558.346	394.38
558.559	417.38
558.771	407.38
558.984	433.38
559.196	418.38
559.409	414.38
559.621	434.38
559.833	408.38
560.046	401.38
560.258	399.38
560.47	421.38
560.683	411.38
560.895	395.38
561.107	404.38
561.32	400.38
561.532	391.38
561.744	405.38
561.956	405.38
562.168	415.38
562.381	393.38
562.593	404.38
562.805	404.38
563.017	414.38
563.229	416.38
563.441	426.38
563.653	419.38
563.865	404.38
564.077	417.38
564.289	426.38
564.501	440.38
564.713	416.38
564.925	450.38
565.137	455.38
565.349	452.38
565.561	460.38
565.773	483.38
565.985	479.38
566.197	488.38
566.408	502.38
566.62	546.38
566.832	558.38
567.044	585.38
567.255	568.38
567.467	584.38
567.679	587.38
567.891	600.38
568.102	620.38
568.314	608.38
568.526	562.38
568.737	545.38
568.949	503.38
569.161	486.38
569.372	468.38
569.584	450.38
569.795	437.38
570.007	429.38
570.218	485.38
570.43	450.38
570.641	411.38
570.853	410.38
571.064	425.38
571.276	427.38
571.487	424.38
571.698	404.38
571.91	397.38
572.121	384.38
572.333	396.38
572.544	384.38
572.755	354.38
572.966	356.38
573.178	370.38
573.389	365.38
573.6	352.38
573.811	361.38
574.023	361.38
574.234	351.38
574.445	360.38
574.656	337.38
574.867	355.38
575.078	370.38
575.289	352.38
575.501	342.38
575.712	342.38
575.923	350.38
576.134	337.38
576.345	357.38
576.556	362.38
576.767	372.38
576.978	350.38
577.188	358.38
577.399	373.38
577.61	344.38
577.821	341.38
578.032	373.38
578.243	353.38
578.454	532.38
578.665	412.38
578.875	341.38
579.086	333.38
579.297	335.38
579.508	348.38
579.718	328.38
579.929	342.38
580.14	313.38
580.35	310.38
580.561	309.38
580.772	322.38
580.982	342.38
581.193	309.38
581.403	322.38
581.614	310.38
581.825	327.38
582.035	332.38
582.246	331.38
582.456	323.38
582.667	322.38
582.877	313.38
583.087	298.38
583.298	300.38
583.508	326.38
583.719	307.38
583.929	331.38
584.139	328.38
584.35	300.38
584.56	329.38
584.77	305.38
584.981	304.38
585.191	301.38
585.401	304.38
585.611	304.38
585.821	318.38
586.032	318.38
586.242	299.38
586.452	316.38
586.662	312.38
586.872	307.38
587.082	301.38
587.292	322.38
587.502	317.38
587.713	320.38
587.923	312.38
588.133	300.38
588.343	308.38
588.553	306.38
588.762	300.38
588.972	312.38
589.182	318.38
589.392	332.38
589.602	318.38
589.812	324.38
590.022	328.38
590.232	311.38
590.441	312.38
590.651	306.38
590.861	310.38
591.071	333.38
591.281	317.38
591.49	318.38
591.7	320.38
591.91	324.38
592.119	329.38
592.329	317.38
592.539	339.38
592.748	349.38
592.958	351.38
593.167	360.38
593.377	343.38
593.587	364.38
593.796	334.38
594.006	336.38
594.215	364.38
594.424	358.38
594.634	346.38
594.843	342.38
595.053	332.38
595.262	345.38
595.472	338.38
595.681	322.38
595.89	312.38
596.1	315.38
596.309	315.38
596.518	316.38
596.727	297.38
596.937	304.38
597.146	289.38
597.355	296.38
597.564	292.38
597.774	288.38
597.983	281.38
598.192	286.38
598.401	295.38
598.61	280.38
598.819	284.38
599.028	277.38
599.237	289.38
599.446	288.38
599.655	299.38
599.864	282.38
600.073	260.38
600.282	284.38
600.491	278.38
600.7	290.38
600.909	264.38
601.118	270.38
601.327	273.38
601.536	280.38
601.745	273.38
601.953	271.38
602.162	270.38
602.371	261.38
602.58	253.38
602.789	274.38
602.997	242.38
603.206	277.38
603.415	274.38
603.623	262.38
603.832	260.38
604.041	248.38
604.249	281.38
604.458	257.38
604.666	244.38
604.875	265.38
605.084	246.38
605.292	273.38
605.501	268.38
605.709	256.38
605.918	265.38
606.126	265.38
606.334	250.38
606.543	266.38
606.751	278.38
606.96	247.38
607.168	254.38
607.376	261.38
607.585	260.38
607.793	281.38
608.001	261.38
608.21	229.38
608.418	250.38
608.626	272.38
608.834	244.38
609.043	260.38
609.251	234.38
609.459	252.38
609.667	250.38
609.875	249.38
610.083	254.38
610.291	240.38
610.499	250.38
610.707	257.38
610.916	253.38
611.124	255.38
611.332	244.38
611.54	280.38
611.748	261.38
611.955	257.38
612.163	280.38
612.371	249.38
612.579	245.38
612.787	263.38
612.995	258.38
613.203	253.38
613.411	260.38
613.618	254.38
613.826	242.38
614.034	245.38
614.242	237.38
614.449	240.38
614.657	243.38
614.865	248.38
615.072	255.38
615.28	235.38
615.488	237.38
615.695	235.38
615.903	249.38
616.111	241.38
616.318	253.38
616.526	246.38
616.733	250.38
616.941	251.38
617.148	233.38
617.356	242.38
617.563	266.38
617.771	262.38
617.978	244.38
618.185	243.38
618.393	243.38
618.6	254.38
618.807	254.38
619.015	242.38
619.222	245.38
619.429	237.38
619.637	225.38
619.844	235.38
620.051	234.38
620.258	242.38
620.466	234.38
620.673	227.38
620.88	237.38
621.087	235.38
621.294	231.38
621.501	230.38
621.708	236.38
621.915	231.38
622.122	233.38
622.329	244.38
622.536	231.38
622.743	232.38
622.95	221.38
623.157	233.38
623.364	215.38
623.571	235.38
623.778	213.38
623.985	227.38
624.192	230.38
624.399	224.38
624.606	215.38
624.812	213.38
625.019	226.38
625.226	241.38
625.433	229.38
625.639	204.38
625.846	206.38
626.053	211.38
626.259	236.38
626.466	231.38
626.673	217.38
626.879	204.38
627.086	200.38
627.293	217.38
627.499	218.38
627.706	231.38
627.912	207.38
628.119	204.38
628.325	217.38
628.532	207.38
628.738	226.38
628.945	204.38
629.151	196.38
629.357	201.38
629.564	200.38
629.77	214.38
629.976	213.38
630.183	218.38
630.389	204.38
630.595	207.38
630.802	189.38
631.008	205.38
631.214	193.38
631.42	218.38
631.627	200.38
631.833	201.38
632.039	192.38
632.245	210.38
632.451	211.38
632.657	197.38
632.863	210.38
633.069	198.38
633.275	186.38
633.481	200.38
633.688	181.38
633.893	212.38
634.099	194.38
634.305	195.38
634.511	191.38
634.717	189.38
634.923	190.38
635.129	200.38
635.335	185.38
635.541	180.38
635.747	189.38
635.952	196.38
636.158	188.38
636.364	181.38
636.57	201.38
636.775	182.38
636.981	169.38
637.187	200.38
637.392	166.38
637.598	173.38
637.804	187.38
638.009	183.38
638.215	186.38
638.421	199.38
638.626	188.38
638.832	189.38
639.037	178.38
639.243	182.38
639.448	178.38
639.654	167.38
639.859	186.38
640.065	172.38
640.27	184.38
640.475	184.38
640.681	180.38
640.886	184.38
641.091	173.38
641.297	173.38
641.502	171.38
641.707	178.38
641.913	172.38
642.118	178.38
642.323	180.38
642.528	169.38
642.733	167.38
642.939	181.38
643.144	164.38
643.349	176.38
643.554	188.38
643.759	167.38
643.964	163.38
644.169	164.38
644.374	174.38
644.579	176.38
644.784	167.38
644.989	168.38
645.194	173.38
645.399	169.38
645.604	173.38
645.809	187.38
646.014	164.38
646.219	160.38
646.423	179.38
646.628	175.38
646.833	166.38
647.038	184.38
647.243	169.38
647.447	182.38
647.652	184.38
647.857	181.38
648.062	176.38
648.266	182.38
648.471	169.38
648.676	185.38
648.88	197.38
649.085	180.38
649.289	190.38
649.494	169.38
649.698	190.38
649.903	192.38
650.107	178.38
650.312	152.38
650.516	169.38
650.721	154.38
650.925	161.38
651.13	168.38
651.334	157.38
651.539	157.38
651.743	162.38
651.947	156.38
652.152	145.38
652.356	153.38
652.56	160.38
652.764	149.38
652.969	156.38
653.173	146.38
653.377	137.38
653.581	144.38
653.785	139.38
653.99	132.38
654.194	154.38
654.398	136.38
654.602	145.38
654.806	147.38
655.01	128.38
655.214	125.38
655.418	134.38
655.622	123.38
655.826	122.38
656.03	145.38
656.234	149.38
656.438	152.38
656.642	140.38
656.846	134.38
657.049	139.38
657.253	121.38
657.457	121.38
657.661	129.38
657.865	106.38
658.068	120.38
658.272	109.38
658.476	125.38
658.68	112.38
658.883	107.38
659.087	103.38
659.291	93.38
659.494	99.38
659.698	106.38
659.901	86.38
660.105	88.38
660.309	96.38
660.512	94.38
660.716	90.38
660.919	98.38
661.123	91.38
661.326	97.38
661.53	103.38
661.733	94.38
661.936	75.38
662.14	96.38
662.343	81.38
662.546	83.38
662.75	91.38
662.953	97.38
663.156	82.38
663.36	81.38
663.563	88.38
663.766	98.38
663.969	101.38
664.173	85.38
664.376	76.38
664.579	90.38
664.782	91.38
664.985	92.38
665.188	81.38
665.391	79.38
665.594	78.38
665.797	78.38
666	85.38
666.203	76.38
666.406	92.38
666.609	89.38
666.812	70.38
667.015	78.38
667.218	93.38
667.421	82.38
667.624	75.38
667.827	82.38
668.03	84.38
668.232	92.38
668.435	90.38
668.638	75.38
668.841	71.38
669.043	76.38
669.246	77.38
669.449	95.38
669.651	72.38
669.854	73.38
670.057	86.38
670.259	85.38
670.462	85.38
670.665	76.38
670.867	71.38
671.07	86.38
671.272	84.38
671.475	87.38
671.677	93.38
671.88	83.38
672.082	75.38
672.284	80.38
672.487	97.38
672.689	94.38
672.892	76.38
