Data from 1973.PennyLincolnUp.Lamp.En5.5.200Scan.071719.P1.Changed Mount._HRD10591_15-43-45-852.txt Node
Date: Thu Jul 18 15:43:45 EDT 2019
User: cochatt
Spectrometer: HR+D1059
Trigger mode: 1
Integration Time (sec): 1.000000E-1
Scans to average: 1
Electric dark correction enabled: true
Nonlinearity correction enabled: false
Boxcar width: 0
XAxis mode: Wavelengths
Number of Pixels in Spectrum: 2048
>>>>>Begin Spectral Data<<<<<
223.165	-13.12
223.4	-13.12
223.635	-13.12
223.869	-25.12
224.104	-16.12
224.338	-20.12
224.573	-12.12
224.808	-6.12
225.042	-7.12
225.277	-0.12
225.511	7.88
225.746	3.88
225.98	1.88
226.215	0.88
226.449	1.88
226.683	20.88
226.918	35.88
227.152	26.88
227.387	20.88
227.621	44.88
227.856	36.88
228.09	46.88
228.324	53.88
228.559	64.88
228.793	67.88
229.027	93.88
229.262	98.88
229.496	105.88
229.73	116.88
229.964	114.88
230.199	123.88
230.433	108.88
230.667	115.88
230.901	115.88
231.136	115.88
231.37	100.88
231.604	109.88
231.838	109.88
232.072	120.88
232.306	122.88
232.541	114.88
232.775	129.88
233.009	110.88
233.243	115.88
233.477	120.88
233.711	118.88
233.945	110.88
234.179	111.88
234.413	108.88
234.647	121.88
234.881	112.88
235.115	106.88
235.349	113.88
235.583	127.88
235.817	114.88
236.051	126.88
236.285	130.88
236.519	120.88
236.753	123.88
236.987	129.88
237.221	149.88
237.455	190.88
237.689	163.88
237.922	132.88
238.156	136.88
238.39	109.88
238.624	129.88
238.858	120.88
239.091	132.88
239.325	123.88
239.559	125.88
239.793	112.88
240.027	125.88
240.26	133.88
240.494	140.88
240.728	140.88
240.961	148.88
241.195	135.88
241.429	129.88
241.662	150.88
241.896	132.88
242.13	137.88
242.363	136.88
242.597	140.88
242.83	134.88
243.064	137.88
243.298	135.88
243.531	129.88
243.765	119.88
243.998	132.88
244.232	132.88
244.465	139.88
244.699	131.88
244.932	144.88
245.166	137.88
245.399	140.88
245.633	140.88
245.866	132.88
246.099	140.88
246.333	151.88
246.566	146.88
246.8	118.88
247.033	139.88
247.266	146.88
247.5	169.88
247.733	168.88
247.966	166.88
248.2	160.88
248.433	160.88
248.666	150.88
248.899	156.88
249.133	187.88
249.366	176.88
249.599	173.88
249.832	176.88
250.066	176.88
250.299	183.88
250.532	191.88
250.765	201.88
250.998	199.88
251.231	204.88
251.465	200.88
251.698	180.88
251.931	189.88
252.164	190.88
252.397	177.88
252.63	193.88
252.863	203.88
253.096	209.88
253.329	207.88
253.562	202.88
253.795	205.88
254.028	188.88
254.261	219.88
254.494	201.88
254.727	210.88
254.96	247.88
255.193	217.88
255.426	214.88
255.659	207.88
255.892	209.88
256.124	211.88
256.357	210.88
256.59	196.88
256.823	199.88
257.056	214.88
257.289	204.88
257.521	204.88
257.754	219.88
257.987	200.88
258.22	197.88
258.452	194.88
258.685	206.88
258.918	206.88
259.151	205.88
259.383	207.88
259.616	207.88
259.849	221.88
260.081	220.88
260.314	234.88
260.547	232.88
260.779	231.88
261.012	220.88
261.244	201.88
261.477	216.88
261.71	192.88
261.942	198.88
262.175	206.88
262.407	223.88
262.64	206.88
262.872	201.88
263.105	202.88
263.337	218.88
263.57	219.88
263.802	209.88
264.035	224.88
264.267	216.88
264.499	237.88
264.732	229.88
264.964	209.88
265.197	216.88
265.429	228.88
265.661	209.88
265.894	199.88
266.126	220.88
266.358	241.88
266.591	207.88
266.823	225.88
267.055	231.88
267.287	229.88
267.52	218.88
267.752	217.88
267.984	224.88
268.216	234.88
268.448	240.88
268.681	215.88
268.913	241.88
269.145	255.88
269.377	263.88
269.609	251.88
269.841	250.88
270.073	266.88
270.306	279.88
270.538	285.88
270.77	278.88
271.002	279.88
271.234	267.88
271.466	279.88
271.698	285.88
271.93	291.88
272.162	285.88
272.394	289.88
272.626	294.88
272.858	248.88
273.09	266.88
273.322	271.88
273.553	261.88
273.785	274.88
274.017	253.88
274.249	264.88
274.481	257.88
274.713	249.88
274.945	254.88
275.176	267.88
275.408	259.88
275.64	254.88
275.872	263.88
276.104	261.88
276.335	267.88
276.567	268.88
276.799	278.88
277.031	284.88
277.262	302.88
277.494	303.88
277.726	277.88
277.957	286.88
278.189	261.88
278.421	267.88
278.652	272.88
278.884	282.88
279.115	279.88
279.347	277.88
279.579	272.88
279.81	251.88
280.042	289.88
280.273	286.88
280.505	269.88
280.736	258.88
280.968	277.88
281.199	286.88
281.431	261.88
281.662	258.88
281.894	260.88
282.125	280.88
282.356	292.88
282.588	300.88
282.819	263.88
283.051	263.88
283.282	268.88
283.513	273.88
283.745	265.88
283.976	291.88
284.207	299.88
284.439	281.88
284.67	287.88
284.901	294.88
285.132	284.88
285.364	277.88
285.595	279.88
285.826	296.88
286.057	294.88
286.288	288.88
286.52	289.88
286.751	278.88
286.982	293.88
287.213	277.88
287.444	293.88
287.675	296.88
287.906	307.88
288.138	313.88
288.369	307.88
288.6	303.88
288.831	314.88
289.062	291.88
289.293	285.88
289.524	295.88
289.755	303.88
289.986	295.88
290.217	289.88
290.448	286.88
290.679	297.88
290.91	292.88
291.141	294.88
291.371	310.88
291.602	314.88
291.833	294.88
292.064	307.88
292.295	300.88
292.526	309.88
292.757	299.88
292.987	297.88
293.218	294.88
293.449	306.88
293.68	311.88
293.91	299.88
294.141	301.88
294.372	306.88
294.603	309.88
294.833	307.88
295.064	318.88
295.295	298.88
295.525	310.88
295.756	303.88
295.987	325.88
296.217	321.88
296.448	306.88
296.679	326.88
296.909	323.88
297.14	313.88
297.37	308.88
297.601	307.88
297.831	297.88
298.062	309.88
298.292	326.88
298.523	300.88
298.753	323.88
298.984	332.88
299.214	332.88
299.445	310.88
299.675	327.88
299.905	319.88
300.136	340.88
300.366	331.88
300.597	333.88
300.827	317.88
301.057	328.88
301.288	326.88
301.518	335.88
301.748	321.88
301.979	334.88
302.209	338.88
302.439	314.88
302.669	340.88
302.9	341.88
303.13	340.88
303.36	332.88
303.59	314.88
303.82	341.88
304.051	338.88
304.281	323.88
304.511	323.88
304.741	331.88
304.971	322.88
305.201	347.88
305.431	338.88
305.661	343.88
305.891	321.88
306.121	317.88
306.352	349.88
306.582	346.88
306.812	330.88
307.042	346.88
307.272	338.88
307.502	315.88
307.731	341.88
307.961	324.88
308.191	332.88
308.421	355.88
308.651	345.88
308.881	342.88
309.111	317.88
309.341	328.88
309.571	355.88
309.8	354.88
310.03	362.88
310.26	348.88
310.49	344.88
310.72	350.88
310.949	372.88
311.179	379.88
311.409	353.88
311.639	337.88
311.868	364.88
312.098	373.88
312.328	365.88
312.557	376.88
312.787	374.88
313.017	376.88
313.246	377.88
313.476	358.88
313.706	362.88
313.935	370.88
314.165	387.88
314.394	385.88
314.624	375.88
314.853	379.88
315.083	355.88
315.312	375.88
315.542	355.88
315.771	343.88
316.001	370.88
316.23	378.88
316.46	371.88
316.689	366.88
316.919	383.88
317.148	369.88
317.377	373.88
317.607	379.88
317.836	378.88
318.065	374.88
318.295	371.88
318.524	354.88
318.753	368.88
318.983	369.88
319.212	387.88
319.441	378.88
319.67	394.88
319.9	366.88
320.129	363.88
320.358	348.88
320.587	371.88
320.816	370.88
321.046	377.88
321.275	375.88
321.504	385.88
321.733	374.88
321.962	381.88
322.191	398.88
322.42	371.88
322.649	417.88
322.878	415.88
323.108	399.88
323.337	414.88
323.566	411.88
323.795	431.88
324.024	442.88
324.253	501.88
324.482	636.88
324.71	901.88
324.939	1235.88
325.168	1093.88
325.397	606.88
325.626	469.88
325.855	415.88
326.084	429.88
326.313	422.88
326.542	433.88
326.77	445.88
326.999	489.88
327.228	612.88
327.457	821.88
327.686	975.88
327.914	679.88
328.143	528.88
328.372	475.88
328.6	471.88
328.829	467.88
329.058	468.88
329.287	462.88
329.515	470.88
329.744	445.88
329.972	425.88
330.201	443.88
330.43	487.88
330.658	460.88
330.887	489.88
331.115	494.88
331.344	456.88
331.572	445.88
331.801	460.88
332.03	428.88
332.258	419.88
332.486	446.88
332.715	424.88
332.943	463.88
333.172	449.88
333.4	464.88
333.629	485.88
333.857	467.88
334.085	471.88
334.314	489.88
334.542	503.88
334.771	498.88
334.999	481.88
335.227	457.88
335.455	458.88
335.684	462.88
335.912	463.88
336.14	464.88
336.369	441.88
336.597	460.88
336.825	458.88
337.053	431.88
337.281	438.88
337.51	424.88
337.738	426.88
337.966	451.88
338.194	439.88
338.422	424.88
338.65	397.88
338.878	426.88
339.106	428.88
339.334	423.88
339.562	421.88
339.79	412.88
340.018	412.88
340.246	439.88
340.474	407.88
340.702	416.88
340.93	410.88
341.158	406.88
341.386	402.88
341.614	410.88
341.842	411.88
342.07	409.88
342.298	422.88
342.526	403.88
342.754	410.88
342.981	389.88
343.209	406.88
343.437	427.88
343.665	389.88
343.893	442.88
344.12	439.88
344.348	428.88
344.576	419.88
344.804	447.88
345.031	427.88
345.259	412.88
345.487	431.88
345.714	422.88
345.942	424.88
346.17	398.88
346.397	409.88
346.625	397.88
346.853	400.88
347.08	393.88
347.308	390.88
347.535	410.88
347.763	397.88
347.99	410.88
348.218	420.88
348.445	420.88
348.673	380.88
348.9	422.88
349.128	398.88
349.355	397.88
349.583	395.88
349.81	378.88
350.037	387.88
350.265	389.88
350.492	380.88
350.72	389.88
350.947	399.88
351.174	391.88
351.402	408.88
351.629	394.88
351.856	382.88
352.083	380.88
352.311	378.88
352.538	392.88
352.765	408.88
352.992	398.88
353.22	388.88
353.447	396.88
353.674	390.88
353.901	392.88
354.128	377.88
354.355	369.88
354.583	378.88
354.81	363.88
355.037	369.88
355.264	370.88
355.491	374.88
355.718	370.88
355.945	384.88
356.172	353.88
356.399	371.88
356.626	365.88
356.853	377.88
357.08	375.88
357.307	380.88
357.534	374.88
357.761	372.88
357.988	366.88
358.215	381.88
358.441	369.88
358.668	391.88
358.895	378.88
359.122	396.88
359.349	385.88
359.576	403.88
359.802	397.88
360.029	423.88
360.256	433.88
360.483	427.88
360.709	399.88
360.936	403.88
361.163	393.88
361.39	394.88
361.616	403.88
361.843	379.88
362.07	387.88
362.296	391.88
362.523	385.88
362.749	386.88
362.976	399.88
363.203	401.88
363.429	379.88
363.656	371.88
363.882	387.88
364.109	391.88
364.335	405.88
364.562	377.88
364.788	375.88
365.015	403.88
365.241	377.88
365.468	370.88
365.694	393.88
365.92	379.88
366.147	389.88
366.373	372.88
366.599	385.88
366.826	373.88
367.052	391.88
367.278	388.88
367.505	374.88
367.731	389.88
367.957	361.88
368.184	381.88
368.41	393.88
368.636	386.88
368.862	390.88
369.089	398.88
369.315	374.88
369.541	382.88
369.767	429.88
369.993	379.88
370.219	388.88
370.445	382.88
370.672	383.88
370.898	400.88
371.124	379.88
371.35	388.88
371.576	412.88
371.802	393.88
372.028	409.88
372.254	400.88
372.48	400.88
372.706	391.88
372.932	407.88
373.158	416.88
373.384	402.88
373.61	389.88
373.835	409.88
374.061	379.88
374.287	403.88
374.513	397.88
374.739	395.88
374.965	418.88
375.191	428.88
375.416	417.88
375.642	426.88
375.868	438.88
376.094	401.88
376.319	380.88
376.545	403.88
376.771	397.88
376.997	407.88
377.222	405.88
377.448	410.88
377.674	409.88
377.899	386.88
378.125	426.88
378.35	389.88
378.576	388.88
378.802	366.88
379.027	382.88
379.253	403.88
379.478	389.88
379.704	381.88
379.929	399.88
380.155	403.88
380.38	416.88
380.606	383.88
380.831	393.88
381.057	408.88
381.282	395.88
381.507	412.88
381.733	394.88
381.958	416.88
382.184	402.88
382.409	398.88
382.634	401.88
382.86	397.88
383.085	410.88
383.31	408.88
383.535	414.88
383.761	421.88
383.986	422.88
384.211	416.88
384.436	434.88
384.662	445.88
384.887	441.88
385.112	454.88
385.337	463.88
385.562	452.88
385.787	438.88
386.013	463.88
386.238	454.88
386.463	431.88
386.688	452.88
386.913	454.88
387.138	434.88
387.363	454.88
387.588	440.88
387.813	451.88
388.038	437.88
388.263	443.88
388.488	449.88
388.713	451.88
388.938	454.88
389.163	447.88
389.387	433.88
389.612	447.88
389.837	433.88
390.062	445.88
390.287	434.88
390.512	428.88
390.736	440.88
390.961	455.88
391.186	434.88
391.411	438.88
391.636	484.88
391.86	450.88
392.085	446.88
392.31	478.88
392.534	461.88
392.759	474.88
392.984	444.88
393.208	463.88
393.433	466.88
393.658	452.88
393.882	455.88
394.107	431.88
394.331	443.88
394.556	447.88
394.78	456.88
395.005	462.88
395.229	452.88
395.454	471.88
395.678	469.88
395.903	482.88
396.127	503.88
396.352	490.88
396.576	458.88
396.801	445.88
397.025	460.88
397.249	480.88
397.474	453.88
397.698	493.88
397.922	477.88
398.147	501.88
398.371	500.88
398.595	509.88
398.82	530.88
399.044	517.88
399.268	592.88
399.492	621.88
399.717	661.88
399.941	680.88
400.165	662.88
400.389	686.88
400.613	609.88
400.837	539.88
401.062	538.88
401.286	519.88
401.51	515.88
401.734	519.88
401.958	508.88
402.182	529.88
402.406	524.88
402.63	530.88
402.854	536.88
403.078	541.88
403.302	566.88
403.526	551.88
403.75	562.88
403.974	558.88
404.198	573.88
404.422	566.88
404.645	549.88
404.869	545.88
405.093	579.88
405.317	618.88
405.541	630.88
405.765	579.88
405.988	582.88
406.212	573.88
406.436	573.88
406.66	575.88
406.883	585.88
407.107	595.88
407.331	636.88
407.555	725.88
407.778	712.88
408.002	639.88
408.226	617.88
408.449	598.88
408.673	595.88
408.896	614.88
409.12	619.88
409.344	606.88
409.567	565.88
409.791	569.88
410.014	556.88
410.238	541.88
410.461	546.88
410.685	568.88
410.908	561.88
411.132	590.88
411.355	610.88
411.578	570.88
411.802	550.88
412.025	533.88
412.249	552.88
412.472	561.88
412.695	575.88
412.919	554.88
413.142	553.88
413.365	536.88
413.589	546.88
413.812	509.88
414.035	536.88
414.258	527.88
414.482	514.88
414.705	525.88
414.928	525.88
415.151	503.88
415.374	509.88
415.597	524.88
415.821	515.88
416.044	515.88
416.267	507.88
416.49	518.88
416.713	481.88
416.936	505.88
417.159	529.88
417.382	501.88
417.605	514.88
417.828	535.88
418.051	533.88
418.274	511.88
418.497	536.88
418.72	517.88
418.943	485.88
419.166	536.88
419.389	571.88
419.611	571.88
419.834	536.88
420.057	559.88
420.28	547.88
420.503	541.88
420.726	528.88
420.948	533.88
421.171	558.88
421.394	564.88
421.617	524.88
421.839	511.88
422.062	511.88
422.285	522.88
422.507	572.88
422.73	595.88
422.953	609.88
423.175	553.88
423.398	561.88
423.621	547.88
423.843	570.88
424.066	565.88
424.288	541.88
424.511	582.88
424.733	589.88
424.956	644.88
425.178	647.88
425.401	643.88
425.623	659.88
425.846	577.88
426.068	555.88
426.291	527.88
426.513	535.88
426.735	545.88
426.958	574.88
427.18	610.88
427.402	730.88
427.625	818.88
427.847	673.88
428.069	597.88
428.292	559.88
428.514	502.88
428.736	508.88
428.958	502.88
429.181	493.88
429.403	479.88
429.625	492.88
429.847	510.88
430.069	582.88
430.292	563.88
430.514	518.88
430.736	484.88
430.958	479.88
431.18	494.88
431.402	473.88
431.624	461.88
431.846	482.88
432.068	470.88
432.29	478.88
432.512	481.88
432.734	482.88
432.956	471.88
433.178	494.88
433.4	500.88
433.622	488.88
433.844	505.88
434.066	486.88
434.287	487.88
434.509	489.88
434.731	495.88
434.953	534.88
435.175	533.88
435.397	546.88
435.618	528.88
435.84	548.88
436.062	633.88
436.284	663.88
436.505	569.88
436.727	531.88
436.949	495.88
437.17	504.88
437.392	484.88
437.614	491.88
437.835	508.88
438.057	585.88
438.278	672.88
438.5	652.88
438.721	723.88
438.943	702.88
439.165	563.88
439.386	542.88
439.608	525.88
439.829	528.88
440.05	529.88
440.272	565.88
440.493	550.88
440.715	501.88
440.936	509.88
441.158	513.88
441.379	521.88
441.6	548.88
441.822	519.88
442.043	565.88
442.264	613.88
442.486	661.88
442.707	595.88
442.928	542.88
443.149	554.88
443.371	561.88
443.592	598.88
443.813	669.88
444.034	707.88
444.255	615.88
444.476	593.88
444.698	588.88
444.919	582.88
445.14	654.88
445.361	606.88
445.582	582.88
445.803	575.88
446.024	666.88
446.245	687.88
446.466	622.88
446.687	550.88
446.908	508.88
447.129	505.88
447.35	486.88
447.571	476.88
447.792	494.88
448.013	490.88
448.234	495.88
448.455	517.88
448.675	617.88
448.896	714.88
449.117	594.88
449.338	569.88
449.559	631.88
449.779	733.88
450	618.88
450.221	505.88
450.442	494.88
450.662	443.88
450.883	463.88
451.104	479.88
451.324	454.88
451.545	466.88
451.766	454.88
451.986	433.88
452.207	450.88
452.428	426.88
452.648	424.88
452.869	423.88
453.089	412.88
453.31	449.88
453.53	442.88
453.751	426.88
453.971	440.88
454.192	450.88
454.412	427.88
454.633	425.88
454.853	437.88
455.073	425.88
455.294	451.88
455.514	478.88
455.734	492.88
455.955	445.88
456.175	406.88
456.395	414.88
456.616	419.88
456.836	421.88
457.056	414.88
457.276	416.88
457.497	422.88
457.717	418.88
457.937	424.88
458.157	435.88
458.377	427.88
458.598	447.88
458.818	493.88
459.038	539.88
459.258	541.88
459.478	515.88
459.698	493.88
459.918	468.88
460.138	485.88
460.358	515.88
460.578	528.88
460.798	516.88
461.018	517.88
461.238	513.88
461.458	511.88
461.678	519.88
461.898	524.88
462.118	528.88
462.338	530.88
462.558	538.88
462.777	534.88
462.997	587.88
463.217	621.88
463.437	595.88
463.657	581.88
463.876	558.88
464.096	562.88
464.316	558.88
464.536	567.88
464.755	557.88
464.975	530.88
465.195	540.88
465.414	557.88
465.634	535.88
465.854	505.88
466.073	476.88
466.293	475.88
466.512	471.88
466.732	484.88
466.951	467.88
467.171	446.88
467.391	447.88
467.61	460.88
467.829	464.88
468.049	444.88
468.268	460.88
468.488	455.88
468.707	463.88
468.927	454.88
469.146	471.88
469.365	445.88
469.585	450.88
469.804	476.88
470.023	469.88
470.243	490.88
470.462	465.88
470.681	469.88
470.901	474.88
471.12	474.88
471.339	463.88
471.558	461.88
471.777	455.88
471.997	459.88
472.216	463.88
472.435	477.88
472.654	463.88
472.873	447.88
473.092	450.88
473.311	455.88
473.53	462.88
473.749	470.88
473.968	500.88
474.187	541.88
474.406	558.88
474.625	486.88
474.844	462.88
475.063	461.88
475.282	471.88
475.501	483.88
475.72	484.88
475.939	479.88
476.158	457.88
476.377	453.88
476.596	458.88
476.814	492.88
477.033	469.88
477.252	510.88
477.471	492.88
477.69	489.88
477.908	505.88
478.127	510.88
478.346	499.88
478.564	526.88
478.783	510.88
479.002	522.88
479.22	533.88
479.439	551.88
479.658	546.88
479.876	541.88
480.095	573.88
480.313	570.88
480.532	567.88
480.751	564.88
480.969	561.88
481.188	579.88
481.406	595.88
481.624	579.88
481.843	557.88
482.061	535.88
482.28	553.88
482.498	555.88
482.717	527.88
482.935	514.88
483.153	526.88
483.372	532.88
483.59	535.88
483.808	529.88
484.027	521.88
484.245	516.88
484.463	526.88
484.681	548.88
484.9	541.88
485.118	554.88
485.336	539.88
485.554	548.88
485.772	556.88
485.99	547.88
486.209	574.88
486.427	587.88
486.645	581.88
486.863	571.88
487.081	575.88
487.299	562.88
487.517	562.88
487.735	555.88
487.953	585.88
488.171	568.88
488.389	553.88
488.607	564.88
488.825	561.88
489.043	559.88
489.261	565.88
489.479	565.88
489.696	582.88
489.914	573.88
490.132	581.88
490.35	589.88
490.568	576.88
490.786	616.88
491.003	582.88
491.221	613.88
491.439	617.88
491.657	613.88
491.874	637.88
492.092	645.88
492.31	645.88
492.527	641.88
492.745	643.88
492.963	650.88
493.18	633.88
493.398	645.88
493.615	678.88
493.833	637.88
494.05	656.88
494.268	678.88
494.485	659.88
494.703	645.88
494.92	647.88
495.138	627.88
495.355	651.88
495.573	660.88
495.79	671.88
496.008	666.88
496.225	636.88
496.442	678.88
496.66	680.88
496.877	647.88
497.094	662.88
497.312	651.88
497.529	711.88
497.746	686.88
497.963	718.88
498.181	742.88
498.398	740.88
498.615	770.88
498.832	793.88
499.049	812.88
499.267	858.88
499.484	893.88
499.701	959.88
499.918	1012.88
500.135	1086.88
500.352	1125.88
500.569	1187.88
500.786	1169.88
501.003	1139.88
501.22	1091.88
501.437	1028.88
501.654	955.88
501.871	912.88
502.088	855.88
502.305	844.88
502.522	797.88
502.739	795.88
502.956	779.88
503.172	738.88
503.389	709.88
503.606	717.88
503.823	703.88
504.04	694.88
504.256	707.88
504.473	708.88
504.69	686.88
504.907	693.88
505.123	685.88
505.34	655.88
505.557	646.88
505.773	622.88
505.99	614.88
506.207	615.88
506.423	629.88
506.64	637.88
506.856	613.88
507.073	611.88
507.289	602.88
507.506	579.88
507.722	611.88
507.939	587.88
508.155	581.88
508.372	572.88
508.588	571.88
508.805	582.88
509.021	585.88
509.238	583.88
509.454	606.88
509.67	601.88
509.887	574.88
510.103	555.88
510.319	590.88
510.536	633.88
510.752	779.88
510.968	670.88
511.184	553.88
511.401	549.88
511.617	531.88
511.833	535.88
512.049	550.88
512.265	541.88
512.481	519.88
512.698	522.88
512.914	533.88
513.13	537.88
513.346	558.88
513.562	527.88
513.778	532.88
513.994	544.88
514.21	541.88
514.426	536.88
514.642	550.88
514.858	579.88
515.074	604.88
515.29	645.88
515.506	771.88
515.721	698.88
515.937	610.88
516.153	577.88
516.369	562.88
516.585	579.88
516.801	577.88
517.016	593.88
517.232	615.88
517.448	618.88
517.664	641.88
517.879	615.88
518.095	623.88
518.311	602.88
518.527	585.88
518.742	583.88
518.958	591.88
519.173	579.88
519.389	573.88
519.605	565.88
519.82	569.88
520.036	575.88
520.251	559.88
520.467	562.88
520.682	549.88
520.898	571.88
521.113	563.88
521.329	564.88
521.544	589.88
521.76	654.88
521.975	889.88
522.19	886.88
522.406	616.88
522.621	537.88
522.836	521.88
523.052	534.88
523.267	480.88
523.482	492.88
523.698	503.88
523.913	492.88
524.128	492.88
524.343	506.88
524.559	485.88
524.774	476.88
524.989	468.88
525.204	484.88
525.419	471.88
525.634	484.88
525.849	461.88
526.064	481.88
526.28	489.88
526.495	438.88
526.71	445.88
526.925	434.88
527.14	443.88
527.355	452.88
527.57	461.88
527.785	484.88
527.999	471.88
528.214	461.88
528.429	453.88
528.644	463.88
528.859	471.88
529.074	461.88
529.289	477.88
529.503	498.88
529.718	510.88
529.933	477.88
530.148	461.88
530.363	469.88
530.577	464.88
530.792	453.88
531.007	463.88
531.221	475.88
531.436	462.88
531.651	451.88
531.865	438.88
532.08	438.88
532.295	455.88
532.509	445.88
532.724	456.88
532.938	448.88
533.153	427.88
533.367	458.88
533.582	438.88
533.796	457.88
534.011	439.88
534.225	459.88
534.44	462.88
534.654	428.88
534.868	433.88
535.083	454.88
535.297	435.88
535.511	451.88
535.726	432.88
535.94	450.88
536.154	438.88
536.369	443.88
536.583	442.88
536.797	444.88
537.011	442.88
537.225	427.88
537.44	427.88
537.654	458.88
537.868	434.88
538.082	452.88
538.296	449.88
538.51	429.88
538.724	434.88
538.938	433.88
539.153	414.88
539.367	424.88
539.581	419.88
539.795	416.88
540.009	415.88
540.222	439.88
540.436	418.88
540.65	447.88
540.864	439.88
541.078	442.88
541.292	429.88
541.506	442.88
541.72	446.88
541.934	434.88
542.147	440.88
542.361	434.88
542.575	430.88
542.789	427.88
543.002	424.88
543.216	435.88
543.43	435.88
543.644	449.88
543.857	411.88
544.071	459.88
544.285	451.88
544.498	461.88
544.712	449.88
544.925	435.88
545.139	421.88
545.352	425.88
545.566	413.88
545.779	447.88
545.993	436.88
546.206	449.88
546.42	423.88
546.633	447.88
546.847	449.88
547.06	414.88
547.274	433.88
547.487	419.88
547.7	437.88
547.914	428.88
548.127	399.88
548.34	427.88
548.554	442.88
548.767	433.88
548.98	426.88
549.193	446.88
549.407	448.88
549.62	405.88
549.833	430.88
550.046	440.88
550.259	439.88
550.473	415.88
550.686	429.88
550.899	426.88
551.112	413.88
551.325	426.88
551.538	429.88
551.751	421.88
551.964	442.88
552.177	433.88
552.39	457.88
552.603	428.88
552.816	427.88
553.029	438.88
553.242	447.88
553.455	434.88
553.667	460.88
553.88	467.88
554.093	435.88
554.306	448.88
554.519	463.88
554.732	454.88
554.944	415.88
555.157	414.88
555.37	407.88
555.583	409.88
555.795	414.88
556.008	421.88
556.221	407.88
556.433	393.88
556.646	381.88
556.859	403.88
557.071	381.88
557.284	397.88
557.496	390.88
557.709	381.88
557.921	381.88
558.134	393.88
558.346	407.88
558.559	375.88
558.771	392.88
558.984	375.88
559.196	371.88
559.409	366.88
559.621	386.88
559.833	385.88
560.046	374.88
560.258	378.88
560.47	373.88
560.683	377.88
560.895	372.88
561.107	371.88
561.32	368.88
561.532	383.88
561.744	386.88
561.956	377.88
562.168	371.88
562.381	377.88
562.593	386.88
562.805	391.88
563.017	385.88
563.229	405.88
563.441	385.88
563.653	416.88
563.865	404.88
564.077	402.88
564.289	389.88
564.501	405.88
564.713	400.88
564.925	406.88
565.137	427.88
565.349	432.88
565.561	425.88
565.773	429.88
565.985	449.88
566.197	481.88
566.408	474.88
566.62	515.88
566.832	516.88
567.044	534.88
567.255	517.88
567.467	529.88
567.679	547.88
567.891	578.88
568.102	583.88
568.314	564.88
568.526	516.88
568.737	520.88
568.949	487.88
569.161	469.88
569.372	435.88
569.584	437.88
569.795	420.88
570.007	403.88
570.218	427.88
570.43	390.88
570.641	407.88
570.853	395.88
571.064	391.88
571.276	392.88
571.487	398.88
571.698	376.88
571.91	362.88
572.121	355.88
572.333	347.88
572.544	363.88
572.755	367.88
572.966	341.88
573.178	344.88
573.389	336.88
573.6	339.88
573.811	345.88
574.023	335.88
574.234	327.88
574.445	351.88
574.656	332.88
574.867	333.88
575.078	352.88
575.289	320.88
575.501	333.88
575.712	317.88
575.923	323.88
576.134	323.88
576.345	341.88
576.556	330.88
576.767	309.88
576.978	318.88
577.188	313.88
577.399	310.88
577.61	323.88
577.821	310.88
578.032	311.88
578.243	319.88
578.454	394.88
578.665	335.88
578.875	315.88
579.086	312.88
579.297	317.88
579.508	313.88
579.718	301.88
579.929	333.88
580.14	310.88
580.35	289.88
580.561	308.88
580.772	300.88
580.982	309.88
581.193	298.88
581.403	298.88
581.614	315.88
581.825	302.88
582.035	289.88
582.246	291.88
582.456	310.88
582.667	286.88
582.877	286.88
583.087	287.88
583.298	278.88
583.508	309.88
583.719	298.88
583.929	284.88
584.139	294.88
584.35	294.88
584.56	298.88
584.77	292.88
584.981	282.88
585.191	309.88
585.401	279.88
585.611	296.88
585.821	299.88
586.032	302.88
586.242	287.88
586.452	311.88
586.662	305.88
586.872	277.88
587.082	289.88
587.292	303.88
587.502	301.88
587.713	286.88
587.923	297.88
588.133	279.88
588.343	311.88
588.553	305.88
588.762	304.88
588.972	298.88
589.182	287.88
589.392	306.88
589.602	300.88
589.812	283.88
590.022	310.88
590.232	306.88
590.441	306.88
590.651	305.88
590.861	292.88
591.071	307.88
591.281	298.88
591.49	305.88
591.7	323.88
591.91	304.88
592.119	306.88
592.329	314.88
592.539	330.88
592.748	330.88
592.958	335.88
593.167	331.88
593.377	325.88
593.587	346.88
593.796	335.88
594.006	341.88
594.215	347.88
594.424	339.88
594.634	314.88
594.843	331.88
595.053	331.88
595.262	317.88
595.472	297.88
595.681	297.88
595.89	301.88
596.1	292.88
596.309	292.88
596.518	277.88
596.727	291.88
596.937	289.88
597.146	271.88
597.355	275.88
597.564	268.88
597.774	267.88
597.983	281.88
598.192	269.88
598.401	249.88
598.61	271.88
598.819	252.88
599.028	267.88
599.237	250.88
599.446	279.88
599.655	269.88
599.864	272.88
600.073	255.88
600.282	250.88
600.491	267.88
600.7	247.88
600.909	244.88
601.118	250.88
601.327	258.88
601.536	247.88
601.745	251.88
601.953	254.88
602.162	263.88
602.371	249.88
602.58	263.88
602.789	248.88
602.997	247.88
603.206	247.88
603.415	238.88
603.623	247.88
603.832	261.88
604.041	253.88
604.249	260.88
604.458	258.88
604.666	234.88
604.875	223.88
605.084	249.88
605.292	249.88
605.501	245.88
605.709	250.88
605.918	255.88
606.126	259.88
606.334	255.88
606.543	257.88
606.751	245.88
606.96	247.88
607.168	241.88
607.376	244.88
607.585	248.88
607.793	239.88
608.001	241.88
608.21	245.88
608.418	220.88
608.626	239.88
608.834	234.88
609.043	257.88
609.251	241.88
609.459	246.88
609.667	230.88
609.875	251.88
610.083	235.88
610.291	245.88
610.499	263.88
610.707	250.88
610.916	234.88
611.124	249.88
611.332	253.88
611.54	248.88
611.748	227.88
611.955	238.88
612.163	227.88
612.371	252.88
612.579	253.88
612.787	227.88
612.995	235.88
613.203	234.88
613.411	217.88
613.618	219.88
613.826	241.88
614.034	255.88
614.242	249.88
614.449	227.88
614.657	231.88
614.865	244.88
615.072	242.88
615.28	223.88
615.488	250.88
615.695	235.88
615.903	221.88
616.111	243.88
616.318	246.88
616.526	250.88
616.733	231.88
616.941	233.88
617.148	235.88
617.356	235.88
617.563	246.88
617.771	243.88
617.978	242.88
618.185	234.88
618.393	227.88
618.6	238.88
618.807	243.88
619.015	238.88
619.222	237.88
619.429	216.88
619.637	221.88
619.844	247.88
620.051	207.88
620.258	230.88
620.466	219.88
620.673	221.88
620.88	243.88
621.087	228.88
621.294	215.88
621.501	209.88
621.708	207.88
621.915	222.88
622.122	218.88
622.329	230.88
622.536	219.88
622.743	221.88
622.95	229.88
623.157	216.88
623.364	221.88
623.571	226.88
623.778	213.88
623.985	217.88
624.192	216.88
624.399	206.88
624.606	204.88
624.812	212.88
625.019	206.88
625.226	199.88
625.433	232.88
625.639	203.88
625.846	212.88
626.053	209.88
626.259	200.88
626.466	208.88
626.673	213.88
626.879	195.88
627.086	212.88
627.293	211.88
627.499	210.88
627.706	215.88
627.912	204.88
628.119	201.88
628.325	203.88
628.532	210.88
628.738	186.88
628.945	212.88
629.151	213.88
629.357	202.88
629.564	201.88
629.77	194.88
629.976	197.88
630.183	180.88
630.389	188.88
630.595	194.88
630.802	193.88
631.008	194.88
631.214	205.88
631.42	206.88
631.627	205.88
631.833	187.88
632.039	188.88
632.245	178.88
632.451	204.88
632.657	198.88
632.863	193.88
633.069	193.88
633.275	175.88
633.481	185.88
633.688	180.88
633.893	193.88
634.099	209.88
634.305	199.88
634.511	183.88
634.717	202.88
634.923	189.88
635.129	171.88
635.335	181.88
635.541	193.88
635.747	185.88
635.952	181.88
636.158	192.88
636.364	195.88
636.57	193.88
636.775	182.88
636.981	166.88
637.187	185.88
637.392	181.88
637.598	173.88
637.804	183.88
638.009	169.88
638.215	176.88
638.421	181.88
638.626	170.88
638.832	177.88
639.037	188.88
639.243	185.88
639.448	169.88
639.654	176.88
639.859	181.88
640.065	166.88
640.27	173.88
640.475	173.88
640.681	195.88
640.886	173.88
641.091	191.88
641.297	188.88
641.502	177.88
641.707	184.88
641.913	178.88
642.118	164.88
642.323	179.88
642.528	165.88
642.733	162.88
642.939	177.88
643.144	165.88
643.349	169.88
643.554	166.88
643.759	167.88
643.964	168.88
644.169	170.88
644.374	167.88
644.579	162.88
644.784	159.88
644.989	170.88
645.194	168.88
645.399	148.88
645.604	156.88
645.809	161.88
646.014	168.88
646.219	163.88
646.423	164.88
646.628	177.88
646.833	179.88
647.038	174.88
647.243	172.88
647.447	159.88
647.652	174.88
647.857	172.88
648.062	178.88
648.266	169.88
648.471	172.88
648.676	181.88
648.88	180.88
649.085	171.88
649.289	180.88
649.494	171.88
649.698	176.88
649.903	185.88
650.107	158.88
650.312	162.88
650.516	160.88
650.721	170.88
650.925	156.88
651.13	149.88
651.334	155.88
651.539	149.88
651.743	135.88
651.947	144.88
652.152	155.88
652.356	150.88
652.56	141.88
652.764	149.88
652.969	153.88
653.173	142.88
653.377	127.88
653.581	157.88
653.785	136.88
653.99	145.88
654.194	129.88
654.398	146.88
654.602	140.88
654.806	156.88
655.01	140.88
655.214	141.88
655.418	152.88
655.622	137.88
655.826	132.88
656.03	141.88
656.234	140.88
656.438	149.88
656.642	137.88
656.846	157.88
657.049	131.88
657.253	132.88
657.457	120.88
657.661	133.88
657.865	121.88
658.068	120.88
658.272	129.88
658.476	92.88
658.68	123.88
658.883	101.88
659.087	95.88
659.291	106.88
659.494	104.88
659.698	95.88
659.901	96.88
660.105	104.88
660.309	98.88
660.512	89.88
660.716	90.88
660.919	83.88
661.123	92.88
661.326	98.88
661.53	99.88
661.733	84.88
661.936	96.88
662.14	84.88
662.343	86.88
662.546	90.88
662.75	75.88
662.953	87.88
663.156	85.88
663.36	80.88
663.563	85.88
663.766	84.88
663.969	76.88
664.173	101.88
664.376	88.88
664.579	78.88
664.782	85.88
664.985	83.88
665.188	83.88
665.391	79.88
665.594	61.88
665.797	74.88
666	61.88
666.203	70.88
666.406	67.88
666.609	82.88
666.812	85.88
667.015	95.88
667.218	71.88
667.421	78.88
667.624	87.88
667.827	85.88
668.03	87.88
668.232	87.88
668.435	76.88
668.638	77.88
668.841	66.88
669.043	67.88
669.246	68.88
669.449	95.88
669.651	89.88
669.854	80.88
670.057	74.88
670.259	76.88
670.462	67.88
670.665	78.88
670.867	83.88
671.07	99.88
671.272	100.88
671.475	89.88
671.677	86.88
671.88	68.88
672.082	70.88
672.284	73.88
672.487	84.88
672.689	65.88
672.892	90.88
