Data from 1973.PennyLincolnUp.Lamp.En5.5.200Scan.071719.P1.Changed Mount._HRD10591_15-44-40-852.txt Node
Date: Thu Jul 18 15:44:40 EDT 2019
User: cochatt
Spectrometer: HR+D1059
Trigger mode: 1
Integration Time (sec): 1.000000E-1
Scans to average: 1
Electric dark correction enabled: true
Nonlinearity correction enabled: false
Boxcar width: 0
XAxis mode: Wavelengths
Number of Pixels in Spectrum: 2048
>>>>>Begin Spectral Data<<<<<
223.165	-6.19
223.4	-6.19
223.635	-6.19
223.869	-18.19
224.104	-21.19
224.338	-22.19
224.573	-28.19
224.808	-3.19
225.042	-2.19
225.277	-1.19
225.511	5.81
225.746	-7.19
225.98	-7.19
226.215	28.81
226.449	9.81
226.683	14.81
226.918	28.81
227.152	28.81
227.387	31.81
227.621	50.81
227.856	38.81
228.09	49.81
228.324	53.81
228.559	49.81
228.793	66.81
229.027	95.81
229.262	118.81
229.496	114.81
229.73	106.81
229.964	133.81
230.199	119.81
230.433	117.81
230.667	108.81
230.901	104.81
231.136	113.81
231.37	98.81
231.604	105.81
231.838	101.81
232.072	121.81
232.306	120.81
232.541	115.81
232.775	116.81
233.009	115.81
233.243	113.81
233.477	120.81
233.711	123.81
233.945	120.81
234.179	98.81
234.413	122.81
234.647	124.81
234.881	123.81
235.115	124.81
235.349	116.81
235.583	122.81
235.817	121.81
236.051	114.81
236.285	130.81
236.519	122.81
236.753	129.81
236.987	149.81
237.221	174.81
237.455	216.81
237.689	165.81
237.922	139.81
238.156	145.81
238.39	130.81
238.624	141.81
238.858	119.81
239.091	117.81
239.325	127.81
239.559	131.81
239.793	126.81
240.027	130.81
240.26	129.81
240.494	147.81
240.728	146.81
240.961	150.81
241.195	147.81
241.429	140.81
241.662	141.81
241.896	130.81
242.13	143.81
242.363	148.81
242.597	145.81
242.83	144.81
243.064	145.81
243.298	148.81
243.531	134.81
243.765	135.81
243.998	141.81
244.232	141.81
244.465	156.81
244.699	158.81
244.932	146.81
245.166	158.81
245.399	148.81
245.633	163.81
245.866	161.81
246.099	150.81
246.333	148.81
246.566	153.81
246.8	151.81
247.033	166.81
247.266	154.81
247.5	133.81
247.733	174.81
247.966	180.81
248.2	172.81
248.433	171.81
248.666	173.81
248.899	188.81
249.133	199.81
249.366	198.81
249.599	203.81
249.832	187.81
250.066	188.81
250.299	187.81
250.532	188.81
250.765	205.81
250.998	232.81
251.231	223.81
251.465	196.81
251.698	193.81
251.931	193.81
252.164	203.81
252.397	204.81
252.63	189.81
252.863	202.81
253.096	205.81
253.329	227.81
253.562	214.81
253.795	223.81
254.028	207.81
254.261	218.81
254.494	226.81
254.727	245.81
254.96	283.81
255.193	274.81
255.426	247.81
255.659	214.81
255.892	214.81
256.124	223.81
256.357	231.81
256.59	222.81
256.823	222.81
257.056	203.81
257.289	214.81
257.521	225.81
257.754	221.81
257.987	212.81
258.22	206.81
258.452	219.81
258.685	196.81
258.918	211.81
259.151	210.81
259.383	212.81
259.616	227.81
259.849	226.81
260.081	240.81
260.314	263.81
260.547	255.81
260.779	242.81
261.012	246.81
261.244	230.81
261.477	222.81
261.71	218.81
261.942	219.81
262.175	235.81
262.407	223.81
262.64	219.81
262.872	230.81
263.105	226.81
263.337	224.81
263.57	221.81
263.802	232.81
264.035	214.81
264.267	237.81
264.499	226.81
264.732	233.81
264.964	212.81
265.197	221.81
265.429	214.81
265.661	230.81
265.894	242.81
266.126	237.81
266.358	224.81
266.591	203.81
266.823	239.81
267.055	242.81
267.287	255.81
267.52	214.81
267.752	221.81
267.984	233.81
268.216	246.81
268.448	251.81
268.681	272.81
268.913	226.81
269.145	275.81
269.377	285.81
269.609	282.81
269.841	277.81
270.073	269.81
270.306	296.81
270.538	295.81
270.77	314.81
271.002	317.81
271.234	300.81
271.466	298.81
271.698	315.81
271.93	323.81
272.162	313.81
272.394	314.81
272.626	305.81
272.858	312.81
273.09	306.81
273.322	287.81
273.553	282.81
273.785	282.81
274.017	272.81
274.249	290.81
274.481	270.81
274.713	273.81
274.945	270.81
275.176	264.81
275.408	273.81
275.64	285.81
275.872	269.81
276.104	281.81
276.335	289.81
276.567	283.81
276.799	282.81
277.031	314.81
277.262	304.81
277.494	317.81
277.726	302.81
277.957	298.81
278.189	283.81
278.421	300.81
278.652	283.81
278.884	285.81
279.115	287.81
279.347	291.81
279.579	296.81
279.81	288.81
280.042	283.81
280.273	278.81
280.505	297.81
280.736	299.81
280.968	310.81
281.199	289.81
281.431	290.81
281.662	309.81
281.894	287.81
282.125	308.81
282.356	307.81
282.588	305.81
282.819	308.81
283.051	294.81
283.282	307.81
283.513	301.81
283.745	306.81
283.976	315.81
284.207	309.81
284.439	328.81
284.67	304.81
284.901	302.81
285.132	319.81
285.364	316.81
285.595	319.81
285.826	305.81
286.057	309.81
286.288	306.81
286.52	317.81
286.751	297.81
286.982	318.81
287.213	316.81
287.444	299.81
287.675	318.81
287.906	328.81
288.138	329.81
288.369	319.81
288.6	318.81
288.831	331.81
289.062	322.81
289.293	327.81
289.524	325.81
289.755	317.81
289.986	313.81
290.217	318.81
290.448	315.81
290.679	330.81
290.91	325.81
291.141	322.81
291.371	315.81
291.602	308.81
291.833	329.81
292.064	322.81
292.295	326.81
292.526	314.81
292.757	317.81
292.987	325.81
293.218	318.81
293.449	306.81
293.68	334.81
293.91	329.81
294.141	335.81
294.372	325.81
294.603	330.81
294.833	317.81
295.064	325.81
295.295	323.81
295.525	300.81
295.756	332.81
295.987	337.81
296.217	349.81
296.448	357.81
296.679	325.81
296.909	341.81
297.14	335.81
297.37	324.81
297.601	338.81
297.831	314.81
298.062	325.81
298.292	331.81
298.523	338.81
298.753	346.81
298.984	334.81
299.214	326.81
299.445	334.81
299.675	333.81
299.905	332.81
300.136	337.81
300.366	345.81
300.597	359.81
300.827	343.81
301.057	381.81
301.288	371.81
301.518	365.81
301.748	361.81
301.979	362.81
302.209	355.81
302.439	350.81
302.669	349.81
302.9	380.81
303.13	365.81
303.36	354.81
303.59	359.81
303.82	371.81
304.051	359.81
304.281	375.81
304.511	360.81
304.741	357.81
304.971	360.81
305.201	357.81
305.431	367.81
305.661	359.81
305.891	368.81
306.121	349.81
306.352	370.81
306.582	380.81
306.812	365.81
307.042	382.81
307.272	350.81
307.502	349.81
307.731	362.81
307.961	357.81
308.191	334.81
308.421	360.81
308.651	365.81
308.881	346.81
309.111	364.81
309.341	376.81
309.571	373.81
309.8	369.81
310.03	372.81
310.26	399.81
310.49	361.81
310.72	369.81
310.949	405.81
311.179	407.81
311.409	395.81
311.639	397.81
311.868	393.81
312.098	402.81
312.328	404.81
312.557	396.81
312.787	410.81
313.017	414.81
313.246	378.81
313.476	391.81
313.706	391.81
313.935	399.81
314.165	395.81
314.394	418.81
314.624	405.81
314.853	403.81
315.083	408.81
315.312	407.81
315.542	403.81
315.771	402.81
316.001	389.81
316.23	392.81
316.46	387.81
316.689	386.81
316.919	423.81
317.148	408.81
317.377	396.81
317.607	403.81
317.836	385.81
318.065	383.81
318.295	401.81
318.524	417.81
318.753	413.81
318.983	397.81
319.212	396.81
319.441	388.81
319.67	390.81
319.9	395.81
320.129	399.81
320.358	399.81
320.587	397.81
320.816	399.81
321.046	393.81
321.275	392.81
321.504	400.81
321.733	418.81
321.962	420.81
322.191	412.81
322.42	433.81
322.649	441.81
322.878	461.81
323.108	441.81
323.337	473.81
323.566	480.81
323.795	473.81
324.024	506.81
324.253	589.81
324.482	741.81
324.71	1062.81
324.939	1495.81
325.168	1327.81
325.397	742.81
325.626	566.81
325.855	486.81
326.084	483.81
326.313	494.81
326.542	459.81
326.77	491.81
326.999	537.81
327.228	686.81
327.457	971.81
327.686	1153.81
327.914	818.81
328.143	611.81
328.372	556.81
328.6	523.81
328.829	509.81
329.058	517.81
329.287	528.81
329.515	501.81
329.744	471.81
329.972	471.81
330.201	537.81
330.43	521.81
330.658	524.81
330.887	531.81
331.115	526.81
331.344	507.81
331.572	505.81
331.801	487.81
332.03	489.81
332.258	476.81
332.486	498.81
332.715	474.81
332.943	483.81
333.172	502.81
333.4	527.81
333.629	488.81
333.857	498.81
334.085	519.81
334.314	531.81
334.542	565.81
334.771	570.81
334.999	535.81
335.227	518.81
335.455	504.81
335.684	483.81
335.912	502.81
336.14	484.81
336.369	478.81
336.597	461.81
336.825	498.81
337.053	491.81
337.281	463.81
337.51	481.81
337.738	474.81
337.966	482.81
338.194	461.81
338.422	459.81
338.65	478.81
338.878	463.81
339.106	450.81
339.334	481.81
339.562	453.81
339.79	455.81
340.018	456.81
340.246	429.81
340.474	464.81
340.702	461.81
340.93	449.81
341.158	452.81
341.386	450.81
341.614	450.81
341.842	426.81
342.07	427.81
342.298	450.81
342.526	445.81
342.754	424.81
342.981	427.81
343.209	441.81
343.437	453.81
343.665	467.81
343.893	481.81
344.12	493.81
344.348	487.81
344.576	477.81
344.804	461.81
345.031	449.81
345.259	480.81
345.487	458.81
345.714	439.81
345.942	410.81
346.17	442.81
346.397	427.81
346.625	431.81
346.853	429.81
347.08	432.81
347.308	442.81
347.535	422.81
347.763	452.81
347.99	448.81
348.218	434.81
348.445	459.81
348.673	450.81
348.9	453.81
349.128	447.81
349.355	415.81
349.583	410.81
349.81	424.81
350.037	425.81
350.265	433.81
350.492	417.81
350.72	410.81
350.947	442.81
351.174	420.81
351.402	433.81
351.629	417.81
351.856	402.81
352.083	447.81
352.311	435.81
352.538	443.81
352.765	443.81
352.992	403.81
353.22	418.81
353.447	411.81
353.674	411.81
353.901	417.81
354.128	406.81
354.355	413.81
354.583	419.81
354.81	417.81
355.037	406.81
355.264	380.81
355.491	400.81
355.718	398.81
355.945	406.81
356.172	403.81
356.399	407.81
356.626	404.81
356.853	411.81
357.08	388.81
357.307	397.81
357.534	398.81
357.761	402.81
357.988	412.81
358.215	399.81
358.441	422.81
358.668	393.81
358.895	402.81
359.122	420.81
359.349	440.81
359.576	420.81
359.802	440.81
360.029	450.81
360.256	479.81
360.483	440.81
360.709	437.81
360.936	429.81
361.163	412.81
361.39	410.81
361.616	418.81
361.843	414.81
362.07	427.81
362.296	425.81
362.523	407.81
362.749	417.81
362.976	405.81
363.203	405.81
363.429	397.81
363.656	427.81
363.882	417.81
364.109	409.81
364.335	406.81
364.562	414.81
364.788	420.81
365.015	419.81
365.241	425.81
365.468	429.81
365.694	400.81
365.92	424.81
366.147	407.81
366.373	396.81
366.599	439.81
366.826	414.81
367.052	419.81
367.278	426.81
367.505	417.81
367.731	397.81
367.957	409.81
368.184	419.81
368.41	417.81
368.636	429.81
368.862	411.81
369.089	424.81
369.315	408.81
369.541	419.81
369.767	407.81
369.993	420.81
370.219	394.81
370.445	413.81
370.672	407.81
370.898	411.81
371.124	442.81
371.35	433.81
371.576	442.81
371.802	417.81
372.028	437.81
372.254	421.81
372.48	414.81
372.706	414.81
372.932	429.81
373.158	431.81
373.384	429.81
373.61	434.81
373.835	428.81
374.061	423.81
374.287	427.81
374.513	442.81
374.739	429.81
374.965	428.81
375.191	468.81
375.416	443.81
375.642	430.81
375.868	430.81
376.094	430.81
376.319	430.81
376.545	441.81
376.771	412.81
376.997	437.81
377.222	426.81
377.448	407.81
377.674	411.81
377.899	421.81
378.125	426.81
378.35	434.81
378.576	433.81
378.802	428.81
379.027	411.81
379.253	411.81
379.478	418.81
379.704	420.81
379.929	423.81
380.155	420.81
380.38	427.81
380.606	438.81
380.831	446.81
381.057	409.81
381.282	429.81
381.507	443.81
381.733	436.81
381.958	441.81
382.184	427.81
382.409	439.81
382.634	449.81
382.86	440.81
383.085	437.81
383.31	441.81
383.535	440.81
383.761	443.81
383.986	442.81
384.211	454.81
384.436	443.81
384.662	458.81
384.887	471.81
385.112	481.81
385.337	474.81
385.562	476.81
385.787	462.81
386.013	497.81
386.238	484.81
386.463	472.81
386.688	480.81
386.913	470.81
387.138	478.81
387.363	478.81
387.588	494.81
387.813	487.81
388.038	462.81
388.263	468.81
388.488	477.81
388.713	481.81
388.938	461.81
389.163	476.81
389.387	474.81
389.612	456.81
389.837	475.81
390.062	453.81
390.287	472.81
390.512	445.81
390.736	469.81
390.961	484.81
391.186	493.81
391.411	504.81
391.636	511.81
391.86	487.81
392.085	494.81
392.31	477.81
392.534	501.81
392.759	504.81
392.984	510.81
393.208	523.81
393.433	484.81
393.658	478.81
393.882	492.81
394.107	495.81
394.331	490.81
394.556	474.81
394.78	478.81
395.005	517.81
395.229	489.81
395.454	517.81
395.678	529.81
395.903	516.81
396.127	505.81
396.352	506.81
396.576	504.81
396.801	489.81
397.025	483.81
397.249	516.81
397.474	525.81
397.698	532.81
397.922	556.81
398.147	535.81
398.371	542.81
398.595	565.81
398.82	551.81
399.044	571.81
399.268	595.81
399.492	663.81
399.717	734.81
399.941	725.81
400.165	723.81
400.389	706.81
400.613	615.81
400.837	601.81
401.062	566.81
401.286	575.81
401.51	568.81
401.734	556.81
401.958	591.81
402.182	555.81
402.406	576.81
402.63	595.81
402.854	571.81
403.078	586.81
403.302	588.81
403.526	623.81
403.75	585.81
403.974	617.81
404.198	598.81
404.422	607.81
404.645	615.81
404.869	626.81
405.093	629.81
405.317	652.81
405.541	690.81
405.765	643.81
405.988	631.81
406.212	623.81
406.436	619.81
406.66	642.81
406.883	623.81
407.107	649.81
407.331	699.81
407.555	750.81
407.778	744.81
408.002	701.81
408.226	655.81
408.449	636.81
408.673	638.81
408.896	637.81
409.12	670.81
409.344	652.81
409.567	607.81
409.791	602.81
410.014	613.81
410.238	586.81
410.461	580.81
410.685	605.81
410.908	594.81
411.132	619.81
411.355	623.81
411.578	610.81
411.802	573.81
412.025	567.81
412.249	598.81
412.472	626.81
412.695	640.81
412.919	628.81
413.142	573.81
413.365	593.81
413.589	572.81
413.812	568.81
414.035	551.81
414.258	578.81
414.482	553.81
414.705	572.81
414.928	546.81
415.151	565.81
415.374	539.81
415.597	548.81
415.821	572.81
416.044	548.81
416.267	548.81
416.49	535.81
416.713	540.81
416.936	552.81
417.159	540.81
417.382	557.81
417.605	570.81
417.828	557.81
418.051	577.81
418.274	561.81
418.497	552.81
418.72	555.81
418.943	570.81
419.166	581.81
419.389	615.81
419.611	601.81
419.834	584.81
420.057	597.81
420.28	580.81
420.503	564.81
420.726	579.81
420.948	564.81
421.171	601.81
421.394	632.81
421.617	598.81
421.839	590.81
422.062	579.81
422.285	557.81
422.507	620.81
422.73	689.81
422.953	681.81
423.175	615.81
423.398	617.81
423.621	583.81
423.843	603.81
424.066	614.81
424.288	603.81
424.511	598.81
424.733	668.81
424.956	741.81
425.178	694.81
425.401	680.81
425.623	706.81
425.846	630.81
426.068	593.81
426.291	577.81
426.513	576.81
426.735	595.81
426.958	620.81
427.18	666.81
427.402	768.81
427.625	844.81
427.847	758.81
428.069	651.81
428.292	607.81
428.514	553.81
428.736	550.81
428.958	545.81
429.181	545.81
429.403	526.81
429.625	533.81
429.847	555.81
430.069	598.81
430.292	635.81
430.514	559.81
430.736	540.81
430.958	550.81
431.18	503.81
431.402	508.81
431.624	533.81
431.846	541.81
432.068	523.81
432.29	519.81
432.512	501.81
432.734	516.81
432.956	504.81
433.178	519.81
433.4	522.81
433.622	526.81
433.844	528.81
434.066	529.81
434.287	521.81
434.509	536.81
434.731	564.81
434.953	539.81
435.175	558.81
435.397	585.81
435.618	582.81
435.84	609.81
436.062	684.81
436.284	715.81
436.505	619.81
436.727	569.81
436.949	562.81
437.17	522.81
437.392	520.81
437.614	538.81
437.835	557.81
438.057	645.81
438.278	708.81
438.5	707.81
438.721	767.81
438.943	762.81
439.165	615.81
439.386	583.81
439.608	557.81
439.829	541.81
440.05	572.81
440.272	614.81
440.493	581.81
440.715	574.81
440.936	543.81
441.158	562.81
441.379	539.81
441.6	549.81
441.822	572.81
442.043	601.81
442.264	667.81
442.486	722.81
442.707	635.81
442.928	607.81
443.149	588.81
443.371	607.81
443.592	644.81
443.813	735.81
444.034	771.81
444.255	685.81
444.476	629.81
444.698	618.81
444.919	650.81
445.14	737.81
445.361	667.81
445.582	655.81
445.803	659.81
446.024	735.81
446.245	739.81
446.466	669.81
446.687	605.81
446.908	585.81
447.129	551.81
447.35	519.81
447.571	518.81
447.792	512.81
448.013	533.81
448.234	546.81
448.455	577.81
448.675	656.81
448.896	757.81
449.117	667.81
449.338	643.81
449.559	709.81
449.779	825.81
450	629.81
450.221	563.81
450.442	519.81
450.662	502.81
450.883	513.81
451.104	527.81
451.324	518.81
451.545	507.81
451.766	484.81
451.986	501.81
452.207	471.81
452.428	454.81
452.648	457.81
452.869	479.81
453.089	481.81
453.31	490.81
453.53	477.81
453.751	489.81
453.971	474.81
454.192	484.81
454.412	463.81
454.633	460.81
454.853	473.81
455.073	473.81
455.294	480.81
455.514	528.81
455.734	546.81
455.955	461.81
456.175	474.81
456.395	441.81
456.616	441.81
456.836	482.81
457.056	452.81
457.276	439.81
457.497	465.81
457.717	470.81
457.937	464.81
458.157	468.81
458.377	464.81
458.598	482.81
458.818	548.81
459.038	551.81
459.258	617.81
459.478	559.81
459.698	534.81
459.918	530.81
460.138	550.81
460.358	540.81
460.578	556.81
460.798	546.81
461.018	558.81
461.238	549.81
461.458	546.81
461.678	539.81
461.898	569.81
462.118	574.81
462.338	567.81
462.558	606.81
462.777	584.81
462.997	623.81
463.217	640.81
463.437	649.81
463.657	623.81
463.876	623.81
464.096	578.81
464.316	594.81
464.536	612.81
464.755	616.81
464.975	595.81
465.195	589.81
465.414	633.81
465.634	563.81
465.854	531.81
466.073	536.81
466.293	516.81
466.512	513.81
466.732	505.81
466.951	491.81
467.171	485.81
467.391	508.81
467.61	511.81
467.829	507.81
468.049	501.81
468.268	481.81
468.488	493.81
468.707	492.81
468.927	479.81
469.146	477.81
469.365	463.81
469.585	492.81
469.804	486.81
470.023	488.81
470.243	514.81
470.462	503.81
470.681	514.81
470.901	516.81
471.12	508.81
471.339	502.81
471.558	493.81
471.777	487.81
471.997	490.81
472.216	508.81
472.435	498.81
472.654	489.81
472.873	485.81
473.092	490.81
473.311	489.81
473.53	482.81
473.749	486.81
473.968	517.81
474.187	607.81
474.406	627.81
474.625	530.81
474.844	519.81
475.063	489.81
475.282	507.81
475.501	488.81
475.72	513.81
475.939	499.81
476.158	516.81
476.377	509.81
476.596	506.81
476.814	520.81
477.033	502.81
477.252	534.81
477.471	526.81
477.69	532.81
477.908	546.81
478.127	549.81
478.346	543.81
478.564	570.81
478.783	577.81
479.002	559.81
479.22	570.81
479.439	604.81
479.658	591.81
479.876	578.81
480.095	599.81
480.313	642.81
480.532	627.81
480.751	635.81
480.969	609.81
481.188	651.81
481.406	642.81
481.624	618.81
481.843	587.81
482.061	588.81
482.28	585.81
482.498	569.81
482.717	578.81
482.935	578.81
483.153	565.81
483.372	573.81
483.59	566.81
483.808	572.81
484.027	579.81
484.245	588.81
484.463	595.81
484.681	564.81
484.9	573.81
485.118	588.81
485.336	582.81
485.554	564.81
485.772	591.81
485.99	601.81
486.209	591.81
486.427	580.81
486.645	604.81
486.863	625.81
487.081	619.81
487.299	616.81
487.517	623.81
487.735	584.81
487.953	605.81
488.171	622.81
488.389	613.81
488.607	613.81
488.825	586.81
489.043	605.81
489.261	633.81
489.479	627.81
489.696	618.81
489.914	613.81
490.132	625.81
490.35	645.81
490.568	651.81
490.786	645.81
491.003	645.81
491.221	671.81
491.439	664.81
491.657	660.81
491.874	679.81
492.092	665.81
492.31	679.81
492.527	687.81
492.745	678.81
492.963	692.81
493.18	678.81
493.398	692.81
493.615	714.81
493.833	714.81
494.05	705.81
494.268	699.81
494.485	717.81
494.703	728.81
494.92	731.81
495.138	714.81
495.355	747.81
495.573	708.81
495.79	718.81
496.008	709.81
496.225	703.81
496.442	716.81
496.66	730.81
496.877	729.81
497.094	729.81
497.312	753.81
497.529	735.81
497.746	758.81
497.963	781.81
498.181	810.81
498.398	790.81
498.615	831.81
498.832	874.81
499.049	905.81
499.267	939.81
499.484	955.81
499.701	1037.81
499.918	1091.81
500.135	1157.81
500.352	1263.81
500.569	1318.81
500.786	1292.81
501.003	1227.81
501.22	1171.81
501.437	1106.81
501.654	1055.81
501.871	1020.81
502.088	963.81
502.305	917.81
502.522	881.81
502.739	870.81
502.956	815.81
503.172	780.81
503.389	787.81
503.606	756.81
503.823	753.81
504.04	727.81
504.256	750.81
504.473	730.81
504.69	755.81
504.907	737.81
505.123	746.81
505.34	703.81
505.557	690.81
505.773	683.81
505.99	652.81
506.207	664.81
506.423	667.81
506.64	662.81
506.856	658.81
507.073	669.81
507.289	673.81
507.506	650.81
507.722	667.81
507.939	660.81
508.155	648.81
508.372	619.81
508.588	618.81
508.805	618.81
509.021	599.81
509.238	641.81
509.454	645.81
509.67	648.81
509.887	595.81
510.103	610.81
510.319	628.81
510.536	659.81
510.752	925.81
510.968	781.81
511.184	585.81
511.401	599.81
511.617	587.81
511.833	583.81
512.049	563.81
512.265	596.81
512.481	578.81
512.698	572.81
512.914	569.81
513.13	567.81
513.346	558.81
513.562	579.81
513.778	581.81
513.994	599.81
514.21	602.81
514.426	612.81
514.642	619.81
514.858	636.81
515.074	679.81
515.29	735.81
515.506	940.81
515.721	808.81
515.937	683.81
516.153	646.81
516.369	647.81
516.585	610.81
516.801	607.81
517.016	661.81
517.232	654.81
517.448	661.81
517.664	671.81
517.879	669.81
518.095	660.81
518.311	679.81
518.527	618.81
518.742	629.81
518.958	601.81
519.173	603.81
519.389	603.81
519.605	604.81
519.82	592.81
520.036	585.81
520.251	616.81
520.467	636.81
520.682	625.81
520.898	588.81
521.113	598.81
521.329	611.81
521.544	679.81
521.76	742.81
521.975	1086.81
522.19	1089.81
522.406	702.81
522.621	597.81
522.836	568.81
523.052	574.81
523.267	527.81
523.482	547.81
523.698	545.81
523.913	518.81
524.128	557.81
524.343	528.81
524.559	513.81
524.774	515.81
524.989	526.81
525.204	549.81
525.419	533.81
525.634	521.81
525.849	478.81
526.064	526.81
526.28	515.81
526.495	501.81
526.71	526.81
526.925	504.81
527.14	494.81
527.355	495.81
527.57	532.81
527.785	507.81
527.999	513.81
528.214	494.81
528.429	489.81
528.644	472.81
528.859	498.81
529.074	525.81
529.289	515.81
529.503	563.81
529.718	543.81
529.933	495.81
530.148	513.81
530.363	499.81
530.577	505.81
530.792	513.81
531.007	504.81
531.221	507.81
531.436	494.81
531.651	475.81
531.865	472.81
532.08	492.81
532.295	487.81
532.509	480.81
532.724	482.81
532.938	500.81
533.153	467.81
533.367	489.81
533.582	475.81
533.796	477.81
534.011	457.81
534.225	469.81
534.44	490.81
534.654	475.81
534.868	453.81
535.083	478.81
535.297	470.81
535.511	498.81
535.726	475.81
535.94	486.81
536.154	471.81
536.369	454.81
536.583	476.81
536.797	463.81
537.011	467.81
537.225	465.81
537.44	469.81
537.654	470.81
537.868	463.81
538.082	470.81
538.296	456.81
538.51	465.81
538.724	479.81
538.938	468.81
539.153	447.81
539.367	482.81
539.581	459.81
539.795	448.81
540.009	465.81
540.222	452.81
540.436	457.81
540.65	474.81
540.864	465.81
541.078	470.81
541.292	467.81
541.506	457.81
541.72	452.81
541.934	457.81
542.147	454.81
542.361	462.81
542.575	465.81
542.789	455.81
543.002	458.81
543.216	454.81
543.43	442.81
543.644	463.81
543.857	450.81
544.071	455.81
544.285	473.81
544.498	466.81
544.712	478.81
544.925	491.81
545.139	460.81
545.352	467.81
545.566	469.81
545.779	448.81
545.993	471.81
546.206	479.81
546.42	477.81
546.633	466.81
546.847	435.81
547.06	462.81
547.274	445.81
547.487	459.81
547.7	456.81
547.914	471.81
548.127	466.81
548.34	454.81
548.554	453.81
548.767	477.81
548.98	466.81
549.193	449.81
549.407	444.81
549.62	462.81
549.833	480.81
550.046	476.81
550.259	450.81
550.473	460.81
550.686	460.81
550.899	449.81
551.112	441.81
551.325	460.81
551.538	460.81
551.751	442.81
551.964	452.81
552.177	440.81
552.39	451.81
552.603	464.81
552.816	463.81
553.029	483.81
553.242	503.81
553.455	467.81
553.667	511.81
553.88	492.81
554.093	467.81
554.306	472.81
554.519	473.81
554.732	435.81
554.944	427.81
555.157	446.81
555.37	439.81
555.583	436.81
555.795	437.81
556.008	420.81
556.221	436.81
556.433	411.81
556.646	402.81
556.859	438.81
557.071	417.81
557.284	428.81
557.496	407.81
557.709	438.81
557.921	404.81
558.134	398.81
558.346	411.81
558.559	390.81
558.771	410.81
558.984	408.81
559.196	399.81
559.409	407.81
559.621	398.81
559.833	391.81
560.046	413.81
560.258	413.81
560.47	393.81
560.683	411.81
560.895	413.81
561.107	413.81
561.32	396.81
561.532	390.81
561.744	379.81
561.956	390.81
562.168	406.81
562.381	399.81
562.593	407.81
562.805	400.81
563.017	414.81
563.229	412.81
563.441	408.81
563.653	406.81
563.865	412.81
564.077	415.81
564.289	414.81
564.501	429.81
564.713	433.81
564.925	460.81
565.137	452.81
565.349	421.81
565.561	443.81
565.773	453.81
565.985	458.81
566.197	466.81
566.408	499.81
566.62	513.81
566.832	554.81
567.044	566.81
567.255	565.81
567.467	564.81
567.679	591.81
567.891	639.81
568.102	622.81
568.314	598.81
568.526	551.81
568.737	526.81
568.949	491.81
569.161	476.81
569.372	462.81
569.584	460.81
569.795	424.81
570.007	445.81
570.218	440.81
570.43	427.81
570.641	417.81
570.853	410.81
571.064	409.81
571.276	413.81
571.487	398.81
571.698	394.81
571.91	385.81
572.121	390.81
572.333	359.81
572.544	356.81
572.755	360.81
572.966	381.81
573.178	364.81
573.389	385.81
573.6	356.81
573.811	346.81
574.023	358.81
574.234	356.81
574.445	344.81
574.656	354.81
574.867	353.81
575.078	354.81
575.289	349.81
575.501	363.81
575.712	341.81
575.923	339.81
576.134	333.81
576.345	350.81
576.556	348.81
576.767	340.81
576.978	351.81
577.188	348.81
577.399	330.81
577.61	326.81
577.821	355.81
578.032	334.81
578.243	366.81
578.454	462.81
578.665	379.81
578.875	345.81
579.086	331.81
579.297	341.81
579.508	342.81
579.718	324.81
579.929	330.81
580.14	306.81
580.35	319.81
580.561	332.81
580.772	337.81
580.982	327.81
581.193	309.81
581.403	332.81
581.614	327.81
581.825	321.81
582.035	326.81
582.246	303.81
582.456	310.81
582.667	318.81
582.877	308.81
583.087	307.81
583.298	313.81
583.508	311.81
583.719	312.81
583.929	313.81
584.139	317.81
584.35	311.81
584.56	322.81
584.77	313.81
584.981	300.81
585.191	312.81
585.401	315.81
585.611	316.81
585.821	319.81
586.032	302.81
586.242	307.81
586.452	299.81
586.662	305.81
586.872	325.81
587.082	305.81
587.292	286.81
587.502	301.81
587.713	313.81
587.923	310.81
588.133	307.81
588.343	311.81
588.553	306.81
588.762	313.81
588.972	299.81
589.182	313.81
589.392	313.81
589.602	302.81
589.812	303.81
590.022	308.81
590.232	313.81
590.441	307.81
590.651	297.81
590.861	313.81
591.071	321.81
591.281	309.81
591.49	322.81
591.7	321.81
591.91	306.81
592.119	294.81
592.329	335.81
592.539	342.81
592.748	339.81
592.958	330.81
593.167	343.81
593.377	335.81
593.587	357.81
593.796	355.81
594.006	351.81
594.215	345.81
594.424	348.81
594.634	353.81
594.843	349.81
595.053	334.81
595.262	330.81
595.472	329.81
595.681	316.81
595.89	321.81
596.1	292.81
596.309	297.81
596.518	297.81
596.727	290.81
596.937	287.81
597.146	286.81
597.355	273.81
597.564	279.81
597.774	291.81
597.983	294.81
598.192	293.81
598.401	277.81
598.61	269.81
598.819	283.81
599.028	279.81
599.237	261.81
599.446	271.81
599.655	263.81
599.864	264.81
600.073	271.81
600.282	265.81
600.491	266.81
600.7	268.81
600.909	263.81
601.118	285.81
601.327	267.81
601.536	268.81
601.745	255.81
601.953	290.81
602.162	276.81
602.371	255.81
602.58	251.81
602.789	278.81
602.997	267.81
603.206	261.81
603.415	260.81
603.623	272.81
603.832	259.81
604.041	257.81
604.249	249.81
604.458	260.81
604.666	278.81
604.875	260.81
605.084	250.81
605.292	257.81
605.501	243.81
605.709	245.81
605.918	263.81
606.126	261.81
606.334	246.81
606.543	264.81
606.751	277.81
606.96	245.81
607.168	257.81
607.376	260.81
607.585	257.81
607.793	262.81
608.001	261.81
608.21	259.81
608.418	238.81
608.626	248.81
608.834	244.81
609.043	254.81
609.251	247.81
609.459	226.81
609.667	259.81
609.875	249.81
610.083	262.81
610.291	248.81
610.499	248.81
610.707	260.81
610.916	246.81
611.124	241.81
611.332	252.81
611.54	255.81
611.748	259.81
611.955	267.81
612.163	234.81
612.371	248.81
612.579	255.81
612.787	231.81
612.995	230.81
613.203	236.81
613.411	238.81
613.618	249.81
613.826	250.81
614.034	253.81
614.242	243.81
614.449	260.81
614.657	249.81
614.865	259.81
615.072	252.81
615.28	229.81
615.488	228.81
615.695	238.81
615.903	244.81
616.111	243.81
616.318	243.81
616.526	255.81
616.733	247.81
616.941	245.81
617.148	277.81
617.356	248.81
617.563	252.81
617.771	237.81
617.978	232.81
618.185	234.81
618.393	241.81
618.6	238.81
618.807	254.81
619.015	238.81
619.222	244.81
619.429	249.81
619.637	236.81
619.844	261.81
620.051	237.81
620.258	226.81
620.466	231.81
620.673	215.81
620.88	243.81
621.087	221.81
621.294	206.81
621.501	222.81
621.708	244.81
621.915	223.81
622.122	245.81
622.329	226.81
622.536	223.81
622.743	259.81
622.95	212.81
623.157	237.81
623.364	233.81
623.571	228.81
623.778	234.81
623.985	225.81
624.192	219.81
624.399	226.81
624.606	212.81
624.812	210.81
625.019	230.81
625.226	222.81
625.433	233.81
625.639	228.81
625.846	235.81
626.053	220.81
626.259	217.81
626.466	218.81
626.673	208.81
626.879	198.81
627.086	225.81
627.293	209.81
627.499	206.81
627.706	213.81
627.912	221.81
628.119	212.81
628.325	210.81
628.532	204.81
628.738	225.81
628.945	207.81
629.151	207.81
629.357	203.81
629.564	213.81
629.77	219.81
629.976	205.81
630.183	209.81
630.389	193.81
630.595	203.81
630.802	220.81
631.008	195.81
631.214	202.81
631.42	221.81
631.627	196.81
631.833	185.81
632.039	207.81
632.245	190.81
632.451	205.81
632.657	198.81
632.863	185.81
633.069	198.81
633.275	193.81
633.481	193.81
633.688	187.81
633.893	185.81
634.099	199.81
634.305	194.81
634.511	190.81
634.717	168.81
634.923	189.81
635.129	198.81
635.335	191.81
635.541	179.81
635.747	180.81
635.952	180.81
636.158	181.81
636.364	181.81
636.57	212.81
636.775	195.81
636.981	190.81
637.187	186.81
637.392	182.81
637.598	183.81
637.804	201.81
638.009	181.81
638.215	190.81
638.421	181.81
638.626	190.81
638.832	174.81
639.037	170.81
639.243	198.81
639.448	173.81
639.654	191.81
639.859	166.81
640.065	170.81
640.27	199.81
640.475	169.81
640.681	187.81
640.886	192.81
641.091	178.81
641.297	178.81
641.502	183.81
641.707	169.81
641.913	173.81
642.118	172.81
642.323	169.81
642.528	171.81
642.733	173.81
642.939	174.81
643.144	183.81
643.349	175.81
643.554	168.81
643.759	166.81
643.964	170.81
644.169	171.81
644.374	156.81
644.579	168.81
644.784	163.81
644.989	170.81
645.194	188.81
645.399	173.81
645.604	167.81
645.809	163.81
646.014	175.81
646.219	172.81
646.423	157.81
646.628	170.81
646.833	185.81
647.038	172.81
647.243	175.81
647.447	193.81
647.652	164.81
647.857	169.81
648.062	178.81
648.266	172.81
648.471	190.81
648.676	178.81
648.88	182.81
649.085	174.81
649.289	172.81
649.494	186.81
649.698	193.81
649.903	187.81
650.107	164.81
650.312	156.81
650.516	165.81
650.721	164.81
650.925	164.81
651.13	159.81
651.334	149.81
651.539	154.81
651.743	137.81
651.947	149.81
652.152	160.81
652.356	147.81
652.56	142.81
652.764	147.81
652.969	138.81
653.173	158.81
653.377	151.81
653.581	143.81
653.785	146.81
653.99	150.81
654.194	145.81
654.398	141.81
654.602	155.81
654.806	143.81
655.01	136.81
655.214	155.81
655.418	144.81
655.622	147.81
655.826	141.81
656.03	135.81
656.234	144.81
656.438	125.81
656.642	150.81
656.846	134.81
657.049	142.81
657.253	140.81
657.457	130.81
657.661	123.81
657.865	109.81
658.068	122.81
658.272	116.81
658.476	105.81
658.68	116.81
658.883	106.81
659.087	112.81
659.291	121.81
659.494	89.81
659.698	104.81
659.901	108.81
660.105	98.81
660.309	103.81
660.512	91.81
660.716	92.81
660.919	110.81
661.123	96.81
661.326	89.81
661.53	102.81
661.733	111.81
661.936	90.81
662.14	84.81
662.343	91.81
662.546	86.81
662.75	86.81
662.953	86.81
663.156	83.81
663.36	85.81
663.563	91.81
663.766	84.81
663.969	90.81
664.173	75.81
664.376	90.81
664.579	84.81
664.782	85.81
664.985	91.81
665.188	77.81
665.391	86.81
665.594	90.81
665.797	91.81
666	77.81
666.203	78.81
666.406	76.81
666.609	98.81
666.812	98.81
667.015	86.81
667.218	83.81
667.421	93.81
667.624	87.81
667.827	78.81
668.03	79.81
668.232	84.81
668.435	85.81
668.638	81.81
668.841	89.81
669.043	83.81
669.246	85.81
669.449	84.81
669.651	89.81
669.854	90.81
670.057	89.81
670.259	97.81
670.462	80.81
670.665	94.81
670.867	90.81
671.07	78.81
671.272	86.81
671.475	93.81
671.677	83.81
671.88	86.81
672.082	86.81
672.284	77.81
672.487	67.81
672.689	84.81
672.892	91.81
