Data from 1973.PennyLincolnUp.Lamp.En5.5.200Scan.071719.P1.Changed Mount._HRD10591_15-45-00-852.txt Node
Date: Thu Jul 18 15:45:00 EDT 2019
User: cochatt
Spectrometer: HR+D1059
Trigger mode: 1
Integration Time (sec): 1.000000E-1
Scans to average: 1
Electric dark correction enabled: true
Nonlinearity correction enabled: false
Boxcar width: 0
XAxis mode: Wavelengths
Number of Pixels in Spectrum: 2048
>>>>>Begin Spectral Data<<<<<
223.165	-14.19
223.4	-14.19
223.635	-14.19
223.869	-18.19
224.104	-25.19
224.338	-25.19
224.573	-28.19
224.808	-1.19
225.042	-11.19
225.277	0.81
225.511	-2.19
225.746	12.81
225.98	-1.19
226.215	21.81
226.449	20.81
226.683	24.81
226.918	25.81
227.152	19.81
227.387	48.81
227.621	26.81
227.856	25.81
228.09	36.81
228.324	34.81
228.559	50.81
228.793	68.81
229.027	105.81
229.262	95.81
229.496	107.81
229.73	114.81
229.964	127.81
230.199	124.81
230.433	114.81
230.667	102.81
230.901	114.81
231.136	107.81
231.37	103.81
231.604	106.81
231.838	105.81
232.072	97.81
232.306	101.81
232.541	101.81
232.775	113.81
233.009	116.81
233.243	124.81
233.477	110.81
233.711	107.81
233.945	119.81
234.179	125.81
234.413	114.81
234.647	107.81
234.881	112.81
235.115	107.81
235.349	100.81
235.583	121.81
235.817	125.81
236.051	141.81
236.285	117.81
236.519	120.81
236.753	143.81
236.987	140.81
237.221	174.81
237.455	217.81
237.689	177.81
237.922	131.81
238.156	132.81
238.39	132.81
238.624	125.81
238.858	138.81
239.091	129.81
239.325	109.81
239.559	110.81
239.793	126.81
240.027	124.81
240.26	141.81
240.494	141.81
240.728	140.81
240.961	145.81
241.195	143.81
241.429	145.81
241.662	147.81
241.896	130.81
242.13	126.81
242.363	137.81
242.597	137.81
242.83	136.81
243.064	143.81
243.298	136.81
243.531	157.81
243.765	148.81
243.998	140.81
244.232	149.81
244.465	148.81
244.699	148.81
244.932	139.81
245.166	144.81
245.399	136.81
245.633	157.81
245.866	138.81
246.099	141.81
246.333	151.81
246.566	154.81
246.8	152.81
247.033	155.81
247.266	149.81
247.5	153.81
247.733	172.81
247.966	162.81
248.2	168.81
248.433	162.81
248.666	175.81
248.899	180.81
249.133	178.81
249.366	190.81
249.599	184.81
249.832	189.81
250.066	184.81
250.299	181.81
250.532	177.81
250.765	168.81
250.998	206.81
251.231	208.81
251.465	208.81
251.698	224.81
251.931	204.81
252.164	194.81
252.397	184.81
252.63	196.81
252.863	195.81
253.096	188.81
253.329	221.81
253.562	219.81
253.795	205.81
254.028	212.81
254.261	207.81
254.494	208.81
254.727	252.81
254.96	265.81
255.193	261.81
255.426	233.81
255.659	230.81
255.892	223.81
256.124	222.81
256.357	228.81
256.59	219.81
256.823	224.81
257.056	204.81
257.289	223.81
257.521	225.81
257.754	200.81
257.987	198.81
258.22	222.81
258.452	204.81
258.685	221.81
258.918	216.81
259.151	207.81
259.383	226.81
259.616	214.81
259.849	209.81
260.081	232.81
260.314	248.81
260.547	262.81
260.779	249.81
261.012	232.81
261.244	235.81
261.477	211.81
261.71	229.81
261.942	221.81
262.175	233.81
262.407	224.81
262.64	222.81
262.872	229.81
263.105	227.81
263.337	214.81
263.57	230.81
263.802	220.81
264.035	225.81
264.267	216.81
264.499	229.81
264.732	201.81
264.964	230.81
265.197	228.81
265.429	239.81
265.661	246.81
265.894	228.81
266.126	227.81
266.358	234.81
266.591	245.81
266.823	232.81
267.055	246.81
267.287	245.81
267.52	245.81
267.752	235.81
267.984	236.81
268.216	242.81
268.448	252.81
268.681	236.81
268.913	242.81
269.145	268.81
269.377	299.81
269.609	274.81
269.841	279.81
270.073	279.81
270.306	295.81
270.538	317.81
270.77	310.81
271.002	308.81
271.234	310.81
271.466	296.81
271.698	320.81
271.93	320.81
272.162	304.81
272.394	311.81
272.626	294.81
272.858	292.81
273.09	285.81
273.322	305.81
273.553	264.81
273.785	256.81
274.017	259.81
274.249	293.81
274.481	254.81
274.713	274.81
274.945	292.81
275.176	257.81
275.408	278.81
275.64	274.81
275.872	263.81
276.104	264.81
276.335	274.81
276.567	285.81
276.799	286.81
277.031	316.81
277.262	324.81
277.494	319.81
277.726	315.81
277.957	298.81
278.189	286.81
278.421	284.81
278.652	280.81
278.884	290.81
279.115	278.81
279.347	267.81
279.579	275.81
279.81	279.81
280.042	274.81
280.273	284.81
280.505	297.81
280.736	277.81
280.968	274.81
281.199	282.81
281.431	311.81
281.662	286.81
281.894	300.81
282.125	297.81
282.356	308.81
282.588	313.81
282.819	298.81
283.051	296.81
283.282	293.81
283.513	306.81
283.745	311.81
283.976	304.81
284.207	319.81
284.439	315.81
284.67	307.81
284.901	305.81
285.132	301.81
285.364	307.81
285.595	315.81
285.826	291.81
286.057	305.81
286.288	301.81
286.52	300.81
286.751	296.81
286.982	325.81
287.213	308.81
287.444	312.81
287.675	290.81
287.906	306.81
288.138	332.81
288.369	323.81
288.6	321.81
288.831	320.81
289.062	336.81
289.293	331.81
289.524	344.81
289.755	312.81
289.986	312.81
290.217	341.81
290.448	320.81
290.679	311.81
290.91	316.81
291.141	334.81
291.371	317.81
291.602	322.81
291.833	316.81
292.064	310.81
292.295	322.81
292.526	311.81
292.757	302.81
292.987	316.81
293.218	315.81
293.449	330.81
293.68	308.81
293.91	306.81
294.141	332.81
294.372	330.81
294.603	317.81
294.833	332.81
295.064	318.81
295.295	314.81
295.525	313.81
295.756	316.81
295.987	346.81
296.217	347.81
296.448	345.81
296.679	323.81
296.909	345.81
297.14	334.81
297.37	339.81
297.601	331.81
297.831	340.81
298.062	332.81
298.292	324.81
298.523	338.81
298.753	349.81
298.984	337.81
299.214	331.81
299.445	331.81
299.675	356.81
299.905	349.81
300.136	354.81
300.366	344.81
300.597	343.81
300.827	355.81
301.057	357.81
301.288	341.81
301.518	341.81
301.748	361.81
301.979	345.81
302.209	324.81
302.439	355.81
302.669	349.81
302.9	351.81
303.13	348.81
303.36	363.81
303.59	334.81
303.82	356.81
304.051	373.81
304.281	362.81
304.511	352.81
304.741	363.81
304.971	352.81
305.201	355.81
305.431	356.81
305.661	361.81
305.891	349.81
306.121	346.81
306.352	362.81
306.582	356.81
306.812	332.81
307.042	355.81
307.272	361.81
307.502	366.81
307.731	350.81
307.961	357.81
308.191	368.81
308.421	372.81
308.651	372.81
308.881	364.81
309.111	361.81
309.341	366.81
309.571	371.81
309.8	376.81
310.03	381.81
310.26	388.81
310.49	384.81
310.72	393.81
310.949	389.81
311.179	402.81
311.409	371.81
311.639	391.81
311.868	393.81
312.098	403.81
312.328	390.81
312.557	432.81
312.787	395.81
313.017	398.81
313.246	416.81
313.476	403.81
313.706	395.81
313.935	391.81
314.165	414.81
314.394	412.81
314.624	429.81
314.853	396.81
315.083	401.81
315.312	409.81
315.542	390.81
315.771	396.81
316.001	394.81
316.23	411.81
316.46	386.81
316.689	392.81
316.919	387.81
317.148	392.81
317.377	402.81
317.607	388.81
317.836	418.81
318.065	405.81
318.295	376.81
318.524	408.81
318.753	382.81
318.983	394.81
319.212	398.81
319.441	388.81
319.67	403.81
319.9	388.81
320.129	394.81
320.358	404.81
320.587	418.81
320.816	408.81
321.046	420.81
321.275	414.81
321.504	410.81
321.733	414.81
321.962	412.81
322.191	410.81
322.42	415.81
322.649	420.81
322.878	431.81
323.108	427.81
323.337	448.81
323.566	459.81
323.795	480.81
324.024	518.81
324.253	576.81
324.482	721.81
324.71	1043.81
324.939	1478.81
325.168	1340.81
325.397	754.81
325.626	549.81
325.855	490.81
326.084	484.81
326.313	471.81
326.542	470.81
326.77	502.81
326.999	557.81
327.228	691.81
327.457	958.81
327.686	1184.81
327.914	840.81
328.143	594.81
328.372	544.81
328.6	528.81
328.829	499.81
329.058	510.81
329.287	536.81
329.515	500.81
329.744	515.81
329.972	475.81
330.201	509.81
330.43	544.81
330.658	508.81
330.887	536.81
331.115	519.81
331.344	499.81
331.572	475.81
331.801	494.81
332.03	492.81
332.258	478.81
332.486	483.81
332.715	492.81
332.943	471.81
333.172	492.81
333.4	478.81
333.629	507.81
333.857	537.81
334.085	539.81
334.314	540.81
334.542	561.81
334.771	562.81
334.999	515.81
335.227	523.81
335.455	497.81
335.684	504.81
335.912	470.81
336.14	485.81
336.369	482.81
336.597	498.81
336.825	477.81
337.053	478.81
337.281	460.81
337.51	486.81
337.738	464.81
337.966	472.81
338.194	484.81
338.422	457.81
338.65	468.81
338.878	466.81
339.106	441.81
339.334	468.81
339.562	467.81
339.79	433.81
340.018	447.81
340.246	443.81
340.474	459.81
340.702	454.81
340.93	454.81
341.158	460.81
341.386	458.81
341.614	460.81
341.842	436.81
342.07	469.81
342.298	443.81
342.526	444.81
342.754	446.81
342.981	435.81
343.209	451.81
343.437	440.81
343.665	476.81
343.893	473.81
344.12	492.81
344.348	490.81
344.576	468.81
344.804	496.81
345.031	470.81
345.259	450.81
345.487	458.81
345.714	444.81
345.942	420.81
346.17	422.81
346.397	439.81
346.625	426.81
346.853	438.81
347.08	422.81
347.308	405.81
347.535	425.81
347.763	441.81
347.99	452.81
348.218	426.81
348.445	445.81
348.673	422.81
348.9	404.81
349.128	425.81
349.355	425.81
349.583	419.81
349.81	426.81
350.037	424.81
350.265	409.81
350.492	426.81
350.72	414.81
350.947	422.81
351.174	434.81
351.402	445.81
351.629	412.81
351.856	409.81
352.083	428.81
352.311	426.81
352.538	425.81
352.765	425.81
352.992	420.81
353.22	425.81
353.447	401.81
353.674	415.81
353.901	424.81
354.128	417.81
354.355	413.81
354.583	408.81
354.81	408.81
355.037	405.81
355.264	407.81
355.491	386.81
355.718	384.81
355.945	424.81
356.172	407.81
356.399	413.81
356.626	381.81
356.853	405.81
357.08	417.81
357.307	408.81
357.534	395.81
357.761	383.81
357.988	416.81
358.215	406.81
358.441	388.81
358.668	404.81
358.895	404.81
359.122	407.81
359.349	405.81
359.576	424.81
359.802	454.81
360.029	447.81
360.256	425.81
360.483	438.81
360.709	428.81
360.936	425.81
361.163	424.81
361.39	435.81
361.616	438.81
361.843	432.81
362.07	420.81
362.296	440.81
362.523	443.81
362.749	429.81
362.976	434.81
363.203	420.81
363.429	414.81
363.656	409.81
363.882	425.81
364.109	397.81
364.335	416.81
364.562	404.81
364.788	407.81
365.015	408.81
365.241	413.81
365.468	450.81
365.694	414.81
365.92	402.81
366.147	421.81
366.373	423.81
366.599	416.81
366.826	412.81
367.052	416.81
367.278	390.81
367.505	417.81
367.731	404.81
367.957	406.81
368.184	410.81
368.41	408.81
368.636	410.81
368.862	436.81
369.089	404.81
369.315	420.81
369.541	409.81
369.767	413.81
369.993	417.81
370.219	404.81
370.445	415.81
370.672	423.81
370.898	393.81
371.124	418.81
371.35	422.81
371.576	427.81
371.802	390.81
372.028	440.81
372.254	412.81
372.48	429.81
372.706	441.81
372.932	431.81
373.158	420.81
373.384	437.81
373.61	433.81
373.835	441.81
374.061	424.81
374.287	409.81
374.513	436.81
374.739	419.81
374.965	434.81
375.191	441.81
375.416	429.81
375.642	428.81
375.868	440.81
376.094	405.81
376.319	417.81
376.545	414.81
376.771	422.81
376.997	420.81
377.222	437.81
377.448	437.81
377.674	429.81
377.899	421.81
378.125	435.81
378.35	429.81
378.576	408.81
378.802	426.81
379.027	408.81
379.253	399.81
379.478	421.81
379.704	420.81
379.929	440.81
380.155	432.81
380.38	408.81
380.606	414.81
380.831	416.81
381.057	434.81
381.282	411.81
381.507	421.81
381.733	421.81
381.958	426.81
382.184	414.81
382.409	437.81
382.634	429.81
382.86	429.81
383.085	434.81
383.31	427.81
383.535	416.81
383.761	436.81
383.986	446.81
384.211	457.81
384.436	466.81
384.662	450.81
384.887	484.81
385.112	469.81
385.337	455.81
385.562	478.81
385.787	468.81
386.013	487.81
386.238	466.81
386.463	466.81
386.688	480.81
386.913	463.81
387.138	477.81
387.363	492.81
387.588	478.81
387.813	490.81
388.038	463.81
388.263	496.81
388.488	477.81
388.713	480.81
388.938	477.81
389.163	476.81
389.387	476.81
389.612	481.81
389.837	468.81
390.062	467.81
390.287	480.81
390.512	470.81
390.736	452.81
390.961	467.81
391.186	472.81
391.411	505.81
391.636	494.81
391.86	505.81
392.085	510.81
392.31	509.81
392.534	503.81
392.759	485.81
392.984	493.81
393.208	479.81
393.433	492.81
393.658	502.81
393.882	466.81
394.107	492.81
394.331	470.81
394.556	484.81
394.78	482.81
395.005	508.81
395.229	520.81
395.454	507.81
395.678	505.81
395.903	516.81
396.127	528.81
396.352	524.81
396.576	503.81
396.801	485.81
397.025	492.81
397.249	503.81
397.474	525.81
397.698	520.81
397.922	519.81
398.147	548.81
398.371	536.81
398.595	543.81
398.82	540.81
399.044	561.81
399.268	608.81
399.492	658.81
399.717	695.81
399.941	760.81
400.165	718.81
400.389	680.81
400.613	683.81
400.837	608.81
401.062	594.81
401.286	549.81
401.51	587.81
401.734	580.81
401.958	556.81
402.182	569.81
402.406	572.81
402.63	584.81
402.854	578.81
403.078	579.81
403.302	569.81
403.526	584.81
403.75	608.81
403.974	587.81
404.198	611.81
404.422	605.81
404.645	586.81
404.869	595.81
405.093	617.81
405.317	653.81
405.541	676.81
405.765	646.81
405.988	624.81
406.212	619.81
406.436	624.81
406.66	637.81
406.883	637.81
407.107	683.81
407.331	694.81
407.555	740.81
407.778	727.81
408.002	718.81
408.226	662.81
408.449	674.81
408.673	628.81
408.896	671.81
409.12	712.81
409.344	651.81
409.567	612.81
409.791	574.81
410.014	580.81
410.238	578.81
410.461	586.81
410.685	595.81
410.908	583.81
411.132	635.81
411.355	636.81
411.578	634.81
411.802	590.81
412.025	577.81
412.249	584.81
412.472	602.81
412.695	646.81
412.919	620.81
413.142	573.81
413.365	586.81
413.589	553.81
413.812	530.81
414.035	557.81
414.258	578.81
414.482	534.81
414.705	556.81
414.928	544.81
415.151	558.81
415.374	574.81
415.597	538.81
415.821	540.81
416.044	548.81
416.267	532.81
416.49	561.81
416.713	557.81
416.936	550.81
417.159	545.81
417.382	549.81
417.605	541.81
417.828	542.81
418.051	561.81
418.274	567.81
418.497	562.81
418.72	549.81
418.943	554.81
419.166	544.81
419.389	626.81
419.611	624.81
419.834	581.81
420.057	582.81
420.28	562.81
420.503	564.81
420.726	565.81
420.948	569.81
421.171	599.81
421.394	628.81
421.617	578.81
421.839	561.81
422.062	552.81
422.285	562.81
422.507	632.81
422.73	680.81
422.953	678.81
423.175	600.81
423.398	586.81
423.621	593.81
423.843	613.81
424.066	622.81
424.288	619.81
424.511	596.81
424.733	648.81
424.956	699.81
425.178	683.81
425.401	689.81
425.623	714.81
425.846	628.81
426.068	596.81
426.291	611.81
426.513	569.81
426.735	567.81
426.958	619.81
427.18	697.81
427.402	805.81
427.625	873.81
427.847	753.81
428.069	657.81
428.292	623.81
428.514	562.81
428.736	568.81
428.958	587.81
429.181	532.81
429.403	522.81
429.625	545.81
429.847	574.81
430.069	608.81
430.292	603.81
430.514	544.81
430.736	543.81
430.958	540.81
431.18	521.81
431.402	511.81
431.624	494.81
431.846	500.81
432.068	502.81
432.29	518.81
432.512	513.81
432.734	534.81
432.956	547.81
433.178	519.81
433.4	544.81
433.622	525.81
433.844	509.81
434.066	521.81
434.287	517.81
434.509	527.81
434.731	543.81
434.953	579.81
435.175	556.81
435.397	598.81
435.618	606.81
435.84	621.81
436.062	692.81
436.284	760.81
436.505	646.81
436.727	570.81
436.949	545.81
437.17	528.81
437.392	549.81
437.614	535.81
437.835	560.81
438.057	614.81
438.278	719.81
438.5	722.81
438.721	765.81
438.943	750.81
439.165	625.81
439.386	580.81
439.608	572.81
439.829	584.81
440.05	585.81
440.272	613.81
440.493	602.81
440.715	572.81
440.936	536.81
441.158	579.81
441.379	586.81
441.6	564.81
441.822	586.81
442.043	610.81
442.264	685.81
442.486	719.81
442.707	626.81
442.928	579.81
443.149	611.81
443.371	603.81
443.592	640.81
443.813	732.81
444.034	797.81
444.255	678.81
444.476	615.81
444.698	633.81
444.919	615.81
445.14	749.81
445.361	659.81
445.582	633.81
445.803	654.81
446.024	730.81
446.245	768.81
446.466	693.81
446.687	591.81
446.908	569.81
447.129	555.81
447.35	528.81
447.571	527.81
447.792	525.81
448.013	538.81
448.234	556.81
448.455	575.81
448.675	675.81
448.896	756.81
449.117	670.81
449.338	614.81
449.559	714.81
449.779	810.81
450	653.81
450.221	564.81
450.442	518.81
450.662	511.81
450.883	525.81
451.104	518.81
451.324	511.81
451.545	518.81
451.766	501.81
451.986	474.81
452.207	479.81
452.428	468.81
452.648	492.81
452.869	468.81
453.089	472.81
453.31	499.81
453.53	463.81
453.751	476.81
453.971	470.81
454.192	474.81
454.412	461.81
454.633	488.81
454.853	462.81
455.073	449.81
455.294	489.81
455.514	517.81
455.734	494.81
455.955	468.81
456.175	469.81
456.395	462.81
456.616	448.81
456.836	452.81
457.056	447.81
457.276	441.81
457.497	457.81
457.717	446.81
457.937	439.81
458.157	475.81
458.377	462.81
458.598	472.81
458.818	508.81
459.038	582.81
459.258	610.81
459.478	541.81
459.698	514.81
459.918	521.81
460.138	528.81
460.358	536.81
460.578	552.81
460.798	544.81
461.018	560.81
461.238	574.81
461.458	557.81
461.678	550.81
461.898	544.81
462.118	562.81
462.338	552.81
462.558	580.81
462.777	594.81
462.997	609.81
463.217	650.81
463.437	648.81
463.657	621.81
463.876	595.81
464.096	609.81
464.316	600.81
464.536	602.81
464.755	592.81
464.975	575.81
465.195	594.81
465.414	611.81
465.634	548.81
465.854	538.81
466.073	514.81
466.293	527.81
466.512	514.81
466.732	517.81
466.951	515.81
467.171	502.81
467.391	482.81
467.61	501.81
467.829	481.81
468.049	495.81
468.268	486.81
468.488	496.81
468.707	493.81
468.927	491.81
469.146	484.81
469.365	462.81
469.585	504.81
469.804	512.81
470.023	507.81
470.243	501.81
470.462	515.81
470.681	517.81
470.901	519.81
471.12	520.81
471.339	501.81
471.558	508.81
471.777	503.81
471.997	497.81
472.216	523.81
472.435	498.81
472.654	512.81
472.873	493.81
473.092	497.81
473.311	512.81
473.53	485.81
473.749	504.81
473.968	533.81
474.187	586.81
474.406	609.81
474.625	544.81
474.844	515.81
475.063	510.81
475.282	476.81
475.501	488.81
475.72	483.81
475.939	492.81
476.158	521.81
476.377	504.81
476.596	504.81
476.814	526.81
477.033	510.81
477.252	525.81
477.471	538.81
477.69	549.81
477.908	562.81
478.127	568.81
478.346	557.81
478.564	564.81
478.783	580.81
479.002	563.81
479.22	582.81
479.439	598.81
479.658	596.81
479.876	597.81
480.095	626.81
480.313	629.81
480.532	626.81
480.751	632.81
480.969	615.81
481.188	639.81
481.406	633.81
481.624	596.81
481.843	608.81
482.061	593.81
482.28	569.81
482.498	565.81
482.717	574.81
482.935	571.81
483.153	566.81
483.372	573.81
483.59	581.81
483.808	563.81
484.027	585.81
484.245	579.81
484.463	562.81
484.681	587.81
484.9	587.81
485.118	593.81
485.336	607.81
485.554	600.81
485.772	578.81
485.99	589.81
486.209	583.81
486.427	605.81
486.645	608.81
486.863	584.81
487.081	626.81
487.299	612.81
487.517	597.81
487.735	611.81
487.953	607.81
488.171	618.81
488.389	598.81
488.607	600.81
488.825	609.81
489.043	606.81
489.261	625.81
489.479	614.81
489.696	634.81
489.914	626.81
490.132	618.81
490.35	650.81
490.568	631.81
490.786	658.81
491.003	655.81
491.221	649.81
491.439	670.81
491.657	708.81
491.874	699.81
492.092	689.81
492.31	691.81
492.527	684.81
492.745	676.81
492.963	690.81
493.18	678.81
493.398	694.81
493.615	732.81
493.833	715.81
494.05	707.81
494.268	722.81
494.485	712.81
494.703	728.81
494.92	700.81
495.138	701.81
495.355	701.81
495.573	726.81
495.79	713.81
496.008	719.81
496.225	719.81
496.442	703.81
496.66	710.81
496.877	693.81
497.094	690.81
497.312	747.81
497.529	754.81
497.746	770.81
497.963	802.81
498.181	815.81
498.398	812.81
498.615	826.81
498.832	898.81
499.049	894.81
499.267	943.81
499.484	974.81
499.701	1056.81
499.918	1075.81
500.135	1140.81
500.352	1244.81
500.569	1305.81
500.786	1306.81
501.003	1213.81
501.22	1176.81
501.437	1127.81
501.654	1020.81
501.871	997.81
502.088	922.81
502.305	898.81
502.522	877.81
502.739	836.81
502.956	797.81
503.172	794.81
503.389	777.81
503.606	786.81
503.823	773.81
504.04	740.81
504.256	726.81
504.473	739.81
504.69	741.81
504.907	736.81
505.123	736.81
505.34	710.81
505.557	687.81
505.773	696.81
505.99	684.81
506.207	691.81
506.423	672.81
506.64	636.81
506.856	660.81
507.073	632.81
507.289	643.81
507.506	642.81
507.722	651.81
507.939	660.81
508.155	627.81
508.372	636.81
508.588	631.81
508.805	634.81
509.021	648.81
509.238	642.81
509.454	621.81
509.67	621.81
509.887	611.81
510.103	603.81
510.319	642.81
510.536	674.81
510.752	866.81
510.968	788.81
511.184	630.81
511.401	612.81
511.617	579.81
511.833	586.81
512.049	582.81
512.265	595.81
512.481	602.81
512.698	573.81
512.914	582.81
513.13	594.81
513.346	587.81
513.562	606.81
513.778	608.81
513.994	601.81
514.21	578.81
514.426	588.81
514.642	597.81
514.858	615.81
515.074	662.81
515.29	708.81
515.506	936.81
515.721	798.81
515.937	679.81
516.153	618.81
516.369	606.81
516.585	620.81
516.801	596.81
517.016	649.81
517.232	661.81
517.448	682.81
517.664	664.81
517.879	660.81
518.095	661.81
518.311	654.81
518.527	638.81
518.742	638.81
518.958	631.81
519.173	612.81
519.389	597.81
519.605	610.81
519.82	599.81
520.036	607.81
520.251	604.81
520.467	628.81
520.682	589.81
520.898	626.81
521.113	612.81
521.329	627.81
521.544	682.81
521.76	765.81
521.975	1099.81
522.19	1066.81
522.406	722.81
522.621	593.81
522.836	567.81
523.052	558.81
523.267	555.81
523.482	539.81
523.698	532.81
523.913	522.81
524.128	545.81
524.343	519.81
524.559	523.81
524.774	531.81
524.989	506.81
525.204	520.81
525.419	513.81
525.634	509.81
525.849	505.81
526.064	512.81
526.28	496.81
526.495	496.81
526.71	496.81
526.925	513.81
527.14	498.81
527.355	498.81
527.57	465.81
527.785	493.81
527.999	489.81
528.214	473.81
528.429	494.81
528.644	497.81
528.859	489.81
529.074	466.81
529.289	528.81
529.503	539.81
529.718	522.81
529.933	521.81
530.148	515.81
530.363	502.81
530.577	491.81
530.792	506.81
531.007	474.81
531.221	497.81
531.436	478.81
531.651	507.81
531.865	474.81
532.08	468.81
532.295	477.81
532.509	482.81
532.724	483.81
532.938	481.81
533.153	448.81
533.367	481.81
533.582	491.81
533.796	506.81
534.011	500.81
534.225	476.81
534.44	472.81
534.654	476.81
534.868	473.81
535.083	478.81
535.297	483.81
535.511	482.81
535.726	489.81
535.94	465.81
536.154	493.81
536.369	456.81
536.583	472.81
536.797	473.81
537.011	461.81
537.225	481.81
537.44	490.81
537.654	460.81
537.868	458.81
538.082	452.81
538.296	457.81
538.51	445.81
538.724	473.81
538.938	462.81
539.153	442.81
539.367	465.81
539.581	473.81
539.795	462.81
540.009	456.81
540.222	442.81
540.436	459.81
540.65	465.81
540.864	457.81
541.078	472.81
541.292	472.81
541.506	467.81
541.72	444.81
541.934	450.81
542.147	465.81
542.361	449.81
542.575	457.81
542.789	446.81
543.002	438.81
543.216	452.81
543.43	450.81
543.644	448.81
543.857	466.81
544.071	483.81
544.285	454.81
544.498	454.81
544.712	478.81
544.925	455.81
545.139	470.81
545.352	448.81
545.566	453.81
545.779	455.81
545.993	457.81
546.206	462.81
546.42	482.81
546.633	461.81
546.847	478.81
547.06	462.81
547.274	438.81
547.487	452.81
547.7	454.81
547.914	480.81
548.127	447.81
548.34	456.81
548.554	477.81
548.767	445.81
548.98	445.81
549.193	444.81
549.407	466.81
549.62	461.81
549.833	454.81
550.046	467.81
550.259	450.81
550.473	445.81
550.686	460.81
550.899	456.81
551.112	439.81
551.325	445.81
551.538	457.81
551.751	451.81
551.964	443.81
552.177	443.81
552.39	440.81
552.603	457.81
552.816	489.81
553.029	469.81
553.242	478.81
553.455	476.81
553.667	486.81
553.88	484.81
554.093	480.81
554.306	480.81
554.519	481.81
554.732	462.81
554.944	439.81
555.157	446.81
555.37	420.81
555.583	433.81
555.795	437.81
556.008	432.81
556.221	419.81
556.433	416.81
556.646	436.81
556.859	417.81
557.071	417.81
557.284	446.81
557.496	416.81
557.709	413.81
557.921	416.81
558.134	413.81
558.346	410.81
558.559	408.81
558.771	402.81
558.984	388.81
559.196	387.81
559.409	382.81
559.621	386.81
559.833	389.81
560.046	386.81
560.258	426.81
560.47	392.81
560.683	393.81
560.895	398.81
561.107	406.81
561.32	389.81
561.532	398.81
561.744	388.81
561.956	408.81
562.168	429.81
562.381	384.81
562.593	397.81
562.805	403.81
563.017	411.81
563.229	375.81
563.441	424.81
563.653	405.81
563.865	417.81
564.077	411.81
564.289	431.81
564.501	423.81
564.713	420.81
564.925	407.81
565.137	425.81
565.349	425.81
565.561	447.81
565.773	434.81
565.985	456.81
566.197	476.81
566.408	492.81
566.62	534.81
566.832	549.81
567.044	535.81
567.255	576.81
567.467	567.81
567.679	601.81
567.891	596.81
568.102	598.81
568.314	572.81
568.526	547.81
568.737	561.81
568.949	503.81
569.161	491.81
569.372	458.81
569.584	466.81
569.795	434.81
570.007	435.81
570.218	439.81
570.43	434.81
570.641	425.81
570.853	406.81
571.064	399.81
571.276	409.81
571.487	376.81
571.698	388.81
571.91	385.81
572.121	393.81
572.333	377.81
572.544	372.81
572.755	366.81
572.966	354.81
573.178	358.81
573.389	344.81
573.6	356.81
573.811	347.81
574.023	375.81
574.234	355.81
574.445	348.81
574.656	355.81
574.867	336.81
575.078	339.81
575.289	352.81
575.501	344.81
575.712	337.81
575.923	351.81
576.134	316.81
576.345	342.81
576.556	355.81
576.767	352.81
576.978	330.81
577.188	349.81
577.399	341.81
577.61	321.81
577.821	340.81
578.032	341.81
578.243	360.81
578.454	470.81
578.665	370.81
578.875	340.81
579.086	328.81
579.297	312.81
579.508	314.81
579.718	301.81
579.929	312.81
580.14	310.81
580.35	323.81
580.561	303.81
580.772	315.81
580.982	298.81
581.193	305.81
581.403	312.81
581.614	325.81
581.825	289.81
582.035	298.81
582.246	309.81
582.456	280.81
582.667	316.81
582.877	322.81
583.087	294.81
583.298	285.81
583.508	306.81
583.719	310.81
583.929	321.81
584.139	313.81
584.35	283.81
584.56	308.81
584.77	282.81
584.981	281.81
585.191	311.81
585.401	322.81
585.611	285.81
585.821	322.81
586.032	312.81
586.242	315.81
586.452	290.81
586.662	299.81
586.872	308.81
587.082	316.81
587.292	319.81
587.502	300.81
587.713	292.81
587.923	322.81
588.133	297.81
588.343	312.81
588.553	320.81
588.762	294.81
588.972	279.81
589.182	298.81
589.392	297.81
589.602	299.81
589.812	298.81
590.022	322.81
590.232	280.81
590.441	309.81
590.651	319.81
590.861	326.81
591.071	290.81
591.281	307.81
591.49	294.81
591.7	315.81
591.91	330.81
592.119	323.81
592.329	334.81
592.539	308.81
592.748	350.81
592.958	354.81
593.167	359.81
593.377	339.81
593.587	361.81
593.796	341.81
594.006	350.81
594.215	349.81
594.424	343.81
594.634	341.81
594.843	324.81
595.053	328.81
595.262	317.81
595.472	312.81
595.681	286.81
595.89	318.81
596.1	317.81
596.309	304.81
596.518	311.81
596.727	294.81
596.937	274.81
597.146	284.81
597.355	283.81
597.564	281.81
597.774	273.81
597.983	284.81
598.192	277.81
598.401	281.81
598.61	283.81
598.819	270.81
599.028	258.81
599.237	283.81
599.446	286.81
599.655	270.81
599.864	260.81
600.073	290.81
600.282	260.81
600.491	248.81
600.7	280.81
600.909	265.81
601.118	247.81
601.327	271.81
601.536	259.81
601.745	274.81
601.953	278.81
602.162	252.81
602.371	256.81
602.58	268.81
602.789	270.81
602.997	251.81
603.206	258.81
603.415	267.81
603.623	258.81
603.832	262.81
604.041	242.81
604.249	244.81
604.458	267.81
604.666	263.81
604.875	251.81
605.084	256.81
605.292	233.81
605.501	261.81
605.709	239.81
605.918	250.81
606.126	264.81
606.334	253.81
606.543	247.81
606.751	263.81
606.96	256.81
607.168	233.81
607.376	253.81
607.585	252.81
607.793	256.81
608.001	249.81
608.21	241.81
608.418	259.81
608.626	248.81
608.834	255.81
609.043	259.81
609.251	246.81
609.459	262.81
609.667	241.81
609.875	254.81
610.083	245.81
610.291	247.81
610.499	241.81
610.707	246.81
610.916	236.81
611.124	249.81
611.332	255.81
611.54	258.81
611.748	236.81
611.955	249.81
612.163	248.81
612.371	256.81
612.579	257.81
612.787	250.81
612.995	245.81
613.203	243.81
613.411	234.81
613.618	255.81
613.826	241.81
614.034	259.81
614.242	230.81
614.449	237.81
614.657	243.81
614.865	222.81
615.072	236.81
615.28	233.81
615.488	242.81
615.695	261.81
615.903	244.81
616.111	241.81
616.318	253.81
616.526	230.81
616.733	235.81
616.941	252.81
617.148	244.81
617.356	241.81
617.563	244.81
617.771	261.81
617.978	230.81
618.185	236.81
618.393	229.81
618.6	238.81
618.807	235.81
619.015	266.81
619.222	250.81
619.429	231.81
619.637	233.81
619.844	244.81
620.051	229.81
620.258	225.81
620.466	217.81
620.673	236.81
620.88	221.81
621.087	220.81
621.294	235.81
621.501	231.81
621.708	227.81
621.915	240.81
622.122	248.81
622.329	230.81
622.536	225.81
622.743	236.81
622.95	222.81
623.157	212.81
623.364	221.81
623.571	225.81
623.778	206.81
623.985	235.81
624.192	221.81
624.399	229.81
624.606	220.81
624.812	233.81
625.019	226.81
625.226	211.81
625.433	229.81
625.639	209.81
625.846	218.81
626.053	202.81
626.259	214.81
626.466	211.81
626.673	205.81
626.879	205.81
627.086	204.81
627.293	183.81
627.499	208.81
627.706	209.81
627.912	213.81
628.119	199.81
628.325	213.81
628.532	206.81
628.738	225.81
628.945	221.81
629.151	186.81
629.357	206.81
629.564	204.81
629.77	206.81
629.976	204.81
630.183	187.81
630.389	200.81
630.595	196.81
630.802	225.81
631.008	212.81
631.214	202.81
631.42	192.81
631.627	211.81
631.833	200.81
632.039	192.81
632.245	200.81
632.451	200.81
632.657	206.81
632.863	196.81
633.069	189.81
633.275	194.81
633.481	194.81
633.688	184.81
633.893	184.81
634.099	206.81
634.305	196.81
634.511	198.81
634.717	184.81
634.923	187.81
635.129	178.81
635.335	182.81
635.541	176.81
635.747	170.81
635.952	193.81
636.158	198.81
636.364	182.81
636.57	193.81
636.775	199.81
636.981	191.81
637.187	185.81
637.392	185.81
637.598	172.81
637.804	184.81
638.009	188.81
638.215	184.81
638.421	179.81
638.626	189.81
638.832	172.81
639.037	177.81
639.243	173.81
639.448	180.81
639.654	181.81
639.859	170.81
640.065	164.81
640.27	176.81
640.475	171.81
640.681	188.81
640.886	159.81
641.091	174.81
641.297	176.81
641.502	176.81
641.707	181.81
641.913	169.81
642.118	182.81
642.323	171.81
642.528	158.81
642.733	164.81
642.939	170.81
643.144	165.81
643.349	172.81
643.554	171.81
643.759	178.81
643.964	162.81
644.169	184.81
644.374	187.81
644.579	189.81
644.784	160.81
644.989	169.81
645.194	154.81
645.399	172.81
645.604	166.81
645.809	189.81
646.014	163.81
646.219	164.81
646.423	151.81
646.628	165.81
646.833	185.81
647.038	173.81
647.243	182.81
647.447	184.81
647.652	183.81
647.857	178.81
648.062	181.81
648.266	161.81
648.471	177.81
648.676	166.81
648.88	189.81
649.085	170.81
649.289	166.81
649.494	174.81
649.698	166.81
649.903	180.81
650.107	179.81
650.312	172.81
650.516	160.81
650.721	165.81
650.925	156.81
651.13	158.81
651.334	167.81
651.539	149.81
651.743	146.81
651.947	161.81
652.152	140.81
652.356	152.81
652.56	149.81
652.764	148.81
652.969	143.81
653.173	150.81
653.377	142.81
653.581	137.81
653.785	141.81
653.99	161.81
654.194	127.81
654.398	134.81
654.602	140.81
654.806	150.81
655.01	136.81
655.214	141.81
655.418	130.81
655.622	126.81
655.826	142.81
656.03	133.81
656.234	130.81
656.438	135.81
656.642	143.81
656.846	141.81
657.049	129.81
657.253	136.81
657.457	115.81
657.661	121.81
657.865	98.81
658.068	101.81
658.272	114.81
658.476	110.81
658.68	119.81
658.883	122.81
659.087	89.81
659.291	103.81
659.494	108.81
659.698	88.81
659.901	98.81
660.105	87.81
660.309	92.81
660.512	99.81
660.716	90.81
660.919	98.81
661.123	105.81
661.326	94.81
661.53	85.81
661.733	90.81
661.936	84.81
662.14	103.81
662.343	70.81
662.546	82.81
662.75	85.81
662.953	84.81
663.156	92.81
663.36	91.81
663.563	94.81
663.766	72.81
663.969	79.81
664.173	90.81
664.376	82.81
664.579	78.81
664.782	83.81
664.985	84.81
665.188	88.81
665.391	86.81
665.594	81.81
665.797	84.81
666	83.81
666.203	83.81
666.406	77.81
666.609	75.81
666.812	80.81
667.015	88.81
667.218	85.81
667.421	70.81
667.624	91.81
667.827	71.81
668.03	88.81
668.232	75.81
668.435	85.81
668.638	74.81
668.841	84.81
669.043	78.81
669.246	89.81
669.449	70.81
669.651	90.81
669.854	84.81
670.057	79.81
670.259	79.81
670.462	80.81
670.665	79.81
670.867	80.81
671.07	84.81
671.272	95.81
671.475	82.81
671.677	85.81
671.88	87.81
672.082	85.81
672.284	75.81
672.487	96.81
672.689	77.81
672.892	86.81
