Data from 1973.PennyLincolnUp.Lamp.En5.5.200Scan.071719.P1.Changed Mount._HRD10591_15-43-38-852.txt Node
Date: Thu Jul 18 15:43:38 EDT 2019
User: cochatt
Spectrometer: HR+D1059
Trigger mode: 1
Integration Time (sec): 1.000000E-1
Scans to average: 1
Electric dark correction enabled: true
Nonlinearity correction enabled: false
Boxcar width: 0
XAxis mode: Wavelengths
Number of Pixels in Spectrum: 2048
>>>>>Begin Spectral Data<<<<<
223.165	-26.31
223.4	-26.31
223.635	-26.31
223.869	-12.31
224.104	-9.31
224.338	-22.31
224.573	-24.31
224.808	-11.31
225.042	-7.31
225.277	-7.31
225.511	-6.31
225.746	19.69
225.98	9.69
226.215	12.69
226.449	3.69
226.683	37.69
226.918	7.69
227.152	35.69
227.387	27.69
227.621	16.69
227.856	31.69
228.09	35.69
228.324	43.69
228.559	55.69
228.793	56.69
229.027	88.69
229.262	87.69
229.496	113.69
229.73	106.69
229.964	136.69
230.199	112.69
230.433	95.69
230.667	100.69
230.901	107.69
231.136	110.69
231.37	102.69
231.604	113.69
231.838	97.69
232.072	97.69
232.306	113.69
232.541	90.69
232.775	107.69
233.009	115.69
233.243	96.69
233.477	98.69
233.711	121.69
233.945	120.69
234.179	117.69
234.413	118.69
234.647	108.69
234.881	111.69
235.115	110.69
235.349	118.69
235.583	110.69
235.817	114.69
236.051	111.69
236.285	112.69
236.519	113.69
236.753	129.69
236.987	125.69
237.221	152.69
237.455	165.69
237.689	160.69
237.922	128.69
238.156	117.69
238.39	116.69
238.624	123.69
238.858	120.69
239.091	124.69
239.325	119.69
239.559	120.69
239.793	112.69
240.027	125.69
240.26	135.69
240.494	131.69
240.728	140.69
240.961	143.69
241.195	140.69
241.429	130.69
241.662	124.69
241.896	120.69
242.13	127.69
242.363	133.69
242.597	132.69
242.83	134.69
243.064	135.69
243.298	134.69
243.531	137.69
243.765	135.69
243.998	127.69
244.232	134.69
244.465	139.69
244.699	154.69
244.932	137.69
245.166	130.69
245.399	151.69
245.633	151.69
245.866	141.69
246.099	145.69
246.333	124.69
246.566	148.69
246.8	147.69
247.033	147.69
247.266	145.69
247.5	160.69
247.733	158.69
247.966	168.69
248.2	161.69
248.433	149.69
248.666	164.69
248.899	170.69
249.133	171.69
249.366	190.69
249.599	160.69
249.832	172.69
250.066	155.69
250.299	169.69
250.532	180.69
250.765	192.69
250.998	194.69
251.231	207.69
251.465	174.69
251.698	167.69
251.931	184.69
252.164	185.69
252.397	190.69
252.63	170.69
252.863	179.69
253.096	185.69
253.329	197.69
253.562	196.69
253.795	208.69
254.028	201.69
254.261	185.69
254.494	202.69
254.727	213.69
254.96	248.69
255.193	223.69
255.426	211.69
255.659	192.69
255.892	216.69
256.124	186.69
256.357	183.69
256.59	197.69
256.823	197.69
257.056	188.69
257.289	192.69
257.521	181.69
257.754	200.69
257.987	204.69
258.22	200.69
258.452	196.69
258.685	195.69
258.918	193.69
259.151	196.69
259.383	206.69
259.616	208.69
259.849	208.69
260.081	225.69
260.314	220.69
260.547	229.69
260.779	227.69
261.012	210.69
261.244	214.69
261.477	216.69
261.71	226.69
261.942	210.69
262.175	198.69
262.407	204.69
262.64	199.69
262.872	228.69
263.105	199.69
263.337	211.69
263.57	210.69
263.802	200.69
264.035	198.69
264.267	209.69
264.499	196.69
264.732	201.69
264.964	211.69
265.197	191.69
265.429	193.69
265.661	217.69
265.894	216.69
266.126	214.69
266.358	203.69
266.591	202.69
266.823	221.69
267.055	200.69
267.287	222.69
267.52	224.69
267.752	233.69
267.984	214.69
268.216	222.69
268.448	226.69
268.681	235.69
268.913	241.69
269.145	241.69
269.377	250.69
269.609	242.69
269.841	244.69
270.073	253.69
270.306	265.69
270.538	299.69
270.77	294.69
271.002	274.69
271.234	272.69
271.466	266.69
271.698	266.69
271.93	292.69
272.162	284.69
272.394	302.69
272.626	267.69
272.858	265.69
273.09	267.69
273.322	255.69
273.553	263.69
273.785	249.69
274.017	245.69
274.249	244.69
274.481	256.69
274.713	268.69
274.945	261.69
275.176	258.69
275.408	256.69
275.64	250.69
275.872	235.69
276.104	261.69
276.335	257.69
276.567	256.69
276.799	284.69
277.031	272.69
277.262	303.69
277.494	298.69
277.726	294.69
277.957	296.69
278.189	284.69
278.421	278.69
278.652	278.69
278.884	251.69
279.115	260.69
279.347	287.69
279.579	255.69
279.81	251.69
280.042	262.69
280.273	264.69
280.505	263.69
280.736	262.69
280.968	282.69
281.199	266.69
281.431	283.69
281.662	278.69
281.894	265.69
282.125	260.69
282.356	273.69
282.588	294.69
282.819	278.69
283.051	280.69
283.282	282.69
283.513	294.69
283.745	280.69
283.976	296.69
284.207	284.69
284.439	299.69
284.67	285.69
284.901	291.69
285.132	294.69
285.364	290.69
285.595	287.69
285.826	285.69
286.057	282.69
286.288	283.69
286.52	282.69
286.751	295.69
286.982	289.69
287.213	294.69
287.444	292.69
287.675	284.69
287.906	288.69
288.138	318.69
288.369	297.69
288.6	321.69
288.831	295.69
289.062	288.69
289.293	316.69
289.524	296.69
289.755	308.69
289.986	291.69
290.217	287.69
290.448	308.69
290.679	311.69
290.91	296.69
291.141	291.69
291.371	295.69
291.602	311.69
291.833	288.69
292.064	312.69
292.295	312.69
292.526	290.69
292.757	297.69
292.987	288.69
293.218	299.69
293.449	309.69
293.68	312.69
293.91	295.69
294.141	302.69
294.372	295.69
294.603	301.69
294.833	310.69
295.064	303.69
295.295	311.69
295.525	294.69
295.756	304.69
295.987	316.69
296.217	315.69
296.448	333.69
296.679	311.69
296.909	313.69
297.14	327.69
297.37	318.69
297.601	327.69
297.831	332.69
298.062	315.69
298.292	306.69
298.523	289.69
298.753	323.69
298.984	316.69
299.214	308.69
299.445	328.69
299.675	324.69
299.905	310.69
300.136	316.69
300.366	325.69
300.597	333.69
300.827	318.69
301.057	315.69
301.288	342.69
301.518	335.69
301.748	335.69
301.979	335.69
302.209	352.69
302.439	324.69
302.669	344.69
302.9	340.69
303.13	351.69
303.36	331.69
303.59	338.69
303.82	332.69
304.051	332.69
304.281	344.69
304.511	345.69
304.741	324.69
304.971	345.69
305.201	333.69
305.431	338.69
305.661	328.69
305.891	329.69
306.121	328.69
306.352	332.69
306.582	346.69
306.812	329.69
307.042	338.69
307.272	335.69
307.502	322.69
307.731	336.69
307.961	327.69
308.191	333.69
308.421	348.69
308.651	343.69
308.881	336.69
309.111	342.69
309.341	340.69
309.571	346.69
309.8	352.69
310.03	339.69
310.26	348.69
310.49	335.69
310.72	358.69
310.949	384.69
311.179	378.69
311.409	358.69
311.639	358.69
311.868	347.69
312.098	348.69
312.328	373.69
312.557	382.69
312.787	359.69
313.017	372.69
313.246	358.69
313.476	361.69
313.706	363.69
313.935	351.69
314.165	385.69
314.394	384.69
314.624	383.69
314.853	368.69
315.083	375.69
315.312	356.69
315.542	350.69
315.771	360.69
316.001	367.69
316.23	365.69
316.46	375.69
316.689	362.69
316.919	358.69
317.148	364.69
317.377	346.69
317.607	363.69
317.836	369.69
318.065	369.69
318.295	332.69
318.524	370.69
318.753	363.69
318.983	365.69
319.212	376.69
319.441	387.69
319.67	371.69
319.9	362.69
320.129	366.69
320.358	376.69
320.587	395.69
320.816	383.69
321.046	377.69
321.275	372.69
321.504	380.69
321.733	374.69
321.962	371.69
322.191	399.69
322.42	384.69
322.649	388.69
322.878	379.69
323.108	393.69
323.337	409.69
323.566	426.69
323.795	441.69
324.024	460.69
324.253	500.69
324.482	673.69
324.71	899.69
324.939	1298.69
325.168	1128.69
325.397	635.69
325.626	487.69
325.855	442.69
326.084	417.69
326.313	446.69
326.542	440.69
326.77	458.69
326.999	503.69
327.228	619.69
327.457	859.69
327.686	1000.69
327.914	720.69
328.143	510.69
328.372	486.69
328.6	485.69
328.829	463.69
329.058	471.69
329.287	495.69
329.515	444.69
329.744	450.69
329.972	453.69
330.201	449.69
330.43	470.69
330.658	468.69
330.887	501.69
331.115	479.69
331.344	448.69
331.572	430.69
331.801	438.69
332.03	455.69
332.258	446.69
332.486	445.69
332.715	437.69
332.943	449.69
333.172	471.69
333.4	462.69
333.629	462.69
333.857	480.69
334.085	515.69
334.314	503.69
334.542	509.69
334.771	497.69
334.999	454.69
335.227	470.69
335.455	455.69
335.684	443.69
335.912	448.69
336.14	440.69
336.369	431.69
336.597	433.69
336.825	456.69
337.053	428.69
337.281	433.69
337.51	431.69
337.738	431.69
337.966	429.69
338.194	441.69
338.422	433.69
338.65	423.69
338.878	415.69
339.106	412.69
339.334	444.69
339.562	434.69
339.79	410.69
340.018	436.69
340.246	428.69
340.474	424.69
340.702	432.69
340.93	437.69
341.158	417.69
341.386	430.69
341.614	409.69
341.842	401.69
342.07	416.69
342.298	390.69
342.526	414.69
342.754	382.69
342.981	393.69
343.209	414.69
343.437	416.69
343.665	432.69
343.893	432.69
344.12	466.69
344.348	443.69
344.576	452.69
344.804	450.69
345.031	443.69
345.259	434.69
345.487	435.69
345.714	420.69
345.942	399.69
346.17	415.69
346.397	405.69
346.625	392.69
346.853	395.69
347.08	406.69
347.308	400.69
347.535	391.69
347.763	403.69
347.99	392.69
348.218	392.69
348.445	404.69
348.673	400.69
348.9	398.69
349.128	403.69
349.355	393.69
349.583	394.69
349.81	389.69
350.037	403.69
350.265	391.69
350.492	380.69
350.72	408.69
350.947	395.69
351.174	424.69
351.402	400.69
351.629	376.69
351.856	391.69
352.083	387.69
352.311	386.69
352.538	384.69
352.765	379.69
352.992	402.69
353.22	394.69
353.447	400.69
353.674	390.69
353.901	389.69
354.128	410.69
354.355	372.69
354.583	371.69
354.81	376.69
355.037	377.69
355.264	391.69
355.491	385.69
355.718	379.69
355.945	384.69
356.172	394.69
356.399	371.69
356.626	376.69
356.853	401.69
357.08	372.69
357.307	371.69
357.534	388.69
357.761	401.69
357.988	397.69
358.215	381.69
358.441	376.69
358.668	377.69
358.895	386.69
359.122	376.69
359.349	392.69
359.576	395.69
359.802	409.69
360.029	415.69
360.256	419.69
360.483	410.69
360.709	384.69
360.936	402.69
361.163	403.69
361.39	417.69
361.616	397.69
361.843	407.69
362.07	386.69
362.296	392.69
362.523	398.69
362.749	403.69
362.976	399.69
363.203	387.69
363.429	401.69
363.656	390.69
363.882	375.69
364.109	371.69
364.335	385.69
364.562	369.69
364.788	372.69
365.015	380.69
365.241	361.69
365.468	384.69
365.694	394.69
365.92	399.69
366.147	386.69
366.373	380.69
366.599	367.69
366.826	391.69
367.052	377.69
367.278	400.69
367.505	409.69
367.731	406.69
367.957	400.69
368.184	394.69
368.41	376.69
368.636	421.69
368.862	404.69
369.089	390.69
369.315	393.69
369.541	412.69
369.767	411.69
369.993	384.69
370.219	389.69
370.445	400.69
370.672	387.69
370.898	374.69
371.124	398.69
371.35	416.69
371.576	370.69
371.802	396.69
372.028	394.69
372.254	394.69
372.48	400.69
372.706	402.69
372.932	406.69
373.158	402.69
373.384	408.69
373.61	403.69
373.835	393.69
374.061	395.69
374.287	417.69
374.513	396.69
374.739	404.69
374.965	408.69
375.191	410.69
375.416	414.69
375.642	402.69
375.868	397.69
376.094	396.69
376.319	404.69
376.545	400.69
376.771	397.69
376.997	392.69
377.222	402.69
377.448	383.69
377.674	392.69
377.899	398.69
378.125	390.69
378.35	394.69
378.576	384.69
378.802	376.69
379.027	381.69
379.253	391.69
379.478	391.69
379.704	393.69
379.929	394.69
380.155	379.69
380.38	387.69
380.606	400.69
380.831	385.69
381.057	407.69
381.282	409.69
381.507	388.69
381.733	394.69
381.958	388.69
382.184	399.69
382.409	427.69
382.634	404.69
382.86	415.69
383.085	419.69
383.31	410.69
383.535	426.69
383.761	425.69
383.986	438.69
384.211	465.69
384.436	440.69
384.662	447.69
384.887	431.69
385.112	468.69
385.337	447.69
385.562	454.69
385.787	464.69
386.013	479.69
386.238	470.69
386.463	454.69
386.688	471.69
386.913	433.69
387.138	452.69
387.363	457.69
387.588	453.69
387.813	453.69
388.038	453.69
388.263	432.69
388.488	456.69
388.713	452.69
388.938	434.69
389.163	444.69
389.387	440.69
389.612	450.69
389.837	444.69
390.062	436.69
390.287	447.69
390.512	436.69
390.736	438.69
390.961	453.69
391.186	456.69
391.411	447.69
391.636	449.69
391.86	454.69
392.085	477.69
392.31	475.69
392.534	462.69
392.759	476.69
392.984	481.69
393.208	478.69
393.433	488.69
393.658	459.69
393.882	469.69
394.107	438.69
394.331	448.69
394.556	449.69
394.78	452.69
395.005	451.69
395.229	461.69
395.454	459.69
395.678	474.69
395.903	480.69
396.127	481.69
396.352	504.69
396.576	464.69
396.801	466.69
397.025	474.69
397.249	455.69
397.474	471.69
397.698	480.69
397.922	484.69
398.147	486.69
398.371	512.69
398.595	512.69
398.82	520.69
399.044	532.69
399.268	555.69
399.492	628.69
399.717	644.69
399.941	649.69
400.165	659.69
400.389	659.69
400.613	615.69
400.837	534.69
401.062	564.69
401.286	515.69
401.51	535.69
401.734	519.69
401.958	545.69
402.182	530.69
402.406	525.69
402.63	551.69
402.854	531.69
403.078	554.69
403.302	545.69
403.526	553.69
403.75	568.69
403.974	576.69
404.198	554.69
404.422	555.69
404.645	536.69
404.869	546.69
405.093	578.69
405.317	587.69
405.541	631.69
405.765	602.69
405.988	571.69
406.212	584.69
406.436	565.69
406.66	588.69
406.883	576.69
407.107	592.69
407.331	643.69
407.555	710.69
407.778	698.69
408.002	635.69
408.226	602.69
408.449	598.69
408.673	595.69
408.896	587.69
409.12	636.69
409.344	589.69
409.567	548.69
409.791	552.69
410.014	544.69
410.238	547.69
410.461	558.69
410.685	574.69
410.908	561.69
411.132	554.69
411.355	592.69
411.578	579.69
411.802	547.69
412.025	527.69
412.249	546.69
412.472	551.69
412.695	566.69
412.919	570.69
413.142	561.69
413.365	517.69
413.589	522.69
413.812	510.69
414.035	512.69
414.258	503.69
414.482	519.69
414.705	516.69
414.928	520.69
415.151	537.69
415.374	516.69
415.597	523.69
415.821	497.69
416.044	527.69
416.267	520.69
416.49	503.69
416.713	510.69
416.936	501.69
417.159	523.69
417.382	503.69
417.605	511.69
417.828	506.69
418.051	526.69
418.274	534.69
418.497	508.69
418.72	528.69
418.943	516.69
419.166	555.69
419.389	570.69
419.611	547.69
419.834	544.69
420.057	531.69
420.28	545.69
420.503	534.69
420.726	527.69
420.948	532.69
421.171	542.69
421.394	577.69
421.617	537.69
421.839	522.69
422.062	515.69
422.285	529.69
422.507	587.69
422.73	630.69
422.953	616.69
423.175	557.69
423.398	540.69
423.621	553.69
423.843	575.69
424.066	567.69
424.288	547.69
424.511	567.69
424.733	592.69
424.956	666.69
425.178	646.69
425.401	608.69
425.623	658.69
425.846	570.69
426.068	524.69
426.291	523.69
426.513	521.69
426.735	552.69
426.958	558.69
427.18	618.69
427.402	748.69
427.625	776.69
427.847	664.69
428.069	615.69
428.292	558.69
428.514	514.69
428.736	506.69
428.958	480.69
429.181	506.69
429.403	496.69
429.625	504.69
429.847	532.69
430.069	584.69
430.292	550.69
430.514	508.69
430.736	486.69
430.958	491.69
431.18	461.69
431.402	459.69
431.624	457.69
431.846	469.69
432.068	478.69
432.29	480.69
432.512	494.69
432.734	486.69
432.956	484.69
433.178	490.69
433.4	482.69
433.622	491.69
433.844	488.69
434.066	488.69
434.287	486.69
434.509	505.69
434.731	527.69
434.953	525.69
435.175	547.69
435.397	534.69
435.618	550.69
435.84	573.69
436.062	635.69
436.284	654.69
436.505	584.69
436.727	532.69
436.949	519.69
437.17	512.69
437.392	479.69
437.614	482.69
437.835	532.69
438.057	580.69
438.278	656.69
438.5	625.69
438.721	728.69
438.943	680.69
439.165	563.69
439.386	542.69
439.608	526.69
439.829	508.69
440.05	526.69
440.272	570.69
440.493	568.69
440.715	520.69
440.936	499.69
441.158	481.69
441.379	513.69
441.6	538.69
441.822	548.69
442.043	564.69
442.264	633.69
442.486	670.69
442.707	562.69
442.928	537.69
443.149	558.69
443.371	566.69
443.592	580.69
443.813	653.69
444.034	700.69
444.255	628.69
444.476	562.69
444.698	579.69
444.919	592.69
445.14	659.69
445.361	622.69
445.582	575.69
445.803	596.69
446.024	648.69
446.245	642.69
446.466	635.69
446.687	554.69
446.908	525.69
447.129	512.69
447.35	482.69
447.571	469.69
447.792	459.69
448.013	464.69
448.234	486.69
448.455	517.69
448.675	618.69
448.896	682.69
449.117	602.69
449.338	592.69
449.559	634.69
449.779	715.69
450	592.69
450.221	517.69
450.442	476.69
450.662	456.69
450.883	483.69
451.104	455.69
451.324	465.69
451.545	483.69
451.766	446.69
451.986	438.69
452.207	420.69
452.428	432.69
452.648	441.69
452.869	439.69
453.089	450.69
453.31	454.69
453.53	455.69
453.751	449.69
453.971	450.69
454.192	430.69
454.412	454.69
454.633	443.69
454.853	427.69
455.073	433.69
455.294	458.69
455.514	494.69
455.734	490.69
455.955	441.69
456.175	419.69
456.395	424.69
456.616	418.69
456.836	430.69
457.056	434.69
457.276	403.69
457.497	400.69
457.717	419.69
457.937	414.69
458.157	419.69
458.377	447.69
458.598	452.69
458.818	500.69
459.038	542.69
459.258	536.69
459.478	514.69
459.698	474.69
459.918	512.69
460.138	497.69
460.358	514.69
460.578	529.69
460.798	539.69
461.018	544.69
461.238	523.69
461.458	498.69
461.678	491.69
461.898	516.69
462.118	514.69
462.338	537.69
462.558	542.69
462.777	577.69
462.997	568.69
463.217	600.69
463.437	614.69
463.657	590.69
463.876	561.69
464.096	558.69
464.316	560.69
464.536	563.69
464.755	562.69
464.975	578.69
465.195	552.69
465.414	562.69
465.634	525.69
465.854	487.69
466.073	460.69
466.293	486.69
466.512	478.69
466.732	465.69
466.951	460.69
467.171	472.69
467.391	468.69
467.61	449.69
467.829	481.69
468.049	466.69
468.268	454.69
468.488	444.69
468.707	437.69
468.927	449.69
469.146	445.69
469.365	451.69
469.585	454.69
469.804	463.69
470.023	440.69
470.243	472.69
470.462	471.69
470.681	475.69
470.901	472.69
471.12	458.69
471.339	467.69
471.558	471.69
471.777	468.69
471.997	462.69
472.216	457.69
472.435	470.69
472.654	458.69
472.873	455.69
473.092	433.69
473.311	443.69
473.53	456.69
473.749	463.69
473.968	498.69
474.187	546.69
474.406	567.69
474.625	497.69
474.844	482.69
475.063	451.69
475.282	457.69
475.501	465.69
475.72	443.69
475.939	462.69
476.158	474.69
476.377	479.69
476.596	463.69
476.814	467.69
477.033	475.69
477.252	497.69
477.471	495.69
477.69	489.69
477.908	512.69
478.127	508.69
478.346	518.69
478.564	528.69
478.783	530.69
479.002	537.69
479.22	531.69
479.439	534.69
479.658	550.69
479.876	570.69
480.095	549.69
480.313	590.69
480.532	582.69
480.751	572.69
480.969	582.69
481.188	583.69
481.406	582.69
481.624	533.69
481.843	551.69
482.061	516.69
482.28	527.69
482.498	516.69
482.717	528.69
482.935	519.69
483.153	535.69
483.372	527.69
483.59	531.69
483.808	546.69
484.027	532.69
484.245	517.69
484.463	533.69
484.681	545.69
484.9	553.69
485.118	545.69
485.336	546.69
485.554	536.69
485.772	538.69
485.99	560.69
486.209	560.69
486.427	535.69
486.645	549.69
486.863	556.69
487.081	595.69
487.299	569.69
487.517	547.69
487.735	569.69
487.953	580.69
488.171	572.69
488.389	555.69
488.607	559.69
488.825	555.69
489.043	577.69
489.261	568.69
489.479	581.69
489.696	588.69
489.914	566.69
490.132	598.69
490.35	569.69
490.568	572.69
490.786	596.69
491.003	591.69
491.221	597.69
491.439	599.69
491.657	611.69
491.874	646.69
492.092	656.69
492.31	605.69
492.527	623.69
492.745	626.69
492.963	636.69
493.18	641.69
493.398	668.69
493.615	633.69
493.833	634.69
494.05	655.69
494.268	672.69
494.485	652.69
494.703	662.69
494.92	657.69
495.138	663.69
495.355	654.69
495.573	651.69
495.79	664.69
496.008	651.69
496.225	652.69
496.442	669.69
496.66	660.69
496.877	632.69
497.094	650.69
497.312	692.69
497.529	689.69
497.746	704.69
497.963	722.69
498.181	722.69
498.398	768.69
498.615	770.69
498.832	826.69
499.049	826.69
499.267	844.69
499.484	881.69
499.701	946.69
499.918	1017.69
500.135	1068.69
500.352	1166.69
500.569	1202.69
500.786	1204.69
501.003	1169.69
501.22	1128.69
501.437	1052.69
501.654	981.69
501.871	930.69
502.088	846.69
502.305	858.69
502.522	818.69
502.739	778.69
502.956	746.69
503.172	735.69
503.389	728.69
503.606	711.69
503.823	687.69
504.04	692.69
504.256	695.69
504.473	686.69
504.69	675.69
504.907	687.69
505.123	666.69
505.34	640.69
505.557	624.69
505.773	636.69
505.99	647.69
506.207	622.69
506.423	622.69
506.64	592.69
506.856	589.69
507.073	588.69
507.289	589.69
507.506	579.69
507.722	592.69
507.939	615.69
508.155	572.69
508.372	577.69
508.588	578.69
508.805	572.69
509.021	572.69
509.238	579.69
509.454	588.69
509.67	578.69
509.887	592.69
510.103	552.69
510.319	571.69
510.536	625.69
510.752	828.69
510.968	701.69
511.184	564.69
511.401	554.69
511.617	576.69
511.833	541.69
512.049	571.69
512.265	531.69
512.481	547.69
512.698	555.69
512.914	538.69
513.13	534.69
513.346	527.69
513.562	523.69
513.778	544.69
513.994	554.69
514.21	543.69
514.426	554.69
514.642	569.69
514.858	587.69
515.074	591.69
515.29	642.69
515.506	834.69
515.721	716.69
515.937	583.69
516.153	577.69
516.369	575.69
516.585	563.69
516.801	576.69
517.016	599.69
517.232	618.69
517.448	607.69
517.664	620.69
517.879	625.69
518.095	627.69
518.311	643.69
518.527	606.69
518.742	586.69
518.958	599.69
519.173	595.69
519.389	579.69
519.605	563.69
519.82	556.69
520.036	589.69
520.251	572.69
520.467	554.69
520.682	545.69
520.898	575.69
521.113	574.69
521.329	571.69
521.544	620.69
521.76	694.69
521.975	994.69
522.19	936.69
522.406	643.69
522.621	564.69
522.836	542.69
523.052	506.69
523.267	507.69
523.482	486.69
523.698	490.69
523.913	502.69
524.128	504.69
524.343	487.69
524.559	498.69
524.774	470.69
524.989	482.69
525.204	481.69
525.419	482.69
525.634	484.69
525.849	479.69
526.064	476.69
526.28	486.69
526.495	455.69
526.71	463.69
526.925	478.69
527.14	483.69
527.355	460.69
527.57	449.69
527.785	474.69
527.999	455.69
528.214	453.69
528.429	457.69
528.644	466.69
528.859	459.69
529.074	463.69
529.289	472.69
529.503	516.69
529.718	472.69
529.933	470.69
530.148	461.69
530.363	481.69
530.577	449.69
530.792	434.69
531.007	467.69
531.221	464.69
531.436	484.69
531.651	463.69
531.865	448.69
532.08	443.69
532.295	447.69
532.509	462.69
532.724	435.69
532.938	436.69
533.153	459.69
533.367	474.69
533.582	459.69
533.796	454.69
534.011	444.69
534.225	457.69
534.44	446.69
534.654	434.69
534.868	427.69
535.083	463.69
535.297	464.69
535.511	454.69
535.726	457.69
535.94	443.69
536.154	422.69
536.369	450.69
536.583	448.69
536.797	418.69
537.011	458.69
537.225	439.69
537.44	449.69
537.654	439.69
537.868	431.69
538.082	433.69
538.296	437.69
538.51	440.69
538.724	422.69
538.938	434.69
539.153	445.69
539.367	446.69
539.581	446.69
539.795	441.69
540.009	426.69
540.222	446.69
540.436	436.69
540.65	434.69
540.864	432.69
541.078	419.69
541.292	431.69
541.506	416.69
541.72	452.69
541.934	463.69
542.147	430.69
542.361	420.69
542.575	417.69
542.789	422.69
543.002	450.69
543.216	430.69
543.43	436.69
543.644	409.69
543.857	421.69
544.071	440.69
544.285	438.69
544.498	431.69
544.712	435.69
544.925	443.69
545.139	443.69
545.352	441.69
545.566	432.69
545.779	406.69
545.993	427.69
546.206	457.69
546.42	451.69
546.633	439.69
546.847	434.69
547.06	416.69
547.274	444.69
547.487	440.69
547.7	437.69
547.914	426.69
548.127	441.69
548.34	428.69
548.554	414.69
548.767	425.69
548.98	446.69
549.193	443.69
549.407	438.69
549.62	412.69
549.833	433.69
550.046	441.69
550.259	449.69
550.473	439.69
550.686	430.69
550.899	450.69
551.112	418.69
551.325	420.69
551.538	416.69
551.751	407.69
551.964	455.69
552.177	438.69
552.39	427.69
552.603	440.69
552.816	431.69
553.029	434.69
553.242	444.69
553.455	463.69
553.667	454.69
553.88	464.69
554.093	432.69
554.306	420.69
554.519	445.69
554.732	444.69
554.944	424.69
555.157	424.69
555.37	426.69
555.583	410.69
555.795	425.69
556.008	411.69
556.221	403.69
556.433	400.69
556.646	404.69
556.859	401.69
557.071	388.69
557.284	398.69
557.496	378.69
557.709	408.69
557.921	400.69
558.134	370.69
558.346	379.69
558.559	387.69
558.771	400.69
558.984	376.69
559.196	364.69
559.409	369.69
559.621	400.69
559.833	371.69
560.046	366.69
560.258	372.69
560.47	391.69
560.683	375.69
560.895	371.69
561.107	379.69
561.32	389.69
561.532	391.69
561.744	378.69
561.956	389.69
562.168	381.69
562.381	393.69
562.593	391.69
562.805	382.69
563.017	386.69
563.229	412.69
563.441	399.69
563.653	379.69
563.865	368.69
564.077	390.69
564.289	384.69
564.501	411.69
564.713	395.69
564.925	414.69
565.137	403.69
565.349	443.69
565.561	430.69
565.773	459.69
565.985	469.69
566.197	459.69
566.408	496.69
566.62	512.69
566.832	519.69
567.044	534.69
567.255	545.69
567.467	540.69
567.679	556.69
567.891	570.69
568.102	584.69
568.314	534.69
568.526	549.69
568.737	527.69
568.949	472.69
569.161	472.69
569.372	439.69
569.584	430.69
569.795	415.69
570.007	413.69
570.218	416.69
570.43	408.69
570.641	412.69
570.853	388.69
571.064	384.69
571.276	372.69
571.487	384.69
571.698	376.69
571.91	368.69
572.121	388.69
572.333	364.69
572.544	372.69
572.755	328.69
572.966	350.69
573.178	348.69
573.389	347.69
573.6	331.69
573.811	346.69
574.023	336.69
574.234	340.69
574.445	331.69
574.656	330.69
574.867	347.69
575.078	324.69
575.289	345.69
575.501	329.69
575.712	329.69
575.923	317.69
576.134	349.69
576.345	327.69
576.556	328.69
576.767	331.69
576.978	325.69
577.188	312.69
577.399	335.69
577.61	315.69
577.821	330.69
578.032	332.69
578.243	359.69
578.454	430.69
578.665	353.69
578.875	317.69
579.086	307.69
579.297	312.69
579.508	329.69
579.718	314.69
579.929	323.69
580.14	306.69
580.35	293.69
580.561	292.69
580.772	296.69
580.982	287.69
581.193	287.69
581.403	302.69
581.614	306.69
581.825	300.69
582.035	288.69
582.246	298.69
582.456	297.69
582.667	296.69
582.877	294.69
583.087	299.69
583.298	305.69
583.508	290.69
583.719	301.69
583.929	309.69
584.139	310.69
584.35	285.69
584.56	296.69
584.77	317.69
584.981	304.69
585.191	299.69
585.401	279.69
585.611	295.69
585.821	304.69
586.032	289.69
586.242	285.69
586.452	287.69
586.662	289.69
586.872	298.69
587.082	297.69
587.292	288.69
587.502	298.69
587.713	297.69
587.923	293.69
588.133	314.69
588.343	302.69
588.553	297.69
588.762	296.69
588.972	312.69
589.182	317.69
589.392	318.69
589.602	310.69
589.812	294.69
590.022	316.69
590.232	282.69
590.441	286.69
590.651	290.69
590.861	306.69
591.071	297.69
591.281	296.69
591.49	315.69
591.7	302.69
591.91	315.69
592.119	310.69
592.329	315.69
592.539	337.69
592.748	324.69
592.958	334.69
593.167	340.69
593.377	348.69
593.587	345.69
593.796	363.69
594.006	350.69
594.215	368.69
594.424	343.69
594.634	337.69
594.843	320.69
595.053	316.69
595.262	323.69
595.472	312.69
595.681	309.69
595.89	315.69
596.1	295.69
596.309	289.69
596.518	288.69
596.727	294.69
596.937	288.69
597.146	275.69
597.355	284.69
597.564	275.69
597.774	269.69
597.983	276.69
598.192	280.69
598.401	248.69
598.61	261.69
598.819	272.69
599.028	267.69
599.237	255.69
599.446	266.69
599.655	269.69
599.864	260.69
600.073	258.69
600.282	263.69
600.491	254.69
600.7	269.69
600.909	267.69
601.118	265.69
601.327	268.69
601.536	263.69
601.745	261.69
601.953	256.69
602.162	250.69
602.371	248.69
602.58	262.69
602.789	265.69
602.997	244.69
603.206	258.69
603.415	252.69
603.623	247.69
603.832	265.69
604.041	267.69
604.249	260.69
604.458	237.69
604.666	245.69
604.875	264.69
605.084	251.69
605.292	244.69
605.501	257.69
605.709	254.69
605.918	258.69
606.126	244.69
606.334	245.69
606.543	263.69
606.751	246.69
606.96	254.69
607.168	250.69
607.376	259.69
607.585	256.69
607.793	242.69
608.001	241.69
608.21	241.69
608.418	236.69
608.626	245.69
608.834	239.69
609.043	219.69
609.251	241.69
609.459	238.69
609.667	231.69
609.875	233.69
610.083	211.69
610.291	223.69
610.499	244.69
610.707	260.69
610.916	258.69
611.124	263.69
611.332	244.69
611.54	246.69
611.748	248.69
611.955	244.69
612.163	244.69
612.371	249.69
612.579	248.69
612.787	228.69
612.995	229.69
613.203	258.69
613.411	229.69
613.618	224.69
613.826	235.69
614.034	236.69
614.242	228.69
614.449	238.69
614.657	249.69
614.865	226.69
615.072	248.69
615.28	243.69
615.488	223.69
615.695	219.69
615.903	230.69
616.111	251.69
616.318	240.69
616.526	227.69
616.733	254.69
616.941	223.69
617.148	248.69
617.356	240.69
617.563	243.69
617.771	243.69
617.978	247.69
618.185	234.69
618.393	219.69
618.6	245.69
618.807	245.69
619.015	225.69
619.222	234.69
619.429	231.69
619.637	227.69
619.844	239.69
620.051	244.69
620.258	224.69
620.466	234.69
620.673	234.69
620.88	222.69
621.087	213.69
621.294	232.69
621.501	235.69
621.708	219.69
621.915	205.69
622.122	229.69
622.329	224.69
622.536	216.69
622.743	228.69
622.95	227.69
623.157	227.69
623.364	213.69
623.571	237.69
623.778	220.69
623.985	228.69
624.192	208.69
624.399	203.69
624.606	228.69
624.812	226.69
625.019	203.69
625.226	223.69
625.433	217.69
625.639	202.69
625.846	201.69
626.053	208.69
626.259	198.69
626.466	210.69
626.673	214.69
626.879	201.69
627.086	211.69
627.293	216.69
627.499	220.69
627.706	204.69
627.912	204.69
628.119	204.69
628.325	203.69
628.532	214.69
628.738	202.69
628.945	210.69
629.151	202.69
629.357	191.69
629.564	191.69
629.77	190.69
629.976	194.69
630.183	202.69
630.389	207.69
630.595	194.69
630.802	198.69
631.008	201.69
631.214	194.69
631.42	185.69
631.627	203.69
631.833	192.69
632.039	199.69
632.245	192.69
632.451	190.69
632.657	188.69
632.863	184.69
633.069	196.69
633.275	179.69
633.481	180.69
633.688	179.69
633.893	198.69
634.099	192.69
634.305	185.69
634.511	187.69
634.717	210.69
634.923	187.69
635.129	188.69
635.335	180.69
635.541	176.69
635.747	174.69
635.952	188.69
636.158	181.69
636.364	190.69
636.57	185.69
636.775	190.69
636.981	191.69
637.187	163.69
637.392	182.69
637.598	181.69
637.804	187.69
638.009	182.69
638.215	183.69
638.421	164.69
638.626	190.69
638.832	176.69
639.037	167.69
639.243	184.69
639.448	172.69
639.654	178.69
639.859	181.69
640.065	190.69
640.27	193.69
640.475	174.69
640.681	173.69
640.886	177.69
641.091	176.69
641.297	180.69
641.502	165.69
641.707	176.69
641.913	160.69
642.118	176.69
642.323	178.69
642.528	164.69
642.733	182.69
642.939	169.69
643.144	174.69
643.349	170.69
643.554	166.69
643.759	182.69
643.964	174.69
644.169	161.69
644.374	178.69
644.579	165.69
644.784	166.69
644.989	171.69
645.194	178.69
645.399	166.69
645.604	162.69
645.809	170.69
646.014	174.69
646.219	185.69
646.423	154.69
646.628	148.69
646.833	182.69
647.038	179.69
647.243	182.69
647.447	186.69
647.652	176.69
647.857	179.69
648.062	200.69
648.266	184.69
648.471	173.69
648.676	182.69
648.88	183.69
649.085	178.69
649.289	172.69
649.494	155.69
649.698	190.69
649.903	175.69
650.107	166.69
650.312	180.69
650.516	154.69
650.721	159.69
650.925	156.69
651.13	150.69
651.334	156.69
651.539	151.69
651.743	170.69
651.947	162.69
652.152	152.69
652.356	137.69
652.56	138.69
652.764	145.69
652.969	154.69
653.173	148.69
653.377	136.69
653.581	138.69
653.785	138.69
653.99	151.69
654.194	154.69
654.398	139.69
654.602	134.69
654.806	139.69
655.01	132.69
655.214	146.69
655.418	152.69
655.622	143.69
655.826	146.69
656.03	140.69
656.234	147.69
656.438	143.69
656.642	158.69
656.846	127.69
657.049	135.69
657.253	139.69
657.457	130.69
657.661	121.69
657.865	113.69
658.068	98.69
658.272	114.69
658.476	104.69
658.68	100.69
658.883	86.69
659.087	90.69
659.291	98.69
659.494	110.69
659.698	114.69
659.901	100.69
660.105	83.69
660.309	97.69
660.512	112.69
660.716	98.69
660.919	95.69
661.123	94.69
661.326	79.69
661.53	91.69
661.733	90.69
661.936	86.69
662.14	105.69
662.343	72.69
662.546	72.69
662.75	92.69
662.953	95.69
663.156	89.69
663.36	88.69
663.563	89.69
663.766	82.69
663.969	76.69
664.173	74.69
664.376	85.69
664.579	87.69
664.782	70.69
664.985	75.69
665.188	78.69
665.391	98.69
665.594	58.69
665.797	82.69
666	88.69
666.203	75.69
666.406	76.69
666.609	74.69
666.812	90.69
667.015	70.69
667.218	88.69
667.421	79.69
667.624	75.69
667.827	72.69
668.03	81.69
668.232	73.69
668.435	93.69
668.638	89.69
668.841	78.69
669.043	89.69
669.246	79.69
669.449	77.69
669.651	87.69
669.854	82.69
670.057	74.69
670.259	79.69
670.462	92.69
670.665	84.69
670.867	86.69
671.07	72.69
671.272	71.69
671.475	90.69
671.677	83.69
671.88	88.69
672.082	88.69
672.284	81.69
672.487	65.69
672.689	76.69
672.892	82.69
