Data from 1973.PennyLincolnUp.Lamp.En5.5.200Scan.071719.P1.Changed Mount._HRD10591_15-45-17-853.txt Node
Date: Thu Jul 18 15:45:17 EDT 2019
User: cochatt
Spectrometer: HR+D1059
Trigger mode: 1
Integration Time (sec): 1.000000E-1
Scans to average: 1
Electric dark correction enabled: true
Nonlinearity correction enabled: false
Boxcar width: 0
XAxis mode: Wavelengths
Number of Pixels in Spectrum: 2048
>>>>>Begin Spectral Data<<<<<
223.165	-28.62
223.4	-28.62
223.635	-28.62
223.869	-20.62
224.104	-15.62
224.338	-8.62
224.573	-6.62
224.808	-3.62
225.042	-8.62
225.277	-4.62
225.511	3.38
225.746	1.38
225.98	-6.62
226.215	3.38
226.449	6.38
226.683	28.38
226.918	36.38
227.152	24.38
227.387	26.38
227.621	39.38
227.856	43.38
228.09	48.38
228.324	45.38
228.559	64.38
228.793	68.38
229.027	102.38
229.262	107.38
229.496	89.38
229.73	114.38
229.964	130.38
230.199	123.38
230.433	135.38
230.667	103.38
230.901	100.38
231.136	109.38
231.37	112.38
231.604	118.38
231.838	109.38
232.072	108.38
232.306	122.38
232.541	101.38
232.775	118.38
233.009	109.38
233.243	116.38
233.477	112.38
233.711	111.38
233.945	117.38
234.179	104.38
234.413	120.38
234.647	118.38
234.881	119.38
235.115	123.38
235.349	115.38
235.583	124.38
235.817	112.38
236.051	110.38
236.285	136.38
236.519	120.38
236.753	130.38
236.987	133.38
237.221	167.38
237.455	188.38
237.689	176.38
237.922	134.38
238.156	132.38
238.39	122.38
238.624	124.38
238.858	119.38
239.091	116.38
239.325	122.38
239.559	128.38
239.793	123.38
240.027	125.38
240.26	143.38
240.494	170.38
240.728	152.38
240.961	149.38
241.195	137.38
241.429	137.38
241.662	140.38
241.896	143.38
242.13	140.38
242.363	130.38
242.597	128.38
242.83	141.38
243.064	139.38
243.298	141.38
243.531	143.38
243.765	141.38
243.998	144.38
244.232	150.38
244.465	142.38
244.699	135.38
244.932	154.38
245.166	158.38
245.399	150.38
245.633	151.38
245.866	162.38
246.099	157.38
246.333	144.38
246.566	166.38
246.8	150.38
247.033	157.38
247.266	163.38
247.5	157.38
247.733	157.38
247.966	165.38
248.2	189.38
248.433	189.38
248.666	162.38
248.899	178.38
249.133	188.38
249.366	206.38
249.599	207.38
249.832	199.38
250.066	193.38
250.299	192.38
250.532	194.38
250.765	203.38
250.998	210.38
251.231	184.38
251.465	180.38
251.698	193.38
251.931	203.38
252.164	194.38
252.397	213.38
252.63	199.38
252.863	206.38
253.096	214.38
253.329	222.38
253.562	221.38
253.795	221.38
254.028	203.38
254.261	206.38
254.494	225.38
254.727	245.38
254.96	255.38
255.193	261.38
255.426	238.38
255.659	232.38
255.892	228.38
256.124	219.38
256.357	243.38
256.59	225.38
256.823	228.38
257.056	206.38
257.289	198.38
257.521	211.38
257.754	226.38
257.987	202.38
258.22	213.38
258.452	207.38
258.685	208.38
258.918	203.38
259.151	226.38
259.383	202.38
259.616	228.38
259.849	224.38
260.081	234.38
260.314	241.38
260.547	242.38
260.779	245.38
261.012	241.38
261.244	229.38
261.477	233.38
261.71	243.38
261.942	231.38
262.175	222.38
262.407	226.38
262.64	227.38
262.872	217.38
263.105	224.38
263.337	209.38
263.57	217.38
263.802	223.38
264.035	218.38
264.267	219.38
264.499	200.38
264.732	202.38
264.964	230.38
265.197	224.38
265.429	230.38
265.661	243.38
265.894	242.38
266.126	215.38
266.358	224.38
266.591	235.38
266.823	228.38
267.055	240.38
267.287	238.38
267.52	241.38
267.752	245.38
267.984	253.38
268.216	237.38
268.448	250.38
268.681	231.38
268.913	244.38
269.145	270.38
269.377	289.38
269.609	288.38
269.841	286.38
270.073	293.38
270.306	282.38
270.538	315.38
270.77	313.38
271.002	320.38
271.234	306.38
271.466	317.38
271.698	315.38
271.93	334.38
272.162	323.38
272.394	328.38
272.626	300.38
272.858	310.38
273.09	298.38
273.322	283.38
273.553	251.38
273.785	286.38
274.017	276.38
274.249	268.38
274.481	286.38
274.713	280.38
274.945	265.38
275.176	300.38
275.408	284.38
275.64	288.38
275.872	260.38
276.104	286.38
276.335	294.38
276.567	280.38
276.799	294.38
277.031	307.38
277.262	321.38
277.494	316.38
277.726	308.38
277.957	302.38
278.189	301.38
278.421	300.38
278.652	296.38
278.884	290.38
279.115	281.38
279.347	283.38
279.579	289.38
279.81	284.38
280.042	278.38
280.273	310.38
280.505	294.38
280.736	294.38
280.968	299.38
281.199	302.38
281.431	298.38
281.662	308.38
281.894	281.38
282.125	295.38
282.356	299.38
282.588	312.38
282.819	298.38
283.051	294.38
283.282	313.38
283.513	304.38
283.745	293.38
283.976	303.38
284.207	304.38
284.439	314.38
284.67	297.38
284.901	301.38
285.132	309.38
285.364	300.38
285.595	300.38
285.826	304.38
286.057	306.38
286.288	332.38
286.52	306.38
286.751	324.38
286.982	312.38
287.213	315.38
287.444	317.38
287.675	321.38
287.906	326.38
288.138	329.38
288.369	331.38
288.6	305.38
288.831	308.38
289.062	317.38
289.293	308.38
289.524	313.38
289.755	308.38
289.986	306.38
290.217	326.38
290.448	312.38
290.679	321.38
290.91	311.38
291.141	337.38
291.371	333.38
291.602	338.38
291.833	302.38
292.064	324.38
292.295	325.38
292.526	321.38
292.757	328.38
292.987	327.38
293.218	311.38
293.449	341.38
293.68	333.38
293.91	309.38
294.141	338.38
294.372	322.38
294.603	339.38
294.833	314.38
295.064	333.38
295.295	317.38
295.525	324.38
295.756	328.38
295.987	331.38
296.217	347.38
296.448	341.38
296.679	338.38
296.909	330.38
297.14	326.38
297.37	325.38
297.601	321.38
297.831	333.38
298.062	335.38
298.292	336.38
298.523	356.38
298.753	357.38
298.984	342.38
299.214	331.38
299.445	352.38
299.675	320.38
299.905	345.38
300.136	349.38
300.366	351.38
300.597	368.38
300.827	351.38
301.057	338.38
301.288	357.38
301.518	354.38
301.748	349.38
301.979	370.38
302.209	346.38
302.439	357.38
302.669	351.38
302.9	359.38
303.13	383.38
303.36	345.38
303.59	361.38
303.82	358.38
304.051	378.38
304.281	370.38
304.511	365.38
304.741	340.38
304.971	362.38
305.201	361.38
305.431	363.38
305.661	360.38
305.891	368.38
306.121	368.38
306.352	368.38
306.582	344.38
306.812	360.38
307.042	368.38
307.272	364.38
307.502	361.38
307.731	370.38
307.961	360.38
308.191	364.38
308.421	365.38
308.651	360.38
308.881	369.38
309.111	371.38
309.341	368.38
309.571	384.38
309.8	383.38
310.03	396.38
310.26	392.38
310.49	372.38
310.72	386.38
310.949	394.38
311.179	396.38
311.409	374.38
311.639	380.38
311.868	397.38
312.098	392.38
312.328	391.38
312.557	402.38
312.787	404.38
313.017	412.38
313.246	403.38
313.476	410.38
313.706	404.38
313.935	393.38
314.165	414.38
314.394	406.38
314.624	414.38
314.853	389.38
315.083	406.38
315.312	390.38
315.542	418.38
315.771	390.38
316.001	391.38
316.23	389.38
316.46	407.38
316.689	387.38
316.919	410.38
317.148	414.38
317.377	386.38
317.607	397.38
317.836	398.38
318.065	421.38
318.295	403.38
318.524	387.38
318.753	395.38
318.983	386.38
319.212	406.38
319.441	411.38
319.67	400.38
319.9	390.38
320.129	401.38
320.358	394.38
320.587	416.38
320.816	397.38
321.046	413.38
321.275	414.38
321.504	419.38
321.733	418.38
321.962	436.38
322.191	423.38
322.42	426.38
322.649	422.38
322.878	434.38
323.108	447.38
323.337	477.38
323.566	479.38
323.795	485.38
324.024	498.38
324.253	578.38
324.482	753.38
324.71	1072.38
324.939	1481.38
325.168	1344.38
325.397	757.38
325.626	576.38
325.855	510.38
326.084	486.38
326.313	473.38
326.542	476.38
326.77	488.38
326.999	564.38
327.228	712.38
327.457	975.38
327.686	1185.38
327.914	840.38
328.143	605.38
328.372	539.38
328.6	536.38
328.829	518.38
329.058	504.38
329.287	528.38
329.515	484.38
329.744	480.38
329.972	492.38
330.201	502.38
330.43	534.38
330.658	537.38
330.887	542.38
331.115	553.38
331.344	502.38
331.572	503.38
331.801	518.38
332.03	502.38
332.258	499.38
332.486	482.38
332.715	485.38
332.943	465.38
333.172	502.38
333.4	502.38
333.629	505.38
333.857	549.38
334.085	519.38
334.314	536.38
334.542	545.38
334.771	541.38
334.999	546.38
335.227	512.38
335.455	488.38
335.684	497.38
335.912	487.38
336.14	480.38
336.369	493.38
336.597	493.38
336.825	483.38
337.053	481.38
337.281	490.38
337.51	456.38
337.738	455.38
337.966	473.38
338.194	482.38
338.422	464.38
338.65	464.38
338.878	481.38
339.106	455.38
339.334	463.38
339.562	459.38
339.79	460.38
340.018	429.38
340.246	477.38
340.474	460.38
340.702	463.38
340.93	452.38
341.158	427.38
341.386	466.38
341.614	472.38
341.842	482.38
342.07	442.38
342.298	455.38
342.526	442.38
342.754	461.38
342.981	452.38
343.209	426.38
343.437	456.38
343.665	483.38
343.893	493.38
344.12	507.38
344.348	490.38
344.576	469.38
344.804	473.38
345.031	457.38
345.259	475.38
345.487	474.38
345.714	435.38
345.942	439.38
346.17	457.38
346.397	410.38
346.625	419.38
346.853	419.38
347.08	435.38
347.308	437.38
347.535	436.38
347.763	439.38
347.99	426.38
348.218	433.38
348.445	438.38
348.673	429.38
348.9	443.38
349.128	416.38
349.355	422.38
349.583	433.38
349.81	418.38
350.037	418.38
350.265	416.38
350.492	409.38
350.72	424.38
350.947	416.38
351.174	434.38
351.402	427.38
351.629	418.38
351.856	426.38
352.083	444.38
352.311	434.38
352.538	428.38
352.765	450.38
352.992	455.38
353.22	433.38
353.447	416.38
353.674	424.38
353.901	424.38
354.128	408.38
354.355	413.38
354.583	428.38
354.81	406.38
355.037	415.38
355.264	414.38
355.491	403.38
355.718	414.38
355.945	423.38
356.172	423.38
356.399	412.38
356.626	428.38
356.853	423.38
357.08	404.38
357.307	422.38
357.534	392.38
357.761	407.38
357.988	410.38
358.215	411.38
358.441	426.38
358.668	413.38
358.895	419.38
359.122	395.38
359.349	423.38
359.576	411.38
359.802	436.38
360.029	470.38
360.256	464.38
360.483	453.38
360.709	438.38
360.936	428.38
361.163	429.38
361.39	434.38
361.616	442.38
361.843	429.38
362.07	426.38
362.296	427.38
362.523	427.38
362.749	428.38
362.976	420.38
363.203	418.38
363.429	411.38
363.656	426.38
363.882	417.38
364.109	429.38
364.335	418.38
364.562	418.38
364.788	414.38
365.015	421.38
365.241	432.38
365.468	419.38
365.694	448.38
365.92	413.38
366.147	418.38
366.373	397.38
366.599	416.38
366.826	415.38
367.052	410.38
367.278	434.38
367.505	421.38
367.731	424.38
367.957	406.38
368.184	412.38
368.41	408.38
368.636	441.38
368.862	433.38
369.089	422.38
369.315	424.38
369.541	424.38
369.767	417.38
369.993	420.38
370.219	422.38
370.445	419.38
370.672	413.38
370.898	420.38
371.124	400.38
371.35	424.38
371.576	417.38
371.802	427.38
372.028	425.38
372.254	421.38
372.48	435.38
372.706	422.38
372.932	443.38
373.158	438.38
373.384	435.38
373.61	433.38
373.835	411.38
374.061	422.38
374.287	435.38
374.513	434.38
374.739	453.38
374.965	454.38
375.191	451.38
375.416	449.38
375.642	419.38
375.868	440.38
376.094	416.38
376.319	440.38
376.545	445.38
376.771	432.38
376.997	420.38
377.222	411.38
377.448	425.38
377.674	425.38
377.899	427.38
378.125	428.38
378.35	423.38
378.576	414.38
378.802	423.38
379.027	421.38
379.253	418.38
379.478	408.38
379.704	406.38
379.929	438.38
380.155	425.38
380.38	415.38
380.606	457.38
380.831	429.38
381.057	425.38
381.282	405.38
381.507	444.38
381.733	419.38
381.958	421.38
382.184	412.38
382.409	440.38
382.634	433.38
382.86	432.38
383.085	448.38
383.31	457.38
383.535	467.38
383.761	452.38
383.986	440.38
384.211	448.38
384.436	478.38
384.662	474.38
384.887	474.38
385.112	469.38
385.337	490.38
385.562	482.38
385.787	465.38
386.013	491.38
386.238	484.38
386.463	479.38
386.688	466.38
386.913	480.38
387.138	506.38
387.363	497.38
387.588	470.38
387.813	479.38
388.038	477.38
388.263	483.38
388.488	476.38
388.713	471.38
388.938	460.38
389.163	470.38
389.387	465.38
389.612	475.38
389.837	458.38
390.062	481.38
390.287	452.38
390.512	468.38
390.736	486.38
390.961	476.38
391.186	502.38
391.411	494.38
391.636	510.38
391.86	504.38
392.085	498.38
392.31	502.38
392.534	492.38
392.759	528.38
392.984	496.38
393.208	481.38
393.433	493.38
393.658	497.38
393.882	485.38
394.107	493.38
394.331	480.38
394.556	466.38
394.78	491.38
395.005	491.38
395.229	486.38
395.454	506.38
395.678	496.38
395.903	507.38
396.127	542.38
396.352	530.38
396.576	501.38
396.801	492.38
397.025	508.38
397.249	530.38
397.474	524.38
397.698	522.38
397.922	539.38
398.147	535.38
398.371	546.38
398.595	546.38
398.82	540.38
399.044	604.38
399.268	614.38
399.492	634.38
399.717	738.38
399.941	733.38
400.165	715.38
400.389	718.38
400.613	640.38
400.837	601.38
401.062	578.38
401.286	566.38
401.51	571.38
401.734	574.38
401.958	570.38
402.182	567.38
402.406	579.38
402.63	584.38
402.854	603.38
403.078	588.38
403.302	592.38
403.526	611.38
403.75	592.38
403.974	582.38
404.198	614.38
404.422	613.38
404.645	613.38
404.869	612.38
405.093	624.38
405.317	651.38
405.541	665.38
405.765	649.38
405.988	611.38
406.212	624.38
406.436	633.38
406.66	629.38
406.883	641.38
407.107	638.38
407.331	714.38
407.555	774.38
407.778	745.38
408.002	709.38
408.226	680.38
408.449	640.38
408.673	645.38
408.896	662.38
409.12	691.38
409.344	673.38
409.567	603.38
409.791	628.38
410.014	603.38
410.238	594.38
410.461	595.38
410.685	577.38
410.908	611.38
411.132	629.38
411.355	671.38
411.578	639.38
411.802	599.38
412.025	601.38
412.249	574.38
412.472	580.38
412.695	622.38
412.919	620.38
413.142	608.38
413.365	558.38
413.589	581.38
413.812	559.38
414.035	580.38
414.258	540.38
414.482	569.38
414.705	564.38
414.928	572.38
415.151	558.38
415.374	563.38
415.597	545.38
415.821	544.38
416.044	543.38
416.267	547.38
416.49	564.38
416.713	550.38
416.936	553.38
417.159	548.38
417.382	543.38
417.605	563.38
417.828	566.38
418.051	572.38
418.274	578.38
418.497	565.38
418.72	555.38
418.943	546.38
419.166	590.38
419.389	601.38
419.611	586.38
419.834	602.38
420.057	600.38
420.28	577.38
420.503	576.38
420.726	572.38
420.948	572.38
421.171	615.38
421.394	632.38
421.617	594.38
421.839	559.38
422.062	564.38
422.285	562.38
422.507	641.38
422.73	696.38
422.953	656.38
423.175	614.38
423.398	601.38
423.621	616.38
423.843	640.38
424.066	615.38
424.288	599.38
424.511	635.38
424.733	681.38
424.956	727.38
425.178	711.38
425.401	696.38
425.623	707.38
425.846	624.38
426.068	596.38
426.291	586.38
426.513	598.38
426.735	612.38
426.958	609.38
427.18	677.38
427.402	802.38
427.625	868.38
427.847	723.38
428.069	636.38
428.292	602.38
428.514	584.38
428.736	548.38
428.958	554.38
429.181	534.38
429.403	526.38
429.625	536.38
429.847	582.38
430.069	613.38
430.292	606.38
430.514	545.38
430.736	566.38
430.958	524.38
431.18	525.38
431.402	521.38
431.624	520.38
431.846	506.38
432.068	518.38
432.29	545.38
432.512	520.38
432.734	525.38
432.956	510.38
433.178	530.38
433.4	532.38
433.622	549.38
433.844	530.38
434.066	517.38
434.287	522.38
434.509	527.38
434.731	520.38
434.953	556.38
435.175	572.38
435.397	587.38
435.618	595.38
435.84	616.38
436.062	691.38
436.284	752.38
436.505	611.38
436.727	558.38
436.949	549.38
437.17	547.38
437.392	545.38
437.614	533.38
437.835	570.38
438.057	630.38
438.278	721.38
438.5	715.38
438.721	779.38
438.943	752.38
439.165	624.38
439.386	574.38
439.608	573.38
439.829	565.38
440.05	595.38
440.272	603.38
440.493	574.38
440.715	583.38
440.936	546.38
441.158	569.38
441.379	566.38
441.6	562.38
441.822	584.38
442.043	626.38
442.264	706.38
442.486	727.38
442.707	649.38
442.928	575.38
443.149	582.38
443.371	627.38
443.592	629.38
443.813	708.38
444.034	782.38
444.255	699.38
444.476	650.38
444.698	640.38
444.919	626.38
445.14	718.38
445.361	705.38
445.582	614.38
445.803	637.38
446.024	754.38
446.245	750.38
446.466	674.38
446.687	591.38
446.908	560.38
447.129	528.38
447.35	518.38
447.571	532.38
447.792	532.38
448.013	534.38
448.234	551.38
448.455	557.38
448.675	661.38
448.896	763.38
449.117	666.38
449.338	609.38
449.559	709.38
449.779	778.38
450	637.38
450.221	573.38
450.442	535.38
450.662	526.38
450.883	519.38
451.104	530.38
451.324	530.38
451.545	515.38
451.766	480.38
451.986	486.38
452.207	453.38
452.428	470.38
452.648	463.38
452.869	490.38
453.089	475.38
453.31	529.38
453.53	476.38
453.751	474.38
453.971	468.38
454.192	475.38
454.412	475.38
454.633	455.38
454.853	474.38
455.073	466.38
455.294	477.38
455.514	554.38
455.734	523.38
455.955	469.38
456.175	481.38
456.395	460.38
456.616	457.38
456.836	438.38
457.056	450.38
457.276	451.38
457.497	461.38
457.717	484.38
457.937	464.38
458.157	461.38
458.377	455.38
458.598	483.38
458.818	546.38
459.038	565.38
459.258	605.38
459.478	573.38
459.698	532.38
459.918	537.38
460.138	525.38
460.358	538.38
460.578	547.38
460.798	528.38
461.018	556.38
461.238	566.38
461.458	547.38
461.678	567.38
461.898	555.38
462.118	572.38
462.338	596.38
462.558	587.38
462.777	603.38
462.997	645.38
463.217	662.38
463.437	655.38
463.657	606.38
463.876	605.38
464.096	608.38
464.316	600.38
464.536	600.38
464.755	605.38
464.975	576.38
465.195	592.38
465.414	615.38
465.634	550.38
465.854	514.38
466.073	513.38
466.293	530.38
466.512	503.38
466.732	519.38
466.951	485.38
467.171	496.38
467.391	510.38
467.61	519.38
467.829	490.38
468.049	498.38
468.268	496.38
468.488	491.38
468.707	476.38
468.927	493.38
469.146	458.38
469.365	489.38
469.585	473.38
469.804	493.38
470.023	512.38
470.243	516.38
470.462	499.38
470.681	511.38
470.901	526.38
471.12	508.38
471.339	501.38
471.558	510.38
471.777	494.38
471.997	484.38
472.216	518.38
472.435	532.38
472.654	504.38
472.873	484.38
473.092	509.38
473.311	498.38
473.53	490.38
473.749	497.38
473.968	526.38
474.187	608.38
474.406	632.38
474.625	525.38
474.844	514.38
475.063	501.38
475.282	501.38
475.501	514.38
475.72	491.38
475.939	499.38
476.158	496.38
476.377	520.38
476.596	511.38
476.814	532.38
477.033	522.38
477.252	523.38
477.471	534.38
477.69	545.38
477.908	546.38
478.127	543.38
478.346	553.38
478.564	568.38
478.783	575.38
479.002	577.38
479.22	586.38
479.439	593.38
479.658	613.38
479.876	590.38
480.095	620.38
480.313	641.38
480.532	630.38
480.751	619.38
480.969	648.38
481.188	648.38
481.406	643.38
481.624	641.38
481.843	614.38
482.061	574.38
482.28	583.38
482.498	582.38
482.717	565.38
482.935	569.38
483.153	585.38
483.372	584.38
483.59	588.38
483.808	564.38
484.027	573.38
484.245	579.38
484.463	590.38
484.681	577.38
484.9	585.38
485.118	589.38
485.336	590.38
485.554	595.38
485.772	587.38
485.99	609.38
486.209	601.38
486.427	601.38
486.645	594.38
486.863	621.38
487.081	604.38
487.299	607.38
487.517	615.38
487.735	630.38
487.953	622.38
488.171	605.38
488.389	610.38
488.607	614.38
488.825	613.38
489.043	618.38
489.261	614.38
489.479	639.38
489.696	624.38
489.914	641.38
490.132	649.38
490.35	637.38
490.568	651.38
490.786	637.38
491.003	647.38
491.221	669.38
491.439	679.38
491.657	699.38
491.874	709.38
492.092	688.38
492.31	698.38
492.527	684.38
492.745	702.38
492.963	712.38
493.18	714.38
493.398	705.38
493.615	708.38
493.833	742.38
494.05	729.38
494.268	699.38
494.485	708.38
494.703	700.38
494.92	726.38
495.138	714.38
495.355	725.38
495.573	714.38
495.79	707.38
496.008	731.38
496.225	712.38
496.442	730.38
496.66	727.38
496.877	743.38
497.094	736.38
497.312	747.38
497.529	780.38
497.746	761.38
497.963	770.38
498.181	793.38
498.398	831.38
498.615	838.38
498.832	870.38
499.049	897.38
499.267	940.38
499.484	978.38
499.701	1065.38
499.918	1104.38
500.135	1172.38
500.352	1237.38
500.569	1272.38
500.786	1268.38
501.003	1229.38
501.22	1188.38
501.437	1115.38
501.654	1052.38
501.871	1010.38
502.088	981.38
502.305	924.38
502.522	862.38
502.739	869.38
502.956	823.38
503.172	795.38
503.389	768.38
503.606	790.38
503.823	771.38
504.04	753.38
504.256	736.38
504.473	767.38
504.69	767.38
504.907	757.38
505.123	710.38
505.34	694.38
505.557	704.38
505.773	681.38
505.99	672.38
506.207	688.38
506.423	694.38
506.64	645.38
506.856	658.38
507.073	651.38
507.289	638.38
507.506	652.38
507.722	661.38
507.939	654.38
508.155	642.38
508.372	647.38
508.588	648.38
508.805	627.38
509.021	630.38
509.238	638.38
509.454	642.38
509.67	650.38
509.887	650.38
510.103	647.38
510.319	642.38
510.536	670.38
510.752	913.38
510.968	775.38
511.184	603.38
511.401	616.38
511.617	606.38
511.833	590.38
512.049	597.38
512.265	609.38
512.481	597.38
512.698	585.38
512.914	566.38
513.13	578.38
513.346	572.38
513.562	600.38
513.778	589.38
513.994	609.38
514.21	582.38
514.426	609.38
514.642	629.38
514.858	642.38
515.074	636.38
515.29	705.38
515.506	973.38
515.721	822.38
515.937	653.38
516.153	644.38
516.369	633.38
516.585	649.38
516.801	653.38
517.016	607.38
517.232	665.38
517.448	685.38
517.664	661.38
517.879	688.38
518.095	682.38
518.311	650.38
518.527	659.38
518.742	637.38
518.958	607.38
519.173	626.38
519.389	627.38
519.605	600.38
519.82	581.38
520.036	596.38
520.251	614.38
520.467	633.38
520.682	624.38
520.898	627.38
521.113	612.38
521.329	615.38
521.544	684.38
521.76	781.38
521.975	1126.38
522.19	1102.38
522.406	712.38
522.621	596.38
522.836	565.38
523.052	566.38
523.267	548.38
523.482	542.38
523.698	547.38
523.913	526.38
524.128	540.38
524.343	539.38
524.559	534.38
524.774	536.38
524.989	500.38
525.204	532.38
525.419	536.38
525.634	538.38
525.849	505.38
526.064	514.38
526.28	500.38
526.495	497.38
526.71	475.38
526.925	483.38
527.14	501.38
527.355	488.38
527.57	500.38
527.785	490.38
527.999	512.38
528.214	508.38
528.429	525.38
528.644	511.38
528.859	510.38
529.074	501.38
529.289	539.38
529.503	535.38
529.718	547.38
529.933	529.38
530.148	482.38
530.363	494.38
530.577	504.38
530.792	465.38
531.007	488.38
531.221	487.38
531.436	483.38
531.651	482.38
531.865	471.38
532.08	487.38
532.295	481.38
532.509	478.38
532.724	460.38
532.938	493.38
533.153	481.38
533.367	484.38
533.582	482.38
533.796	489.38
534.011	503.38
534.225	485.38
534.44	466.38
534.654	460.38
534.868	464.38
535.083	471.38
535.297	483.38
535.511	479.38
535.726	479.38
535.94	470.38
536.154	459.38
536.369	469.38
536.583	475.38
536.797	464.38
537.011	465.38
537.225	458.38
537.44	466.38
537.654	458.38
537.868	466.38
538.082	483.38
538.296	478.38
538.51	460.38
538.724	460.38
538.938	461.38
539.153	461.38
539.367	464.38
539.581	451.38
539.795	460.38
540.009	436.38
540.222	460.38
540.436	463.38
540.65	444.38
540.864	446.38
541.078	461.38
541.292	476.38
541.506	482.38
541.72	469.38
541.934	466.38
542.147	470.38
542.361	462.38
542.575	470.38
542.789	438.38
543.002	449.38
543.216	472.38
543.43	455.38
543.644	457.38
543.857	462.38
544.071	465.38
544.285	476.38
544.498	463.38
544.712	456.38
544.925	477.38
545.139	474.38
545.352	481.38
545.566	462.38
545.779	457.38
545.993	471.38
546.206	491.38
546.42	460.38
546.633	466.38
546.847	477.38
547.06	461.38
547.274	445.38
547.487	445.38
547.7	446.38
547.914	454.38
548.127	460.38
548.34	482.38
548.554	469.38
548.767	449.38
548.98	443.38
549.193	459.38
549.407	433.38
549.62	469.38
549.833	475.38
550.046	468.38
550.259	460.38
550.473	452.38
550.686	445.38
550.899	463.38
551.112	457.38
551.325	453.38
551.538	449.38
551.751	454.38
551.964	436.38
552.177	454.38
552.39	450.38
552.603	454.38
552.816	475.38
553.029	477.38
553.242	455.38
553.455	476.38
553.667	485.38
553.88	486.38
554.093	458.38
554.306	469.38
554.519	488.38
554.732	452.38
554.944	459.38
555.157	436.38
555.37	437.38
555.583	427.38
555.795	448.38
556.008	422.38
556.221	438.38
556.433	419.38
556.646	429.38
556.859	409.38
557.071	396.38
557.284	397.38
557.496	418.38
557.709	407.38
557.921	435.38
558.134	403.38
558.346	402.38
558.559	416.38
558.771	401.38
558.984	398.38
559.196	409.38
559.409	390.38
559.621	385.38
559.833	391.38
560.046	395.38
560.258	417.38
560.47	402.38
560.683	393.38
560.895	404.38
561.107	403.38
561.32	391.38
561.532	419.38
561.744	399.38
561.956	390.38
562.168	398.38
562.381	407.38
562.593	413.38
562.805	398.38
563.017	432.38
563.229	395.38
563.441	405.38
563.653	411.38
563.865	411.38
564.077	390.38
564.289	404.38
564.501	426.38
564.713	429.38
564.925	434.38
565.137	438.38
565.349	455.38
565.561	457.38
565.773	461.38
565.985	474.38
566.197	466.38
566.408	513.38
566.62	540.38
566.832	570.38
567.044	551.38
567.255	552.38
567.467	574.38
567.679	591.38
567.891	593.38
568.102	601.38
568.314	584.38
568.526	561.38
568.737	526.38
568.949	510.38
569.161	487.38
569.372	475.38
569.584	443.38
569.795	423.38
570.007	418.38
570.218	456.38
570.43	445.38
570.641	416.38
570.853	414.38
571.064	404.38
571.276	422.38
571.487	400.38
571.698	402.38
571.91	397.38
572.121	414.38
572.333	384.38
572.544	360.38
572.755	374.38
572.966	367.38
573.178	361.38
573.389	350.38
573.6	347.38
573.811	349.38
574.023	342.38
574.234	349.38
574.445	354.38
574.656	350.38
574.867	352.38
575.078	334.38
575.289	356.38
575.501	343.38
575.712	337.38
575.923	347.38
576.134	360.38
576.345	354.38
576.556	359.38
576.767	343.38
576.978	325.38
577.188	333.38
577.399	333.38
577.61	333.38
577.821	354.38
578.032	336.38
578.243	354.38
578.454	461.38
578.665	396.38
578.875	322.38
579.086	311.38
579.297	304.38
579.508	329.38
579.718	336.38
579.929	319.38
580.14	311.38
580.35	316.38
580.561	306.38
580.772	306.38
580.982	327.38
581.193	320.38
581.403	319.38
581.614	316.38
581.825	344.38
582.035	302.38
582.246	324.38
582.456	325.38
582.667	328.38
582.877	308.38
583.087	304.38
583.298	312.38
583.508	306.38
583.719	310.38
583.929	332.38
584.139	316.38
584.35	318.38
584.56	309.38
584.77	314.38
584.981	302.38
585.191	308.38
585.401	304.38
585.611	316.38
585.821	302.38
586.032	302.38
586.242	305.38
586.452	289.38
586.662	312.38
586.872	316.38
587.082	295.38
587.292	315.38
587.502	296.38
587.713	297.38
587.923	323.38
588.133	298.38
588.343	291.38
588.553	289.38
588.762	296.38
588.972	295.38
589.182	296.38
589.392	308.38
589.602	311.38
589.812	329.38
590.022	298.38
590.232	305.38
590.441	297.38
590.651	299.38
590.861	312.38
591.071	300.38
591.281	296.38
591.49	310.38
591.7	319.38
591.91	311.38
592.119	317.38
592.329	333.38
592.539	335.38
592.748	336.38
592.958	336.38
593.167	326.38
593.377	352.38
593.587	336.38
593.796	343.38
594.006	349.38
594.215	357.38
594.424	349.38
594.634	341.38
594.843	348.38
595.053	335.38
595.262	316.38
595.472	308.38
595.681	325.38
595.89	320.38
596.1	318.38
596.309	302.38
596.518	297.38
596.727	291.38
596.937	282.38
597.146	307.38
597.355	301.38
597.564	269.38
597.774	284.38
597.983	284.38
598.192	278.38
598.401	277.38
598.61	283.38
598.819	284.38
599.028	290.38
599.237	279.38
599.446	270.38
599.655	281.38
599.864	260.38
600.073	277.38
600.282	262.38
600.491	263.38
600.7	258.38
600.909	265.38
601.118	261.38
601.327	262.38
601.536	252.38
601.745	261.38
601.953	266.38
602.162	262.38
602.371	277.38
602.58	269.38
602.789	255.38
602.997	257.38
603.206	266.38
603.415	261.38
603.623	267.38
603.832	254.38
604.041	235.38
604.249	236.38
604.458	260.38
604.666	235.38
604.875	248.38
605.084	252.38
605.292	238.38
605.501	244.38
605.709	256.38
605.918	253.38
606.126	263.38
606.334	255.38
606.543	257.38
606.751	256.38
606.96	226.38
607.168	227.38
607.376	242.38
607.585	253.38
607.793	247.38
608.001	264.38
608.21	252.38
608.418	244.38
608.626	255.38
608.834	245.38
609.043	272.38
609.251	252.38
609.459	243.38
609.667	247.38
609.875	242.38
610.083	249.38
610.291	255.38
610.499	249.38
610.707	250.38
610.916	242.38
611.124	241.38
611.332	232.38
611.54	251.38
611.748	263.38
611.955	235.38
612.163	247.38
612.371	254.38
612.579	241.38
612.787	266.38
612.995	275.38
613.203	248.38
613.411	262.38
613.618	248.38
613.826	244.38
614.034	251.38
614.242	227.38
614.449	235.38
614.657	242.38
614.865	249.38
615.072	246.38
615.28	256.38
615.488	240.38
615.695	230.38
615.903	253.38
616.111	257.38
616.318	246.38
616.526	252.38
616.733	237.38
616.941	242.38
617.148	248.38
617.356	248.38
617.563	224.38
617.771	224.38
617.978	219.38
618.185	261.38
618.393	244.38
618.6	246.38
618.807	233.38
619.015	236.38
619.222	227.38
619.429	237.38
619.637	257.38
619.844	242.38
620.051	230.38
620.258	230.38
620.466	221.38
620.673	247.38
620.88	248.38
621.087	230.38
621.294	226.38
621.501	227.38
621.708	235.38
621.915	209.38
622.122	232.38
622.329	218.38
622.536	227.38
622.743	208.38
622.95	237.38
623.157	210.38
623.364	229.38
623.571	206.38
623.778	221.38
623.985	212.38
624.192	234.38
624.399	195.38
624.606	213.38
624.812	208.38
625.019	230.38
625.226	218.38
625.433	238.38
625.639	201.38
625.846	227.38
626.053	211.38
626.259	214.38
626.466	221.38
626.673	201.38
626.879	207.38
627.086	221.38
627.293	206.38
627.499	208.38
627.706	225.38
627.912	216.38
628.119	225.38
628.325	212.38
628.532	211.38
628.738	206.38
628.945	207.38
629.151	217.38
629.357	223.38
629.564	201.38
629.77	183.38
629.976	202.38
630.183	198.38
630.389	186.38
630.595	203.38
630.802	200.38
631.008	202.38
631.214	211.38
631.42	210.38
631.627	195.38
631.833	187.38
632.039	187.38
632.245	215.38
632.451	211.38
632.657	182.38
632.863	187.38
633.069	188.38
633.275	195.38
633.481	193.38
633.688	188.38
633.893	197.38
634.099	188.38
634.305	206.38
634.511	190.38
634.717	170.38
634.923	180.38
635.129	182.38
635.335	192.38
635.541	179.38
635.747	185.38
635.952	180.38
636.158	187.38
636.364	199.38
636.57	184.38
636.775	184.38
636.981	206.38
637.187	192.38
637.392	181.38
637.598	195.38
637.804	201.38
638.009	171.38
638.215	192.38
638.421	178.38
638.626	179.38
638.832	180.38
639.037	181.38
639.243	168.38
639.448	184.38
639.654	190.38
639.859	160.38
640.065	178.38
640.27	186.38
640.475	173.38
640.681	169.38
640.886	184.38
641.091	184.38
641.297	167.38
641.502	168.38
641.707	182.38
641.913	178.38
642.118	157.38
642.323	190.38
642.528	161.38
642.733	166.38
642.939	173.38
643.144	186.38
643.349	162.38
643.554	171.38
643.759	164.38
643.964	159.38
644.169	167.38
644.374	183.38
644.579	178.38
644.784	171.38
644.989	169.38
645.194	162.38
645.399	155.38
645.604	180.38
645.809	176.38
646.014	178.38
646.219	151.38
646.423	188.38
646.628	177.38
646.833	172.38
647.038	165.38
647.243	172.38
647.447	168.38
647.652	177.38
647.857	173.38
648.062	189.38
648.266	188.38
648.471	184.38
648.676	157.38
648.88	179.38
649.085	187.38
649.289	162.38
649.494	176.38
649.698	173.38
649.903	181.38
650.107	193.38
650.312	169.38
650.516	172.38
650.721	149.38
650.925	151.38
651.13	169.38
651.334	144.38
651.539	165.38
651.743	151.38
651.947	134.38
652.152	165.38
652.356	153.38
652.56	148.38
652.764	145.38
652.969	148.38
653.173	146.38
653.377	148.38
653.581	149.38
653.785	138.38
653.99	125.38
654.194	158.38
654.398	148.38
654.602	139.38
654.806	152.38
655.01	136.38
655.214	149.38
655.418	132.38
655.622	139.38
655.826	132.38
656.03	142.38
656.234	145.38
656.438	143.38
656.642	157.38
656.846	135.38
657.049	124.38
657.253	121.38
657.457	121.38
657.661	137.38
657.865	119.38
658.068	113.38
658.272	113.38
658.476	113.38
658.68	123.38
658.883	105.38
659.087	123.38
659.291	92.38
659.494	105.38
659.698	93.38
659.901	87.38
660.105	88.38
660.309	78.38
660.512	89.38
660.716	92.38
660.919	92.38
661.123	85.38
661.326	81.38
661.53	87.38
661.733	88.38
661.936	82.38
662.14	94.38
662.343	91.38
662.546	89.38
662.75	85.38
662.953	102.38
663.156	94.38
663.36	85.38
663.563	96.38
663.766	88.38
663.969	86.38
664.173	101.38
664.376	83.38
664.579	82.38
664.782	78.38
664.985	84.38
665.188	76.38
665.391	96.38
665.594	73.38
665.797	95.38
666	87.38
666.203	83.38
666.406	72.38
666.609	68.38
666.812	84.38
667.015	80.38
667.218	86.38
667.421	73.38
667.624	79.38
667.827	81.38
668.03	88.38
668.232	83.38
668.435	71.38
668.638	69.38
668.841	72.38
669.043	76.38
669.246	76.38
669.449	75.38
669.651	74.38
669.854	68.38
670.057	80.38
670.259	89.38
670.462	99.38
670.665	85.38
670.867	77.38
671.07	91.38
671.272	97.38
671.475	83.38
671.677	90.38
671.88	79.38
672.082	86.38
672.284	80.38
672.487	79.38
672.689	86.38
672.892	91.38
