Data from 1973.PennyLincolnUp.Lamp.En5.5.200Scan.071719.P1.Changed Mount._HRD10591_15-44-39-852.txt Node
Date: Thu Jul 18 15:44:39 EDT 2019
User: cochatt
Spectrometer: HR+D1059
Trigger mode: 1
Integration Time (sec): 1.000000E-1
Scans to average: 1
Electric dark correction enabled: true
Nonlinearity correction enabled: false
Boxcar width: 0
XAxis mode: Wavelengths
Number of Pixels in Spectrum: 2048
>>>>>Begin Spectral Data<<<<<
223.165	-34.25
223.4	-34.25
223.635	-34.25
223.869	-24.25
224.104	-14.25
224.338	-1.25
224.573	-9.25
224.808	-12.25
225.042	-4.25
225.277	-9.25
225.511	1.75
225.746	1.75
225.98	8.75
226.215	13.75
226.449	25.75
226.683	10.75
226.918	16.75
227.152	29.75
227.387	35.75
227.621	24.75
227.856	40.75
228.09	43.75
228.324	33.75
228.559	45.75
228.793	65.75
229.027	91.75
229.262	102.75
229.496	109.75
229.73	120.75
229.964	145.75
230.199	121.75
230.433	115.75
230.667	114.75
230.901	106.75
231.136	107.75
231.37	117.75
231.604	119.75
231.838	115.75
232.072	111.75
232.306	119.75
232.541	118.75
232.775	109.75
233.009	113.75
233.243	113.75
233.477	123.75
233.711	129.75
233.945	126.75
234.179	129.75
234.413	124.75
234.647	124.75
234.881	117.75
235.115	123.75
235.349	122.75
235.583	124.75
235.817	121.75
236.051	130.75
236.285	136.75
236.519	119.75
236.753	131.75
236.987	147.75
237.221	162.75
237.455	205.75
237.689	165.75
237.922	142.75
238.156	124.75
238.39	123.75
238.624	129.75
238.858	131.75
239.091	127.75
239.325	122.75
239.559	126.75
239.793	127.75
240.027	121.75
240.26	124.75
240.494	133.75
240.728	154.75
240.961	158.75
241.195	151.75
241.429	146.75
241.662	134.75
241.896	144.75
242.13	146.75
242.363	141.75
242.597	146.75
242.83	145.75
243.064	136.75
243.298	138.75
243.531	126.75
243.765	138.75
243.998	129.75
244.232	147.75
244.465	167.75
244.699	147.75
244.932	148.75
245.166	159.75
245.399	144.75
245.633	144.75
245.866	144.75
246.099	153.75
246.333	168.75
246.566	161.75
246.8	147.75
247.033	155.75
247.266	162.75
247.5	179.75
247.733	160.75
247.966	170.75
248.2	171.75
248.433	174.75
248.666	178.75
248.899	179.75
249.133	176.75
249.366	219.75
249.599	190.75
249.832	191.75
250.066	175.75
250.299	180.75
250.532	195.75
250.765	197.75
250.998	198.75
251.231	213.75
251.465	214.75
251.698	194.75
251.931	208.75
252.164	207.75
252.397	192.75
252.63	213.75
252.863	199.75
253.096	222.75
253.329	226.75
253.562	224.75
253.795	212.75
254.028	220.75
254.261	207.75
254.494	233.75
254.727	249.75
254.96	285.75
255.193	242.75
255.426	257.75
255.659	234.75
255.892	221.75
256.124	230.75
256.357	225.75
256.59	225.75
256.823	203.75
257.056	213.75
257.289	216.75
257.521	220.75
257.754	212.75
257.987	207.75
258.22	205.75
258.452	219.75
258.685	201.75
258.918	203.75
259.151	206.75
259.383	201.75
259.616	208.75
259.849	227.75
260.081	231.75
260.314	246.75
260.547	255.75
260.779	232.75
261.012	249.75
261.244	202.75
261.477	231.75
261.71	228.75
261.942	238.75
262.175	245.75
262.407	232.75
262.64	225.75
262.872	222.75
263.105	213.75
263.337	235.75
263.57	230.75
263.802	232.75
264.035	233.75
264.267	230.75
264.499	208.75
264.732	222.75
264.964	234.75
265.197	215.75
265.429	238.75
265.661	227.75
265.894	233.75
266.126	223.75
266.358	223.75
266.591	215.75
266.823	251.75
267.055	226.75
267.287	253.75
267.52	241.75
267.752	243.75
267.984	261.75
268.216	234.75
268.448	248.75
268.681	257.75
268.913	274.75
269.145	279.75
269.377	296.75
269.609	283.75
269.841	274.75
270.073	286.75
270.306	280.75
270.538	310.75
270.77	320.75
271.002	307.75
271.234	292.75
271.466	309.75
271.698	318.75
271.93	314.75
272.162	295.75
272.394	318.75
272.626	297.75
272.858	293.75
273.09	294.75
273.322	290.75
273.553	291.75
273.785	282.75
274.017	265.75
274.249	287.75
274.481	268.75
274.713	295.75
274.945	294.75
275.176	278.75
275.408	284.75
275.64	272.75
275.872	276.75
276.104	301.75
276.335	294.75
276.567	290.75
276.799	293.75
277.031	306.75
277.262	326.75
277.494	338.75
277.726	306.75
277.957	313.75
278.189	315.75
278.421	282.75
278.652	272.75
278.884	292.75
279.115	280.75
279.347	292.75
279.579	290.75
279.81	295.75
280.042	276.75
280.273	292.75
280.505	293.75
280.736	305.75
280.968	279.75
281.199	289.75
281.431	291.75
281.662	300.75
281.894	300.75
282.125	311.75
282.356	323.75
282.588	326.75
282.819	315.75
283.051	301.75
283.282	299.75
283.513	310.75
283.745	302.75
283.976	317.75
284.207	311.75
284.439	307.75
284.67	290.75
284.901	289.75
285.132	311.75
285.364	299.75
285.595	299.75
285.826	293.75
286.057	318.75
286.288	309.75
286.52	303.75
286.751	302.75
286.982	321.75
287.213	336.75
287.444	307.75
287.675	312.75
287.906	315.75
288.138	339.75
288.369	309.75
288.6	330.75
288.831	337.75
289.062	319.75
289.293	318.75
289.524	324.75
289.755	314.75
289.986	324.75
290.217	326.75
290.448	305.75
290.679	305.75
290.91	323.75
291.141	331.75
291.371	327.75
291.602	332.75
291.833	301.75
292.064	329.75
292.295	320.75
292.526	315.75
292.757	339.75
292.987	328.75
293.218	318.75
293.449	320.75
293.68	327.75
293.91	341.75
294.141	324.75
294.372	335.75
294.603	327.75
294.833	331.75
295.064	330.75
295.295	343.75
295.525	327.75
295.756	324.75
295.987	338.75
296.217	330.75
296.448	357.75
296.679	332.75
296.909	340.75
297.14	323.75
297.37	342.75
297.601	338.75
297.831	327.75
298.062	318.75
298.292	341.75
298.523	331.75
298.753	346.75
298.984	345.75
299.214	346.75
299.445	320.75
299.675	346.75
299.905	332.75
300.136	343.75
300.366	330.75
300.597	357.75
300.827	357.75
301.057	339.75
301.288	369.75
301.518	351.75
301.748	363.75
301.979	348.75
302.209	361.75
302.439	353.75
302.669	367.75
302.9	358.75
303.13	359.75
303.36	375.75
303.59	353.75
303.82	377.75
304.051	372.75
304.281	371.75
304.511	350.75
304.741	345.75
304.971	343.75
305.201	346.75
305.431	369.75
305.661	353.75
305.891	355.75
306.121	355.75
306.352	375.75
306.582	375.75
306.812	342.75
307.042	373.75
307.272	381.75
307.502	347.75
307.731	369.75
307.961	359.75
308.191	359.75
308.421	357.75
308.651	373.75
308.881	385.75
309.111	370.75
309.341	357.75
309.571	367.75
309.8	361.75
310.03	375.75
310.26	364.75
310.49	381.75
310.72	365.75
310.949	391.75
311.179	411.75
311.409	394.75
311.639	387.75
311.868	407.75
312.098	396.75
312.328	387.75
312.557	417.75
312.787	413.75
313.017	409.75
313.246	395.75
313.476	386.75
313.706	383.75
313.935	418.75
314.165	409.75
314.394	411.75
314.624	411.75
314.853	384.75
315.083	413.75
315.312	395.75
315.542	389.75
315.771	393.75
316.001	399.75
316.23	414.75
316.46	381.75
316.689	431.75
316.919	382.75
317.148	412.75
317.377	411.75
317.607	414.75
317.836	404.75
318.065	389.75
318.295	375.75
318.524	396.75
318.753	397.75
318.983	389.75
319.212	413.75
319.441	398.75
319.67	399.75
319.9	416.75
320.129	407.75
320.358	394.75
320.587	403.75
320.816	400.75
321.046	429.75
321.275	405.75
321.504	419.75
321.733	412.75
321.962	414.75
322.191	410.75
322.42	426.75
322.649	440.75
322.878	444.75
323.108	441.75
323.337	465.75
323.566	459.75
323.795	482.75
324.024	510.75
324.253	572.75
324.482	738.75
324.71	1077.75
324.939	1529.75
325.168	1341.75
325.397	748.75
325.626	558.75
325.855	489.75
326.084	467.75
326.313	470.75
326.542	471.75
326.77	508.75
326.999	549.75
327.228	697.75
327.457	959.75
327.686	1147.75
327.914	821.75
328.143	604.75
328.372	554.75
328.6	519.75
328.829	517.75
329.058	528.75
329.287	558.75
329.515	507.75
329.744	506.75
329.972	471.75
330.201	509.75
330.43	538.75
330.658	539.75
330.887	546.75
331.115	553.75
331.344	499.75
331.572	486.75
331.801	484.75
332.03	486.75
332.258	477.75
332.486	490.75
332.715	457.75
332.943	470.75
333.172	490.75
333.4	527.75
333.629	501.75
333.857	519.75
334.085	524.75
334.314	542.75
334.542	540.75
334.771	538.75
334.999	531.75
335.227	507.75
335.455	505.75
335.684	511.75
335.912	487.75
336.14	475.75
336.369	481.75
336.597	464.75
336.825	477.75
337.053	488.75
337.281	480.75
337.51	473.75
337.738	487.75
337.966	471.75
338.194	471.75
338.422	457.75
338.65	471.75
338.878	445.75
339.106	481.75
339.334	468.75
339.562	460.75
339.79	465.75
340.018	459.75
340.246	443.75
340.474	455.75
340.702	458.75
340.93	438.75
341.158	442.75
341.386	454.75
341.614	447.75
341.842	456.75
342.07	435.75
342.298	425.75
342.526	436.75
342.754	443.75
342.981	437.75
343.209	440.75
343.437	456.75
343.665	472.75
343.893	489.75
344.12	468.75
344.348	494.75
344.576	467.75
344.804	479.75
345.031	476.75
345.259	481.75
345.487	468.75
345.714	448.75
345.942	443.75
346.17	437.75
346.397	449.75
346.625	422.75
346.853	407.75
347.08	428.75
347.308	455.75
347.535	448.75
347.763	442.75
347.99	434.75
348.218	452.75
348.445	449.75
348.673	427.75
348.9	424.75
349.128	421.75
349.355	418.75
349.583	422.75
349.81	434.75
350.037	423.75
350.265	452.75
350.492	423.75
350.72	425.75
350.947	437.75
351.174	427.75
351.402	445.75
351.629	413.75
351.856	434.75
352.083	419.75
352.311	437.75
352.538	423.75
352.765	468.75
352.992	428.75
353.22	429.75
353.447	434.75
353.674	411.75
353.901	405.75
354.128	428.75
354.355	415.75
354.583	417.75
354.81	404.75
355.037	415.75
355.264	420.75
355.491	408.75
355.718	418.75
355.945	419.75
356.172	414.75
356.399	416.75
356.626	409.75
356.853	406.75
357.08	393.75
357.307	407.75
357.534	395.75
357.761	408.75
357.988	428.75
358.215	439.75
358.441	414.75
358.668	405.75
358.895	433.75
359.122	413.75
359.349	418.75
359.576	418.75
359.802	440.75
360.029	446.75
360.256	462.75
360.483	434.75
360.709	428.75
360.936	438.75
361.163	454.75
361.39	424.75
361.616	444.75
361.843	421.75
362.07	431.75
362.296	445.75
362.523	437.75
362.749	429.75
362.976	409.75
363.203	409.75
363.429	422.75
363.656	413.75
363.882	428.75
364.109	411.75
364.335	436.75
364.562	423.75
364.788	397.75
365.015	410.75
365.241	403.75
365.468	407.75
365.694	395.75
365.92	420.75
366.147	405.75
366.373	409.75
366.599	403.75
366.826	415.75
367.052	421.75
367.278	405.75
367.505	417.75
367.731	430.75
367.957	423.75
368.184	422.75
368.41	436.75
368.636	434.75
368.862	446.75
369.089	423.75
369.315	437.75
369.541	418.75
369.767	425.75
369.993	423.75
370.219	426.75
370.445	415.75
370.672	398.75
370.898	418.75
371.124	414.75
371.35	418.75
371.576	432.75
371.802	418.75
372.028	441.75
372.254	427.75
372.48	446.75
372.706	428.75
372.932	429.75
373.158	421.75
373.384	437.75
373.61	418.75
373.835	423.75
374.061	427.75
374.287	425.75
374.513	429.75
374.739	461.75
374.965	418.75
375.191	446.75
375.416	438.75
375.642	433.75
375.868	445.75
376.094	421.75
376.319	448.75
376.545	439.75
376.771	405.75
376.997	420.75
377.222	420.75
377.448	410.75
377.674	427.75
377.899	413.75
378.125	425.75
378.35	405.75
378.576	401.75
378.802	399.75
379.027	414.75
379.253	430.75
379.478	417.75
379.704	427.75
379.929	423.75
380.155	423.75
380.38	438.75
380.606	426.75
380.831	426.75
381.057	429.75
381.282	430.75
381.507	429.75
381.733	432.75
381.958	443.75
382.184	428.75
382.409	431.75
382.634	421.75
382.86	447.75
383.085	449.75
383.31	423.75
383.535	461.75
383.761	451.75
383.986	468.75
384.211	444.75
384.436	464.75
384.662	464.75
384.887	465.75
385.112	453.75
385.337	457.75
385.562	474.75
385.787	472.75
386.013	501.75
386.238	488.75
386.463	495.75
386.688	498.75
386.913	475.75
387.138	455.75
387.363	473.75
387.588	479.75
387.813	482.75
388.038	486.75
388.263	478.75
388.488	463.75
388.713	471.75
388.938	474.75
389.163	454.75
389.387	489.75
389.612	458.75
389.837	482.75
390.062	490.75
390.287	468.75
390.512	475.75
390.736	450.75
390.961	483.75
391.186	491.75
391.411	472.75
391.636	501.75
391.86	503.75
392.085	500.75
392.31	515.75
392.534	497.75
392.759	481.75
392.984	510.75
393.208	488.75
393.433	486.75
393.658	500.75
393.882	475.75
394.107	473.75
394.331	493.75
394.556	485.75
394.78	493.75
395.005	478.75
395.229	498.75
395.454	502.75
395.678	492.75
395.903	524.75
396.127	569.75
396.352	515.75
396.576	495.75
396.801	486.75
397.025	488.75
397.249	503.75
397.474	517.75
397.698	528.75
397.922	545.75
398.147	550.75
398.371	554.75
398.595	545.75
398.82	562.75
399.044	567.75
399.268	625.75
399.492	641.75
399.717	721.75
399.941	707.75
400.165	723.75
400.389	691.75
400.613	656.75
400.837	607.75
401.062	589.75
401.286	579.75
401.51	563.75
401.734	563.75
401.958	582.75
402.182	577.75
402.406	577.75
402.63	570.75
402.854	582.75
403.078	574.75
403.302	590.75
403.526	598.75
403.75	598.75
403.974	591.75
404.198	608.75
404.422	605.75
404.645	615.75
404.869	609.75
405.093	631.75
405.317	653.75
405.541	683.75
405.765	641.75
405.988	609.75
406.212	603.75
406.436	635.75
406.66	629.75
406.883	612.75
407.107	682.75
407.331	692.75
407.555	771.75
407.778	738.75
408.002	668.75
408.226	641.75
408.449	634.75
408.673	650.75
408.896	667.75
409.12	685.75
409.344	661.75
409.567	595.75
409.791	575.75
410.014	596.75
410.238	601.75
410.461	599.75
410.685	625.75
410.908	610.75
411.132	622.75
411.355	667.75
411.578	621.75
411.802	584.75
412.025	558.75
412.249	581.75
412.472	617.75
412.695	625.75
412.919	633.75
413.142	592.75
413.365	587.75
413.589	588.75
413.812	541.75
414.035	564.75
414.258	541.75
414.482	554.75
414.705	561.75
414.928	557.75
415.151	544.75
415.374	563.75
415.597	556.75
415.821	551.75
416.044	574.75
416.267	573.75
416.49	550.75
416.713	535.75
416.936	555.75
417.159	505.75
417.382	546.75
417.605	556.75
417.828	564.75
418.051	584.75
418.274	586.75
418.497	538.75
418.72	569.75
418.943	556.75
419.166	581.75
419.389	590.75
419.611	586.75
419.834	599.75
420.057	608.75
420.28	593.75
420.503	573.75
420.726	587.75
420.948	568.75
421.171	636.75
421.394	639.75
421.617	590.75
421.839	588.75
422.062	558.75
422.285	588.75
422.507	651.75
422.73	709.75
422.953	686.75
423.175	589.75
423.398	578.75
423.621	597.75
423.843	616.75
424.066	631.75
424.288	598.75
424.511	601.75
424.733	653.75
424.956	724.75
425.178	689.75
425.401	700.75
425.623	701.75
425.846	635.75
426.068	613.75
426.291	589.75
426.513	573.75
426.735	576.75
426.958	638.75
427.18	708.75
427.402	788.75
427.625	830.75
427.847	765.75
428.069	654.75
428.292	595.75
428.514	563.75
428.736	531.75
428.958	534.75
429.181	528.75
429.403	531.75
429.625	547.75
429.847	564.75
430.069	655.75
430.292	614.75
430.514	542.75
430.736	539.75
430.958	518.75
431.18	515.75
431.402	520.75
431.624	501.75
431.846	510.75
432.068	530.75
432.29	520.75
432.512	537.75
432.734	531.75
432.956	515.75
433.178	527.75
433.4	522.75
433.622	520.75
433.844	534.75
434.066	517.75
434.287	533.75
434.509	519.75
434.731	557.75
434.953	555.75
435.175	570.75
435.397	581.75
435.618	589.75
435.84	610.75
436.062	685.75
436.284	730.75
436.505	626.75
436.727	571.75
436.949	597.75
437.17	554.75
437.392	540.75
437.614	567.75
437.835	553.75
438.057	629.75
438.278	734.75
438.5	720.75
438.721	770.75
438.943	763.75
439.165	633.75
439.386	596.75
439.608	581.75
439.829	578.75
440.05	567.75
440.272	634.75
440.493	585.75
440.715	553.75
440.936	550.75
441.158	538.75
441.379	558.75
441.6	563.75
441.822	576.75
442.043	614.75
442.264	667.75
442.486	740.75
442.707	625.75
442.928	589.75
443.149	620.75
443.371	625.75
443.592	635.75
443.813	715.75
444.034	789.75
444.255	687.75
444.476	630.75
444.698	611.75
444.919	625.75
445.14	735.75
445.361	665.75
445.582	621.75
445.803	686.75
446.024	731.75
446.245	747.75
446.466	694.75
446.687	628.75
446.908	591.75
447.129	543.75
447.35	527.75
447.571	539.75
447.792	537.75
448.013	533.75
448.234	548.75
448.455	588.75
448.675	656.75
448.896	779.75
449.117	663.75
449.338	622.75
449.559	734.75
449.779	805.75
450	647.75
450.221	553.75
450.442	538.75
450.662	512.75
450.883	494.75
451.104	513.75
451.324	513.75
451.545	494.75
451.766	492.75
451.986	471.75
452.207	476.75
452.428	477.75
452.648	455.75
452.869	472.75
453.089	464.75
453.31	494.75
453.53	475.75
453.751	467.75
453.971	465.75
454.192	493.75
454.412	459.75
454.633	462.75
454.853	459.75
455.073	483.75
455.294	513.75
455.514	547.75
455.734	527.75
455.955	469.75
456.175	455.75
456.395	435.75
456.616	440.75
456.836	448.75
457.056	458.75
457.276	441.75
457.497	459.75
457.717	437.75
457.937	463.75
458.157	474.75
458.377	475.75
458.598	486.75
458.818	542.75
459.038	574.75
459.258	606.75
459.478	539.75
459.698	515.75
459.918	522.75
460.138	536.75
460.358	545.75
460.578	542.75
460.798	546.75
461.018	565.75
461.238	546.75
461.458	529.75
461.678	548.75
461.898	567.75
462.118	542.75
462.338	571.75
462.558	588.75
462.777	589.75
462.997	633.75
463.217	659.75
463.437	631.75
463.657	629.75
463.876	619.75
464.096	612.75
464.316	602.75
464.536	613.75
464.755	602.75
464.975	581.75
465.195	601.75
465.414	625.75
465.634	590.75
465.854	543.75
466.073	528.75
466.293	526.75
466.512	502.75
466.732	488.75
466.951	505.75
467.171	487.75
467.391	521.75
467.61	492.75
467.829	505.75
468.049	497.75
468.268	498.75
468.488	480.75
468.707	485.75
468.927	470.75
469.146	479.75
469.365	472.75
469.585	470.75
469.804	494.75
470.023	515.75
470.243	516.75
470.462	492.75
470.681	522.75
470.901	513.75
471.12	508.75
471.339	491.75
471.558	512.75
471.777	501.75
471.997	492.75
472.216	490.75
472.435	513.75
472.654	488.75
472.873	483.75
473.092	488.75
473.311	516.75
473.53	499.75
473.749	502.75
473.968	532.75
474.187	603.75
474.406	615.75
474.625	546.75
474.844	498.75
475.063	469.75
475.282	490.75
475.501	489.75
475.72	515.75
475.939	517.75
476.158	518.75
476.377	494.75
476.596	506.75
476.814	527.75
477.033	516.75
477.252	517.75
477.471	544.75
477.69	556.75
477.908	539.75
478.127	564.75
478.346	552.75
478.564	563.75
478.783	553.75
479.002	591.75
479.22	579.75
479.439	579.75
479.658	594.75
479.876	599.75
480.095	616.75
480.313	619.75
480.532	631.75
480.751	605.75
480.969	649.75
481.188	663.75
481.406	643.75
481.624	627.75
481.843	586.75
482.061	591.75
482.28	586.75
482.498	569.75
482.717	579.75
482.935	576.75
483.153	590.75
483.372	570.75
483.59	575.75
483.808	574.75
484.027	568.75
484.245	560.75
484.463	563.75
484.681	570.75
484.9	570.75
485.118	589.75
485.336	579.75
485.554	607.75
485.772	593.75
485.99	595.75
486.209	614.75
486.427	598.75
486.645	595.75
486.863	607.75
487.081	590.75
487.299	606.75
487.517	621.75
487.735	603.75
487.953	616.75
488.171	611.75
488.389	597.75
488.607	613.75
488.825	603.75
489.043	618.75
489.261	607.75
489.479	644.75
489.696	637.75
489.914	608.75
490.132	621.75
490.35	660.75
490.568	636.75
490.786	655.75
491.003	652.75
491.221	678.75
491.439	683.75
491.657	678.75
491.874	689.75
492.092	697.75
492.31	708.75
492.527	719.75
492.745	681.75
492.963	695.75
493.18	722.75
493.398	715.75
493.615	707.75
493.833	714.75
494.05	690.75
494.268	685.75
494.485	710.75
494.703	715.75
494.92	734.75
495.138	700.75
495.355	723.75
495.573	712.75
495.79	716.75
496.008	713.75
496.225	723.75
496.442	739.75
496.66	716.75
496.877	731.75
497.094	734.75
497.312	729.75
497.529	735.75
497.746	777.75
497.963	803.75
498.181	815.75
498.398	810.75
498.615	834.75
498.832	846.75
499.049	902.75
499.267	933.75
499.484	989.75
499.701	1036.75
499.918	1077.75
500.135	1160.75
500.352	1240.75
500.569	1272.75
500.786	1329.75
501.003	1223.75
501.22	1192.75
501.437	1125.75
501.654	1050.75
501.871	1026.75
502.088	967.75
502.305	896.75
502.522	865.75
502.739	856.75
502.956	823.75
503.172	807.75
503.389	775.75
503.606	761.75
503.823	748.75
504.04	762.75
504.256	730.75
504.473	749.75
504.69	770.75
504.907	726.75
505.123	710.75
505.34	710.75
505.557	695.75
505.773	703.75
505.99	669.75
506.207	661.75
506.423	690.75
506.64	680.75
506.856	660.75
507.073	665.75
507.289	647.75
507.506	643.75
507.722	660.75
507.939	645.75
508.155	651.75
508.372	613.75
508.588	615.75
508.805	631.75
509.021	639.75
509.238	641.75
509.454	636.75
509.67	657.75
509.887	611.75
510.103	630.75
510.319	636.75
510.536	682.75
510.752	953.75
510.968	813.75
511.184	628.75
511.401	609.75
511.617	610.75
511.833	585.75
512.049	564.75
512.265	598.75
512.481	574.75
512.698	582.75
512.914	590.75
513.13	575.75
513.346	579.75
513.562	570.75
513.778	587.75
513.994	604.75
514.21	564.75
514.426	591.75
514.642	640.75
514.858	647.75
515.074	660.75
515.29	716.75
515.506	951.75
515.721	819.75
515.937	646.75
516.153	638.75
516.369	623.75
516.585	641.75
516.801	646.75
517.016	631.75
517.232	658.75
517.448	648.75
517.664	662.75
517.879	701.75
518.095	662.75
518.311	685.75
518.527	667.75
518.742	661.75
518.958	613.75
519.173	635.75
519.389	615.75
519.605	630.75
519.82	617.75
520.036	599.75
520.251	605.75
520.467	603.75
520.682	599.75
520.898	607.75
521.113	616.75
521.329	644.75
521.544	664.75
521.76	794.75
521.975	1144.75
522.19	1134.75
522.406	722.75
522.621	586.75
522.836	566.75
523.052	561.75
523.267	546.75
523.482	541.75
523.698	550.75
523.913	520.75
524.128	542.75
524.343	533.75
524.559	543.75
524.774	516.75
524.989	516.75
525.204	506.75
525.419	541.75
525.634	525.75
525.849	526.75
526.064	485.75
526.28	497.75
526.495	485.75
526.71	486.75
526.925	499.75
527.14	483.75
527.355	497.75
527.57	503.75
527.785	509.75
527.999	513.75
528.214	493.75
528.429	495.75
528.644	506.75
528.859	499.75
529.074	502.75
529.289	531.75
529.503	542.75
529.718	530.75
529.933	508.75
530.148	498.75
530.363	531.75
530.577	487.75
530.792	489.75
531.007	481.75
531.221	508.75
531.436	486.75
531.651	470.75
531.865	487.75
532.08	498.75
532.295	472.75
532.509	475.75
532.724	475.75
532.938	483.75
533.153	478.75
533.367	477.75
533.582	470.75
533.796	480.75
534.011	493.75
534.225	489.75
534.44	485.75
534.654	476.75
534.868	462.75
535.083	478.75
535.297	495.75
535.511	484.75
535.726	491.75
535.94	486.75
536.154	469.75
536.369	471.75
536.583	482.75
536.797	469.75
537.011	478.75
537.225	462.75
537.44	471.75
537.654	453.75
537.868	448.75
538.082	465.75
538.296	473.75
538.51	461.75
538.724	479.75
538.938	453.75
539.153	472.75
539.367	478.75
539.581	461.75
539.795	449.75
540.009	468.75
540.222	447.75
540.436	449.75
540.65	457.75
540.864	451.75
541.078	456.75
541.292	479.75
541.506	465.75
541.72	480.75
541.934	478.75
542.147	457.75
542.361	452.75
542.575	462.75
542.789	458.75
543.002	446.75
543.216	459.75
543.43	463.75
543.644	476.75
543.857	456.75
544.071	452.75
544.285	482.75
544.498	488.75
544.712	474.75
544.925	477.75
545.139	475.75
545.352	479.75
545.566	467.75
545.779	456.75
545.993	461.75
546.206	465.75
546.42	463.75
546.633	458.75
546.847	463.75
547.06	446.75
547.274	463.75
547.487	445.75
547.7	456.75
547.914	463.75
548.127	423.75
548.34	464.75
548.554	455.75
548.767	468.75
548.98	467.75
549.193	457.75
549.407	457.75
549.62	450.75
549.833	463.75
550.046	462.75
550.259	444.75
550.473	455.75
550.686	451.75
550.899	442.75
551.112	448.75
551.325	449.75
551.538	452.75
551.751	450.75
551.964	429.75
552.177	451.75
552.39	453.75
552.603	477.75
552.816	464.75
553.029	469.75
553.242	475.75
553.455	486.75
553.667	490.75
553.88	489.75
554.093	467.75
554.306	458.75
554.519	462.75
554.732	466.75
554.944	471.75
555.157	452.75
555.37	442.75
555.583	439.75
555.795	443.75
556.008	412.75
556.221	417.75
556.433	426.75
556.646	416.75
556.859	410.75
557.071	418.75
557.284	425.75
557.496	420.75
557.709	410.75
557.921	391.75
558.134	394.75
558.346	389.75
558.559	408.75
558.771	401.75
558.984	396.75
559.196	428.75
559.409	405.75
559.621	386.75
559.833	408.75
560.046	405.75
560.258	404.75
560.47	405.75
560.683	393.75
560.895	387.75
561.107	394.75
561.32	398.75
561.532	403.75
561.744	406.75
561.956	386.75
562.168	389.75
562.381	391.75
562.593	394.75
562.805	399.75
563.017	410.75
563.229	414.75
563.441	405.75
563.653	423.75
563.865	398.75
564.077	430.75
564.289	406.75
564.501	420.75
564.713	435.75
564.925	420.75
565.137	419.75
565.349	446.75
565.561	453.75
565.773	451.75
565.985	469.75
566.197	471.75
566.408	510.75
566.62	541.75
566.832	544.75
567.044	560.75
567.255	593.75
567.467	564.75
567.679	587.75
567.891	576.75
568.102	601.75
568.314	584.75
568.526	558.75
568.737	546.75
568.949	492.75
569.161	482.75
569.372	463.75
569.584	418.75
569.795	438.75
570.007	433.75
570.218	450.75
570.43	437.75
570.641	427.75
570.853	425.75
571.064	443.75
571.276	403.75
571.487	411.75
571.698	398.75
571.91	387.75
572.121	363.75
572.333	373.75
572.544	380.75
572.755	394.75
572.966	369.75
573.178	362.75
573.389	360.75
573.6	353.75
573.811	348.75
574.023	349.75
574.234	350.75
574.445	353.75
574.656	359.75
574.867	373.75
575.078	344.75
575.289	365.75
575.501	359.75
575.712	340.75
575.923	334.75
576.134	345.75
576.345	338.75
576.556	332.75
576.767	334.75
576.978	356.75
577.188	342.75
577.399	334.75
577.61	324.75
577.821	329.75
578.032	340.75
578.243	364.75
578.454	476.75
578.665	373.75
578.875	349.75
579.086	338.75
579.297	346.75
579.508	317.75
579.718	316.75
579.929	310.75
580.14	331.75
580.35	321.75
580.561	323.75
580.772	317.75
580.982	311.75
581.193	309.75
581.403	300.75
581.614	322.75
581.825	301.75
582.035	308.75
582.246	333.75
582.456	317.75
582.667	300.75
582.877	321.75
583.087	305.75
583.298	322.75
583.508	318.75
583.719	335.75
583.929	321.75
584.139	305.75
584.35	288.75
584.56	302.75
584.77	303.75
584.981	295.75
585.191	294.75
585.401	312.75
585.611	314.75
585.821	315.75
586.032	321.75
586.242	297.75
586.452	291.75
586.662	292.75
586.872	293.75
587.082	322.75
587.292	302.75
587.502	298.75
587.713	311.75
587.923	297.75
588.133	307.75
588.343	300.75
588.553	310.75
588.762	327.75
588.972	315.75
589.182	297.75
589.392	303.75
589.602	304.75
589.812	305.75
590.022	311.75
590.232	302.75
590.441	301.75
590.651	306.75
590.861	306.75
591.071	324.75
591.281	331.75
591.49	337.75
591.7	320.75
591.91	313.75
592.119	329.75
592.329	327.75
592.539	322.75
592.748	331.75
592.958	336.75
593.167	355.75
593.377	349.75
593.587	375.75
593.796	330.75
594.006	347.75
594.215	362.75
594.424	346.75
594.634	359.75
594.843	353.75
595.053	342.75
595.262	328.75
595.472	318.75
595.681	325.75
595.89	324.75
596.1	314.75
596.309	297.75
596.518	310.75
596.727	289.75
596.937	306.75
597.146	288.75
597.355	296.75
597.564	289.75
597.774	279.75
597.983	279.75
598.192	281.75
598.401	294.75
598.61	289.75
598.819	297.75
599.028	278.75
599.237	279.75
599.446	311.75
599.655	280.75
599.864	272.75
600.073	258.75
600.282	282.75
600.491	282.75
600.7	288.75
600.909	246.75
601.118	261.75
601.327	257.75
601.536	261.75
601.745	262.75
601.953	276.75
602.162	277.75
602.371	256.75
602.58	260.75
602.789	258.75
602.997	260.75
603.206	265.75
603.415	280.75
603.623	236.75
603.832	263.75
604.041	271.75
604.249	244.75
604.458	253.75
604.666	260.75
604.875	268.75
605.084	254.75
605.292	265.75
605.501	253.75
605.709	263.75
605.918	268.75
606.126	268.75
606.334	247.75
606.543	249.75
606.751	268.75
606.96	249.75
607.168	265.75
607.376	249.75
607.585	257.75
607.793	238.75
608.001	253.75
608.21	266.75
608.418	243.75
608.626	251.75
608.834	237.75
609.043	247.75
609.251	261.75
609.459	263.75
609.667	242.75
609.875	262.75
610.083	242.75
610.291	249.75
610.499	264.75
610.707	242.75
610.916	249.75
611.124	261.75
611.332	260.75
611.54	267.75
611.748	251.75
611.955	247.75
612.163	247.75
612.371	243.75
612.579	235.75
612.787	232.75
612.995	249.75
613.203	249.75
613.411	258.75
613.618	250.75
613.826	246.75
614.034	237.75
614.242	242.75
614.449	249.75
614.657	242.75
614.865	227.75
615.072	234.75
615.28	251.75
615.488	255.75
615.695	231.75
615.903	239.75
616.111	229.75
616.318	254.75
616.526	265.75
616.733	261.75
616.941	254.75
617.148	231.75
617.356	245.75
617.563	250.75
617.771	243.75
617.978	234.75
618.185	243.75
618.393	247.75
618.6	241.75
618.807	243.75
619.015	248.75
619.222	256.75
619.429	241.75
619.637	249.75
619.844	259.75
620.051	249.75
620.258	225.75
620.466	233.75
620.673	218.75
620.88	237.75
621.087	232.75
621.294	246.75
621.501	235.75
621.708	241.75
621.915	220.75
622.122	237.75
622.329	218.75
622.536	243.75
622.743	223.75
622.95	226.75
623.157	236.75
623.364	246.75
623.571	232.75
623.778	233.75
623.985	221.75
624.192	219.75
624.399	223.75
624.606	223.75
624.812	219.75
625.019	218.75
625.226	225.75
625.433	215.75
625.639	206.75
625.846	190.75
626.053	215.75
626.259	214.75
626.466	211.75
626.673	220.75
626.879	230.75
627.086	216.75
627.293	217.75
627.499	230.75
627.706	198.75
627.912	212.75
628.119	217.75
628.325	203.75
628.532	201.75
628.738	196.75
628.945	214.75
629.151	206.75
629.357	193.75
629.564	204.75
629.77	206.75
629.976	212.75
630.183	197.75
630.389	191.75
630.595	212.75
630.802	207.75
631.008	209.75
631.214	216.75
631.42	188.75
631.627	194.75
631.833	193.75
632.039	202.75
632.245	196.75
632.451	202.75
632.657	211.75
632.863	181.75
633.069	193.75
633.275	181.75
633.481	184.75
633.688	187.75
633.893	200.75
634.099	191.75
634.305	194.75
634.511	181.75
634.717	182.75
634.923	204.75
635.129	172.75
635.335	181.75
635.541	193.75
635.747	184.75
635.952	189.75
636.158	174.75
636.364	193.75
636.57	197.75
636.775	182.75
636.981	203.75
637.187	197.75
637.392	186.75
637.598	181.75
637.804	178.75
638.009	178.75
638.215	188.75
638.421	182.75
638.626	188.75
638.832	185.75
639.037	180.75
639.243	177.75
639.448	189.75
639.654	172.75
639.859	177.75
640.065	166.75
640.27	165.75
640.475	190.75
640.681	190.75
640.886	184.75
641.091	196.75
641.297	181.75
641.502	179.75
641.707	189.75
641.913	159.75
642.118	181.75
642.323	165.75
642.528	177.75
642.733	192.75
642.939	172.75
643.144	168.75
643.349	185.75
643.554	171.75
643.759	166.75
643.964	174.75
644.169	178.75
644.374	166.75
644.579	169.75
644.784	179.75
644.989	167.75
645.194	171.75
645.399	182.75
645.604	160.75
645.809	174.75
646.014	158.75
646.219	180.75
646.423	185.75
646.628	159.75
646.833	190.75
647.038	180.75
647.243	190.75
647.447	180.75
647.652	171.75
647.857	170.75
648.062	171.75
648.266	187.75
648.471	180.75
648.676	168.75
648.88	166.75
649.085	176.75
649.289	169.75
649.494	177.75
649.698	182.75
649.903	189.75
650.107	185.75
650.312	191.75
650.516	163.75
650.721	162.75
650.925	143.75
651.13	153.75
651.334	160.75
651.539	173.75
651.743	166.75
651.947	151.75
652.152	157.75
652.356	151.75
652.56	168.75
652.764	137.75
652.969	165.75
653.173	154.75
653.377	154.75
653.581	135.75
653.785	145.75
653.99	145.75
654.194	142.75
654.398	152.75
654.602	141.75
654.806	135.75
655.01	155.75
655.214	140.75
655.418	139.75
655.622	126.75
655.826	144.75
656.03	154.75
656.234	142.75
656.438	138.75
656.642	139.75
656.846	142.75
657.049	134.75
657.253	132.75
657.457	118.75
657.661	123.75
657.865	126.75
658.068	116.75
658.272	115.75
658.476	117.75
658.68	125.75
658.883	105.75
659.087	103.75
659.291	104.75
659.494	99.75
659.698	98.75
659.901	108.75
660.105	100.75
660.309	96.75
660.512	92.75
660.716	82.75
660.919	102.75
661.123	90.75
661.326	94.75
661.53	94.75
661.733	85.75
661.936	88.75
662.14	94.75
662.343	85.75
662.546	79.75
662.75	82.75
662.953	85.75
663.156	93.75
663.36	91.75
663.563	106.75
663.766	76.75
663.969	78.75
664.173	73.75
664.376	88.75
664.579	96.75
664.782	85.75
664.985	83.75
665.188	94.75
665.391	73.75
665.594	101.75
665.797	91.75
666	82.75
666.203	100.75
666.406	71.75
666.609	91.75
666.812	90.75
667.015	77.75
667.218	79.75
667.421	93.75
667.624	78.75
667.827	86.75
668.03	82.75
668.232	85.75
668.435	86.75
668.638	79.75
668.841	78.75
669.043	75.75
669.246	87.75
669.449	80.75
669.651	93.75
669.854	67.75
670.057	61.75
670.259	91.75
670.462	79.75
670.665	74.75
670.867	79.75
671.07	79.75
671.272	84.75
671.475	78.75
671.677	82.75
671.88	80.75
672.082	87.75
672.284	81.75
672.487	90.75
672.689	75.75
672.892	82.75
