Data from 1973.PennyLincolnUp.Lamp.En5.5.200Scan.071719.P1.Changed Mount._HRD10591_15-45-26-852.txt Node
Date: Thu Jul 18 15:45:26 EDT 2019
User: cochatt
Spectrometer: HR+D1059
Trigger mode: 1
Integration Time (sec): 1.000000E-1
Scans to average: 1
Electric dark correction enabled: true
Nonlinearity correction enabled: false
Boxcar width: 0
XAxis mode: Wavelengths
Number of Pixels in Spectrum: 2048
>>>>>Begin Spectral Data<<<<<
223.165	-12.94
223.4	-12.94
223.635	-12.94
223.869	-8.94
224.104	-20.94
224.338	-19.94
224.573	-23.94
224.808	-16.94
225.042	-4.94
225.277	-1.94
225.511	-11.94
225.746	10.06
225.98	5.06
226.215	14.06
226.449	21.06
226.683	26.06
226.918	21.06
227.152	25.06
227.387	30.06
227.621	40.06
227.856	48.06
228.09	47.06
228.324	53.06
228.559	55.06
228.793	66.06
229.027	88.06
229.262	96.06
229.496	111.06
229.73	118.06
229.964	133.06
230.199	117.06
230.433	115.06
230.667	127.06
230.901	112.06
231.136	123.06
231.37	99.06
231.604	109.06
231.838	116.06
232.072	117.06
232.306	140.06
232.541	124.06
232.775	123.06
233.009	125.06
233.243	118.06
233.477	130.06
233.711	100.06
233.945	121.06
234.179	121.06
234.413	125.06
234.647	107.06
234.881	135.06
235.115	115.06
235.349	124.06
235.583	110.06
235.817	120.06
236.051	139.06
236.285	123.06
236.519	119.06
236.753	134.06
236.987	136.06
237.221	169.06
237.455	215.06
237.689	174.06
237.922	137.06
238.156	141.06
238.39	135.06
238.624	123.06
238.858	114.06
239.091	141.06
239.325	135.06
239.559	138.06
239.793	136.06
240.027	139.06
240.26	149.06
240.494	157.06
240.728	164.06
240.961	150.06
241.195	155.06
241.429	135.06
241.662	129.06
241.896	137.06
242.13	142.06
242.363	122.06
242.597	151.06
242.83	154.06
243.064	151.06
243.298	138.06
243.531	153.06
243.765	143.06
243.998	143.06
244.232	173.06
244.465	144.06
244.699	160.06
244.932	151.06
245.166	167.06
245.399	139.06
245.633	162.06
245.866	149.06
246.099	155.06
246.333	150.06
246.566	149.06
246.8	163.06
247.033	166.06
247.266	161.06
247.5	174.06
247.733	157.06
247.966	173.06
248.2	169.06
248.433	175.06
248.666	174.06
248.899	192.06
249.133	198.06
249.366	216.06
249.599	202.06
249.832	181.06
250.066	163.06
250.299	181.06
250.532	203.06
250.765	212.06
250.998	223.06
251.231	223.06
251.465	208.06
251.698	198.06
251.931	216.06
252.164	183.06
252.397	207.06
252.63	184.06
252.863	203.06
253.096	215.06
253.329	238.06
253.562	221.06
253.795	222.06
254.028	219.06
254.261	209.06
254.494	221.06
254.727	257.06
254.96	280.06
255.193	273.06
255.426	256.06
255.659	227.06
255.892	231.06
256.124	216.06
256.357	233.06
256.59	238.06
256.823	226.06
257.056	220.06
257.289	214.06
257.521	212.06
257.754	218.06
257.987	223.06
258.22	207.06
258.452	206.06
258.685	224.06
258.918	222.06
259.151	211.06
259.383	217.06
259.616	219.06
259.849	235.06
260.081	232.06
260.314	257.06
260.547	267.06
260.779	261.06
261.012	272.06
261.244	245.06
261.477	248.06
261.71	246.06
261.942	239.06
262.175	236.06
262.407	238.06
262.64	248.06
262.872	230.06
263.105	238.06
263.337	217.06
263.57	240.06
263.802	228.06
264.035	219.06
264.267	209.06
264.499	220.06
264.732	229.06
264.964	248.06
265.197	233.06
265.429	238.06
265.661	239.06
265.894	236.06
266.126	237.06
266.358	241.06
266.591	237.06
266.823	232.06
267.055	234.06
267.287	244.06
267.52	256.06
267.752	258.06
267.984	238.06
268.216	233.06
268.448	239.06
268.681	245.06
268.913	247.06
269.145	281.06
269.377	307.06
269.609	281.06
269.841	264.06
270.073	273.06
270.306	299.06
270.538	349.06
270.77	329.06
271.002	328.06
271.234	316.06
271.466	305.06
271.698	308.06
271.93	320.06
272.162	325.06
272.394	330.06
272.626	315.06
272.858	295.06
273.09	302.06
273.322	291.06
273.553	283.06
273.785	293.06
274.017	302.06
274.249	283.06
274.481	272.06
274.713	283.06
274.945	292.06
275.176	283.06
275.408	281.06
275.64	283.06
275.872	283.06
276.104	300.06
276.335	286.06
276.567	284.06
276.799	301.06
277.031	312.06
277.262	338.06
277.494	325.06
277.726	344.06
277.957	295.06
278.189	321.06
278.421	317.06
278.652	305.06
278.884	302.06
279.115	294.06
279.347	296.06
279.579	288.06
279.81	298.06
280.042	301.06
280.273	300.06
280.505	296.06
280.736	295.06
280.968	294.06
281.199	301.06
281.431	316.06
281.662	299.06
281.894	304.06
282.125	295.06
282.356	317.06
282.588	325.06
282.819	336.06
283.051	320.06
283.282	310.06
283.513	328.06
283.745	325.06
283.976	343.06
284.207	289.06
284.439	317.06
284.67	332.06
284.901	309.06
285.132	327.06
285.364	292.06
285.595	323.06
285.826	300.06
286.057	306.06
286.288	318.06
286.52	324.06
286.751	313.06
286.982	330.06
287.213	319.06
287.444	324.06
287.675	324.06
287.906	346.06
288.138	343.06
288.369	323.06
288.6	350.06
288.831	354.06
289.062	340.06
289.293	335.06
289.524	341.06
289.755	327.06
289.986	319.06
290.217	325.06
290.448	323.06
290.679	331.06
290.91	348.06
291.141	322.06
291.371	341.06
291.602	344.06
291.833	332.06
292.064	331.06
292.295	317.06
292.526	328.06
292.757	322.06
292.987	338.06
293.218	328.06
293.449	342.06
293.68	348.06
293.91	347.06
294.141	325.06
294.372	336.06
294.603	319.06
294.833	337.06
295.064	339.06
295.295	338.06
295.525	329.06
295.756	355.06
295.987	346.06
296.217	366.06
296.448	363.06
296.679	368.06
296.909	339.06
297.14	342.06
297.37	340.06
297.601	348.06
297.831	343.06
298.062	359.06
298.292	351.06
298.523	356.06
298.753	357.06
298.984	353.06
299.214	357.06
299.445	357.06
299.675	356.06
299.905	341.06
300.136	370.06
300.366	365.06
300.597	352.06
300.827	341.06
301.057	359.06
301.288	373.06
301.518	383.06
301.748	378.06
301.979	380.06
302.209	389.06
302.439	382.06
302.669	371.06
302.9	377.06
303.13	349.06
303.36	385.06
303.59	384.06
303.82	391.06
304.051	368.06
304.281	383.06
304.511	369.06
304.741	383.06
304.971	364.06
305.201	387.06
305.431	379.06
305.661	381.06
305.891	363.06
306.121	375.06
306.352	372.06
306.582	380.06
306.812	382.06
307.042	353.06
307.272	387.06
307.502	381.06
307.731	381.06
307.961	390.06
308.191	378.06
308.421	375.06
308.651	374.06
308.881	375.06
309.111	375.06
309.341	383.06
309.571	391.06
309.8	384.06
310.03	398.06
310.26	383.06
310.49	397.06
310.72	411.06
310.949	416.06
311.179	415.06
311.409	378.06
311.639	397.06
311.868	412.06
312.098	432.06
312.328	414.06
312.557	424.06
312.787	425.06
313.017	442.06
313.246	422.06
313.476	413.06
313.706	403.06
313.935	415.06
314.165	434.06
314.394	428.06
314.624	433.06
314.853	406.06
315.083	439.06
315.312	439.06
315.542	416.06
315.771	424.06
316.001	429.06
316.23	403.06
316.46	411.06
316.689	410.06
316.919	416.06
317.148	442.06
317.377	409.06
317.607	407.06
317.836	396.06
318.065	408.06
318.295	424.06
318.524	422.06
318.753	419.06
318.983	389.06
319.212	412.06
319.441	420.06
319.67	402.06
319.9	391.06
320.129	399.06
320.358	417.06
320.587	403.06
320.816	429.06
321.046	413.06
321.275	429.06
321.504	422.06
321.733	438.06
321.962	424.06
322.191	438.06
322.42	447.06
322.649	461.06
322.878	459.06
323.108	469.06
323.337	472.06
323.566	485.06
323.795	482.06
324.024	535.06
324.253	613.06
324.482	780.06
324.71	1128.06
324.939	1575.06
325.168	1413.06
325.397	781.06
325.626	588.06
325.855	519.06
326.084	490.06
326.313	500.06
326.542	481.06
326.77	509.06
326.999	575.06
327.228	727.06
327.457	1013.06
327.686	1250.06
327.914	863.06
328.143	619.06
328.372	575.06
328.6	544.06
328.829	537.06
329.058	551.06
329.287	571.06
329.515	523.06
329.744	516.06
329.972	519.06
330.201	517.06
330.43	555.06
330.658	568.06
330.887	567.06
331.115	570.06
331.344	533.06
331.572	485.06
331.801	527.06
332.03	506.06
332.258	507.06
332.486	500.06
332.715	494.06
332.943	537.06
333.172	501.06
333.4	508.06
333.629	549.06
333.857	555.06
334.085	546.06
334.314	564.06
334.542	561.06
334.771	583.06
334.999	528.06
335.227	507.06
335.455	495.06
335.684	507.06
335.912	505.06
336.14	499.06
336.369	483.06
336.597	505.06
336.825	497.06
337.053	499.06
337.281	478.06
337.51	489.06
337.738	488.06
337.966	491.06
338.194	496.06
338.422	491.06
338.65	478.06
338.878	503.06
339.106	468.06
339.334	485.06
339.562	472.06
339.79	474.06
340.018	478.06
340.246	460.06
340.474	465.06
340.702	475.06
340.93	485.06
341.158	462.06
341.386	471.06
341.614	474.06
341.842	456.06
342.07	463.06
342.298	481.06
342.526	461.06
342.754	449.06
342.981	463.06
343.209	453.06
343.437	484.06
343.665	475.06
343.893	517.06
344.12	525.06
344.348	523.06
344.576	487.06
344.804	490.06
345.031	465.06
345.259	498.06
345.487	475.06
345.714	466.06
345.942	458.06
346.17	460.06
346.397	440.06
346.625	435.06
346.853	455.06
347.08	455.06
347.308	438.06
347.535	458.06
347.763	446.06
347.99	467.06
348.218	447.06
348.445	451.06
348.673	433.06
348.9	446.06
349.128	441.06
349.355	432.06
349.583	448.06
349.81	439.06
350.037	444.06
350.265	445.06
350.492	421.06
350.72	426.06
350.947	434.06
351.174	459.06
351.402	452.06
351.629	441.06
351.856	441.06
352.083	448.06
352.311	441.06
352.538	460.06
352.765	440.06
352.992	443.06
353.22	439.06
353.447	445.06
353.674	461.06
353.901	431.06
354.128	427.06
354.355	431.06
354.583	419.06
354.81	427.06
355.037	427.06
355.264	428.06
355.491	416.06
355.718	419.06
355.945	421.06
356.172	433.06
356.399	424.06
356.626	429.06
356.853	423.06
357.08	412.06
357.307	433.06
357.534	400.06
357.761	408.06
357.988	435.06
358.215	409.06
358.441	407.06
358.668	404.06
358.895	426.06
359.122	429.06
359.349	439.06
359.576	439.06
359.802	438.06
360.029	462.06
360.256	485.06
360.483	474.06
360.709	448.06
360.936	435.06
361.163	425.06
361.39	438.06
361.616	449.06
361.843	440.06
362.07	425.06
362.296	425.06
362.523	418.06
362.749	443.06
362.976	444.06
363.203	449.06
363.429	415.06
363.656	431.06
363.882	437.06
364.109	433.06
364.335	449.06
364.562	445.06
364.788	425.06
365.015	439.06
365.241	433.06
365.468	428.06
365.694	439.06
365.92	428.06
366.147	425.06
366.373	407.06
366.599	420.06
366.826	433.06
367.052	425.06
367.278	416.06
367.505	413.06
367.731	445.06
367.957	427.06
368.184	428.06
368.41	435.06
368.636	440.06
368.862	455.06
369.089	444.06
369.315	437.06
369.541	421.06
369.767	431.06
369.993	422.06
370.219	446.06
370.445	430.06
370.672	428.06
370.898	422.06
371.124	416.06
371.35	423.06
371.576	437.06
371.802	449.06
372.028	423.06
372.254	419.06
372.48	430.06
372.706	445.06
372.932	462.06
373.158	452.06
373.384	452.06
373.61	449.06
373.835	453.06
374.061	435.06
374.287	447.06
374.513	456.06
374.739	459.06
374.965	463.06
375.191	456.06
375.416	484.06
375.642	458.06
375.868	456.06
376.094	456.06
376.319	432.06
376.545	459.06
376.771	441.06
376.997	441.06
377.222	440.06
377.448	417.06
377.674	412.06
377.899	439.06
378.125	443.06
378.35	443.06
378.576	432.06
378.802	451.06
379.027	428.06
379.253	433.06
379.478	444.06
379.704	439.06
379.929	438.06
380.155	422.06
380.38	438.06
380.606	437.06
380.831	449.06
381.057	447.06
381.282	434.06
381.507	434.06
381.733	470.06
381.958	435.06
382.184	428.06
382.409	461.06
382.634	460.06
382.86	447.06
383.085	456.06
383.31	441.06
383.535	466.06
383.761	482.06
383.986	489.06
384.211	463.06
384.436	470.06
384.662	472.06
384.887	517.06
385.112	486.06
385.337	486.06
385.562	494.06
385.787	498.06
386.013	498.06
386.238	490.06
386.463	498.06
386.688	494.06
386.913	496.06
387.138	495.06
387.363	475.06
387.588	495.06
387.813	504.06
388.038	486.06
388.263	495.06
388.488	511.06
388.713	516.06
388.938	493.06
389.163	468.06
389.387	488.06
389.612	478.06
389.837	503.06
390.062	484.06
390.287	497.06
390.512	484.06
390.736	492.06
390.961	495.06
391.186	507.06
391.411	524.06
391.636	532.06
391.86	526.06
392.085	535.06
392.31	523.06
392.534	506.06
392.759	525.06
392.984	508.06
393.208	527.06
393.433	497.06
393.658	508.06
393.882	507.06
394.107	502.06
394.331	520.06
394.556	504.06
394.78	515.06
395.005	518.06
395.229	505.06
395.454	527.06
395.678	535.06
395.903	548.06
396.127	544.06
396.352	549.06
396.576	520.06
396.801	521.06
397.025	516.06
397.249	519.06
397.474	527.06
397.698	539.06
397.922	544.06
398.147	548.06
398.371	554.06
398.595	593.06
398.82	579.06
399.044	595.06
399.268	630.06
399.492	669.06
399.717	730.06
399.941	757.06
400.165	737.06
400.389	713.06
400.613	669.06
400.837	616.06
401.062	579.06
401.286	599.06
401.51	574.06
401.734	566.06
401.958	606.06
402.182	571.06
402.406	619.06
402.63	590.06
402.854	587.06
403.078	608.06
403.302	637.06
403.526	625.06
403.75	630.06
403.974	648.06
404.198	607.06
404.422	627.06
404.645	621.06
404.869	641.06
405.093	662.06
405.317	679.06
405.541	707.06
405.765	649.06
405.988	637.06
406.212	658.06
406.436	636.06
406.66	683.06
406.883	663.06
407.107	686.06
407.331	714.06
407.555	787.06
407.778	762.06
408.002	710.06
408.226	682.06
408.449	678.06
408.673	639.06
408.896	683.06
409.12	717.06
409.344	679.06
409.567	621.06
409.791	621.06
410.014	592.06
410.238	612.06
410.461	606.06
410.685	597.06
410.908	622.06
411.132	632.06
411.355	651.06
411.578	642.06
411.802	597.06
412.025	594.06
412.249	611.06
412.472	614.06
412.695	668.06
412.919	642.06
413.142	580.06
413.365	590.06
413.589	569.06
413.812	586.06
414.035	575.06
414.258	556.06
414.482	592.06
414.705	577.06
414.928	570.06
415.151	559.06
415.374	561.06
415.597	579.06
415.821	585.06
416.044	566.06
416.267	552.06
416.49	566.06
416.713	565.06
416.936	576.06
417.159	563.06
417.382	570.06
417.605	556.06
417.828	561.06
418.051	582.06
418.274	582.06
418.497	557.06
418.72	557.06
418.943	580.06
419.166	592.06
419.389	640.06
419.611	638.06
419.834	610.06
420.057	603.06
420.28	595.06
420.503	601.06
420.726	598.06
420.948	615.06
421.171	621.06
421.394	648.06
421.617	587.06
421.839	585.06
422.062	586.06
422.285	603.06
422.507	636.06
422.73	707.06
422.953	689.06
423.175	637.06
423.398	628.06
423.621	619.06
423.843	623.06
424.066	644.06
424.288	641.06
424.511	667.06
424.733	683.06
424.956	776.06
425.178	726.06
425.401	724.06
425.623	718.06
425.846	639.06
426.068	590.06
426.291	600.06
426.513	601.06
426.735	640.06
426.958	638.06
427.18	711.06
427.402	790.06
427.625	866.06
427.847	775.06
428.069	675.06
428.292	639.06
428.514	590.06
428.736	584.06
428.958	567.06
429.181	533.06
429.403	542.06
429.625	571.06
429.847	591.06
430.069	649.06
430.292	635.06
430.514	587.06
430.736	571.06
430.958	538.06
431.18	543.06
431.402	534.06
431.624	519.06
431.846	545.06
432.068	552.06
432.29	538.06
432.512	538.06
432.734	535.06
432.956	551.06
433.178	537.06
433.4	536.06
433.622	563.06
433.844	533.06
434.066	561.06
434.287	524.06
434.509	550.06
434.731	563.06
434.953	555.06
435.175	595.06
435.397	611.06
435.618	588.06
435.84	650.06
436.062	709.06
436.284	748.06
436.505	645.06
436.727	606.06
436.949	586.06
437.17	550.06
437.392	553.06
437.614	569.06
437.835	598.06
438.057	641.06
438.278	738.06
438.5	728.06
438.721	798.06
438.943	793.06
439.165	640.06
439.386	605.06
439.608	628.06
439.829	591.06
440.05	594.06
440.272	623.06
440.493	592.06
440.715	589.06
440.936	565.06
441.158	556.06
441.379	571.06
441.6	583.06
441.822	610.06
442.043	621.06
442.264	681.06
442.486	726.06
442.707	655.06
442.928	612.06
443.149	607.06
443.371	627.06
443.592	661.06
443.813	759.06
444.034	799.06
444.255	696.06
444.476	664.06
444.698	665.06
444.919	674.06
445.14	757.06
445.361	671.06
445.582	661.06
445.803	698.06
446.024	789.06
446.245	757.06
446.466	704.06
446.687	620.06
446.908	588.06
447.129	567.06
447.35	555.06
447.571	553.06
447.792	541.06
448.013	552.06
448.234	535.06
448.455	604.06
448.675	693.06
448.896	815.06
449.117	687.06
449.338	636.06
449.559	731.06
449.779	851.06
450	653.06
450.221	575.06
450.442	541.06
450.662	522.06
450.883	520.06
451.104	545.06
451.324	509.06
451.545	517.06
451.766	505.06
451.986	496.06
452.207	484.06
452.428	471.06
452.648	490.06
452.869	506.06
453.089	511.06
453.31	488.06
453.53	507.06
453.751	494.06
453.971	483.06
454.192	505.06
454.412	485.06
454.633	477.06
454.853	475.06
455.073	485.06
455.294	499.06
455.514	567.06
455.734	552.06
455.955	488.06
456.175	467.06
456.395	472.06
456.616	461.06
456.836	455.06
457.056	465.06
457.276	461.06
457.497	489.06
457.717	473.06
457.937	477.06
458.157	483.06
458.377	477.06
458.598	495.06
458.818	543.06
459.038	589.06
459.258	616.06
459.478	545.06
459.698	546.06
459.918	525.06
460.138	530.06
460.358	533.06
460.578	549.06
460.798	546.06
461.018	585.06
461.238	559.06
461.458	581.06
461.678	547.06
461.898	581.06
462.118	585.06
462.338	598.06
462.558	619.06
462.777	615.06
462.997	660.06
463.217	685.06
463.437	680.06
463.657	639.06
463.876	633.06
464.096	621.06
464.316	617.06
464.536	633.06
464.755	639.06
464.975	620.06
465.195	626.06
465.414	633.06
465.634	592.06
465.854	544.06
466.073	542.06
466.293	527.06
466.512	521.06
466.732	519.06
466.951	507.06
467.171	503.06
467.391	536.06
467.61	513.06
467.829	521.06
468.049	550.06
468.268	517.06
468.488	510.06
468.707	528.06
468.927	494.06
469.146	499.06
469.365	507.06
469.585	500.06
469.804	500.06
470.023	530.06
470.243	542.06
470.462	519.06
470.681	550.06
470.901	523.06
471.12	552.06
471.339	519.06
471.558	521.06
471.777	503.06
471.997	517.06
472.216	514.06
472.435	543.06
472.654	501.06
472.873	497.06
473.092	524.06
473.311	512.06
473.53	492.06
473.749	520.06
473.968	557.06
474.187	616.06
474.406	651.06
474.625	539.06
474.844	527.06
475.063	527.06
475.282	515.06
475.501	519.06
475.72	526.06
475.939	541.06
476.158	539.06
476.377	545.06
476.596	536.06
476.814	533.06
477.033	517.06
477.252	528.06
477.471	552.06
477.69	553.06
477.908	580.06
478.127	582.06
478.346	562.06
478.564	589.06
478.783	600.06
479.002	612.06
479.22	608.06
479.439	617.06
479.658	606.06
479.876	632.06
480.095	603.06
480.313	661.06
480.532	648.06
480.751	658.06
480.969	647.06
481.188	673.06
481.406	677.06
481.624	634.06
481.843	609.06
482.061	605.06
482.28	590.06
482.498	602.06
482.717	594.06
482.935	588.06
483.153	578.06
483.372	587.06
483.59	582.06
483.808	590.06
484.027	592.06
484.245	593.06
484.463	589.06
484.681	610.06
484.9	590.06
485.118	595.06
485.336	572.06
485.554	603.06
485.772	638.06
485.99	619.06
486.209	620.06
486.427	622.06
486.645	619.06
486.863	632.06
487.081	642.06
487.299	636.06
487.517	620.06
487.735	605.06
487.953	653.06
488.171	645.06
488.389	626.06
488.607	638.06
488.825	629.06
489.043	615.06
489.261	639.06
489.479	655.06
489.696	647.06
489.914	665.06
490.132	656.06
490.35	655.06
490.568	660.06
490.786	675.06
491.003	691.06
491.221	662.06
491.439	682.06
491.657	673.06
491.874	716.06
492.092	709.06
492.31	715.06
492.527	719.06
492.745	718.06
492.963	708.06
493.18	700.06
493.398	717.06
493.615	746.06
493.833	756.06
494.05	735.06
494.268	722.06
494.485	721.06
494.703	731.06
494.92	717.06
495.138	749.06
495.355	736.06
495.573	751.06
495.79	752.06
496.008	759.06
496.225	759.06
496.442	733.06
496.66	743.06
496.877	764.06
497.094	750.06
497.312	760.06
497.529	753.06
497.746	780.06
497.963	819.06
498.181	852.06
498.398	826.06
498.615	877.06
498.832	886.06
499.049	929.06
499.267	942.06
499.484	999.06
499.701	1063.06
499.918	1157.06
500.135	1203.06
500.352	1273.06
500.569	1342.06
500.786	1345.06
501.003	1256.06
501.22	1232.06
501.437	1147.06
501.654	1084.06
501.871	1030.06
502.088	963.06
502.305	951.06
502.522	895.06
502.739	900.06
502.956	830.06
503.172	835.06
503.389	778.06
503.606	796.06
503.823	791.06
504.04	791.06
504.256	783.06
504.473	767.06
504.69	773.06
504.907	781.06
505.123	735.06
505.34	711.06
505.557	712.06
505.773	713.06
505.99	713.06
506.207	705.06
506.423	689.06
506.64	679.06
506.856	691.06
507.073	689.06
507.289	675.06
507.506	686.06
507.722	691.06
507.939	669.06
508.155	669.06
508.372	664.06
508.588	657.06
508.805	655.06
509.021	661.06
509.238	645.06
509.454	660.06
509.67	651.06
509.887	653.06
510.103	655.06
510.319	649.06
510.536	685.06
510.752	986.06
510.968	838.06
511.184	630.06
511.401	601.06
511.617	601.06
511.833	611.06
512.049	613.06
512.265	619.06
512.481	598.06
512.698	594.06
512.914	621.06
513.13	608.06
513.346	587.06
513.562	619.06
513.778	611.06
513.994	638.06
514.21	607.06
514.426	618.06
514.642	654.06
514.858	653.06
515.074	679.06
515.29	750.06
515.506	990.06
515.721	875.06
515.937	686.06
516.153	643.06
516.369	661.06
516.585	647.06
516.801	645.06
517.016	664.06
517.232	676.06
517.448	688.06
517.664	706.06
517.879	709.06
518.095	693.06
518.311	724.06
518.527	674.06
518.742	654.06
518.958	628.06
519.173	653.06
519.389	653.06
519.605	619.06
519.82	617.06
520.036	624.06
520.251	638.06
520.467	648.06
520.682	617.06
520.898	624.06
521.113	639.06
521.329	676.06
521.544	709.06
521.76	780.06
521.975	1187.06
522.19	1200.06
522.406	752.06
522.621	613.06
522.836	610.06
523.052	583.06
523.267	552.06
523.482	560.06
523.698	557.06
523.913	560.06
524.128	535.06
524.343	546.06
524.559	525.06
524.774	536.06
524.989	532.06
525.204	559.06
525.419	539.06
525.634	553.06
525.849	543.06
526.064	536.06
526.28	524.06
526.495	516.06
526.71	548.06
526.925	523.06
527.14	506.06
527.355	527.06
527.57	510.06
527.785	511.06
527.999	512.06
528.214	515.06
528.429	550.06
528.644	497.06
528.859	517.06
529.074	537.06
529.289	529.06
529.503	583.06
529.718	536.06
529.933	535.06
530.148	520.06
530.363	515.06
530.577	492.06
530.792	499.06
531.007	485.06
531.221	505.06
531.436	509.06
531.651	488.06
531.865	509.06
532.08	511.06
532.295	499.06
532.509	496.06
532.724	493.06
532.938	508.06
533.153	499.06
533.367	515.06
533.582	493.06
533.796	511.06
534.011	501.06
534.225	470.06
534.44	493.06
534.654	497.06
534.868	481.06
535.083	507.06
535.297	497.06
535.511	501.06
535.726	497.06
535.94	502.06
536.154	476.06
536.369	498.06
536.583	474.06
536.797	476.06
537.011	485.06
537.225	459.06
537.44	462.06
537.654	489.06
537.868	471.06
538.082	488.06
538.296	482.06
538.51	471.06
538.724	487.06
538.938	501.06
539.153	451.06
539.367	485.06
539.581	486.06
539.795	491.06
540.009	468.06
540.222	446.06
540.436	460.06
540.65	466.06
540.864	478.06
541.078	485.06
541.292	475.06
541.506	479.06
541.72	508.06
541.934	479.06
542.147	473.06
542.361	479.06
542.575	463.06
542.789	467.06
543.002	466.06
543.216	500.06
543.43	488.06
543.644	462.06
543.857	464.06
544.071	495.06
544.285	480.06
544.498	468.06
544.712	475.06
544.925	475.06
545.139	502.06
545.352	468.06
545.566	477.06
545.779	455.06
545.993	468.06
546.206	492.06
546.42	490.06
546.633	455.06
546.847	470.06
547.06	473.06
547.274	467.06
547.487	492.06
547.7	472.06
547.914	507.06
548.127	487.06
548.34	476.06
548.554	485.06
548.767	477.06
548.98	468.06
549.193	453.06
549.407	488.06
549.62	480.06
549.833	485.06
550.046	473.06
550.259	468.06
550.473	465.06
550.686	464.06
550.899	472.06
551.112	485.06
551.325	485.06
551.538	469.06
551.751	453.06
551.964	454.06
552.177	465.06
552.39	472.06
552.603	483.06
552.816	486.06
553.029	495.06
553.242	522.06
553.455	504.06
553.667	513.06
553.88	482.06
554.093	503.06
554.306	488.06
554.519	471.06
554.732	476.06
554.944	472.06
555.157	462.06
555.37	446.06
555.583	443.06
555.795	445.06
556.008	442.06
556.221	408.06
556.433	433.06
556.646	431.06
556.859	425.06
557.071	411.06
557.284	415.06
557.496	402.06
557.709	407.06
557.921	417.06
558.134	418.06
558.346	427.06
558.559	428.06
558.771	411.06
558.984	423.06
559.196	385.06
559.409	411.06
559.621	421.06
559.833	390.06
560.046	402.06
560.258	403.06
560.47	423.06
560.683	396.06
560.895	414.06
561.107	424.06
561.32	400.06
561.532	417.06
561.744	406.06
561.956	395.06
562.168	411.06
562.381	405.06
562.593	407.06
562.805	430.06
563.017	422.06
563.229	407.06
563.441	428.06
563.653	419.06
563.865	406.06
564.077	395.06
564.289	421.06
564.501	439.06
564.713	437.06
564.925	434.06
565.137	452.06
565.349	444.06
565.561	460.06
565.773	478.06
565.985	475.06
566.197	495.06
566.408	496.06
566.62	540.06
566.832	571.06
567.044	582.06
567.255	573.06
567.467	592.06
567.679	608.06
567.891	637.06
568.102	629.06
568.314	619.06
568.526	586.06
568.737	550.06
568.949	529.06
569.161	479.06
569.372	469.06
569.584	468.06
569.795	448.06
570.007	425.06
570.218	452.06
570.43	459.06
570.641	444.06
570.853	426.06
571.064	428.06
571.276	402.06
571.487	400.06
571.698	395.06
571.91	414.06
572.121	381.06
572.333	368.06
572.544	383.06
572.755	385.06
572.966	390.06
573.178	373.06
573.389	376.06
573.6	364.06
573.811	369.06
574.023	369.06
574.234	365.06
574.445	371.06
574.656	351.06
574.867	365.06
575.078	373.06
575.289	355.06
575.501	352.06
575.712	339.06
575.923	341.06
576.134	370.06
576.345	360.06
576.556	364.06
576.767	344.06
576.978	343.06
577.188	357.06
577.399	344.06
577.61	346.06
577.821	320.06
578.032	342.06
578.243	363.06
578.454	495.06
578.665	397.06
578.875	341.06
579.086	355.06
579.297	348.06
579.508	322.06
579.718	319.06
579.929	326.06
580.14	328.06
580.35	332.06
580.561	327.06
580.772	318.06
580.982	307.06
581.193	319.06
581.403	340.06
581.614	323.06
581.825	335.06
582.035	326.06
582.246	321.06
582.456	321.06
582.667	322.06
582.877	313.06
583.087	325.06
583.298	308.06
583.508	328.06
583.719	310.06
583.929	325.06
584.139	325.06
584.35	309.06
584.56	317.06
584.77	324.06
584.981	355.06
585.191	328.06
585.401	304.06
585.611	333.06
585.821	335.06
586.032	321.06
586.242	331.06
586.452	318.06
586.662	317.06
586.872	301.06
587.082	312.06
587.292	297.06
587.502	316.06
587.713	324.06
587.923	314.06
588.133	326.06
588.343	326.06
588.553	304.06
588.762	295.06
588.972	302.06
589.182	304.06
589.392	317.06
589.602	312.06
589.812	319.06
590.022	319.06
590.232	313.06
590.441	313.06
590.651	329.06
590.861	319.06
591.071	329.06
591.281	324.06
591.49	324.06
591.7	313.06
591.91	335.06
592.119	310.06
592.329	333.06
592.539	318.06
592.748	354.06
592.958	349.06
593.167	358.06
593.377	368.06
593.587	376.06
593.796	357.06
594.006	357.06
594.215	355.06
594.424	348.06
594.634	351.06
594.843	360.06
595.053	349.06
595.262	334.06
595.472	340.06
595.681	326.06
595.89	308.06
596.1	313.06
596.309	306.06
596.518	307.06
596.727	325.06
596.937	325.06
597.146	309.06
597.355	304.06
597.564	292.06
597.774	289.06
597.983	268.06
598.192	297.06
598.401	299.06
598.61	297.06
598.819	276.06
599.028	302.06
599.237	305.06
599.446	286.06
599.655	277.06
599.864	269.06
600.073	262.06
600.282	274.06
600.491	289.06
600.7	274.06
600.909	275.06
601.118	266.06
601.327	290.06
601.536	288.06
601.745	279.06
601.953	287.06
602.162	276.06
602.371	281.06
602.58	273.06
602.789	281.06
602.997	282.06
603.206	280.06
603.415	267.06
603.623	270.06
603.832	268.06
604.041	269.06
604.249	255.06
604.458	270.06
604.666	260.06
604.875	271.06
605.084	265.06
605.292	257.06
605.501	264.06
605.709	255.06
605.918	262.06
606.126	283.06
606.334	264.06
606.543	264.06
606.751	265.06
606.96	246.06
607.168	269.06
607.376	251.06
607.585	273.06
607.793	243.06
608.001	256.06
608.21	241.06
608.418	245.06
608.626	247.06
608.834	250.06
609.043	268.06
609.251	249.06
609.459	247.06
609.667	265.06
609.875	270.06
610.083	266.06
610.291	261.06
610.499	263.06
610.707	252.06
610.916	269.06
611.124	228.06
611.332	262.06
611.54	254.06
611.748	249.06
611.955	232.06
612.163	251.06
612.371	257.06
612.579	258.06
612.787	263.06
612.995	260.06
613.203	256.06
613.411	262.06
613.618	250.06
613.826	250.06
614.034	265.06
614.242	265.06
614.449	250.06
614.657	233.06
614.865	231.06
615.072	257.06
615.28	242.06
615.488	255.06
615.695	259.06
615.903	244.06
616.111	250.06
616.318	241.06
616.526	245.06
616.733	272.06
616.941	246.06
617.148	246.06
617.356	263.06
617.563	228.06
617.771	238.06
617.978	268.06
618.185	247.06
618.393	255.06
618.6	239.06
618.807	236.06
619.015	246.06
619.222	263.06
619.429	235.06
619.637	247.06
619.844	248.06
620.051	233.06
620.258	244.06
620.466	239.06
620.673	234.06
620.88	234.06
621.087	222.06
621.294	230.06
621.501	241.06
621.708	241.06
621.915	231.06
622.122	253.06
622.329	227.06
622.536	220.06
622.743	224.06
622.95	232.06
623.157	225.06
623.364	236.06
623.571	258.06
623.778	234.06
623.985	242.06
624.192	219.06
624.399	231.06
624.606	219.06
624.812	224.06
625.019	196.06
625.226	205.06
625.433	228.06
625.639	218.06
625.846	208.06
626.053	230.06
626.259	236.06
626.466	233.06
626.673	223.06
626.879	210.06
627.086	227.06
627.293	212.06
627.499	234.06
627.706	211.06
627.912	222.06
628.119	209.06
628.325	205.06
628.532	211.06
628.738	223.06
628.945	229.06
629.151	210.06
629.357	215.06
629.564	213.06
629.77	214.06
629.976	209.06
630.183	218.06
630.389	216.06
630.595	208.06
630.802	212.06
631.008	195.06
631.214	196.06
631.42	215.06
631.627	208.06
631.833	199.06
632.039	220.06
632.245	209.06
632.451	202.06
632.657	205.06
632.863	193.06
633.069	195.06
633.275	197.06
633.481	198.06
633.688	199.06
633.893	218.06
634.099	205.06
634.305	205.06
634.511	198.06
634.717	191.06
634.923	196.06
635.129	195.06
635.335	204.06
635.541	214.06
635.747	206.06
635.952	202.06
636.158	206.06
636.364	209.06
636.57	182.06
636.775	193.06
636.981	177.06
637.187	193.06
637.392	183.06
637.598	186.06
637.804	187.06
638.009	193.06
638.215	197.06
638.421	189.06
638.626	189.06
638.832	186.06
639.037	194.06
639.243	173.06
639.448	185.06
639.654	185.06
639.859	196.06
640.065	192.06
640.27	187.06
640.475	183.06
640.681	192.06
640.886	174.06
641.091	195.06
641.297	187.06
641.502	182.06
641.707	185.06
641.913	174.06
642.118	183.06
642.323	170.06
642.528	171.06
642.733	168.06
642.939	177.06
643.144	186.06
643.349	155.06
643.554	179.06
643.759	168.06
643.964	176.06
644.169	168.06
644.374	167.06
644.579	176.06
644.784	189.06
644.989	180.06
645.194	177.06
645.399	183.06
645.604	183.06
645.809	183.06
646.014	166.06
646.219	174.06
646.423	181.06
646.628	186.06
646.833	174.06
647.038	177.06
647.243	174.06
647.447	183.06
647.652	180.06
647.857	171.06
648.062	176.06
648.266	184.06
648.471	184.06
648.676	170.06
648.88	170.06
649.085	180.06
649.289	197.06
649.494	175.06
649.698	191.06
649.903	193.06
650.107	180.06
650.312	182.06
650.516	177.06
650.721	173.06
650.925	168.06
651.13	167.06
651.334	156.06
651.539	174.06
651.743	170.06
651.947	153.06
652.152	151.06
652.356	164.06
652.56	155.06
652.764	150.06
652.969	158.06
653.173	146.06
653.377	159.06
653.581	148.06
653.785	138.06
653.99	144.06
654.194	149.06
654.398	142.06
654.602	144.06
654.806	131.06
655.01	144.06
655.214	141.06
655.418	128.06
655.622	126.06
655.826	133.06
656.03	143.06
656.234	138.06
656.438	136.06
656.642	136.06
656.846	136.06
657.049	134.06
657.253	124.06
657.457	137.06
657.661	121.06
657.865	124.06
658.068	127.06
658.272	113.06
658.476	113.06
658.68	113.06
658.883	104.06
659.087	110.06
659.291	113.06
659.494	102.06
659.698	103.06
659.901	119.06
660.105	102.06
660.309	93.06
660.512	110.06
660.716	91.06
660.919	88.06
661.123	92.06
661.326	84.06
661.53	83.06
661.733	87.06
661.936	78.06
662.14	89.06
662.343	77.06
662.546	79.06
662.75	85.06
662.953	99.06
663.156	83.06
663.36	90.06
663.563	80.06
663.766	83.06
663.969	90.06
664.173	87.06
664.376	89.06
664.579	90.06
664.782	70.06
664.985	80.06
665.188	85.06
665.391	86.06
665.594	82.06
665.797	96.06
666	83.06
666.203	102.06
666.406	80.06
666.609	76.06
666.812	82.06
667.015	87.06
667.218	71.06
667.421	95.06
667.624	88.06
667.827	88.06
668.03	97.06
668.232	86.06
668.435	88.06
668.638	79.06
668.841	79.06
669.043	91.06
669.246	79.06
669.449	63.06
669.651	94.06
669.854	82.06
670.057	97.06
670.259	76.06
670.462	88.06
670.665	78.06
670.867	94.06
671.07	93.06
671.272	81.06
671.475	87.06
671.677	86.06
671.88	80.06
672.082	79.06
672.284	86.06
672.487	85.06
672.689	81.06
672.892	92.06
