Data from 1973.PennyLincolnUp.Lamp.En5.5.200Scan.071719.P1.Changed Mount._HRD10591_15-45-10-853.txt Node
Date: Thu Jul 18 15:45:10 EDT 2019
User: cochatt
Spectrometer: HR+D1059
Trigger mode: 1
Integration Time (sec): 1.000000E-1
Scans to average: 1
Electric dark correction enabled: true
Nonlinearity correction enabled: false
Boxcar width: 0
XAxis mode: Wavelengths
Number of Pixels in Spectrum: 2048
>>>>>Begin Spectral Data<<<<<
223.165	-4.94
223.4	-4.94
223.635	-4.94
223.869	-21.94
224.104	-12.94
224.338	-13.94
224.573	-9.94
224.808	-10.94
225.042	-4.94
225.277	-10.94
225.511	-6.94
225.746	-10.94
225.98	10.06
226.215	8.06
226.449	15.06
226.683	17.06
226.918	35.06
227.152	23.06
227.387	36.06
227.621	29.06
227.856	50.06
228.09	52.06
228.324	58.06
228.559	49.06
228.793	46.06
229.027	100.06
229.262	86.06
229.496	113.06
229.73	124.06
229.964	126.06
230.199	116.06
230.433	120.06
230.667	116.06
230.901	109.06
231.136	104.06
231.37	103.06
231.604	105.06
231.838	100.06
232.072	105.06
232.306	121.06
232.541	120.06
232.775	113.06
233.009	122.06
233.243	111.06
233.477	107.06
233.711	120.06
233.945	105.06
234.179	111.06
234.413	118.06
234.647	110.06
234.881	109.06
235.115	115.06
235.349	119.06
235.583	121.06
235.817	113.06
236.051	116.06
236.285	128.06
236.519	119.06
236.753	122.06
236.987	145.06
237.221	158.06
237.455	214.06
237.689	167.06
237.922	141.06
238.156	121.06
238.39	134.06
238.624	113.06
238.858	130.06
239.091	122.06
239.325	118.06
239.559	129.06
239.793	122.06
240.027	121.06
240.26	134.06
240.494	159.06
240.728	156.06
240.961	142.06
241.195	144.06
241.429	125.06
241.662	125.06
241.896	136.06
242.13	137.06
242.363	119.06
242.597	137.06
242.83	144.06
243.064	142.06
243.298	136.06
243.531	145.06
243.765	142.06
243.998	141.06
244.232	134.06
244.465	156.06
244.699	159.06
244.932	126.06
245.166	136.06
245.399	142.06
245.633	139.06
245.866	150.06
246.099	157.06
246.333	151.06
246.566	142.06
246.8	157.06
247.033	164.06
247.266	157.06
247.5	157.06
247.733	160.06
247.966	167.06
248.2	168.06
248.433	156.06
248.666	166.06
248.899	169.06
249.133	173.06
249.366	203.06
249.599	201.06
249.832	198.06
250.066	180.06
250.299	190.06
250.532	186.06
250.765	200.06
250.998	206.06
251.231	206.06
251.465	215.06
251.698	200.06
251.931	190.06
252.164	189.06
252.397	212.06
252.63	199.06
252.863	196.06
253.096	220.06
253.329	240.06
253.562	234.06
253.795	224.06
254.028	205.06
254.261	230.06
254.494	222.06
254.727	222.06
254.96	260.06
255.193	246.06
255.426	237.06
255.659	225.06
255.892	234.06
256.124	234.06
256.357	227.06
256.59	212.06
256.823	241.06
257.056	204.06
257.289	210.06
257.521	212.06
257.754	213.06
257.987	216.06
258.22	215.06
258.452	202.06
258.685	210.06
258.918	208.06
259.151	217.06
259.383	224.06
259.616	208.06
259.849	227.06
260.081	227.06
260.314	253.06
260.547	264.06
260.779	248.06
261.012	224.06
261.244	232.06
261.477	237.06
261.71	217.06
261.942	213.06
262.175	233.06
262.407	212.06
262.64	215.06
262.872	228.06
263.105	207.06
263.337	230.06
263.57	220.06
263.802	222.06
264.035	208.06
264.267	208.06
264.499	220.06
264.732	232.06
264.964	216.06
265.197	220.06
265.429	223.06
265.661	215.06
265.894	226.06
266.126	227.06
266.358	222.06
266.591	230.06
266.823	223.06
267.055	212.06
267.287	250.06
267.52	252.06
267.752	241.06
267.984	254.06
268.216	237.06
268.448	249.06
268.681	254.06
268.913	256.06
269.145	254.06
269.377	274.06
269.609	275.06
269.841	289.06
270.073	270.06
270.306	279.06
270.538	309.06
270.77	316.06
271.002	296.06
271.234	295.06
271.466	297.06
271.698	325.06
271.93	334.06
272.162	334.06
272.394	336.06
272.626	286.06
272.858	295.06
273.09	266.06
273.322	277.06
273.553	277.06
273.785	287.06
274.017	270.06
274.249	270.06
274.481	283.06
274.713	272.06
274.945	274.06
275.176	268.06
275.408	272.06
275.64	258.06
275.872	275.06
276.104	287.06
276.335	274.06
276.567	286.06
276.799	290.06
277.031	303.06
277.262	314.06
277.494	330.06
277.726	309.06
277.957	285.06
278.189	306.06
278.421	284.06
278.652	290.06
278.884	289.06
279.115	295.06
279.347	300.06
279.579	303.06
279.81	288.06
280.042	280.06
280.273	291.06
280.505	294.06
280.736	290.06
280.968	290.06
281.199	287.06
281.431	286.06
281.662	296.06
281.894	280.06
282.125	295.06
282.356	302.06
282.588	305.06
282.819	324.06
283.051	291.06
283.282	313.06
283.513	313.06
283.745	317.06
283.976	316.06
284.207	305.06
284.439	312.06
284.67	300.06
284.901	291.06
285.132	308.06
285.364	318.06
285.595	305.06
285.826	308.06
286.057	321.06
286.288	310.06
286.52	319.06
286.751	304.06
286.982	292.06
287.213	304.06
287.444	321.06
287.675	312.06
287.906	331.06
288.138	322.06
288.369	338.06
288.6	318.06
288.831	317.06
289.062	303.06
289.293	298.06
289.524	318.06
289.755	310.06
289.986	333.06
290.217	299.06
290.448	328.06
290.679	320.06
290.91	330.06
291.141	329.06
291.371	332.06
291.602	336.06
291.833	330.06
292.064	319.06
292.295	308.06
292.526	304.06
292.757	320.06
292.987	323.06
293.218	317.06
293.449	322.06
293.68	327.06
293.91	317.06
294.141	324.06
294.372	311.06
294.603	351.06
294.833	311.06
295.064	324.06
295.295	324.06
295.525	328.06
295.756	328.06
295.987	339.06
296.217	341.06
296.448	345.06
296.679	324.06
296.909	322.06
297.14	340.06
297.37	342.06
297.601	322.06
297.831	338.06
298.062	329.06
298.292	344.06
298.523	315.06
298.753	348.06
298.984	330.06
299.214	353.06
299.445	342.06
299.675	344.06
299.905	361.06
300.136	342.06
300.366	354.06
300.597	345.06
300.827	351.06
301.057	379.06
301.288	357.06
301.518	340.06
301.748	367.06
301.979	372.06
302.209	350.06
302.439	384.06
302.669	356.06
302.9	355.06
303.13	351.06
303.36	337.06
303.59	362.06
303.82	365.06
304.051	361.06
304.281	353.06
304.511	366.06
304.741	348.06
304.971	364.06
305.201	355.06
305.431	357.06
305.661	339.06
305.891	357.06
306.121	353.06
306.352	368.06
306.582	356.06
306.812	353.06
307.042	366.06
307.272	358.06
307.502	362.06
307.731	368.06
307.961	366.06
308.191	371.06
308.421	356.06
308.651	372.06
308.881	356.06
309.111	368.06
309.341	389.06
309.571	384.06
309.8	384.06
310.03	385.06
310.26	384.06
310.49	380.06
310.72	381.06
310.949	388.06
311.179	405.06
311.409	394.06
311.639	387.06
311.868	378.06
312.098	390.06
312.328	402.06
312.557	415.06
312.787	404.06
313.017	412.06
313.246	385.06
313.476	423.06
313.706	387.06
313.935	407.06
314.165	426.06
314.394	410.06
314.624	390.06
314.853	417.06
315.083	392.06
315.312	404.06
315.542	406.06
315.771	392.06
316.001	375.06
316.23	401.06
316.46	371.06
316.689	402.06
316.919	396.06
317.148	380.06
317.377	395.06
317.607	388.06
317.836	394.06
318.065	400.06
318.295	400.06
318.524	384.06
318.753	409.06
318.983	387.06
319.212	396.06
319.441	413.06
319.67	396.06
319.9	398.06
320.129	414.06
320.358	410.06
320.587	393.06
320.816	424.06
321.046	409.06
321.275	414.06
321.504	400.06
321.733	403.06
321.962	436.06
322.191	425.06
322.42	426.06
322.649	447.06
322.878	460.06
323.108	443.06
323.337	458.06
323.566	485.06
323.795	488.06
324.024	494.06
324.253	583.06
324.482	738.06
324.71	1084.06
324.939	1503.06
325.168	1332.06
325.397	740.06
325.626	563.06
325.855	487.06
326.084	506.06
326.313	458.06
326.542	464.06
326.77	521.06
326.999	561.06
327.228	702.06
327.457	978.06
327.686	1148.06
327.914	830.06
328.143	615.06
328.372	560.06
328.6	545.06
328.829	528.06
329.058	515.06
329.287	526.06
329.515	499.06
329.744	486.06
329.972	506.06
330.201	516.06
330.43	519.06
330.658	527.06
330.887	565.06
331.115	508.06
331.344	530.06
331.572	466.06
331.801	495.06
332.03	510.06
332.258	497.06
332.486	493.06
332.715	480.06
332.943	480.06
333.172	505.06
333.4	526.06
333.629	522.06
333.857	526.06
334.085	560.06
334.314	529.06
334.542	564.06
334.771	560.06
334.999	535.06
335.227	512.06
335.455	525.06
335.684	500.06
335.912	502.06
336.14	473.06
336.369	497.06
336.597	495.06
336.825	480.06
337.053	485.06
337.281	478.06
337.51	488.06
337.738	492.06
337.966	486.06
338.194	465.06
338.422	489.06
338.65	499.06
338.878	453.06
339.106	469.06
339.334	457.06
339.562	455.06
339.79	474.06
340.018	435.06
340.246	448.06
340.474	465.06
340.702	458.06
340.93	455.06
341.158	438.06
341.386	450.06
341.614	465.06
341.842	446.06
342.07	429.06
342.298	453.06
342.526	423.06
342.754	452.06
342.981	440.06
343.209	451.06
343.437	479.06
343.665	456.06
343.893	492.06
344.12	518.06
344.348	511.06
344.576	486.06
344.804	482.06
345.031	495.06
345.259	449.06
345.487	449.06
345.714	464.06
345.942	464.06
346.17	440.06
346.397	448.06
346.625	426.06
346.853	427.06
347.08	449.06
347.308	447.06
347.535	446.06
347.763	464.06
347.99	443.06
348.218	420.06
348.445	448.06
348.673	424.06
348.9	422.06
349.128	440.06
349.355	438.06
349.583	435.06
349.81	392.06
350.037	416.06
350.265	418.06
350.492	410.06
350.72	414.06
350.947	450.06
351.174	406.06
351.402	428.06
351.629	416.06
351.856	420.06
352.083	436.06
352.311	434.06
352.538	437.06
352.765	437.06
352.992	435.06
353.22	421.06
353.447	428.06
353.674	394.06
353.901	413.06
354.128	428.06
354.355	415.06
354.583	398.06
354.81	404.06
355.037	425.06
355.264	413.06
355.491	417.06
355.718	412.06
355.945	408.06
356.172	407.06
356.399	392.06
356.626	420.06
356.853	410.06
357.08	386.06
357.307	408.06
357.534	408.06
357.761	417.06
357.988	412.06
358.215	414.06
358.441	418.06
358.668	416.06
358.895	432.06
359.122	424.06
359.349	425.06
359.576	418.06
359.802	442.06
360.029	450.06
360.256	455.06
360.483	437.06
360.709	438.06
360.936	421.06
361.163	432.06
361.39	430.06
361.616	406.06
361.843	433.06
362.07	412.06
362.296	446.06
362.523	436.06
362.749	450.06
362.976	417.06
363.203	408.06
363.429	432.06
363.656	425.06
363.882	432.06
364.109	432.06
364.335	432.06
364.562	414.06
364.788	404.06
365.015	426.06
365.241	418.06
365.468	432.06
365.694	428.06
365.92	415.06
366.147	436.06
366.373	410.06
366.599	402.06
366.826	409.06
367.052	415.06
367.278	413.06
367.505	423.06
367.731	431.06
367.957	414.06
368.184	417.06
368.41	415.06
368.636	430.06
368.862	449.06
369.089	441.06
369.315	418.06
369.541	433.06
369.767	421.06
369.993	418.06
370.219	428.06
370.445	430.06
370.672	429.06
370.898	430.06
371.124	418.06
371.35	428.06
371.576	420.06
371.802	436.06
372.028	422.06
372.254	428.06
372.48	435.06
372.706	425.06
372.932	438.06
373.158	445.06
373.384	431.06
373.61	440.06
373.835	430.06
374.061	429.06
374.287	456.06
374.513	430.06
374.739	442.06
374.965	444.06
375.191	449.06
375.416	437.06
375.642	428.06
375.868	450.06
376.094	409.06
376.319	428.06
376.545	424.06
376.771	412.06
376.997	400.06
377.222	432.06
377.448	425.06
377.674	440.06
377.899	423.06
378.125	410.06
378.35	428.06
378.576	405.06
378.802	412.06
379.027	430.06
379.253	420.06
379.478	420.06
379.704	425.06
379.929	438.06
380.155	414.06
380.38	420.06
380.606	425.06
380.831	409.06
381.057	423.06
381.282	441.06
381.507	412.06
381.733	439.06
381.958	425.06
382.184	437.06
382.409	426.06
382.634	417.06
382.86	424.06
383.085	453.06
383.31	431.06
383.535	438.06
383.761	435.06
383.986	476.06
384.211	461.06
384.436	464.06
384.662	464.06
384.887	475.06
385.112	472.06
385.337	485.06
385.562	471.06
385.787	474.06
386.013	512.06
386.238	488.06
386.463	491.06
386.688	479.06
386.913	476.06
387.138	476.06
387.363	489.06
387.588	474.06
387.813	480.06
388.038	484.06
388.263	480.06
388.488	485.06
388.713	481.06
388.938	481.06
389.163	472.06
389.387	475.06
389.612	453.06
389.837	481.06
390.062	481.06
390.287	466.06
390.512	484.06
390.736	487.06
390.961	497.06
391.186	495.06
391.411	489.06
391.636	487.06
391.86	504.06
392.085	516.06
392.31	500.06
392.534	503.06
392.759	494.06
392.984	501.06
393.208	479.06
393.433	497.06
393.658	484.06
393.882	481.06
394.107	479.06
394.331	486.06
394.556	509.06
394.78	516.06
395.005	487.06
395.229	489.06
395.454	516.06
395.678	526.06
395.903	510.06
396.127	545.06
396.352	533.06
396.576	522.06
396.801	508.06
397.025	508.06
397.249	500.06
397.474	508.06
397.698	512.06
397.922	520.06
398.147	536.06
398.371	572.06
398.595	548.06
398.82	542.06
399.044	600.06
399.268	608.06
399.492	662.06
399.717	736.06
399.941	741.06
400.165	750.06
400.389	702.06
400.613	651.06
400.837	606.06
401.062	587.06
401.286	596.06
401.51	572.06
401.734	561.06
401.958	581.06
402.182	565.06
402.406	557.06
402.63	566.06
402.854	582.06
403.078	574.06
403.302	605.06
403.526	613.06
403.75	617.06
403.974	585.06
404.198	605.06
404.422	599.06
404.645	601.06
404.869	621.06
405.093	656.06
405.317	670.06
405.541	686.06
405.765	644.06
405.988	625.06
406.212	622.06
406.436	625.06
406.66	627.06
406.883	620.06
407.107	654.06
407.331	703.06
407.555	778.06
407.778	752.06
408.002	693.06
408.226	672.06
408.449	646.06
408.673	654.06
408.896	684.06
409.12	689.06
409.344	656.06
409.567	642.06
409.791	594.06
410.014	619.06
410.238	592.06
410.461	596.06
410.685	596.06
410.908	600.06
411.132	628.06
411.355	656.06
411.578	631.06
411.802	591.06
412.025	584.06
412.249	593.06
412.472	614.06
412.695	626.06
412.919	636.06
413.142	603.06
413.365	601.06
413.589	556.06
413.812	548.06
414.035	557.06
414.258	522.06
414.482	562.06
414.705	556.06
414.928	579.06
415.151	555.06
415.374	564.06
415.597	526.06
415.821	548.06
416.044	563.06
416.267	551.06
416.49	558.06
416.713	549.06
416.936	571.06
417.159	533.06
417.382	552.06
417.605	575.06
417.828	572.06
418.051	563.06
418.274	582.06
418.497	560.06
418.72	566.06
418.943	568.06
419.166	584.06
419.389	623.06
419.611	590.06
419.834	588.06
420.057	600.06
420.28	584.06
420.503	582.06
420.726	557.06
420.948	569.06
421.171	595.06
421.394	621.06
421.617	571.06
421.839	585.06
422.062	568.06
422.285	580.06
422.507	630.06
422.73	691.06
422.953	704.06
423.175	622.06
423.398	602.06
423.621	601.06
423.843	613.06
424.066	622.06
424.288	626.06
424.511	642.06
424.733	645.06
424.956	733.06
425.178	702.06
425.401	695.06
425.623	741.06
425.846	634.06
426.068	604.06
426.291	564.06
426.513	578.06
426.735	574.06
426.958	599.06
427.18	688.06
427.402	822.06
427.625	841.06
427.847	750.06
428.069	659.06
428.292	615.06
428.514	575.06
428.736	556.06
428.958	568.06
429.181	558.06
429.403	550.06
429.625	566.06
429.847	565.06
430.069	605.06
430.292	616.06
430.514	561.06
430.736	518.06
430.958	540.06
431.18	530.06
431.402	515.06
431.624	516.06
431.846	516.06
432.068	528.06
432.29	549.06
432.512	500.06
432.734	563.06
432.956	528.06
433.178	555.06
433.4	550.06
433.622	555.06
433.844	533.06
434.066	519.06
434.287	534.06
434.509	558.06
434.731	570.06
434.953	568.06
435.175	576.06
435.397	598.06
435.618	571.06
435.84	618.06
436.062	685.06
436.284	742.06
436.505	630.06
436.727	571.06
436.949	548.06
437.17	542.06
437.392	531.06
437.614	526.06
437.835	558.06
438.057	622.06
438.278	707.06
438.5	729.06
438.721	810.06
438.943	751.06
439.165	633.06
439.386	573.06
439.608	576.06
439.829	564.06
440.05	556.06
440.272	613.06
440.493	598.06
440.715	562.06
440.936	564.06
441.158	554.06
441.379	551.06
441.6	584.06
441.822	597.06
442.043	626.06
442.264	676.06
442.486	710.06
442.707	617.06
442.928	594.06
443.149	605.06
443.371	632.06
443.592	669.06
443.813	741.06
444.034	812.06
444.255	724.06
444.476	660.06
444.698	644.06
444.919	626.06
445.14	752.06
445.361	693.06
445.582	644.06
445.803	674.06
446.024	752.06
446.245	733.06
446.466	652.06
446.687	614.06
446.908	589.06
447.129	557.06
447.35	533.06
447.571	519.06
447.792	532.06
448.013	534.06
448.234	565.06
448.455	569.06
448.675	692.06
448.896	728.06
449.117	652.06
449.338	612.06
449.559	706.06
449.779	840.06
450	656.06
450.221	562.06
450.442	534.06
450.662	511.06
450.883	506.06
451.104	516.06
451.324	510.06
451.545	492.06
451.766	483.06
451.986	474.06
452.207	476.06
452.428	474.06
452.648	479.06
452.869	474.06
453.089	480.06
453.31	496.06
453.53	481.06
453.751	488.06
453.971	484.06
454.192	486.06
454.412	453.06
454.633	460.06
454.853	460.06
455.073	478.06
455.294	492.06
455.514	553.06
455.734	533.06
455.955	468.06
456.175	449.06
456.395	451.06
456.616	455.06
456.836	469.06
457.056	467.06
457.276	447.06
457.497	461.06
457.717	444.06
457.937	450.06
458.157	454.06
458.377	492.06
458.598	499.06
458.818	541.06
459.038	579.06
459.258	596.06
459.478	547.06
459.698	544.06
459.918	513.06
460.138	522.06
460.358	541.06
460.578	566.06
460.798	569.06
461.018	557.06
461.238	568.06
461.458	551.06
461.678	526.06
461.898	562.06
462.118	581.06
462.338	592.06
462.558	601.06
462.777	598.06
462.997	633.06
463.217	660.06
463.437	658.06
463.657	658.06
463.876	618.06
464.096	632.06
464.316	607.06
464.536	608.06
464.755	598.06
464.975	574.06
465.195	617.06
465.414	613.06
465.634	590.06
465.854	574.06
466.073	532.06
466.293	513.06
466.512	523.06
466.732	503.06
466.951	520.06
467.171	503.06
467.391	512.06
467.61	513.06
467.829	476.06
468.049	507.06
468.268	481.06
468.488	476.06
468.707	468.06
468.927	492.06
469.146	487.06
469.365	514.06
469.585	484.06
469.804	491.06
470.023	507.06
470.243	493.06
470.462	517.06
470.681	541.06
470.901	522.06
471.12	498.06
471.339	530.06
471.558	499.06
471.777	489.06
471.997	489.06
472.216	510.06
472.435	500.06
472.654	504.06
472.873	479.06
473.092	477.06
473.311	490.06
473.53	520.06
473.749	516.06
473.968	535.06
474.187	599.06
474.406	631.06
474.625	536.06
474.844	511.06
475.063	499.06
475.282	517.06
475.501	489.06
475.72	497.06
475.939	510.06
476.158	513.06
476.377	514.06
476.596	500.06
476.814	521.06
477.033	515.06
477.252	530.06
477.471	525.06
477.69	531.06
477.908	561.06
478.127	561.06
478.346	574.06
478.564	578.06
478.783	579.06
479.002	589.06
479.22	581.06
479.439	610.06
479.658	586.06
479.876	613.06
480.095	607.06
480.313	628.06
480.532	640.06
480.751	636.06
480.969	623.06
481.188	647.06
481.406	656.06
481.624	615.06
481.843	589.06
482.061	584.06
482.28	580.06
482.498	581.06
482.717	584.06
482.935	584.06
483.153	574.06
483.372	594.06
483.59	562.06
483.808	586.06
484.027	610.06
484.245	596.06
484.463	594.06
484.681	602.06
484.9	573.06
485.118	587.06
485.336	592.06
485.554	614.06
485.772	580.06
485.99	586.06
486.209	580.06
486.427	611.06
486.645	598.06
486.863	609.06
487.081	606.06
487.299	612.06
487.517	601.06
487.735	607.06
487.953	596.06
488.171	612.06
488.389	615.06
488.607	609.06
488.825	623.06
489.043	616.06
489.261	630.06
489.479	633.06
489.696	614.06
489.914	626.06
490.132	641.06
490.35	651.06
490.568	656.06
490.786	654.06
491.003	649.06
491.221	688.06
491.439	706.06
491.657	663.06
491.874	700.06
492.092	698.06
492.31	704.06
492.527	716.06
492.745	695.06
492.963	716.06
493.18	726.06
493.398	725.06
493.615	734.06
493.833	714.06
494.05	727.06
494.268	705.06
494.485	735.06
494.703	727.06
494.92	717.06
495.138	709.06
495.355	724.06
495.573	726.06
495.79	717.06
496.008	738.06
496.225	704.06
496.442	710.06
496.66	724.06
496.877	697.06
497.094	723.06
497.312	756.06
497.529	756.06
497.746	751.06
497.963	770.06
498.181	831.06
498.398	824.06
498.615	841.06
498.832	871.06
499.049	918.06
499.267	936.06
499.484	1004.06
499.701	1053.06
499.918	1103.06
500.135	1186.06
500.352	1280.06
500.569	1264.06
500.786	1326.06
501.003	1272.06
501.22	1187.06
501.437	1132.06
501.654	1063.06
501.871	1016.06
502.088	968.06
502.305	889.06
502.522	887.06
502.739	878.06
502.956	840.06
503.172	820.06
503.389	778.06
503.606	777.06
503.823	762.06
504.04	764.06
504.256	760.06
504.473	733.06
504.69	762.06
504.907	779.06
505.123	732.06
505.34	739.06
505.557	719.06
505.773	684.06
505.99	719.06
506.207	697.06
506.423	658.06
506.64	664.06
506.856	661.06
507.073	658.06
507.289	672.06
507.506	650.06
507.722	672.06
507.939	663.06
508.155	671.06
508.372	636.06
508.588	640.06
508.805	631.06
509.021	624.06
509.238	644.06
509.454	629.06
509.67	649.06
509.887	638.06
510.103	625.06
510.319	611.06
510.536	680.06
510.752	931.06
510.968	782.06
511.184	636.06
511.401	606.06
511.617	594.06
511.833	598.06
512.049	604.06
512.265	600.06
512.481	600.06
512.698	584.06
512.914	576.06
513.13	585.06
513.346	590.06
513.562	581.06
513.778	572.06
513.994	577.06
514.21	597.06
514.426	597.06
514.642	653.06
514.858	650.06
515.074	651.06
515.29	738.06
515.506	952.06
515.721	828.06
515.937	668.06
516.153	632.06
516.369	643.06
516.585	613.06
516.801	623.06
517.016	665.06
517.232	666.06
517.448	666.06
517.664	654.06
517.879	674.06
518.095	704.06
518.311	678.06
518.527	665.06
518.742	656.06
518.958	651.06
519.173	633.06
519.389	629.06
519.605	614.06
519.82	602.06
520.036	617.06
520.251	586.06
520.467	632.06
520.682	607.06
520.898	614.06
521.113	630.06
521.329	645.06
521.544	646.06
521.76	791.06
521.975	1111.06
522.19	1020.06
522.406	708.06
522.621	620.06
522.836	585.06
523.052	558.06
523.267	548.06
523.482	545.06
523.698	558.06
523.913	525.06
524.128	527.06
524.343	521.06
524.559	512.06
524.774	515.06
524.989	518.06
525.204	510.06
525.419	520.06
525.634	484.06
525.849	501.06
526.064	503.06
526.28	501.06
526.495	504.06
526.71	506.06
526.925	482.06
527.14	508.06
527.355	511.06
527.57	493.06
527.785	498.06
527.999	477.06
528.214	504.06
528.429	502.06
528.644	504.06
528.859	506.06
529.074	510.06
529.289	524.06
529.503	569.06
529.718	550.06
529.933	524.06
530.148	496.06
530.363	530.06
530.577	498.06
530.792	470.06
531.007	515.06
531.221	493.06
531.436	486.06
531.651	493.06
531.865	478.06
532.08	487.06
532.295	491.06
532.509	506.06
532.724	487.06
532.938	487.06
533.153	487.06
533.367	505.06
533.582	491.06
533.796	487.06
534.011	486.06
534.225	488.06
534.44	481.06
534.654	465.06
534.868	479.06
535.083	481.06
535.297	475.06
535.511	484.06
535.726	508.06
535.94	495.06
536.154	472.06
536.369	476.06
536.583	464.06
536.797	459.06
537.011	448.06
537.225	470.06
537.44	480.06
537.654	478.06
537.868	474.06
538.082	475.06
538.296	494.06
538.51	478.06
538.724	471.06
538.938	449.06
539.153	464.06
539.367	487.06
539.581	471.06
539.795	452.06
540.009	453.06
540.222	450.06
540.436	470.06
540.65	444.06
540.864	446.06
541.078	468.06
541.292	472.06
541.506	463.06
541.72	459.06
541.934	474.06
542.147	484.06
542.361	461.06
542.575	456.06
542.789	473.06
543.002	460.06
543.216	450.06
543.43	481.06
543.644	466.06
543.857	457.06
544.071	463.06
544.285	469.06
544.498	473.06
544.712	490.06
544.925	458.06
545.139	489.06
545.352	471.06
545.566	476.06
545.779	447.06
545.993	467.06
546.206	470.06
546.42	460.06
546.633	469.06
546.847	463.06
547.06	455.06
547.274	455.06
547.487	468.06
547.7	444.06
547.914	459.06
548.127	445.06
548.34	456.06
548.554	466.06
548.767	465.06
548.98	461.06
549.193	456.06
549.407	467.06
549.62	479.06
549.833	459.06
550.046	453.06
550.259	457.06
550.473	427.06
550.686	462.06
550.899	456.06
551.112	455.06
551.325	452.06
551.538	441.06
551.751	449.06
551.964	438.06
552.177	450.06
552.39	469.06
552.603	449.06
552.816	466.06
553.029	484.06
553.242	473.06
553.455	482.06
553.667	489.06
553.88	497.06
554.093	466.06
554.306	470.06
554.519	463.06
554.732	454.06
554.944	442.06
555.157	456.06
555.37	450.06
555.583	436.06
555.795	442.06
556.008	425.06
556.221	423.06
556.433	415.06
556.646	415.06
556.859	423.06
557.071	419.06
557.284	421.06
557.496	423.06
557.709	425.06
557.921	430.06
558.134	409.06
558.346	402.06
558.559	379.06
558.771	404.06
558.984	399.06
559.196	412.06
559.409	395.06
559.621	392.06
559.833	388.06
560.046	390.06
560.258	381.06
560.47	395.06
560.683	398.06
560.895	405.06
561.107	398.06
561.32	408.06
561.532	417.06
561.744	414.06
561.956	393.06
562.168	384.06
562.381	403.06
562.593	393.06
562.805	380.06
563.017	412.06
563.229	412.06
563.441	422.06
563.653	409.06
563.865	417.06
564.077	422.06
564.289	415.06
564.501	413.06
564.713	440.06
564.925	451.06
565.137	434.06
565.349	431.06
565.561	447.06
565.773	471.06
565.985	466.06
566.197	480.06
566.408	495.06
566.62	536.06
566.832	542.06
567.044	569.06
567.255	556.06
567.467	575.06
567.679	606.06
567.891	618.06
568.102	640.06
568.314	600.06
568.526	552.06
568.737	534.06
568.949	501.06
569.161	470.06
569.372	466.06
569.584	440.06
569.795	446.06
570.007	438.06
570.218	445.06
570.43	442.06
570.641	404.06
570.853	414.06
571.064	404.06
571.276	412.06
571.487	421.06
571.698	389.06
571.91	385.06
572.121	375.06
572.333	370.06
572.544	384.06
572.755	362.06
572.966	362.06
573.178	366.06
573.389	364.06
573.6	367.06
573.811	359.06
574.023	374.06
574.234	345.06
574.445	342.06
574.656	355.06
574.867	365.06
575.078	363.06
575.289	353.06
575.501	344.06
575.712	332.06
575.923	346.06
576.134	320.06
576.345	359.06
576.556	354.06
576.767	332.06
576.978	335.06
577.188	350.06
577.399	346.06
577.61	345.06
577.821	329.06
578.032	343.06
578.243	352.06
578.454	447.06
578.665	376.06
578.875	343.06
579.086	334.06
579.297	329.06
579.508	328.06
579.718	316.06
579.929	325.06
580.14	326.06
580.35	316.06
580.561	331.06
580.772	333.06
580.982	303.06
581.193	309.06
581.403	304.06
581.614	311.06
581.825	306.06
582.035	291.06
582.246	309.06
582.456	308.06
582.667	318.06
582.877	322.06
583.087	301.06
583.298	315.06
583.508	310.06
583.719	302.06
583.929	295.06
584.139	309.06
584.35	314.06
584.56	321.06
584.77	318.06
584.981	310.06
585.191	306.06
585.401	300.06
585.611	315.06
585.821	295.06
586.032	309.06
586.242	314.06
586.452	315.06
586.662	291.06
586.872	290.06
587.082	316.06
587.292	297.06
587.502	312.06
587.713	298.06
587.923	316.06
588.133	303.06
588.343	312.06
588.553	302.06
588.762	305.06
588.972	307.06
589.182	314.06
589.392	308.06
589.602	308.06
589.812	295.06
590.022	303.06
590.232	318.06
590.441	314.06
590.651	313.06
590.861	297.06
591.071	300.06
591.281	312.06
591.49	327.06
591.7	319.06
591.91	332.06
592.119	337.06
592.329	312.06
592.539	328.06
592.748	340.06
592.958	330.06
593.167	352.06
593.377	346.06
593.587	381.06
593.796	353.06
594.006	340.06
594.215	365.06
594.424	358.06
594.634	359.06
594.843	358.06
595.053	341.06
595.262	339.06
595.472	342.06
595.681	306.06
595.89	310.06
596.1	295.06
596.309	306.06
596.518	315.06
596.727	284.06
596.937	300.06
597.146	268.06
597.355	284.06
597.564	283.06
597.774	266.06
597.983	274.06
598.192	292.06
598.401	280.06
598.61	281.06
598.819	287.06
599.028	267.06
599.237	273.06
599.446	288.06
599.655	275.06
599.864	285.06
600.073	272.06
600.282	283.06
600.491	274.06
600.7	265.06
600.909	267.06
601.118	277.06
601.327	278.06
601.536	263.06
601.745	253.06
601.953	266.06
602.162	270.06
602.371	257.06
602.58	280.06
602.789	259.06
602.997	261.06
603.206	259.06
603.415	269.06
603.623	254.06
603.832	263.06
604.041	261.06
604.249	244.06
604.458	241.06
604.666	266.06
604.875	249.06
605.084	243.06
605.292	237.06
605.501	249.06
605.709	245.06
605.918	233.06
606.126	247.06
606.334	250.06
606.543	249.06
606.751	242.06
606.96	241.06
607.168	241.06
607.376	253.06
607.585	239.06
607.793	249.06
608.001	249.06
608.21	244.06
608.418	237.06
608.626	252.06
608.834	252.06
609.043	256.06
609.251	258.06
609.459	248.06
609.667	250.06
609.875	241.06
610.083	242.06
610.291	229.06
610.499	249.06
610.707	242.06
610.916	233.06
611.124	249.06
611.332	244.06
611.54	246.06
611.748	250.06
611.955	248.06
612.163	243.06
612.371	261.06
612.579	236.06
612.787	222.06
612.995	246.06
613.203	247.06
613.411	243.06
613.618	244.06
613.826	233.06
614.034	236.06
614.242	228.06
614.449	226.06
614.657	241.06
614.865	233.06
615.072	254.06
615.28	231.06
615.488	244.06
615.695	252.06
615.903	240.06
616.111	240.06
616.318	255.06
616.526	231.06
616.733	242.06
616.941	220.06
617.148	245.06
617.356	220.06
617.563	243.06
617.771	249.06
617.978	239.06
618.185	233.06
618.393	225.06
618.6	233.06
618.807	227.06
619.015	254.06
619.222	254.06
619.429	232.06
619.637	243.06
619.844	229.06
620.051	250.06
620.258	238.06
620.466	224.06
620.673	228.06
620.88	216.06
621.087	226.06
621.294	218.06
621.501	226.06
621.708	217.06
621.915	215.06
622.122	218.06
622.329	227.06
622.536	207.06
622.743	236.06
622.95	225.06
623.157	221.06
623.364	218.06
623.571	218.06
623.778	222.06
623.985	229.06
624.192	220.06
624.399	215.06
624.606	222.06
624.812	225.06
625.019	222.06
625.226	224.06
625.433	217.06
625.639	217.06
625.846	200.06
626.053	208.06
626.259	200.06
626.466	199.06
626.673	216.06
626.879	194.06
627.086	200.06
627.293	223.06
627.499	219.06
627.706	220.06
627.912	223.06
628.119	228.06
628.325	215.06
628.532	211.06
628.738	195.06
628.945	198.06
629.151	198.06
629.357	198.06
629.564	202.06
629.77	196.06
629.976	208.06
630.183	192.06
630.389	211.06
630.595	202.06
630.802	186.06
631.008	196.06
631.214	195.06
631.42	191.06
631.627	194.06
631.833	197.06
632.039	196.06
632.245	186.06
632.451	184.06
632.657	195.06
632.863	207.06
633.069	194.06
633.275	188.06
633.481	197.06
633.688	190.06
633.893	186.06
634.099	184.06
634.305	187.06
634.511	192.06
634.717	181.06
634.923	175.06
635.129	174.06
635.335	190.06
635.541	176.06
635.747	191.06
635.952	187.06
636.158	183.06
636.364	195.06
636.57	199.06
636.775	183.06
636.981	186.06
637.187	184.06
637.392	179.06
637.598	166.06
637.804	178.06
638.009	178.06
638.215	174.06
638.421	172.06
638.626	166.06
638.832	182.06
639.037	162.06
639.243	164.06
639.448	158.06
639.654	169.06
639.859	173.06
640.065	165.06
640.27	180.06
640.475	163.06
640.681	204.06
640.886	174.06
641.091	165.06
641.297	162.06
641.502	169.06
641.707	178.06
641.913	168.06
642.118	178.06
642.323	178.06
642.528	178.06
642.733	153.06
642.939	184.06
643.144	176.06
643.349	173.06
643.554	188.06
643.759	153.06
643.964	170.06
644.169	154.06
644.374	168.06
644.579	152.06
644.784	166.06
644.989	169.06
645.194	157.06
645.399	170.06
645.604	164.06
645.809	163.06
646.014	176.06
646.219	167.06
646.423	177.06
646.628	160.06
646.833	169.06
647.038	184.06
647.243	161.06
647.447	174.06
647.652	159.06
647.857	160.06
648.062	160.06
648.266	178.06
648.471	176.06
648.676	167.06
648.88	192.06
649.085	163.06
649.289	166.06
649.494	161.06
649.698	166.06
649.903	175.06
650.107	183.06
650.312	172.06
650.516	164.06
650.721	172.06
650.925	154.06
651.13	160.06
651.334	159.06
651.539	159.06
651.743	149.06
651.947	156.06
652.152	152.06
652.356	132.06
652.56	138.06
652.764	150.06
652.969	153.06
653.173	150.06
653.377	142.06
653.581	148.06
653.785	125.06
653.99	146.06
654.194	147.06
654.398	150.06
654.602	141.06
654.806	132.06
655.01	146.06
655.214	135.06
655.418	124.06
655.622	126.06
655.826	142.06
656.03	139.06
656.234	130.06
656.438	135.06
656.642	136.06
656.846	141.06
657.049	116.06
657.253	114.06
657.457	111.06
657.661	122.06
657.865	117.06
658.068	102.06
658.272	115.06
658.476	119.06
658.68	102.06
658.883	96.06
659.087	99.06
659.291	100.06
659.494	89.06
659.698	88.06
659.901	92.06
660.105	93.06
660.309	89.06
660.512	94.06
660.716	94.06
660.919	79.06
661.123	74.06
661.326	84.06
661.53	80.06
661.733	85.06
661.936	79.06
662.14	70.06
662.343	81.06
662.546	63.06
662.75	80.06
662.953	77.06
663.156	86.06
663.36	74.06
663.563	79.06
663.766	66.06
663.969	82.06
664.173	85.06
664.376	94.06
664.579	78.06
664.782	88.06
664.985	83.06
665.188	79.06
665.391	91.06
665.594	82.06
665.797	82.06
666	88.06
666.203	68.06
666.406	78.06
666.609	80.06
666.812	77.06
667.015	80.06
667.218	88.06
667.421	97.06
667.624	82.06
667.827	84.06
668.03	72.06
668.232	90.06
668.435	79.06
668.638	70.06
668.841	81.06
669.043	69.06
669.246	74.06
669.449	67.06
669.651	81.06
669.854	76.06
670.057	79.06
670.259	68.06
670.462	85.06
670.665	75.06
670.867	71.06
671.07	96.06
671.272	80.06
671.475	80.06
671.677	73.06
671.88	73.06
672.082	80.06
672.284	83.06
672.487	73.06
672.689	98.06
672.892	82.06
