Data from 1973.PennyLincolnUp.Lamp.En5.5.200Scan.071719.P1.Changed Mount._HRD10591_15-45-30-853.txt Node
Date: Thu Jul 18 15:45:30 EDT 2019
User: cochatt
Spectrometer: HR+D1059
Trigger mode: 1
Integration Time (sec): 1.000000E-1
Scans to average: 1
Electric dark correction enabled: true
Nonlinearity correction enabled: false
Boxcar width: 0
XAxis mode: Wavelengths
Number of Pixels in Spectrum: 2048
>>>>>Begin Spectral Data<<<<<
223.165	-22.25
223.4	-22.25
223.635	-22.25
223.869	-17.25
224.104	-12.25
224.338	-14.25
224.573	-7.25
224.808	-23.25
225.042	-9.25
225.277	-3.25
225.511	-3.25
225.746	6.75
225.98	7.75
226.215	9.75
226.449	17.75
226.683	22.75
226.918	27.75
227.152	19.75
227.387	21.75
227.621	33.75
227.856	39.75
228.09	49.75
228.324	59.75
228.559	58.75
228.793	65.75
229.027	96.75
229.262	106.75
229.496	116.75
229.73	127.75
229.964	141.75
230.199	125.75
230.433	106.75
230.667	105.75
230.901	122.75
231.136	121.75
231.37	114.75
231.604	91.75
231.838	112.75
232.072	107.75
232.306	125.75
232.541	105.75
232.775	111.75
233.009	103.75
233.243	103.75
233.477	124.75
233.711	110.75
233.945	106.75
234.179	107.75
234.413	116.75
234.647	125.75
234.881	117.75
235.115	129.75
235.349	138.75
235.583	126.75
235.817	129.75
236.051	125.75
236.285	125.75
236.519	120.75
236.753	143.75
236.987	133.75
237.221	190.75
237.455	220.75
237.689	187.75
237.922	138.75
238.156	138.75
238.39	135.75
238.624	110.75
238.858	125.75
239.091	126.75
239.325	130.75
239.559	130.75
239.793	129.75
240.027	135.75
240.26	149.75
240.494	179.75
240.728	151.75
240.961	163.75
241.195	137.75
241.429	142.75
241.662	142.75
241.896	134.75
242.13	149.75
242.363	141.75
242.597	136.75
242.83	146.75
243.064	146.75
243.298	134.75
243.531	153.75
243.765	143.75
243.998	159.75
244.232	165.75
244.465	144.75
244.699	162.75
244.932	162.75
245.166	143.75
245.399	158.75
245.633	135.75
245.866	154.75
246.099	150.75
246.333	147.75
246.566	164.75
246.8	160.75
247.033	163.75
247.266	169.75
247.5	177.75
247.733	182.75
247.966	171.75
248.2	179.75
248.433	172.75
248.666	156.75
248.899	183.75
249.133	198.75
249.366	202.75
249.599	193.75
249.832	190.75
250.066	165.75
250.299	185.75
250.532	191.75
250.765	203.75
250.998	223.75
251.231	237.75
251.465	198.75
251.698	201.75
251.931	213.75
252.164	199.75
252.397	204.75
252.63	211.75
252.863	193.75
253.096	216.75
253.329	231.75
253.562	227.75
253.795	217.75
254.028	226.75
254.261	220.75
254.494	223.75
254.727	252.75
254.96	265.75
255.193	275.75
255.426	250.75
255.659	235.75
255.892	246.75
256.124	237.75
256.357	236.75
256.59	237.75
256.823	231.75
257.056	213.75
257.289	205.75
257.521	214.75
257.754	217.75
257.987	225.75
258.22	208.75
258.452	206.75
258.685	220.75
258.918	215.75
259.151	216.75
259.383	228.75
259.616	222.75
259.849	225.75
260.081	251.75
260.314	253.75
260.547	270.75
260.779	260.75
261.012	241.75
261.244	234.75
261.477	230.75
261.71	233.75
261.942	244.75
262.175	230.75
262.407	232.75
262.64	229.75
262.872	238.75
263.105	229.75
263.337	229.75
263.57	234.75
263.802	227.75
264.035	219.75
264.267	220.75
264.499	221.75
264.732	230.75
264.964	228.75
265.197	222.75
265.429	235.75
265.661	230.75
265.894	218.75
266.126	234.75
266.358	231.75
266.591	236.75
266.823	253.75
267.055	261.75
267.287	250.75
267.52	233.75
267.752	251.75
267.984	254.75
268.216	233.75
268.448	258.75
268.681	247.75
268.913	259.75
269.145	259.75
269.377	268.75
269.609	286.75
269.841	285.75
270.073	268.75
270.306	286.75
270.538	325.75
270.77	333.75
271.002	301.75
271.234	312.75
271.466	311.75
271.698	333.75
271.93	314.75
272.162	341.75
272.394	342.75
272.626	333.75
272.858	324.75
273.09	309.75
273.322	283.75
273.553	281.75
273.785	307.75
274.017	285.75
274.249	283.75
274.481	278.75
274.713	281.75
274.945	295.75
275.176	301.75
275.408	298.75
275.64	297.75
275.872	273.75
276.104	282.75
276.335	290.75
276.567	283.75
276.799	302.75
277.031	317.75
277.262	312.75
277.494	356.75
277.726	323.75
277.957	326.75
278.189	323.75
278.421	292.75
278.652	275.75
278.884	301.75
279.115	293.75
279.347	317.75
279.579	297.75
279.81	278.75
280.042	293.75
280.273	298.75
280.505	296.75
280.736	289.75
280.968	298.75
281.199	310.75
281.431	301.75
281.662	309.75
281.894	313.75
282.125	310.75
282.356	317.75
282.588	316.75
282.819	326.75
283.051	302.75
283.282	300.75
283.513	303.75
283.745	298.75
283.976	305.75
284.207	309.75
284.439	308.75
284.67	306.75
284.901	321.75
285.132	316.75
285.364	307.75
285.595	301.75
285.826	309.75
286.057	327.75
286.288	327.75
286.52	327.75
286.751	317.75
286.982	318.75
287.213	322.75
287.444	321.75
287.675	320.75
287.906	342.75
288.138	338.75
288.369	333.75
288.6	344.75
288.831	320.75
289.062	330.75
289.293	305.75
289.524	322.75
289.755	295.75
289.986	333.75
290.217	309.75
290.448	343.75
290.679	343.75
290.91	326.75
291.141	331.75
291.371	327.75
291.602	326.75
291.833	324.75
292.064	316.75
292.295	331.75
292.526	345.75
292.757	316.75
292.987	335.75
293.218	311.75
293.449	327.75
293.68	335.75
293.91	331.75
294.141	326.75
294.372	341.75
294.603	341.75
294.833	346.75
295.064	336.75
295.295	359.75
295.525	331.75
295.756	338.75
295.987	341.75
296.217	354.75
296.448	377.75
296.679	337.75
296.909	334.75
297.14	349.75
297.37	352.75
297.601	365.75
297.831	348.75
298.062	329.75
298.292	353.75
298.523	341.75
298.753	353.75
298.984	333.75
299.214	371.75
299.445	354.75
299.675	353.75
299.905	346.75
300.136	351.75
300.366	362.75
300.597	350.75
300.827	350.75
301.057	367.75
301.288	361.75
301.518	360.75
301.748	367.75
301.979	380.75
302.209	378.75
302.439	387.75
302.669	371.75
302.9	374.75
303.13	369.75
303.36	370.75
303.59	366.75
303.82	372.75
304.051	385.75
304.281	366.75
304.511	359.75
304.741	369.75
304.971	389.75
305.201	355.75
305.431	374.75
305.661	370.75
305.891	362.75
306.121	379.75
306.352	352.75
306.582	365.75
306.812	385.75
307.042	379.75
307.272	362.75
307.502	365.75
307.731	377.75
307.961	360.75
308.191	355.75
308.421	371.75
308.651	376.75
308.881	366.75
309.111	383.75
309.341	363.75
309.571	391.75
309.8	397.75
310.03	376.75
310.26	416.75
310.49	404.75
310.72	400.75
310.949	426.75
311.179	414.75
311.409	404.75
311.639	397.75
311.868	403.75
312.098	401.75
312.328	413.75
312.557	417.75
312.787	407.75
313.017	412.75
313.246	420.75
313.476	407.75
313.706	412.75
313.935	395.75
314.165	429.75
314.394	420.75
314.624	438.75
314.853	415.75
315.083	415.75
315.312	412.75
315.542	404.75
315.771	405.75
316.001	395.75
316.23	437.75
316.46	403.75
316.689	428.75
316.919	414.75
317.148	403.75
317.377	423.75
317.607	398.75
317.836	410.75
318.065	404.75
318.295	405.75
318.524	413.75
318.753	415.75
318.983	417.75
319.212	381.75
319.441	407.75
319.67	403.75
319.9	410.75
320.129	410.75
320.358	408.75
320.587	419.75
320.816	420.75
321.046	413.75
321.275	425.75
321.504	437.75
321.733	440.75
321.962	427.75
322.191	441.75
322.42	451.75
322.649	462.75
322.878	468.75
323.108	485.75
323.337	467.75
323.566	493.75
323.795	483.75
324.024	526.75
324.253	638.75
324.482	790.75
324.71	1154.75
324.939	1649.75
325.168	1450.75
325.397	815.75
325.626	582.75
325.855	517.75
326.084	475.75
326.313	493.75
326.542	493.75
326.77	526.75
326.999	618.75
327.228	745.75
327.457	1077.75
327.686	1272.75
327.914	894.75
328.143	628.75
328.372	603.75
328.6	573.75
328.829	540.75
329.058	569.75
329.287	546.75
329.515	543.75
329.744	515.75
329.972	504.75
330.201	521.75
330.43	552.75
330.658	579.75
330.887	586.75
331.115	563.75
331.344	536.75
331.572	509.75
331.801	520.75
332.03	517.75
332.258	502.75
332.486	509.75
332.715	492.75
332.943	533.75
333.172	535.75
333.4	533.75
333.629	516.75
333.857	540.75
334.085	537.75
334.314	588.75
334.542	572.75
334.771	562.75
334.999	546.75
335.227	523.75
335.455	532.75
335.684	503.75
335.912	504.75
336.14	511.75
336.369	503.75
336.597	507.75
336.825	531.75
337.053	507.75
337.281	488.75
337.51	485.75
337.738	487.75
337.966	469.75
338.194	484.75
338.422	477.75
338.65	470.75
338.878	486.75
339.106	443.75
339.334	479.75
339.562	460.75
339.79	468.75
340.018	464.75
340.246	465.75
340.474	465.75
340.702	484.75
340.93	459.75
341.158	470.75
341.386	478.75
341.614	469.75
341.842	471.75
342.07	468.75
342.298	452.75
342.526	454.75
342.754	457.75
342.981	447.75
343.209	470.75
343.437	483.75
343.665	491.75
343.893	500.75
344.12	507.75
344.348	476.75
344.576	473.75
344.804	486.75
345.031	481.75
345.259	475.75
345.487	481.75
345.714	446.75
345.942	426.75
346.17	439.75
346.397	455.75
346.625	457.75
346.853	451.75
347.08	446.75
347.308	462.75
347.535	435.75
347.763	450.75
347.99	442.75
348.218	439.75
348.445	449.75
348.673	441.75
348.9	450.75
349.128	452.75
349.355	453.75
349.583	446.75
349.81	438.75
350.037	438.75
350.265	440.75
350.492	450.75
350.72	420.75
350.947	412.75
351.174	440.75
351.402	441.75
351.629	430.75
351.856	446.75
352.083	442.75
352.311	455.75
352.538	433.75
352.765	447.75
352.992	463.75
353.22	431.75
353.447	426.75
353.674	449.75
353.901	423.75
354.128	435.75
354.355	425.75
354.583	430.75
354.81	410.75
355.037	421.75
355.264	408.75
355.491	416.75
355.718	409.75
355.945	426.75
356.172	425.75
356.399	413.75
356.626	412.75
356.853	415.75
357.08	397.75
357.307	414.75
357.534	399.75
357.761	425.75
357.988	413.75
358.215	393.75
358.441	424.75
358.668	422.75
358.895	439.75
359.122	429.75
359.349	450.75
359.576	453.75
359.802	456.75
360.029	455.75
360.256	468.75
360.483	477.75
360.709	457.75
360.936	429.75
361.163	419.75
361.39	441.75
361.616	446.75
361.843	439.75
362.07	447.75
362.296	434.75
362.523	420.75
362.749	446.75
362.976	435.75
363.203	446.75
363.429	441.75
363.656	434.75
363.882	419.75
364.109	419.75
364.335	440.75
364.562	423.75
364.788	407.75
365.015	424.75
365.241	417.75
365.468	389.75
365.694	431.75
365.92	423.75
366.147	419.75
366.373	402.75
366.599	428.75
366.826	417.75
367.052	424.75
367.278	422.75
367.505	399.75
367.731	425.75
367.957	430.75
368.184	441.75
368.41	417.75
368.636	414.75
368.862	445.75
369.089	441.75
369.315	433.75
369.541	409.75
369.767	409.75
369.993	435.75
370.219	424.75
370.445	422.75
370.672	425.75
370.898	438.75
371.124	433.75
371.35	437.75
371.576	430.75
371.802	416.75
372.028	435.75
372.254	405.75
372.48	422.75
372.706	440.75
372.932	436.75
373.158	451.75
373.384	445.75
373.61	426.75
373.835	437.75
374.061	428.75
374.287	442.75
374.513	443.75
374.739	433.75
374.965	447.75
375.191	458.75
375.416	441.75
375.642	485.75
375.868	441.75
376.094	462.75
376.319	439.75
376.545	456.75
376.771	410.75
376.997	419.75
377.222	440.75
377.448	433.75
377.674	438.75
377.899	409.75
378.125	419.75
378.35	421.75
378.576	430.75
378.802	427.75
379.027	425.75
379.253	436.75
379.478	433.75
379.704	417.75
379.929	438.75
380.155	426.75
380.38	433.75
380.606	427.75
380.831	437.75
381.057	409.75
381.282	437.75
381.507	436.75
381.733	437.75
381.958	440.75
382.184	428.75
382.409	465.75
382.634	448.75
382.86	461.75
383.085	435.75
383.31	432.75
383.535	463.75
383.761	448.75
383.986	467.75
384.211	447.75
384.436	463.75
384.662	486.75
384.887	485.75
385.112	490.75
385.337	497.75
385.562	473.75
385.787	479.75
386.013	500.75
386.238	488.75
386.463	506.75
386.688	493.75
386.913	482.75
387.138	468.75
387.363	502.75
387.588	498.75
387.813	513.75
388.038	478.75
388.263	469.75
388.488	477.75
388.713	501.75
388.938	499.75
389.163	493.75
389.387	477.75
389.612	492.75
389.837	493.75
390.062	477.75
390.287	459.75
390.512	487.75
390.736	472.75
390.961	486.75
391.186	489.75
391.411	501.75
391.636	523.75
391.86	513.75
392.085	512.75
392.31	521.75
392.534	511.75
392.759	500.75
392.984	500.75
393.208	494.75
393.433	512.75
393.658	492.75
393.882	485.75
394.107	479.75
394.331	517.75
394.556	502.75
394.78	514.75
395.005	492.75
395.229	506.75
395.454	526.75
395.678	532.75
395.903	521.75
396.127	541.75
396.352	539.75
396.576	531.75
396.801	503.75
397.025	513.75
397.249	522.75
397.474	532.75
397.698	538.75
397.922	547.75
398.147	552.75
398.371	589.75
398.595	562.75
398.82	575.75
399.044	598.75
399.268	619.75
399.492	690.75
399.717	751.75
399.941	715.75
400.165	735.75
400.389	723.75
400.613	643.75
400.837	622.75
401.062	609.75
401.286	609.75
401.51	579.75
401.734	581.75
401.958	599.75
402.182	578.75
402.406	578.75
402.63	595.75
402.854	591.75
403.078	596.75
403.302	631.75
403.526	619.75
403.75	615.75
403.974	634.75
404.198	609.75
404.422	609.75
404.645	620.75
404.869	614.75
405.093	645.75
405.317	680.75
405.541	684.75
405.765	655.75
405.988	613.75
406.212	679.75
406.436	637.75
406.66	656.75
406.883	641.75
407.107	675.75
407.331	742.75
407.555	782.75
407.778	769.75
408.002	709.75
408.226	674.75
408.449	655.75
408.673	649.75
408.896	667.75
409.12	687.75
409.344	686.75
409.567	627.75
409.791	629.75
410.014	596.75
410.238	599.75
410.461	598.75
410.685	603.75
410.908	612.75
411.132	641.75
411.355	671.75
411.578	649.75
411.802	591.75
412.025	596.75
412.249	616.75
412.472	619.75
412.695	632.75
412.919	631.75
413.142	580.75
413.365	581.75
413.589	569.75
413.812	546.75
414.035	585.75
414.258	571.75
414.482	570.75
414.705	563.75
414.928	568.75
415.151	543.75
415.374	557.75
415.597	543.75
415.821	564.75
416.044	548.75
416.267	555.75
416.49	543.75
416.713	553.75
416.936	567.75
417.159	564.75
417.382	565.75
417.605	581.75
417.828	575.75
418.051	599.75
418.274	583.75
418.497	560.75
418.72	583.75
418.943	551.75
419.166	586.75
419.389	637.75
419.611	609.75
419.834	619.75
420.057	604.75
420.28	606.75
420.503	583.75
420.726	580.75
420.948	611.75
421.171	637.75
421.394	629.75
421.617	591.75
421.839	571.75
422.062	563.75
422.285	589.75
422.507	637.75
422.73	700.75
422.953	669.75
423.175	627.75
423.398	613.75
423.621	623.75
423.843	599.75
424.066	633.75
424.288	635.75
424.511	642.75
424.733	636.75
424.956	729.75
425.178	694.75
425.401	728.75
425.623	721.75
425.846	626.75
426.068	591.75
426.291	599.75
426.513	580.75
426.735	604.75
426.958	629.75
427.18	697.75
427.402	821.75
427.625	890.75
427.847	765.75
428.069	678.75
428.292	643.75
428.514	578.75
428.736	546.75
428.958	556.75
429.181	558.75
429.403	559.75
429.625	586.75
429.847	605.75
430.069	641.75
430.292	636.75
430.514	591.75
430.736	571.75
430.958	550.75
431.18	536.75
431.402	545.75
431.624	533.75
431.846	536.75
432.068	544.75
432.29	554.75
432.512	528.75
432.734	535.75
432.956	531.75
433.178	536.75
433.4	549.75
433.622	541.75
433.844	537.75
434.066	534.75
434.287	527.75
434.509	531.75
434.731	555.75
434.953	565.75
435.175	571.75
435.397	619.75
435.618	593.75
435.84	627.75
436.062	708.75
436.284	751.75
436.505	635.75
436.727	603.75
436.949	572.75
437.17	557.75
437.392	578.75
437.614	555.75
437.835	578.75
438.057	677.75
438.278	749.75
438.5	766.75
438.721	808.75
438.943	808.75
439.165	664.75
439.386	611.75
439.608	595.75
439.829	601.75
440.05	603.75
440.272	654.75
440.493	613.75
440.715	574.75
440.936	561.75
441.158	545.75
441.379	586.75
441.6	597.75
441.822	617.75
442.043	645.75
442.264	721.75
442.486	728.75
442.707	666.75
442.928	626.75
443.149	619.75
443.371	625.75
443.592	686.75
443.813	770.75
444.034	819.75
444.255	697.75
444.476	657.75
444.698	660.75
444.919	637.75
445.14	766.75
445.361	670.75
445.582	661.75
445.803	707.75
446.024	774.75
446.245	762.75
446.466	716.75
446.687	620.75
446.908	579.75
447.129	584.75
447.35	531.75
447.571	540.75
447.792	554.75
448.013	534.75
448.234	535.75
448.455	585.75
448.675	679.75
448.896	795.75
449.117	691.75
449.338	643.75
449.559	717.75
449.779	817.75
450	664.75
450.221	593.75
450.442	545.75
450.662	521.75
450.883	541.75
451.104	525.75
451.324	533.75
451.545	511.75
451.766	515.75
451.986	513.75
452.207	508.75
452.428	481.75
452.648	489.75
452.869	469.75
453.089	524.75
453.31	509.75
453.53	482.75
453.751	473.75
453.971	506.75
454.192	487.75
454.412	491.75
454.633	496.75
454.853	473.75
455.073	474.75
455.294	493.75
455.514	539.75
455.734	558.75
455.955	494.75
456.175	456.75
456.395	453.75
456.616	466.75
456.836	441.75
457.056	450.75
457.276	466.75
457.497	453.75
457.717	486.75
457.937	484.75
458.157	485.75
458.377	490.75
458.598	481.75
458.818	533.75
459.038	599.75
459.258	632.75
459.478	557.75
459.698	551.75
459.918	539.75
460.138	563.75
460.358	563.75
460.578	536.75
460.798	573.75
461.018	573.75
461.238	549.75
461.458	576.75
461.678	561.75
461.898	567.75
462.118	578.75
462.338	575.75
462.558	586.75
462.777	633.75
462.997	657.75
463.217	672.75
463.437	651.75
463.657	635.75
463.876	645.75
464.096	625.75
464.316	610.75
464.536	631.75
464.755	613.75
464.975	615.75
465.195	605.75
465.414	637.75
465.634	620.75
465.854	569.75
466.073	528.75
466.293	525.75
466.512	508.75
466.732	499.75
466.951	505.75
467.171	505.75
467.391	502.75
467.61	523.75
467.829	542.75
468.049	516.75
468.268	516.75
468.488	487.75
468.707	471.75
468.927	490.75
469.146	516.75
469.365	519.75
469.585	485.75
469.804	529.75
470.023	509.75
470.243	534.75
470.462	531.75
470.681	517.75
470.901	548.75
471.12	524.75
471.339	517.75
471.558	525.75
471.777	518.75
471.997	514.75
472.216	499.75
472.435	531.75
472.654	528.75
472.873	516.75
473.092	509.75
473.311	513.75
473.53	501.75
473.749	513.75
473.968	550.75
474.187	643.75
474.406	633.75
474.625	535.75
474.844	523.75
475.063	509.75
475.282	527.75
475.501	517.75
475.72	533.75
475.939	513.75
476.158	519.75
476.377	501.75
476.596	523.75
476.814	543.75
477.033	555.75
477.252	529.75
477.471	538.75
477.69	551.75
477.908	580.75
478.127	589.75
478.346	566.75
478.564	569.75
478.783	578.75
479.002	609.75
479.22	607.75
479.439	595.75
479.658	617.75
479.876	606.75
480.095	643.75
480.313	634.75
480.532	634.75
480.751	635.75
480.969	638.75
481.188	658.75
481.406	683.75
481.624	646.75
481.843	615.75
482.061	585.75
482.28	598.75
482.498	586.75
482.717	593.75
482.935	584.75
483.153	583.75
483.372	577.75
483.59	563.75
483.808	579.75
484.027	569.75
484.245	607.75
484.463	598.75
484.681	619.75
484.9	592.75
485.118	578.75
485.336	599.75
485.554	608.75
485.772	610.75
485.99	614.75
486.209	598.75
486.427	615.75
486.645	631.75
486.863	616.75
487.081	629.75
487.299	618.75
487.517	606.75
487.735	630.75
487.953	635.75
488.171	622.75
488.389	605.75
488.607	618.75
488.825	630.75
489.043	632.75
489.261	631.75
489.479	619.75
489.696	614.75
489.914	655.75
490.132	659.75
490.35	659.75
490.568	647.75
490.786	670.75
491.003	653.75
491.221	684.75
491.439	712.75
491.657	697.75
491.874	693.75
492.092	695.75
492.31	721.75
492.527	727.75
492.745	737.75
492.963	721.75
493.18	711.75
493.398	744.75
493.615	734.75
493.833	731.75
494.05	727.75
494.268	717.75
494.485	748.75
494.703	712.75
494.92	733.75
495.138	743.75
495.355	737.75
495.573	738.75
495.79	751.75
496.008	747.75
496.225	743.75
496.442	730.75
496.66	739.75
496.877	740.75
497.094	735.75
497.312	753.75
497.529	753.75
497.746	795.75
497.963	803.75
498.181	818.75
498.398	851.75
498.615	837.75
498.832	874.75
499.049	909.75
499.267	971.75
499.484	998.75
499.701	1069.75
499.918	1091.75
500.135	1185.75
500.352	1239.75
500.569	1292.75
500.786	1285.75
501.003	1258.75
501.22	1196.75
501.437	1156.75
501.654	1101.75
501.871	1020.75
502.088	963.75
502.305	940.75
502.522	873.75
502.739	874.75
502.956	826.75
503.172	824.75
503.389	811.75
503.606	795.75
503.823	774.75
504.04	763.75
504.256	764.75
504.473	777.75
504.69	793.75
504.907	773.75
505.123	754.75
505.34	723.75
505.557	730.75
505.773	710.75
505.99	693.75
506.207	711.75
506.423	700.75
506.64	693.75
506.856	667.75
507.073	687.75
507.289	687.75
507.506	683.75
507.722	658.75
507.939	686.75
508.155	677.75
508.372	681.75
508.588	646.75
508.805	637.75
509.021	638.75
509.238	670.75
509.454	658.75
509.67	651.75
509.887	627.75
510.103	625.75
510.319	639.75
510.536	713.75
510.752	1004.75
510.968	840.75
511.184	670.75
511.401	619.75
511.617	622.75
511.833	599.75
512.049	604.75
512.265	614.75
512.481	622.75
512.698	602.75
512.914	606.75
513.13	620.75
513.346	625.75
513.562	597.75
513.778	607.75
513.994	617.75
514.21	628.75
514.426	625.75
514.642	659.75
514.858	655.75
515.074	680.75
515.29	787.75
515.506	1035.75
515.721	873.75
515.937	697.75
516.153	636.75
516.369	660.75
516.585	644.75
516.801	663.75
517.016	655.75
517.232	655.75
517.448	661.75
517.664	691.75
517.879	707.75
518.095	695.75
518.311	689.75
518.527	641.75
518.742	672.75
518.958	650.75
519.173	643.75
519.389	611.75
519.605	630.75
519.82	617.75
520.036	637.75
520.251	622.75
520.467	666.75
520.682	651.75
520.898	651.75
521.113	648.75
521.329	651.75
521.544	692.75
521.76	837.75
521.975	1268.75
522.19	1226.75
522.406	743.75
522.621	642.75
522.836	610.75
523.052	592.75
523.267	570.75
523.482	573.75
523.698	553.75
523.913	570.75
524.128	571.75
524.343	541.75
524.559	523.75
524.774	536.75
524.989	534.75
525.204	544.75
525.419	535.75
525.634	555.75
525.849	524.75
526.064	520.75
526.28	532.75
526.495	518.75
526.71	518.75
526.925	527.75
527.14	521.75
527.355	494.75
527.57	525.75
527.785	506.75
527.999	502.75
528.214	521.75
528.429	495.75
528.644	504.75
528.859	526.75
529.074	510.75
529.289	562.75
529.503	575.75
529.718	561.75
529.933	519.75
530.148	527.75
530.363	511.75
530.577	509.75
530.792	500.75
531.007	505.75
531.221	509.75
531.436	503.75
531.651	493.75
531.865	501.75
532.08	503.75
532.295	472.75
532.509	505.75
532.724	499.75
532.938	486.75
533.153	489.75
533.367	490.75
533.582	492.75
533.796	510.75
534.011	499.75
534.225	502.75
534.44	492.75
534.654	474.75
534.868	463.75
535.083	483.75
535.297	476.75
535.511	513.75
535.726	486.75
535.94	492.75
536.154	478.75
536.369	481.75
536.583	475.75
536.797	501.75
537.011	462.75
537.225	481.75
537.44	459.75
537.654	462.75
537.868	477.75
538.082	490.75
538.296	472.75
538.51	473.75
538.724	479.75
538.938	468.75
539.153	473.75
539.367	486.75
539.581	487.75
539.795	453.75
540.009	457.75
540.222	456.75
540.436	466.75
540.65	474.75
540.864	487.75
541.078	477.75
541.292	469.75
541.506	475.75
541.72	488.75
541.934	460.75
542.147	472.75
542.361	454.75
542.575	459.75
542.789	474.75
543.002	447.75
543.216	462.75
543.43	472.75
543.644	453.75
543.857	472.75
544.071	464.75
544.285	453.75
544.498	474.75
544.712	459.75
544.925	482.75
545.139	483.75
545.352	477.75
545.566	455.75
545.779	469.75
545.993	450.75
546.206	490.75
546.42	467.75
546.633	473.75
546.847	486.75
547.06	461.75
547.274	444.75
547.487	461.75
547.7	468.75
547.914	482.75
548.127	473.75
548.34	469.75
548.554	453.75
548.767	484.75
548.98	470.75
549.193	469.75
549.407	459.75
549.62	475.75
549.833	473.75
550.046	462.75
550.259	467.75
550.473	439.75
550.686	467.75
550.899	445.75
551.112	453.75
551.325	450.75
551.538	458.75
551.751	414.75
551.964	445.75
552.177	455.75
552.39	458.75
552.603	457.75
552.816	469.75
553.029	498.75
553.242	484.75
553.455	509.75
553.667	523.75
553.88	485.75
554.093	490.75
554.306	487.75
554.519	475.75
554.732	466.75
554.944	439.75
555.157	439.75
555.37	456.75
555.583	442.75
555.795	433.75
556.008	440.75
556.221	437.75
556.433	413.75
556.646	431.75
556.859	427.75
557.071	412.75
557.284	423.75
557.496	426.75
557.709	417.75
557.921	405.75
558.134	416.75
558.346	423.75
558.559	404.75
558.771	421.75
558.984	418.75
559.196	404.75
559.409	402.75
559.621	408.75
559.833	404.75
560.046	411.75
560.258	408.75
560.47	399.75
560.683	404.75
560.895	394.75
561.107	419.75
561.32	413.75
561.532	409.75
561.744	419.75
561.956	416.75
562.168	403.75
562.381	427.75
562.593	402.75
562.805	426.75
563.017	423.75
563.229	428.75
563.441	419.75
563.653	429.75
563.865	400.75
564.077	429.75
564.289	438.75
564.501	433.75
564.713	441.75
564.925	459.75
565.137	454.75
565.349	469.75
565.561	471.75
565.773	482.75
565.985	484.75
566.197	510.75
566.408	500.75
566.62	549.75
566.832	556.75
567.044	554.75
567.255	573.75
567.467	596.75
567.679	596.75
567.891	630.75
568.102	633.75
568.314	573.75
568.526	570.75
568.737	563.75
568.949	498.75
569.161	485.75
569.372	469.75
569.584	457.75
569.795	441.75
570.007	462.75
570.218	468.75
570.43	445.75
570.641	437.75
570.853	425.75
571.064	423.75
571.276	411.75
571.487	399.75
571.698	404.75
571.91	409.75
572.121	392.75
572.333	379.75
572.544	354.75
572.755	377.75
572.966	362.75
573.178	397.75
573.389	360.75
573.6	379.75
573.811	365.75
574.023	357.75
574.234	373.75
574.445	373.75
574.656	342.75
574.867	362.75
575.078	362.75
575.289	348.75
575.501	358.75
575.712	354.75
575.923	342.75
576.134	347.75
576.345	349.75
576.556	347.75
576.767	338.75
576.978	354.75
577.188	348.75
577.399	349.75
577.61	339.75
577.821	341.75
578.032	354.75
578.243	353.75
578.454	491.75
578.665	419.75
578.875	331.75
579.086	346.75
579.297	323.75
579.508	317.75
579.718	327.75
579.929	319.75
580.14	326.75
580.35	319.75
580.561	325.75
580.772	326.75
580.982	332.75
581.193	315.75
581.403	312.75
581.614	325.75
581.825	314.75
582.035	318.75
582.246	313.75
582.456	300.75
582.667	309.75
582.877	329.75
583.087	313.75
583.298	323.75
583.508	323.75
583.719	309.75
583.929	321.75
584.139	331.75
584.35	311.75
584.56	333.75
584.77	300.75
584.981	321.75
585.191	302.75
585.401	299.75
585.611	299.75
585.821	308.75
586.032	324.75
586.242	326.75
586.452	308.75
586.662	303.75
586.872	317.75
587.082	316.75
587.292	319.75
587.502	302.75
587.713	298.75
587.923	303.75
588.133	327.75
588.343	309.75
588.553	315.75
588.762	329.75
588.972	330.75
589.182	329.75
589.392	302.75
589.602	315.75
589.812	310.75
590.022	313.75
590.232	321.75
590.441	306.75
590.651	307.75
590.861	309.75
591.071	309.75
591.281	315.75
591.49	313.75
591.7	305.75
591.91	329.75
592.119	311.75
592.329	306.75
592.539	340.75
592.748	341.75
592.958	338.75
593.167	336.75
593.377	350.75
593.587	350.75
593.796	375.75
594.006	343.75
594.215	358.75
594.424	370.75
594.634	353.75
594.843	352.75
595.053	326.75
595.262	345.75
595.472	324.75
595.681	317.75
595.89	298.75
596.1	311.75
596.309	308.75
596.518	306.75
596.727	311.75
596.937	301.75
597.146	308.75
597.355	310.75
597.564	294.75
597.774	285.75
597.983	288.75
598.192	285.75
598.401	293.75
598.61	271.75
598.819	290.75
599.028	273.75
599.237	290.75
599.446	272.75
599.655	277.75
599.864	271.75
600.073	286.75
600.282	266.75
600.491	269.75
600.7	275.75
600.909	274.75
601.118	263.75
601.327	270.75
601.536	276.75
601.745	270.75
601.953	253.75
602.162	283.75
602.371	273.75
602.58	271.75
602.789	274.75
602.997	239.75
603.206	268.75
603.415	263.75
603.623	275.75
603.832	268.75
604.041	261.75
604.249	270.75
604.458	267.75
604.666	267.75
604.875	242.75
605.084	259.75
605.292	267.75
605.501	253.75
605.709	265.75
605.918	246.75
606.126	247.75
606.334	267.75
606.543	256.75
606.751	264.75
606.96	258.75
607.168	258.75
607.376	242.75
607.585	252.75
607.793	252.75
608.001	249.75
608.21	260.75
608.418	253.75
608.626	242.75
608.834	270.75
609.043	261.75
609.251	246.75
609.459	250.75
609.667	234.75
609.875	254.75
610.083	258.75
610.291	271.75
610.499	267.75
610.707	258.75
610.916	265.75
611.124	257.75
611.332	263.75
611.54	251.75
611.748	254.75
611.955	244.75
612.163	253.75
612.371	267.75
612.579	256.75
612.787	257.75
612.995	262.75
613.203	243.75
613.411	238.75
613.618	239.75
613.826	248.75
614.034	252.75
614.242	260.75
614.449	244.75
614.657	258.75
614.865	223.75
615.072	246.75
615.28	251.75
615.488	237.75
615.695	234.75
615.903	264.75
616.111	249.75
616.318	242.75
616.526	244.75
616.733	257.75
616.941	236.75
617.148	241.75
617.356	252.75
617.563	255.75
617.771	254.75
617.978	241.75
618.185	262.75
618.393	267.75
618.6	243.75
618.807	245.75
619.015	257.75
619.222	254.75
619.429	252.75
619.637	230.75
619.844	216.75
620.051	246.75
620.258	222.75
620.466	231.75
620.673	234.75
620.88	235.75
621.087	220.75
621.294	241.75
621.501	234.75
621.708	235.75
621.915	229.75
622.122	227.75
622.329	227.75
622.536	237.75
622.743	230.75
622.95	228.75
623.157	231.75
623.364	223.75
623.571	213.75
623.778	236.75
623.985	223.75
624.192	209.75
624.399	231.75
624.606	222.75
624.812	209.75
625.019	214.75
625.226	219.75
625.433	231.75
625.639	225.75
625.846	219.75
626.053	221.75
626.259	221.75
626.466	203.75
626.673	221.75
626.879	203.75
627.086	223.75
627.293	233.75
627.499	234.75
627.706	207.75
627.912	224.75
628.119	217.75
628.325	208.75
628.532	212.75
628.738	196.75
628.945	221.75
629.151	212.75
629.357	201.75
629.564	210.75
629.77	211.75
629.976	202.75
630.183	202.75
630.389	213.75
630.595	211.75
630.802	210.75
631.008	206.75
631.214	207.75
631.42	207.75
631.627	202.75
631.833	211.75
632.039	204.75
632.245	215.75
632.451	190.75
632.657	204.75
632.863	198.75
633.069	201.75
633.275	197.75
633.481	189.75
633.688	181.75
633.893	187.75
634.099	211.75
634.305	170.75
634.511	193.75
634.717	172.75
634.923	184.75
635.129	186.75
635.335	190.75
635.541	196.75
635.747	210.75
635.952	196.75
636.158	190.75
636.364	193.75
636.57	193.75
636.775	185.75
636.981	203.75
637.187	199.75
637.392	214.75
637.598	197.75
637.804	197.75
638.009	202.75
638.215	185.75
638.421	178.75
638.626	186.75
638.832	188.75
639.037	185.75
639.243	173.75
639.448	171.75
639.654	173.75
639.859	179.75
640.065	181.75
640.27	180.75
640.475	172.75
640.681	181.75
640.886	180.75
641.091	178.75
641.297	177.75
641.502	174.75
641.707	179.75
641.913	179.75
642.118	174.75
642.323	177.75
642.528	179.75
642.733	179.75
642.939	161.75
643.144	187.75
643.349	172.75
643.554	179.75
643.759	179.75
643.964	165.75
644.169	187.75
644.374	157.75
644.579	179.75
644.784	169.75
644.989	165.75
645.194	181.75
645.399	168.75
645.604	179.75
645.809	165.75
646.014	153.75
646.219	183.75
646.423	158.75
646.628	181.75
646.833	158.75
647.038	159.75
647.243	168.75
647.447	167.75
647.652	181.75
647.857	186.75
648.062	191.75
648.266	172.75
648.471	185.75
648.676	177.75
648.88	178.75
649.085	174.75
649.289	166.75
649.494	191.75
649.698	183.75
649.903	190.75
650.107	180.75
650.312	171.75
650.516	155.75
650.721	157.75
650.925	167.75
651.13	162.75
651.334	180.75
651.539	143.75
651.743	159.75
651.947	150.75
652.152	148.75
652.356	142.75
652.56	158.75
652.764	148.75
652.969	156.75
653.173	155.75
653.377	131.75
653.581	144.75
653.785	153.75
653.99	140.75
654.194	135.75
654.398	150.75
654.602	153.75
654.806	130.75
655.01	139.75
655.214	125.75
655.418	141.75
655.622	142.75
655.826	142.75
656.03	131.75
656.234	135.75
656.438	144.75
656.642	143.75
656.846	129.75
657.049	129.75
657.253	122.75
657.457	126.75
657.661	131.75
657.865	126.75
658.068	113.75
658.272	124.75
658.476	113.75
658.68	103.75
658.883	110.75
659.087	111.75
659.291	102.75
659.494	90.75
659.698	97.75
659.901	95.75
660.105	108.75
660.309	105.75
660.512	95.75
660.716	93.75
660.919	98.75
661.123	100.75
661.326	102.75
661.53	103.75
661.733	108.75
661.936	84.75
662.14	94.75
662.343	114.75
662.546	86.75
662.75	94.75
662.953	87.75
663.156	90.75
663.36	92.75
663.563	76.75
663.766	80.75
663.969	90.75
664.173	79.75
664.376	80.75
664.579	81.75
664.782	90.75
664.985	93.75
665.188	68.75
665.391	90.75
665.594	82.75
665.797	100.75
666	84.75
666.203	86.75
666.406	82.75
666.609	76.75
666.812	83.75
667.015	92.75
667.218	92.75
667.421	95.75
667.624	84.75
667.827	73.75
668.03	82.75
668.232	78.75
668.435	79.75
668.638	91.75
668.841	86.75
669.043	75.75
669.246	91.75
669.449	93.75
669.651	102.75
669.854	74.75
670.057	83.75
670.259	65.75
670.462	98.75
670.665	76.75
670.867	72.75
671.07	79.75
671.272	95.75
671.475	78.75
671.677	79.75
671.88	82.75
672.082	77.75
672.284	81.75
672.487	84.75
672.689	85.75
672.892	77.75
