Data from 1973.PennyLincolnUp.Lamp.En5.5.200Scan.071719.P1.Changed Mount._HRD10591_15-45-25-853.txt Node
Date: Thu Jul 18 15:45:25 EDT 2019
User: cochatt
Spectrometer: HR+D1059
Trigger mode: 1
Integration Time (sec): 1.000000E-1
Scans to average: 1
Electric dark correction enabled: true
Nonlinearity correction enabled: false
Boxcar width: 0
XAxis mode: Wavelengths
Number of Pixels in Spectrum: 2048
>>>>>Begin Spectral Data<<<<<
223.165	-26.31
223.4	-26.31
223.635	-26.31
223.869	-21.31
224.104	2.69
224.338	-11.31
224.573	-19.31
224.808	-0.31
225.042	-5.31
225.277	-8.31
225.511	6.69
225.746	-9.31
225.98	2.69
226.215	15.69
226.449	11.69
226.683	23.69
226.918	18.69
227.152	19.69
227.387	36.69
227.621	33.69
227.856	51.69
228.09	56.69
228.324	49.69
228.559	59.69
228.793	51.69
229.027	104.69
229.262	121.69
229.496	125.69
229.73	122.69
229.964	142.69
230.199	137.69
230.433	111.69
230.667	116.69
230.901	121.69
231.136	130.69
231.37	120.69
231.604	115.69
231.838	107.69
232.072	116.69
232.306	118.69
232.541	98.69
232.775	113.69
233.009	122.69
233.243	114.69
233.477	125.69
233.711	136.69
233.945	104.69
234.179	114.69
234.413	124.69
234.647	122.69
234.881	135.69
235.115	122.69
235.349	120.69
235.583	118.69
235.817	111.69
236.051	120.69
236.285	126.69
236.519	130.69
236.753	134.69
236.987	140.69
237.221	186.69
237.455	215.69
237.689	166.69
237.922	142.69
238.156	121.69
238.39	137.69
238.624	121.69
238.858	144.69
239.091	130.69
239.325	135.69
239.559	128.69
239.793	130.69
240.027	135.69
240.26	136.69
240.494	154.69
240.728	142.69
240.961	148.69
241.195	147.69
241.429	145.69
241.662	138.69
241.896	136.69
242.13	141.69
242.363	136.69
242.597	140.69
242.83	149.69
243.064	148.69
243.298	142.69
243.531	136.69
243.765	144.69
243.998	147.69
244.232	134.69
244.465	148.69
244.699	150.69
244.932	142.69
245.166	147.69
245.399	157.69
245.633	154.69
245.866	149.69
246.099	157.69
246.333	149.69
246.566	159.69
246.8	165.69
247.033	167.69
247.266	164.69
247.5	167.69
247.733	172.69
247.966	184.69
248.2	199.69
248.433	187.69
248.666	183.69
248.899	194.69
249.133	202.69
249.366	199.69
249.599	190.69
249.832	184.69
250.066	195.69
250.299	188.69
250.532	208.69
250.765	213.69
250.998	228.69
251.231	228.69
251.465	199.69
251.698	210.69
251.931	198.69
252.164	184.69
252.397	198.69
252.63	204.69
252.863	202.69
253.096	208.69
253.329	215.69
253.562	237.69
253.795	225.69
254.028	212.69
254.261	232.69
254.494	230.69
254.727	258.69
254.96	268.69
255.193	270.69
255.426	262.69
255.659	238.69
255.892	238.69
256.124	251.69
256.357	236.69
256.59	233.69
256.823	227.69
257.056	211.69
257.289	218.69
257.521	216.69
257.754	214.69
257.987	219.69
258.22	222.69
258.452	203.69
258.685	227.69
258.918	214.69
259.151	204.69
259.383	225.69
259.616	232.69
259.849	251.69
260.081	251.69
260.314	240.69
260.547	264.69
260.779	253.69
261.012	229.69
261.244	231.69
261.477	227.69
261.71	219.69
261.942	227.69
262.175	245.69
262.407	209.69
262.64	246.69
262.872	234.69
263.105	233.69
263.337	224.69
263.57	228.69
263.802	249.69
264.035	209.69
264.267	234.69
264.499	238.69
264.732	243.69
264.964	224.69
265.197	234.69
265.429	230.69
265.661	222.69
265.894	230.69
266.126	238.69
266.358	230.69
266.591	253.69
266.823	243.69
267.055	250.69
267.287	258.69
267.52	238.69
267.752	250.69
267.984	246.69
268.216	243.69
268.448	248.69
268.681	269.69
268.913	290.69
269.145	276.69
269.377	287.69
269.609	293.69
269.841	283.69
270.073	295.69
270.306	303.69
270.538	298.69
270.77	300.69
271.002	315.69
271.234	300.69
271.466	291.69
271.698	310.69
271.93	343.69
272.162	328.69
272.394	329.69
272.626	282.69
272.858	300.69
273.09	310.69
273.322	281.69
273.553	296.69
273.785	274.69
274.017	268.69
274.249	276.69
274.481	293.69
274.713	294.69
274.945	295.69
275.176	291.69
275.408	271.69
275.64	294.69
275.872	286.69
276.104	275.69
276.335	298.69
276.567	286.69
276.799	292.69
277.031	315.69
277.262	312.69
277.494	314.69
277.726	325.69
277.957	312.69
278.189	307.69
278.421	298.69
278.652	291.69
278.884	283.69
279.115	299.69
279.347	308.69
279.579	268.69
279.81	284.69
280.042	275.69
280.273	287.69
280.505	292.69
280.736	296.69
280.968	279.69
281.199	290.69
281.431	278.69
281.662	294.69
281.894	295.69
282.125	292.69
282.356	299.69
282.588	323.69
282.819	318.69
283.051	310.69
283.282	295.69
283.513	306.69
283.745	296.69
283.976	314.69
284.207	316.69
284.439	316.69
284.67	306.69
284.901	314.69
285.132	315.69
285.364	293.69
285.595	311.69
285.826	313.69
286.057	333.69
286.288	318.69
286.52	334.69
286.751	311.69
286.982	309.69
287.213	313.69
287.444	309.69
287.675	324.69
287.906	328.69
288.138	332.69
288.369	349.69
288.6	340.69
288.831	311.69
289.062	339.69
289.293	321.69
289.524	337.69
289.755	310.69
289.986	324.69
290.217	341.69
290.448	339.69
290.679	344.69
290.91	348.69
291.141	328.69
291.371	315.69
291.602	331.69
291.833	328.69
292.064	307.69
292.295	336.69
292.526	346.69
292.757	323.69
292.987	316.69
293.218	304.69
293.449	338.69
293.68	340.69
293.91	329.69
294.141	323.69
294.372	315.69
294.603	315.69
294.833	320.69
295.064	316.69
295.295	333.69
295.525	329.69
295.756	342.69
295.987	340.69
296.217	362.69
296.448	359.69
296.679	353.69
296.909	339.69
297.14	346.69
297.37	328.69
297.601	339.69
297.831	328.69
298.062	335.69
298.292	330.69
298.523	357.69
298.753	341.69
298.984	356.69
299.214	357.69
299.445	336.69
299.675	343.69
299.905	356.69
300.136	355.69
300.366	335.69
300.597	359.69
300.827	357.69
301.057	365.69
301.288	384.69
301.518	358.69
301.748	374.69
301.979	343.69
302.209	347.69
302.439	364.69
302.669	355.69
302.9	365.69
303.13	364.69
303.36	382.69
303.59	371.69
303.82	392.69
304.051	383.69
304.281	380.69
304.511	382.69
304.741	356.69
304.971	376.69
305.201	378.69
305.431	350.69
305.661	377.69
305.891	344.69
306.121	370.69
306.352	357.69
306.582	372.69
306.812	367.69
307.042	361.69
307.272	366.69
307.502	366.69
307.731	366.69
307.961	376.69
308.191	360.69
308.421	392.69
308.651	374.69
308.881	372.69
309.111	374.69
309.341	365.69
309.571	384.69
309.8	402.69
310.03	390.69
310.26	385.69
310.49	399.69
310.72	406.69
310.949	405.69
311.179	410.69
311.409	398.69
311.639	391.69
311.868	400.69
312.098	401.69
312.328	400.69
312.557	426.69
312.787	435.69
313.017	423.69
313.246	412.69
313.476	414.69
313.706	406.69
313.935	406.69
314.165	414.69
314.394	424.69
314.624	421.69
314.853	406.69
315.083	434.69
315.312	429.69
315.542	401.69
315.771	391.69
316.001	411.69
316.23	404.69
316.46	398.69
316.689	405.69
316.919	400.69
317.148	412.69
317.377	428.69
317.607	427.69
317.836	415.69
318.065	419.69
318.295	405.69
318.524	401.69
318.753	413.69
318.983	411.69
319.212	400.69
319.441	410.69
319.67	420.69
319.9	421.69
320.129	404.69
320.358	408.69
320.587	421.69
320.816	418.69
321.046	414.69
321.275	417.69
321.504	432.69
321.733	418.69
321.962	419.69
322.191	416.69
322.42	443.69
322.649	442.69
322.878	438.69
323.108	444.69
323.337	465.69
323.566	479.69
323.795	518.69
324.024	525.69
324.253	605.69
324.482	777.69
324.71	1141.69
324.939	1599.69
325.168	1411.69
325.397	783.69
325.626	584.69
325.855	525.69
326.084	498.69
326.313	518.69
326.542	500.69
326.77	519.69
326.999	577.69
327.228	737.69
327.457	995.69
327.686	1227.69
327.914	859.69
328.143	635.69
328.372	576.69
328.6	540.69
328.829	556.69
329.058	522.69
329.287	560.69
329.515	531.69
329.744	524.69
329.972	519.69
330.201	516.69
330.43	540.69
330.658	557.69
330.887	553.69
331.115	558.69
331.344	517.69
331.572	514.69
331.801	509.69
332.03	515.69
332.258	506.69
332.486	496.69
332.715	501.69
332.943	495.69
333.172	493.69
333.4	538.69
333.629	541.69
333.857	535.69
334.085	538.69
334.314	518.69
334.542	556.69
334.771	572.69
334.999	529.69
335.227	511.69
335.455	533.69
335.684	515.69
335.912	507.69
336.14	496.69
336.369	491.69
336.597	502.69
336.825	510.69
337.053	490.69
337.281	503.69
337.51	496.69
337.738	488.69
337.966	480.69
338.194	484.69
338.422	488.69
338.65	479.69
338.878	472.69
339.106	457.69
339.334	483.69
339.562	473.69
339.79	458.69
340.018	472.69
340.246	466.69
340.474	494.69
340.702	466.69
340.93	446.69
341.158	439.69
341.386	459.69
341.614	462.69
341.842	459.69
342.07	479.69
342.298	454.69
342.526	458.69
342.754	443.69
342.981	444.69
343.209	432.69
343.437	452.69
343.665	472.69
343.893	483.69
344.12	495.69
344.348	494.69
344.576	494.69
344.804	500.69
345.031	486.69
345.259	460.69
345.487	463.69
345.714	466.69
345.942	452.69
346.17	451.69
346.397	447.69
346.625	443.69
346.853	449.69
347.08	429.69
347.308	450.69
347.535	454.69
347.763	452.69
347.99	428.69
348.218	440.69
348.445	458.69
348.673	444.69
348.9	449.69
349.128	423.69
349.355	435.69
349.583	427.69
349.81	425.69
350.037	416.69
350.265	415.69
350.492	423.69
350.72	420.69
350.947	428.69
351.174	430.69
351.402	432.69
351.629	430.69
351.856	431.69
352.083	442.69
352.311	440.69
352.538	455.69
352.765	434.69
352.992	439.69
353.22	443.69
353.447	427.69
353.674	469.69
353.901	423.69
354.128	417.69
354.355	416.69
354.583	396.69
354.81	428.69
355.037	422.69
355.264	429.69
355.491	432.69
355.718	436.69
355.945	421.69
356.172	410.69
356.399	439.69
356.626	406.69
356.853	426.69
357.08	425.69
357.307	428.69
357.534	431.69
357.761	428.69
357.988	430.69
358.215	400.69
358.441	396.69
358.668	420.69
358.895	429.69
359.122	423.69
359.349	411.69
359.576	425.69
359.802	431.69
360.029	469.69
360.256	487.69
360.483	436.69
360.709	431.69
360.936	451.69
361.163	456.69
361.39	428.69
361.616	444.69
361.843	435.69
362.07	432.69
362.296	428.69
362.523	439.69
362.749	456.69
362.976	450.69
363.203	415.69
363.429	430.69
363.656	412.69
363.882	426.69
364.109	424.69
364.335	438.69
364.562	414.69
364.788	431.69
365.015	435.69
365.241	422.69
365.468	437.69
365.694	418.69
365.92	428.69
366.147	446.69
366.373	437.69
366.599	419.69
366.826	411.69
367.052	422.69
367.278	402.69
367.505	411.69
367.731	429.69
367.957	412.69
368.184	421.69
368.41	440.69
368.636	439.69
368.862	449.69
369.089	445.69
369.315	444.69
369.541	429.69
369.767	425.69
369.993	431.69
370.219	413.69
370.445	431.69
370.672	405.69
370.898	417.69
371.124	436.69
371.35	444.69
371.576	427.69
371.802	430.69
372.028	437.69
372.254	442.69
372.48	451.69
372.706	441.69
372.932	422.69
373.158	436.69
373.384	435.69
373.61	429.69
373.835	423.69
374.061	415.69
374.287	430.69
374.513	456.69
374.739	449.69
374.965	464.69
375.191	457.69
375.416	464.69
375.642	430.69
375.868	454.69
376.094	443.69
376.319	444.69
376.545	423.69
376.771	438.69
376.997	425.69
377.222	430.69
377.448	427.69
377.674	436.69
377.899	423.69
378.125	416.69
378.35	431.69
378.576	427.69
378.802	439.69
379.027	453.69
379.253	415.69
379.478	425.69
379.704	415.69
379.929	429.69
380.155	436.69
380.38	424.69
380.606	422.69
380.831	430.69
381.057	428.69
381.282	418.69
381.507	408.69
381.733	421.69
381.958	430.69
382.184	459.69
382.409	434.69
382.634	427.69
382.86	449.69
383.085	457.69
383.31	457.69
383.535	458.69
383.761	476.69
383.986	468.69
384.211	448.69
384.436	464.69
384.662	474.69
384.887	482.69
385.112	479.69
385.337	482.69
385.562	492.69
385.787	499.69
386.013	516.69
386.238	473.69
386.463	509.69
386.688	493.69
386.913	476.69
387.138	493.69
387.363	484.69
387.588	491.69
387.813	483.69
388.038	472.69
388.263	490.69
388.488	476.69
388.713	491.69
388.938	501.69
389.163	493.69
389.387	496.69
389.612	472.69
389.837	503.69
390.062	497.69
390.287	499.69
390.512	460.69
390.736	486.69
390.961	485.69
391.186	481.69
391.411	495.69
391.636	511.69
391.86	525.69
392.085	508.69
392.31	526.69
392.534	518.69
392.759	508.69
392.984	495.69
393.208	508.69
393.433	520.69
393.658	494.69
393.882	506.69
394.107	490.69
394.331	501.69
394.556	504.69
394.78	488.69
395.005	487.69
395.229	509.69
395.454	528.69
395.678	528.69
395.903	528.69
396.127	529.69
396.352	520.69
396.576	514.69
396.801	513.69
397.025	513.69
397.249	505.69
397.474	521.69
397.698	509.69
397.922	560.69
398.147	559.69
398.371	542.69
398.595	563.69
398.82	552.69
399.044	593.69
399.268	619.69
399.492	656.69
399.717	724.69
399.941	751.69
400.165	737.69
400.389	735.69
400.613	652.69
400.837	626.69
401.062	585.69
401.286	590.69
401.51	569.69
401.734	581.69
401.958	582.69
402.182	601.69
402.406	584.69
402.63	581.69
402.854	581.69
403.078	593.69
403.302	598.69
403.526	613.69
403.75	624.69
403.974	625.69
404.198	606.69
404.422	642.69
404.645	610.69
404.869	633.69
405.093	625.69
405.317	679.69
405.541	711.69
405.765	642.69
405.988	621.69
406.212	640.69
406.436	633.69
406.66	649.69
406.883	666.69
407.107	684.69
407.331	681.69
407.555	786.69
407.778	756.69
408.002	713.69
408.226	672.69
408.449	660.69
408.673	636.69
408.896	680.69
409.12	700.69
409.344	676.69
409.567	628.69
409.791	610.69
410.014	609.69
410.238	600.69
410.461	592.69
410.685	603.69
410.908	594.69
411.132	639.69
411.355	642.69
411.578	639.69
411.802	592.69
412.025	603.69
412.249	618.69
412.472	619.69
412.695	651.69
412.919	640.69
413.142	602.69
413.365	578.69
413.589	579.69
413.812	564.69
414.035	571.69
414.258	547.69
414.482	556.69
414.705	580.69
414.928	581.69
415.151	573.69
415.374	573.69
415.597	565.69
415.821	541.69
416.044	564.69
416.267	557.69
416.49	583.69
416.713	554.69
416.936	573.69
417.159	557.69
417.382	567.69
417.605	538.69
417.828	570.69
418.051	585.69
418.274	592.69
418.497	575.69
418.72	579.69
418.943	572.69
419.166	591.69
419.389	620.69
419.611	593.69
419.834	610.69
420.057	593.69
420.28	597.69
420.503	597.69
420.726	582.69
420.948	582.69
421.171	661.69
421.394	654.69
421.617	574.69
421.839	556.69
422.062	587.69
422.285	599.69
422.507	615.69
422.73	688.69
422.953	664.69
423.175	640.69
423.398	599.69
423.621	592.69
423.843	652.69
424.066	648.69
424.288	614.69
424.511	642.69
424.733	655.69
424.956	745.69
425.178	706.69
425.401	717.69
425.623	721.69
425.846	644.69
426.068	605.69
426.291	578.69
426.513	596.69
426.735	622.69
426.958	628.69
427.18	703.69
427.402	823.69
427.625	880.69
427.847	743.69
428.069	662.69
428.292	617.69
428.514	578.69
428.736	573.69
428.958	552.69
429.181	545.69
429.403	535.69
429.625	545.69
429.847	592.69
430.069	662.69
430.292	650.69
430.514	543.69
430.736	550.69
430.958	557.69
431.18	535.69
431.402	529.69
431.624	514.69
431.846	521.69
432.068	551.69
432.29	524.69
432.512	518.69
432.734	537.69
432.956	534.69
433.178	537.69
433.4	543.69
433.622	554.69
433.844	564.69
434.066	537.69
434.287	551.69
434.509	572.69
434.731	562.69
434.953	562.69
435.175	575.69
435.397	590.69
435.618	600.69
435.84	631.69
436.062	690.69
436.284	755.69
436.505	659.69
436.727	575.69
436.949	553.69
437.17	542.69
437.392	555.69
437.614	548.69
437.835	563.69
438.057	639.69
438.278	746.69
438.5	746.69
438.721	795.69
438.943	806.69
439.165	630.69
439.386	603.69
439.608	600.69
439.829	570.69
440.05	615.69
440.272	644.69
440.493	595.69
440.715	582.69
440.936	589.69
441.158	568.69
441.379	564.69
441.6	589.69
441.822	600.69
442.043	630.69
442.264	719.69
442.486	719.69
442.707	653.69
442.928	609.69
443.149	605.69
443.371	623.69
443.592	667.69
443.813	750.69
444.034	820.69
444.255	688.69
444.476	657.69
444.698	642.69
444.919	662.69
445.14	735.69
445.361	647.69
445.582	661.69
445.803	668.69
446.024	751.69
446.245	739.69
446.466	701.69
446.687	641.69
446.908	590.69
447.129	568.69
447.35	535.69
447.571	558.69
447.792	542.69
448.013	551.69
448.234	565.69
448.455	596.69
448.675	702.69
448.896	791.69
449.117	674.69
449.338	648.69
449.559	719.69
449.779	830.69
450	666.69
450.221	569.69
450.442	528.69
450.662	523.69
450.883	521.69
451.104	542.69
451.324	515.69
451.545	496.69
451.766	498.69
451.986	484.69
452.207	502.69
452.428	474.69
452.648	482.69
452.869	476.69
453.089	474.69
453.31	493.69
453.53	505.69
453.751	495.69
453.971	487.69
454.192	483.69
454.412	499.69
454.633	485.69
454.853	472.69
455.073	472.69
455.294	503.69
455.514	549.69
455.734	552.69
455.955	480.69
456.175	481.69
456.395	471.69
456.616	452.69
456.836	474.69
457.056	479.69
457.276	451.69
457.497	453.69
457.717	459.69
457.937	479.69
458.157	465.69
458.377	472.69
458.598	523.69
458.818	548.69
459.038	591.69
459.258	612.69
459.478	555.69
459.698	528.69
459.918	538.69
460.138	561.69
460.358	562.69
460.578	557.69
460.798	539.69
461.018	566.69
461.238	553.69
461.458	555.69
461.678	560.69
461.898	568.69
462.118	540.69
462.338	609.69
462.558	584.69
462.777	597.69
462.997	642.69
463.217	628.69
463.437	677.69
463.657	648.69
463.876	633.69
464.096	596.69
464.316	614.69
464.536	623.69
464.755	612.69
464.975	602.69
465.195	630.69
465.414	645.69
465.634	578.69
465.854	548.69
466.073	528.69
466.293	528.69
466.512	500.69
466.732	509.69
466.951	512.69
467.171	508.69
467.391	512.69
467.61	529.69
467.829	507.69
468.049	518.69
468.268	512.69
468.488	508.69
468.707	496.69
468.927	493.69
469.146	473.69
469.365	501.69
469.585	493.69
469.804	504.69
470.023	509.69
470.243	519.69
470.462	525.69
470.681	535.69
470.901	534.69
471.12	521.69
471.339	504.69
471.558	522.69
471.777	505.69
471.997	516.69
472.216	518.69
472.435	531.69
472.654	494.69
472.873	536.69
473.092	490.69
473.311	488.69
473.53	499.69
473.749	518.69
473.968	544.69
474.187	623.69
474.406	636.69
474.625	540.69
474.844	516.69
475.063	507.69
475.282	506.69
475.501	500.69
475.72	529.69
475.939	510.69
476.158	509.69
476.377	508.69
476.596	500.69
476.814	532.69
477.033	525.69
477.252	524.69
477.471	559.69
477.69	567.69
477.908	570.69
478.127	564.69
478.346	590.69
478.564	596.69
478.783	581.69
479.002	591.69
479.22	578.69
479.439	579.69
479.658	606.69
479.876	602.69
480.095	615.69
480.313	646.69
480.532	617.69
480.751	617.69
480.969	618.69
481.188	660.69
481.406	680.69
481.624	627.69
481.843	593.69
482.061	596.69
482.28	604.69
482.498	599.69
482.717	599.69
482.935	585.69
483.153	574.69
483.372	589.69
483.59	571.69
483.808	577.69
484.027	589.69
484.245	590.69
484.463	592.69
484.681	587.69
484.9	582.69
485.118	605.69
485.336	613.69
485.554	612.69
485.772	590.69
485.99	620.69
486.209	587.69
486.427	616.69
486.645	591.69
486.863	606.69
487.081	638.69
487.299	633.69
487.517	621.69
487.735	604.69
487.953	630.69
488.171	626.69
488.389	621.69
488.607	626.69
488.825	609.69
489.043	632.69
489.261	639.69
489.479	634.69
489.696	645.69
489.914	657.69
490.132	648.69
490.35	648.69
490.568	650.69
490.786	664.69
491.003	677.69
491.221	674.69
491.439	661.69
491.657	675.69
491.874	707.69
492.092	690.69
492.31	711.69
492.527	706.69
492.745	714.69
492.963	717.69
493.18	717.69
493.398	737.69
493.615	701.69
493.833	745.69
494.05	730.69
494.268	715.69
494.485	728.69
494.703	706.69
494.92	742.69
495.138	720.69
495.355	744.69
495.573	725.69
495.79	723.69
496.008	728.69
496.225	744.69
496.442	734.69
496.66	759.69
496.877	734.69
497.094	754.69
497.312	754.69
497.529	780.69
497.746	771.69
497.963	783.69
498.181	829.69
498.398	827.69
498.615	850.69
498.832	882.69
499.049	921.69
499.267	957.69
499.484	1005.69
499.701	1076.69
499.918	1093.69
500.135	1190.69
500.352	1250.69
500.569	1299.69
500.786	1295.69
501.003	1284.69
501.22	1201.69
501.437	1153.69
501.654	1059.69
501.871	1004.69
502.088	994.69
502.305	937.69
502.522	904.69
502.739	872.69
502.956	860.69
503.172	796.69
503.389	792.69
503.606	780.69
503.823	758.69
504.04	770.69
504.256	750.69
504.473	790.69
504.69	772.69
504.907	788.69
505.123	759.69
505.34	726.69
505.557	708.69
505.773	699.69
505.99	696.69
506.207	703.69
506.423	702.69
506.64	682.69
506.856	679.69
507.073	695.69
507.289	675.69
507.506	649.69
507.722	678.69
507.939	666.69
508.155	649.69
508.372	630.69
508.588	649.69
508.805	629.69
509.021	652.69
509.238	663.69
509.454	684.69
509.67	666.69
509.887	652.69
510.103	635.69
510.319	644.69
510.536	707.69
510.752	1003.69
510.968	839.69
511.184	648.69
511.401	606.69
511.617	620.69
511.833	613.69
512.049	593.69
512.265	610.69
512.481	600.69
512.698	626.69
512.914	590.69
513.13	598.69
513.346	600.69
513.562	611.69
513.778	606.69
513.994	603.69
514.21	611.69
514.426	624.69
514.642	645.69
514.858	640.69
515.074	662.69
515.29	732.69
515.506	990.69
515.721	871.69
515.937	692.69
516.153	662.69
516.369	658.69
516.585	660.69
516.801	640.69
517.016	652.69
517.232	669.69
517.448	656.69
517.664	691.69
517.879	700.69
518.095	700.69
518.311	682.69
518.527	661.69
518.742	682.69
518.958	648.69
519.173	653.69
519.389	617.69
519.605	643.69
519.82	588.69
520.036	642.69
520.251	621.69
520.467	638.69
520.682	652.69
520.898	634.69
521.113	640.69
521.329	641.69
521.544	680.69
521.76	802.69
521.975	1186.69
522.19	1168.69
522.406	771.69
522.621	620.69
522.836	595.69
523.052	581.69
523.267	574.69
523.482	564.69
523.698	555.69
523.913	563.69
524.128	562.69
524.343	548.69
524.559	523.69
524.774	536.69
524.989	527.69
525.204	518.69
525.419	534.69
525.634	553.69
525.849	498.69
526.064	525.69
526.28	515.69
526.495	508.69
526.71	510.69
526.925	502.69
527.14	502.69
527.355	490.69
527.57	510.69
527.785	505.69
527.999	527.69
528.214	507.69
528.429	518.69
528.644	518.69
528.859	516.69
529.074	526.69
529.289	532.69
529.503	564.69
529.718	563.69
529.933	526.69
530.148	503.69
530.363	510.69
530.577	518.69
530.792	505.69
531.007	487.69
531.221	504.69
531.436	511.69
531.651	514.69
531.865	505.69
532.08	506.69
532.295	508.69
532.509	501.69
532.724	469.69
532.938	501.69
533.153	518.69
533.367	515.69
533.582	495.69
533.796	504.69
534.011	487.69
534.225	488.69
534.44	480.69
534.654	479.69
534.868	495.69
535.083	493.69
535.297	472.69
535.511	477.69
535.726	494.69
535.94	488.69
536.154	495.69
536.369	476.69
536.583	478.69
536.797	486.69
537.011	472.69
537.225	454.69
537.44	474.69
537.654	494.69
537.868	465.69
538.082	463.69
538.296	472.69
538.51	477.69
538.724	468.69
538.938	474.69
539.153	482.69
539.367	475.69
539.581	472.69
539.795	459.69
540.009	457.69
540.222	470.69
540.436	470.69
540.65	477.69
540.864	482.69
541.078	492.69
541.292	464.69
541.506	466.69
541.72	464.69
541.934	474.69
542.147	469.69
542.361	468.69
542.575	482.69
542.789	487.69
543.002	471.69
543.216	473.69
543.43	469.69
543.644	480.69
543.857	486.69
544.071	479.69
544.285	457.69
544.498	482.69
544.712	468.69
544.925	471.69
545.139	494.69
545.352	468.69
545.566	465.69
545.779	463.69
545.993	473.69
546.206	475.69
546.42	483.69
546.633	472.69
546.847	460.69
547.06	486.69
547.274	467.69
547.487	462.69
547.7	476.69
547.914	471.69
548.127	463.69
548.34	468.69
548.554	486.69
548.767	452.69
548.98	453.69
549.193	447.69
549.407	459.69
549.62	459.69
549.833	476.69
550.046	470.69
550.259	467.69
550.473	465.69
550.686	463.69
550.899	460.69
551.112	461.69
551.325	456.69
551.538	463.69
551.751	454.69
551.964	464.69
552.177	479.69
552.39	463.69
552.603	456.69
552.816	467.69
553.029	489.69
553.242	474.69
553.455	476.69
553.667	495.69
553.88	483.69
554.093	487.69
554.306	481.69
554.519	464.69
554.732	458.69
554.944	444.69
555.157	469.69
555.37	463.69
555.583	446.69
555.795	449.69
556.008	446.69
556.221	446.69
556.433	440.69
556.646	426.69
556.859	438.69
557.071	423.69
557.284	400.69
557.496	425.69
557.709	407.69
557.921	412.69
558.134	420.69
558.346	407.69
558.559	398.69
558.771	408.69
558.984	397.69
559.196	408.69
559.409	390.69
559.621	400.69
559.833	408.69
560.046	375.69
560.258	390.69
560.47	413.69
560.683	403.69
560.895	403.69
561.107	407.69
561.32	382.69
561.532	397.69
561.744	415.69
561.956	413.69
562.168	397.69
562.381	422.69
562.593	415.69
562.805	410.69
563.017	427.69
563.229	415.69
563.441	428.69
563.653	404.69
563.865	403.69
564.077	431.69
564.289	408.69
564.501	439.69
564.713	441.69
564.925	446.69
565.137	450.69
565.349	444.69
565.561	467.69
565.773	481.69
565.985	488.69
566.197	504.69
566.408	521.69
566.62	554.69
566.832	557.69
567.044	560.69
567.255	587.69
567.467	587.69
567.679	604.69
567.891	608.69
568.102	627.69
568.314	601.69
568.526	561.69
568.737	541.69
568.949	523.69
569.161	489.69
569.372	459.69
569.584	461.69
569.795	441.69
570.007	440.69
570.218	450.69
570.43	457.69
570.641	441.69
570.853	443.69
571.064	407.69
571.276	393.69
571.487	416.69
571.698	414.69
571.91	414.69
572.121	393.69
572.333	372.69
572.544	370.69
572.755	363.69
572.966	364.69
573.178	378.69
573.389	362.69
573.6	383.69
573.811	365.69
574.023	366.69
574.234	331.69
574.445	359.69
574.656	343.69
574.867	353.69
575.078	356.69
575.289	356.69
575.501	357.69
575.712	336.69
575.923	349.69
576.134	350.69
576.345	341.69
576.556	339.69
576.767	335.69
576.978	364.69
577.188	342.69
577.399	327.69
577.61	334.69
577.821	341.69
578.032	359.69
578.243	348.69
578.454	490.69
578.665	388.69
578.875	342.69
579.086	335.69
579.297	316.69
579.508	338.69
579.718	326.69
579.929	311.69
580.14	318.69
580.35	332.69
580.561	332.69
580.772	333.69
580.982	304.69
581.193	331.69
581.403	340.69
581.614	317.69
581.825	307.69
582.035	331.69
582.246	316.69
582.456	336.69
582.667	302.69
582.877	314.69
583.087	308.69
583.298	324.69
583.508	333.69
583.719	319.69
583.929	329.69
584.139	311.69
584.35	307.69
584.56	310.69
584.77	316.69
584.981	323.69
585.191	331.69
585.401	319.69
585.611	322.69
585.821	322.69
586.032	310.69
586.242	301.69
586.452	307.69
586.662	311.69
586.872	291.69
587.082	298.69
587.292	296.69
587.502	307.69
587.713	318.69
587.923	315.69
588.133	323.69
588.343	322.69
588.553	287.69
588.762	310.69
588.972	306.69
589.182	333.69
589.392	318.69
589.602	321.69
589.812	317.69
590.022	336.69
590.232	306.69
590.441	314.69
590.651	313.69
590.861	308.69
591.071	319.69
591.281	316.69
591.49	320.69
591.7	321.69
591.91	307.69
592.119	320.69
592.329	319.69
592.539	341.69
592.748	336.69
592.958	358.69
593.167	348.69
593.377	359.69
593.587	357.69
593.796	343.69
594.006	344.69
594.215	351.69
594.424	366.69
594.634	353.69
594.843	348.69
595.053	319.69
595.262	339.69
595.472	318.69
595.681	306.69
595.89	319.69
596.1	315.69
596.309	315.69
596.518	318.69
596.727	327.69
596.937	301.69
597.146	300.69
597.355	286.69
597.564	277.69
597.774	295.69
597.983	301.69
598.192	300.69
598.401	284.69
598.61	280.69
598.819	293.69
599.028	289.69
599.237	286.69
599.446	288.69
599.655	266.69
599.864	294.69
600.073	276.69
600.282	287.69
600.491	280.69
600.7	270.69
600.909	266.69
601.118	263.69
601.327	250.69
601.536	258.69
601.745	275.69
601.953	265.69
602.162	263.69
602.371	270.69
602.58	272.69
602.789	269.69
602.997	278.69
603.206	276.69
603.415	269.69
603.623	268.69
603.832	264.69
604.041	271.69
604.249	256.69
604.458	260.69
604.666	254.69
604.875	264.69
605.084	273.69
605.292	253.69
605.501	273.69
605.709	254.69
605.918	255.69
606.126	266.69
606.334	255.69
606.543	254.69
606.751	261.69
606.96	253.69
607.168	264.69
607.376	252.69
607.585	264.69
607.793	251.69
608.001	267.69
608.21	259.69
608.418	256.69
608.626	254.69
608.834	255.69
609.043	254.69
609.251	246.69
609.459	256.69
609.667	252.69
609.875	244.69
610.083	253.69
610.291	258.69
610.499	272.69
610.707	243.69
610.916	253.69
611.124	250.69
611.332	257.69
611.54	265.69
611.748	259.69
611.955	246.69
612.163	261.69
612.371	254.69
612.579	264.69
612.787	265.69
612.995	253.69
613.203	264.69
613.411	247.69
613.618	243.69
613.826	263.69
614.034	258.69
614.242	245.69
614.449	233.69
614.657	235.69
614.865	261.69
615.072	254.69
615.28	255.69
615.488	230.69
615.695	245.69
615.903	246.69
616.111	234.69
616.318	247.69
616.526	257.69
616.733	248.69
616.941	228.69
617.148	256.69
617.356	260.69
617.563	261.69
617.771	235.69
617.978	234.69
618.185	239.69
618.393	230.69
618.6	227.69
618.807	237.69
619.015	253.69
619.222	258.69
619.429	239.69
619.637	232.69
619.844	244.69
620.051	231.69
620.258	231.69
620.466	231.69
620.673	229.69
620.88	240.69
621.087	230.69
621.294	254.69
621.501	239.69
621.708	236.69
621.915	235.69
622.122	231.69
622.329	229.69
622.536	230.69
622.743	244.69
622.95	237.69
623.157	240.69
623.364	240.69
623.571	233.69
623.778	244.69
623.985	228.69
624.192	212.69
624.399	231.69
624.606	222.69
624.812	237.69
625.019	224.69
625.226	210.69
625.433	220.69
625.639	222.69
625.846	195.69
626.053	217.69
626.259	221.69
626.466	211.69
626.673	211.69
626.879	205.69
627.086	219.69
627.293	212.69
627.499	201.69
627.706	221.69
627.912	221.69
628.119	211.69
628.325	219.69
628.532	211.69
628.738	220.69
628.945	226.69
629.151	206.69
629.357	222.69
629.564	208.69
629.77	218.69
629.976	202.69
630.183	214.69
630.389	190.69
630.595	197.69
630.802	203.69
631.008	191.69
631.214	190.69
631.42	212.69
631.627	202.69
631.833	200.69
632.039	207.69
632.245	186.69
632.451	203.69
632.657	198.69
632.863	200.69
633.069	195.69
633.275	176.69
633.481	206.69
633.688	200.69
633.893	201.69
634.099	202.69
634.305	193.69
634.511	198.69
634.717	203.69
634.923	197.69
635.129	199.69
635.335	187.69
635.541	191.69
635.747	201.69
635.952	206.69
636.158	191.69
636.364	196.69
636.57	196.69
636.775	190.69
636.981	190.69
637.187	189.69
637.392	191.69
637.598	180.69
637.804	187.69
638.009	178.69
638.215	184.69
638.421	183.69
638.626	168.69
638.832	185.69
639.037	186.69
639.243	176.69
639.448	173.69
639.654	179.69
639.859	189.69
640.065	182.69
640.27	188.69
640.475	160.69
640.681	178.69
640.886	166.69
641.091	179.69
641.297	191.69
641.502	181.69
641.707	183.69
641.913	182.69
642.118	173.69
642.323	186.69
642.528	198.69
642.733	179.69
642.939	186.69
643.144	169.69
643.349	174.69
643.554	173.69
643.759	204.69
643.964	160.69
644.169	179.69
644.374	178.69
644.579	182.69
644.784	180.69
644.989	190.69
645.194	170.69
645.399	166.69
645.604	166.69
645.809	169.69
646.014	180.69
646.219	174.69
646.423	190.69
646.628	164.69
646.833	172.69
647.038	172.69
647.243	191.69
647.447	180.69
647.652	168.69
647.857	169.69
648.062	174.69
648.266	176.69
648.471	174.69
648.676	172.69
648.88	180.69
649.085	184.69
649.289	164.69
649.494	179.69
649.698	189.69
649.903	173.69
650.107	170.69
650.312	164.69
650.516	182.69
650.721	181.69
650.925	154.69
651.13	158.69
651.334	157.69
651.539	156.69
651.743	151.69
651.947	163.69
652.152	166.69
652.356	152.69
652.56	151.69
652.764	143.69
652.969	130.69
653.173	151.69
653.377	159.69
653.581	141.69
653.785	141.69
653.99	132.69
654.194	148.69
654.398	134.69
654.602	145.69
654.806	143.69
655.01	136.69
655.214	144.69
655.418	145.69
655.622	148.69
655.826	139.69
656.03	138.69
656.234	141.69
656.438	157.69
656.642	147.69
656.846	150.69
657.049	147.69
657.253	131.69
657.457	147.69
657.661	126.69
657.865	124.69
658.068	123.69
658.272	125.69
658.476	102.69
658.68	106.69
658.883	106.69
659.087	115.69
659.291	90.69
659.494	106.69
659.698	99.69
659.901	109.69
660.105	101.69
660.309	107.69
660.512	111.69
660.716	104.69
660.919	92.69
661.123	100.69
661.326	116.69
661.53	92.69
661.733	99.69
661.936	93.69
662.14	78.69
662.343	76.69
662.546	94.69
662.75	76.69
662.953	91.69
663.156	88.69
663.36	90.69
663.563	89.69
663.766	78.69
663.969	93.69
664.173	84.69
664.376	80.69
664.579	81.69
664.782	90.69
664.985	93.69
665.188	80.69
665.391	91.69
665.594	72.69
665.797	97.69
666	82.69
666.203	87.69
666.406	85.69
666.609	72.69
666.812	88.69
667.015	84.69
667.218	89.69
667.421	82.69
667.624	83.69
667.827	88.69
668.03	81.69
668.232	81.69
668.435	91.69
668.638	86.69
668.841	82.69
669.043	77.69
669.246	88.69
669.449	92.69
669.651	93.69
669.854	87.69
670.057	87.69
670.259	80.69
670.462	82.69
670.665	93.69
670.867	91.69
671.07	99.69
671.272	65.69
671.475	94.69
671.677	81.69
671.88	73.69
672.082	79.69
672.284	83.69
672.487	87.69
672.689	78.69
672.892	84.69
