Data from 1973.PennyLincolnUp.Lamp.En5.5.200Scan.071719.P1.Changed Mount._HRD10591_15-45-09-853.txt Node
Date: Thu Jul 18 15:45:09 EDT 2019
User: cochatt
Spectrometer: HR+D1059
Trigger mode: 1
Integration Time (sec): 1.000000E-1
Scans to average: 1
Electric dark correction enabled: true
Nonlinearity correction enabled: false
Boxcar width: 0
XAxis mode: Wavelengths
Number of Pixels in Spectrum: 2048
>>>>>Begin Spectral Data<<<<<
223.165	-15.44
223.4	-15.44
223.635	-15.44
223.869	-11.44
224.104	-17.44
224.338	-9.44
224.573	-21.44
224.808	-21.44
225.042	6.56
225.277	-14.44
225.511	-2.44
225.746	5.56
225.98	1.56
226.215	12.56
226.449	19.56
226.683	18.56
226.918	21.56
227.152	27.56
227.387	29.56
227.621	42.56
227.856	45.56
228.09	36.56
228.324	53.56
228.559	68.56
228.793	74.56
229.027	95.56
229.262	93.56
229.496	117.56
229.73	133.56
229.964	129.56
230.199	121.56
230.433	99.56
230.667	107.56
230.901	110.56
231.136	111.56
231.37	109.56
231.604	122.56
231.838	121.56
232.072	112.56
232.306	128.56
232.541	109.56
232.775	119.56
233.009	134.56
233.243	117.56
233.477	121.56
233.711	128.56
233.945	123.56
234.179	116.56
234.413	115.56
234.647	116.56
234.881	117.56
235.115	130.56
235.349	115.56
235.583	132.56
235.817	117.56
236.051	126.56
236.285	129.56
236.519	124.56
236.753	115.56
236.987	141.56
237.221	159.56
237.455	194.56
237.689	181.56
237.922	133.56
238.156	133.56
238.39	131.56
238.624	134.56
238.858	120.56
239.091	120.56
239.325	136.56
239.559	118.56
239.793	127.56
240.027	134.56
240.26	140.56
240.494	149.56
240.728	165.56
240.961	158.56
241.195	148.56
241.429	135.56
241.662	143.56
241.896	141.56
242.13	135.56
242.363	148.56
242.597	142.56
242.83	139.56
243.064	135.56
243.298	141.56
243.531	144.56
243.765	151.56
243.998	149.56
244.232	152.56
244.465	155.56
244.699	138.56
244.932	143.56
245.166	165.56
245.399	165.56
245.633	154.56
245.866	141.56
246.099	165.56
246.333	163.56
246.566	160.56
246.8	141.56
247.033	172.56
247.266	161.56
247.5	169.56
247.733	170.56
247.966	181.56
248.2	161.56
248.433	166.56
248.666	178.56
248.899	196.56
249.133	203.56
249.366	201.56
249.599	209.56
249.832	190.56
250.066	200.56
250.299	185.56
250.532	181.56
250.765	205.56
250.998	218.56
251.231	234.56
251.465	214.56
251.698	204.56
251.931	204.56
252.164	194.56
252.397	209.56
252.63	195.56
252.863	211.56
253.096	217.56
253.329	233.56
253.562	219.56
253.795	232.56
254.028	212.56
254.261	225.56
254.494	227.56
254.727	247.56
254.96	273.56
255.193	273.56
255.426	253.56
255.659	224.56
255.892	228.56
256.124	244.56
256.357	249.56
256.59	224.56
256.823	225.56
257.056	207.56
257.289	207.56
257.521	218.56
257.754	218.56
257.987	221.56
258.22	215.56
258.452	208.56
258.685	206.56
258.918	212.56
259.151	211.56
259.383	225.56
259.616	209.56
259.849	225.56
260.081	215.56
260.314	243.56
260.547	250.56
260.779	260.56
261.012	241.56
261.244	231.56
261.477	234.56
261.71	220.56
261.942	228.56
262.175	229.56
262.407	235.56
262.64	225.56
262.872	210.56
263.105	206.56
263.337	234.56
263.57	218.56
263.802	232.56
264.035	214.56
264.267	238.56
264.499	206.56
264.732	243.56
264.964	231.56
265.197	225.56
265.429	219.56
265.661	220.56
265.894	219.56
266.126	232.56
266.358	222.56
266.591	241.56
266.823	249.56
267.055	257.56
267.287	257.56
267.52	242.56
267.752	250.56
267.984	266.56
268.216	251.56
268.448	250.56
268.681	241.56
268.913	258.56
269.145	281.56
269.377	271.56
269.609	278.56
269.841	281.56
270.073	278.56
270.306	299.56
270.538	313.56
270.77	329.56
271.002	326.56
271.234	307.56
271.466	313.56
271.698	306.56
271.93	328.56
272.162	308.56
272.394	317.56
272.626	301.56
272.858	295.56
273.09	294.56
273.322	285.56
273.553	303.56
273.785	289.56
274.017	283.56
274.249	297.56
274.481	266.56
274.713	275.56
274.945	292.56
275.176	296.56
275.408	279.56
275.64	272.56
275.872	287.56
276.104	282.56
276.335	282.56
276.567	289.56
276.799	298.56
277.031	313.56
277.262	320.56
277.494	325.56
277.726	322.56
277.957	309.56
278.189	304.56
278.421	316.56
278.652	296.56
278.884	296.56
279.115	274.56
279.347	277.56
279.579	300.56
279.81	305.56
280.042	292.56
280.273	280.56
280.505	292.56
280.736	284.56
280.968	291.56
281.199	292.56
281.431	290.56
281.662	303.56
281.894	289.56
282.125	312.56
282.356	313.56
282.588	311.56
282.819	330.56
283.051	286.56
283.282	301.56
283.513	305.56
283.745	296.56
283.976	313.56
284.207	311.56
284.439	313.56
284.67	315.56
284.901	318.56
285.132	307.56
285.364	310.56
285.595	314.56
285.826	315.56
286.057	307.56
286.288	327.56
286.52	314.56
286.751	306.56
286.982	310.56
287.213	309.56
287.444	319.56
287.675	310.56
287.906	329.56
288.138	317.56
288.369	333.56
288.6	338.56
288.831	335.56
289.062	323.56
289.293	328.56
289.524	319.56
289.755	338.56
289.986	326.56
290.217	323.56
290.448	322.56
290.679	331.56
290.91	321.56
291.141	314.56
291.371	331.56
291.602	322.56
291.833	333.56
292.064	325.56
292.295	317.56
292.526	324.56
292.757	314.56
292.987	309.56
293.218	320.56
293.449	317.56
293.68	315.56
293.91	323.56
294.141	329.56
294.372	330.56
294.603	340.56
294.833	341.56
295.064	332.56
295.295	333.56
295.525	332.56
295.756	346.56
295.987	356.56
296.217	343.56
296.448	345.56
296.679	327.56
296.909	337.56
297.14	342.56
297.37	335.56
297.601	326.56
297.831	342.56
298.062	352.56
298.292	348.56
298.523	337.56
298.753	365.56
298.984	338.56
299.214	340.56
299.445	365.56
299.675	353.56
299.905	353.56
300.136	357.56
300.366	342.56
300.597	346.56
300.827	334.56
301.057	369.56
301.288	359.56
301.518	379.56
301.748	356.56
301.979	383.56
302.209	379.56
302.439	378.56
302.669	363.56
302.9	363.56
303.13	370.56
303.36	373.56
303.59	355.56
303.82	364.56
304.051	375.56
304.281	362.56
304.511	365.56
304.741	376.56
304.971	345.56
305.201	353.56
305.431	355.56
305.661	373.56
305.891	361.56
306.121	371.56
306.352	363.56
306.582	357.56
306.812	375.56
307.042	374.56
307.272	375.56
307.502	365.56
307.731	384.56
307.961	373.56
308.191	360.56
308.421	363.56
308.651	360.56
308.881	366.56
309.111	374.56
309.341	380.56
309.571	391.56
309.8	388.56
310.03	375.56
310.26	382.56
310.49	397.56
310.72	394.56
310.949	390.56
311.179	422.56
311.409	414.56
311.639	379.56
311.868	392.56
312.098	404.56
312.328	374.56
312.557	426.56
312.787	442.56
313.017	423.56
313.246	391.56
313.476	403.56
313.706	413.56
313.935	401.56
314.165	414.56
314.394	415.56
314.624	410.56
314.853	398.56
315.083	411.56
315.312	390.56
315.542	396.56
315.771	391.56
316.001	419.56
316.23	374.56
316.46	397.56
316.689	425.56
316.919	422.56
317.148	403.56
317.377	402.56
317.607	417.56
317.836	398.56
318.065	409.56
318.295	414.56
318.524	412.56
318.753	406.56
318.983	393.56
319.212	385.56
319.441	385.56
319.67	390.56
319.9	403.56
320.129	400.56
320.358	405.56
320.587	418.56
320.816	416.56
321.046	427.56
321.275	435.56
321.504	414.56
321.733	427.56
321.962	429.56
322.191	427.56
322.42	416.56
322.649	443.56
322.878	473.56
323.108	472.56
323.337	478.56
323.566	488.56
323.795	484.56
324.024	514.56
324.253	609.56
324.482	766.56
324.71	1107.56
324.939	1554.56
325.168	1324.56
325.397	750.56
325.626	586.56
325.855	498.56
326.084	469.56
326.313	476.56
326.542	468.56
326.77	515.56
326.999	549.56
327.228	698.56
327.457	971.56
327.686	1184.56
327.914	873.56
328.143	635.56
328.372	567.56
328.6	561.56
328.829	530.56
329.058	537.56
329.287	547.56
329.515	506.56
329.744	488.56
329.972	481.56
330.201	523.56
330.43	539.56
330.658	547.56
330.887	570.56
331.115	553.56
331.344	519.56
331.572	485.56
331.801	490.56
332.03	480.56
332.258	505.56
332.486	482.56
332.715	497.56
332.943	467.56
333.172	507.56
333.4	503.56
333.629	499.56
333.857	526.56
334.085	538.56
334.314	556.56
334.542	582.56
334.771	550.56
334.999	528.56
335.227	504.56
335.455	498.56
335.684	510.56
335.912	500.56
336.14	458.56
336.369	508.56
336.597	496.56
336.825	497.56
337.053	488.56
337.281	463.56
337.51	479.56
337.738	490.56
337.966	477.56
338.194	462.56
338.422	464.56
338.65	464.56
338.878	471.56
339.106	450.56
339.334	447.56
339.562	457.56
339.79	450.56
340.018	454.56
340.246	465.56
340.474	465.56
340.702	469.56
340.93	463.56
341.158	471.56
341.386	452.56
341.614	454.56
341.842	441.56
342.07	442.56
342.298	442.56
342.526	452.56
342.754	422.56
342.981	435.56
343.209	454.56
343.437	482.56
343.665	474.56
343.893	488.56
344.12	512.56
344.348	492.56
344.576	470.56
344.804	488.56
345.031	482.56
345.259	499.56
345.487	470.56
345.714	443.56
345.942	437.56
346.17	456.56
346.397	439.56
346.625	457.56
346.853	466.56
347.08	425.56
347.308	417.56
347.535	447.56
347.763	430.56
347.99	426.56
348.218	438.56
348.445	449.56
348.673	451.56
348.9	421.56
349.128	446.56
349.355	428.56
349.583	410.56
349.81	414.56
350.037	412.56
350.265	413.56
350.492	439.56
350.72	435.56
350.947	441.56
351.174	452.56
351.402	435.56
351.629	438.56
351.856	429.56
352.083	431.56
352.311	443.56
352.538	446.56
352.765	454.56
352.992	422.56
353.22	429.56
353.447	429.56
353.674	413.56
353.901	426.56
354.128	424.56
354.355	421.56
354.583	421.56
354.81	430.56
355.037	415.56
355.264	419.56
355.491	410.56
355.718	440.56
355.945	394.56
356.172	419.56
356.399	396.56
356.626	406.56
356.853	394.56
357.08	414.56
357.307	407.56
357.534	425.56
357.761	411.56
357.988	439.56
358.215	421.56
358.441	397.56
358.668	420.56
358.895	404.56
359.122	400.56
359.349	424.56
359.576	426.56
359.802	444.56
360.029	462.56
360.256	455.56
360.483	456.56
360.709	423.56
360.936	417.56
361.163	438.56
361.39	450.56
361.616	436.56
361.843	437.56
362.07	429.56
362.296	445.56
362.523	434.56
362.749	422.56
362.976	432.56
363.203	436.56
363.429	422.56
363.656	405.56
363.882	435.56
364.109	441.56
364.335	411.56
364.562	430.56
364.788	412.56
365.015	431.56
365.241	418.56
365.468	422.56
365.694	410.56
365.92	417.56
366.147	420.56
366.373	417.56
366.599	409.56
366.826	419.56
367.052	418.56
367.278	405.56
367.505	435.56
367.731	425.56
367.957	413.56
368.184	430.56
368.41	412.56
368.636	452.56
368.862	440.56
369.089	412.56
369.315	419.56
369.541	415.56
369.767	399.56
369.993	415.56
370.219	417.56
370.445	411.56
370.672	427.56
370.898	423.56
371.124	419.56
371.35	447.56
371.576	433.56
371.802	449.56
372.028	415.56
372.254	441.56
372.48	442.56
372.706	453.56
372.932	422.56
373.158	449.56
373.384	441.56
373.61	442.56
373.835	455.56
374.061	434.56
374.287	434.56
374.513	446.56
374.739	449.56
374.965	446.56
375.191	449.56
375.416	465.56
375.642	465.56
375.868	439.56
376.094	438.56
376.319	423.56
376.545	422.56
376.771	453.56
376.997	433.56
377.222	423.56
377.448	449.56
377.674	428.56
377.899	418.56
378.125	427.56
378.35	423.56
378.576	414.56
378.802	407.56
379.027	426.56
379.253	425.56
379.478	444.56
379.704	411.56
379.929	426.56
380.155	417.56
380.38	419.56
380.606	408.56
380.831	423.56
381.057	431.56
381.282	427.56
381.507	440.56
381.733	430.56
381.958	424.56
382.184	435.56
382.409	415.56
382.634	447.56
382.86	442.56
383.085	435.56
383.31	446.56
383.535	468.56
383.761	457.56
383.986	453.56
384.211	444.56
384.436	457.56
384.662	468.56
384.887	462.56
385.112	468.56
385.337	498.56
385.562	486.56
385.787	492.56
386.013	468.56
386.238	485.56
386.463	485.56
386.688	485.56
386.913	462.56
387.138	491.56
387.363	489.56
387.588	486.56
387.813	497.56
388.038	487.56
388.263	465.56
388.488	469.56
388.713	482.56
388.938	490.56
389.163	464.56
389.387	473.56
389.612	466.56
389.837	469.56
390.062	476.56
390.287	493.56
390.512	478.56
390.736	466.56
390.961	483.56
391.186	491.56
391.411	491.56
391.636	501.56
391.86	517.56
392.085	529.56
392.31	527.56
392.534	514.56
392.759	527.56
392.984	491.56
393.208	488.56
393.433	490.56
393.658	486.56
393.882	508.56
394.107	484.56
394.331	476.56
394.556	481.56
394.78	498.56
395.005	473.56
395.229	491.56
395.454	509.56
395.678	511.56
395.903	531.56
396.127	540.56
396.352	539.56
396.576	504.56
396.801	490.56
397.025	525.56
397.249	522.56
397.474	515.56
397.698	539.56
397.922	540.56
398.147	578.56
398.371	558.56
398.595	522.56
398.82	557.56
399.044	581.56
399.268	603.56
399.492	654.56
399.717	696.56
399.941	731.56
400.165	732.56
400.389	734.56
400.613	632.56
400.837	613.56
401.062	611.56
401.286	586.56
401.51	561.56
401.734	573.56
401.958	590.56
402.182	584.56
402.406	590.56
402.63	587.56
402.854	586.56
403.078	597.56
403.302	600.56
403.526	627.56
403.75	593.56
403.974	617.56
404.198	614.56
404.422	605.56
404.645	615.56
404.869	619.56
405.093	645.56
405.317	666.56
405.541	655.56
405.765	659.56
405.988	611.56
406.212	618.56
406.436	622.56
406.66	661.56
406.883	657.56
407.107	670.56
407.331	713.56
407.555	771.56
407.778	764.56
408.002	684.56
408.226	678.56
408.449	645.56
408.673	642.56
408.896	670.56
409.12	692.56
409.344	679.56
409.567	600.56
409.791	596.56
410.014	575.56
410.238	597.56
410.461	606.56
410.685	605.56
410.908	600.56
411.132	651.56
411.355	629.56
411.578	611.56
411.802	611.56
412.025	592.56
412.249	590.56
412.472	609.56
412.695	612.56
412.919	627.56
413.142	594.56
413.365	590.56
413.589	564.56
413.812	548.56
414.035	558.56
414.258	565.56
414.482	551.56
414.705	554.56
414.928	563.56
415.151	567.56
415.374	562.56
415.597	559.56
415.821	551.56
416.044	571.56
416.267	565.56
416.49	549.56
416.713	545.56
416.936	547.56
417.159	552.56
417.382	551.56
417.605	570.56
417.828	591.56
418.051	583.56
418.274	603.56
418.497	552.56
418.72	557.56
418.943	554.56
419.166	587.56
419.389	621.56
419.611	607.56
419.834	584.56
420.057	594.56
420.28	600.56
420.503	612.56
420.726	572.56
420.948	589.56
421.171	620.56
421.394	651.56
421.617	574.56
421.839	553.56
422.062	565.56
422.285	594.56
422.507	633.56
422.73	718.56
422.953	684.56
423.175	598.56
423.398	583.56
423.621	583.56
423.843	627.56
424.066	640.56
424.288	614.56
424.511	633.56
424.733	651.56
424.956	715.56
425.178	738.56
425.401	660.56
425.623	718.56
425.846	622.56
426.068	606.56
426.291	576.56
426.513	598.56
426.735	594.56
426.958	622.56
427.18	679.56
427.402	820.56
427.625	884.56
427.847	741.56
428.069	676.56
428.292	603.56
428.514	569.56
428.736	561.56
428.958	548.56
429.181	545.56
429.403	545.56
429.625	564.56
429.847	583.56
430.069	627.56
430.292	613.56
430.514	567.56
430.736	581.56
430.958	538.56
431.18	535.56
431.402	539.56
431.624	513.56
431.846	515.56
432.068	528.56
432.29	563.56
432.512	530.56
432.734	536.56
432.956	534.56
433.178	515.56
433.4	566.56
433.622	521.56
433.844	531.56
434.066	527.56
434.287	521.56
434.509	550.56
434.731	561.56
434.953	562.56
435.175	555.56
435.397	614.56
435.618	588.56
435.84	637.56
436.062	701.56
436.284	735.56
436.505	620.56
436.727	585.56
436.949	539.56
437.17	534.56
437.392	546.56
437.614	554.56
437.835	594.56
438.057	646.56
438.278	723.56
438.5	732.56
438.721	771.56
438.943	759.56
439.165	638.56
439.386	597.56
439.608	581.56
439.829	601.56
440.05	574.56
440.272	618.56
440.493	608.56
440.715	589.56
440.936	554.56
441.158	549.56
441.379	559.56
441.6	598.56
441.822	601.56
442.043	627.56
442.264	696.56
442.486	705.56
442.707	622.56
442.928	602.56
443.149	613.56
443.371	596.56
443.592	632.56
443.813	740.56
444.034	798.56
444.255	691.56
444.476	675.56
444.698	645.56
444.919	633.56
445.14	728.56
445.361	670.56
445.582	638.56
445.803	669.56
446.024	742.56
446.245	741.56
446.466	689.56
446.687	591.56
446.908	583.56
447.129	542.56
447.35	535.56
447.571	531.56
447.792	531.56
448.013	526.56
448.234	543.56
448.455	584.56
448.675	701.56
448.896	780.56
449.117	663.56
449.338	634.56
449.559	705.56
449.779	817.56
450	685.56
450.221	571.56
450.442	541.56
450.662	521.56
450.883	507.56
451.104	510.56
451.324	493.56
451.545	490.56
451.766	497.56
451.986	475.56
452.207	463.56
452.428	497.56
452.648	494.56
452.869	481.56
453.089	498.56
453.31	491.56
453.53	464.56
453.751	491.56
453.971	466.56
454.192	483.56
454.412	474.56
454.633	477.56
454.853	453.56
455.073	480.56
455.294	476.56
455.514	518.56
455.734	525.56
455.955	467.56
456.175	469.56
456.395	460.56
456.616	443.56
456.836	457.56
457.056	455.56
457.276	457.56
457.497	455.56
457.717	443.56
457.937	449.56
458.157	450.56
458.377	453.56
458.598	478.56
458.818	514.56
459.038	586.56
459.258	610.56
459.478	558.56
459.698	550.56
459.918	530.56
460.138	557.56
460.358	551.56
460.578	558.56
460.798	567.56
461.018	576.56
461.238	535.56
461.458	571.56
461.678	552.56
461.898	567.56
462.118	561.56
462.338	601.56
462.558	570.56
462.777	591.56
462.997	647.56
463.217	668.56
463.437	659.56
463.657	635.56
463.876	619.56
464.096	620.56
464.316	608.56
464.536	616.56
464.755	598.56
464.975	567.56
465.195	612.56
465.414	630.56
465.634	567.56
465.854	567.56
466.073	530.56
466.293	520.56
466.512	499.56
466.732	490.56
466.951	531.56
467.171	502.56
467.391	521.56
467.61	511.56
467.829	512.56
468.049	501.56
468.268	469.56
468.488	482.56
468.707	489.56
468.927	477.56
469.146	492.56
469.365	499.56
469.585	500.56
469.804	513.56
470.023	515.56
470.243	527.56
470.462	537.56
470.681	515.56
470.901	511.56
471.12	514.56
471.339	521.56
471.558	493.56
471.777	494.56
471.997	516.56
472.216	502.56
472.435	517.56
472.654	500.56
472.873	500.56
473.092	500.56
473.311	504.56
473.53	478.56
473.749	481.56
473.968	545.56
474.187	582.56
474.406	633.56
474.625	557.56
474.844	511.56
475.063	516.56
475.282	500.56
475.501	498.56
475.72	518.56
475.939	485.56
476.158	519.56
476.377	514.56
476.596	523.56
476.814	516.56
477.033	521.56
477.252	527.56
477.471	527.56
477.69	557.56
477.908	554.56
478.127	563.56
478.346	572.56
478.564	570.56
478.783	597.56
479.002	591.56
479.22	568.56
479.439	577.56
479.658	603.56
479.876	596.56
480.095	603.56
480.313	616.56
480.532	620.56
480.751	632.56
480.969	621.56
481.188	659.56
481.406	652.56
481.624	588.56
481.843	604.56
482.061	582.56
482.28	593.56
482.498	595.56
482.717	575.56
482.935	576.56
483.153	593.56
483.372	575.56
483.59	595.56
483.808	599.56
484.027	574.56
484.245	563.56
484.463	571.56
484.681	574.56
484.9	576.56
485.118	581.56
485.336	601.56
485.554	609.56
485.772	601.56
485.99	595.56
486.209	612.56
486.427	605.56
486.645	614.56
486.863	637.56
487.081	629.56
487.299	601.56
487.517	601.56
487.735	625.56
487.953	618.56
488.171	633.56
488.389	619.56
488.607	631.56
488.825	627.56
489.043	615.56
489.261	630.56
489.479	621.56
489.696	643.56
489.914	639.56
490.132	630.56
490.35	663.56
490.568	641.56
490.786	659.56
491.003	661.56
491.221	656.56
491.439	671.56
491.657	677.56
491.874	691.56
492.092	713.56
492.31	706.56
492.527	694.56
492.745	695.56
492.963	707.56
493.18	732.56
493.398	733.56
493.615	734.56
493.833	709.56
494.05	723.56
494.268	719.56
494.485	753.56
494.703	732.56
494.92	708.56
495.138	737.56
495.355	726.56
495.573	699.56
495.79	703.56
496.008	721.56
496.225	728.56
496.442	732.56
496.66	732.56
496.877	723.56
497.094	739.56
497.312	749.56
497.529	764.56
497.746	753.56
497.963	789.56
498.181	866.56
498.398	817.56
498.615	860.56
498.832	857.56
499.049	888.56
499.267	914.56
499.484	970.56
499.701	1049.56
499.918	1087.56
500.135	1138.56
500.352	1250.56
500.569	1285.56
500.786	1276.56
501.003	1276.56
501.22	1166.56
501.437	1121.56
501.654	1043.56
501.871	1021.56
502.088	942.56
502.305	946.56
502.522	877.56
502.739	882.56
502.956	795.56
503.172	811.56
503.389	782.56
503.606	788.56
503.823	757.56
504.04	774.56
504.256	758.56
504.473	753.56
504.69	777.56
504.907	787.56
505.123	741.56
505.34	728.56
505.557	703.56
505.773	711.56
505.99	705.56
506.207	698.56
506.423	678.56
506.64	677.56
506.856	670.56
507.073	682.56
507.289	658.56
507.506	663.56
507.722	665.56
507.939	661.56
508.155	675.56
508.372	635.56
508.588	622.56
508.805	629.56
509.021	641.56
509.238	635.56
509.454	648.56
509.67	629.56
509.887	634.56
510.103	612.56
510.319	629.56
510.536	675.56
510.752	928.56
510.968	817.56
511.184	617.56
511.401	615.56
511.617	582.56
511.833	591.56
512.049	570.56
512.265	581.56
512.481	594.56
512.698	574.56
512.914	602.56
513.13	606.56
513.346	599.56
513.562	595.56
513.778	603.56
513.994	577.56
514.21	588.56
514.426	618.56
514.642	626.56
514.858	643.56
515.074	657.56
515.29	734.56
515.506	933.56
515.721	841.56
515.937	663.56
516.153	634.56
516.369	617.56
516.585	645.56
516.801	652.56
517.016	627.56
517.232	655.56
517.448	675.56
517.664	671.56
517.879	667.56
518.095	683.56
518.311	676.56
518.527	677.56
518.742	655.56
518.958	633.56
519.173	627.56
519.389	622.56
519.605	608.56
519.82	616.56
520.036	598.56
520.251	610.56
520.467	620.56
520.682	641.56
520.898	627.56
521.113	617.56
521.329	628.56
521.544	681.56
521.76	779.56
521.975	1158.56
522.19	1114.56
522.406	717.56
522.621	613.56
522.836	589.56
523.052	555.56
523.267	558.56
523.482	535.56
523.698	545.56
523.913	548.56
524.128	554.56
524.343	542.56
524.559	499.56
524.774	533.56
524.989	520.56
525.204	519.56
525.419	550.56
525.634	515.56
525.849	510.56
526.064	517.56
526.28	508.56
526.495	478.56
526.71	482.56
526.925	502.56
527.14	514.56
527.355	518.56
527.57	499.56
527.785	500.56
527.999	510.56
528.214	500.56
528.429	519.56
528.644	519.56
528.859	512.56
529.074	529.56
529.289	508.56
529.503	558.56
529.718	539.56
529.933	536.56
530.148	482.56
530.363	499.56
530.577	524.56
530.792	493.56
531.007	513.56
531.221	490.56
531.436	490.56
531.651	485.56
531.865	493.56
532.08	489.56
532.295	490.56
532.509	489.56
532.724	487.56
532.938	499.56
533.153	507.56
533.367	480.56
533.582	497.56
533.796	486.56
534.011	469.56
534.225	483.56
534.44	487.56
534.654	477.56
534.868	478.56
535.083	483.56
535.297	492.56
535.511	475.56
535.726	493.56
535.94	498.56
536.154	490.56
536.369	467.56
536.583	474.56
536.797	474.56
537.011	467.56
537.225	476.56
537.44	471.56
537.654	466.56
537.868	465.56
538.082	454.56
538.296	465.56
538.51	456.56
538.724	483.56
538.938	465.56
539.153	470.56
539.367	477.56
539.581	476.56
539.795	467.56
540.009	459.56
540.222	449.56
540.436	442.56
540.65	479.56
540.864	462.56
541.078	461.56
541.292	492.56
541.506	471.56
541.72	456.56
541.934	471.56
542.147	467.56
542.361	472.56
542.575	446.56
542.789	464.56
543.002	444.56
543.216	460.56
543.43	478.56
543.644	453.56
543.857	478.56
544.071	460.56
544.285	464.56
544.498	462.56
544.712	471.56
544.925	472.56
545.139	492.56
545.352	480.56
545.566	490.56
545.779	477.56
545.993	465.56
546.206	458.56
546.42	481.56
546.633	461.56
546.847	448.56
547.06	441.56
547.274	457.56
547.487	459.56
547.7	469.56
547.914	467.56
548.127	489.56
548.34	455.56
548.554	455.56
548.767	459.56
548.98	477.56
549.193	464.56
549.407	446.56
549.62	481.56
549.833	466.56
550.046	439.56
550.259	455.56
550.473	448.56
550.686	474.56
550.899	447.56
551.112	454.56
551.325	449.56
551.538	444.56
551.751	444.56
551.964	447.56
552.177	456.56
552.39	471.56
552.603	453.56
552.816	481.56
553.029	495.56
553.242	495.56
553.455	477.56
553.667	486.56
553.88	487.56
554.093	478.56
554.306	479.56
554.519	471.56
554.732	467.56
554.944	455.56
555.157	434.56
555.37	425.56
555.583	431.56
555.795	468.56
556.008	437.56
556.221	423.56
556.433	420.56
556.646	425.56
556.859	408.56
557.071	391.56
557.284	407.56
557.496	408.56
557.709	417.56
557.921	401.56
558.134	397.56
558.346	387.56
558.559	406.56
558.771	390.56
558.984	407.56
559.196	397.56
559.409	413.56
559.621	391.56
559.833	420.56
560.046	403.56
560.258	399.56
560.47	381.56
560.683	398.56
560.895	406.56
561.107	406.56
561.32	382.56
561.532	395.56
561.744	394.56
561.956	403.56
562.168	406.56
562.381	411.56
562.593	424.56
562.805	406.56
563.017	394.56
563.229	411.56
563.441	405.56
563.653	403.56
563.865	437.56
564.077	409.56
564.289	429.56
564.501	448.56
564.713	435.56
564.925	444.56
565.137	448.56
565.349	454.56
565.561	483.56
565.773	473.56
565.985	474.56
566.197	516.56
566.408	494.56
566.62	543.56
566.832	565.56
567.044	572.56
567.255	574.56
567.467	568.56
567.679	589.56
567.891	589.56
568.102	612.56
568.314	612.56
568.526	583.56
568.737	556.56
568.949	495.56
569.161	467.56
569.372	454.56
569.584	437.56
569.795	442.56
570.007	446.56
570.218	447.56
570.43	439.56
570.641	418.56
570.853	389.56
571.064	420.56
571.276	415.56
571.487	409.56
571.698	385.56
571.91	393.56
572.121	374.56
572.333	375.56
572.544	378.56
572.755	371.56
572.966	379.56
573.178	372.56
573.389	365.56
573.6	351.56
573.811	359.56
574.023	359.56
574.234	362.56
574.445	345.56
574.656	369.56
574.867	376.56
575.078	359.56
575.289	342.56
575.501	357.56
575.712	340.56
575.923	348.56
576.134	353.56
576.345	359.56
576.556	349.56
576.767	353.56
576.978	353.56
577.188	351.56
577.399	334.56
577.61	349.56
577.821	317.56
578.032	331.56
578.243	345.56
578.454	478.56
578.665	369.56
578.875	346.56
579.086	324.56
579.297	334.56
579.508	331.56
579.718	332.56
579.929	328.56
580.14	346.56
580.35	315.56
580.561	305.56
580.772	322.56
580.982	322.56
581.193	313.56
581.403	312.56
581.614	319.56
581.825	311.56
582.035	321.56
582.246	326.56
582.456	325.56
582.667	310.56
582.877	330.56
583.087	324.56
583.298	338.56
583.508	320.56
583.719	318.56
583.929	302.56
584.139	297.56
584.35	296.56
584.56	307.56
584.77	298.56
584.981	305.56
585.191	317.56
585.401	305.56
585.611	307.56
585.821	298.56
586.032	302.56
586.242	314.56
586.452	306.56
586.662	310.56
586.872	293.56
587.082	298.56
587.292	293.56
587.502	311.56
587.713	316.56
587.923	289.56
588.133	313.56
588.343	316.56
588.553	307.56
588.762	286.56
588.972	302.56
589.182	305.56
589.392	317.56
589.602	308.56
589.812	322.56
590.022	322.56
590.232	300.56
590.441	297.56
590.651	295.56
590.861	313.56
591.071	326.56
591.281	330.56
591.49	317.56
591.7	322.56
591.91	313.56
592.119	318.56
592.329	335.56
592.539	333.56
592.748	335.56
592.958	335.56
593.167	344.56
593.377	347.56
593.587	345.56
593.796	340.56
594.006	361.56
594.215	358.56
594.424	361.56
594.634	345.56
594.843	330.56
595.053	326.56
595.262	324.56
595.472	323.56
595.681	319.56
595.89	305.56
596.1	306.56
596.309	310.56
596.518	317.56
596.727	290.56
596.937	289.56
597.146	298.56
597.355	292.56
597.564	278.56
597.774	289.56
597.983	265.56
598.192	281.56
598.401	285.56
598.61	291.56
598.819	288.56
599.028	290.56
599.237	278.56
599.446	273.56
599.655	285.56
599.864	272.56
600.073	278.56
600.282	261.56
600.491	270.56
600.7	278.56
600.909	284.56
601.118	266.56
601.327	261.56
601.536	259.56
601.745	250.56
601.953	278.56
602.162	275.56
602.371	273.56
602.58	279.56
602.789	265.56
602.997	250.56
603.206	258.56
603.415	263.56
603.623	272.56
603.832	263.56
604.041	249.56
604.249	263.56
604.458	235.56
604.666	245.56
604.875	265.56
605.084	245.56
605.292	253.56
605.501	259.56
605.709	262.56
605.918	251.56
606.126	261.56
606.334	251.56
606.543	255.56
606.751	250.56
606.96	250.56
607.168	245.56
607.376	265.56
607.585	257.56
607.793	248.56
608.001	270.56
608.21	255.56
608.418	251.56
608.626	254.56
608.834	262.56
609.043	264.56
609.251	236.56
609.459	258.56
609.667	252.56
609.875	245.56
610.083	262.56
610.291	236.56
610.499	234.56
610.707	260.56
610.916	260.56
611.124	255.56
611.332	263.56
611.54	269.56
611.748	265.56
611.955	265.56
612.163	235.56
612.371	256.56
612.579	248.56
612.787	250.56
612.995	251.56
613.203	248.56
613.411	245.56
613.618	261.56
613.826	246.56
614.034	243.56
614.242	238.56
614.449	253.56
614.657	239.56
614.865	234.56
615.072	232.56
615.28	250.56
615.488	263.56
615.695	244.56
615.903	254.56
616.111	247.56
616.318	257.56
616.526	238.56
616.733	254.56
616.941	253.56
617.148	249.56
617.356	241.56
617.563	250.56
617.771	229.56
617.978	230.56
618.185	245.56
618.393	267.56
618.6	255.56
618.807	245.56
619.015	239.56
619.222	243.56
619.429	228.56
619.637	237.56
619.844	231.56
620.051	235.56
620.258	242.56
620.466	227.56
620.673	222.56
620.88	236.56
621.087	227.56
621.294	233.56
621.501	223.56
621.708	236.56
621.915	243.56
622.122	213.56
622.329	231.56
622.536	230.56
622.743	236.56
622.95	222.56
623.157	206.56
623.364	231.56
623.571	227.56
623.778	228.56
623.985	230.56
624.192	219.56
624.399	227.56
624.606	233.56
624.812	225.56
625.019	226.56
625.226	217.56
625.433	219.56
625.639	217.56
625.846	210.56
626.053	225.56
626.259	231.56
626.466	238.56
626.673	232.56
626.879	218.56
627.086	217.56
627.293	216.56
627.499	202.56
627.706	205.56
627.912	221.56
628.119	205.56
628.325	202.56
628.532	210.56
628.738	210.56
628.945	218.56
629.151	202.56
629.357	203.56
629.564	198.56
629.77	203.56
629.976	218.56
630.183	196.56
630.389	190.56
630.595	209.56
630.802	206.56
631.008	202.56
631.214	210.56
631.42	196.56
631.627	202.56
631.833	202.56
632.039	182.56
632.245	196.56
632.451	205.56
632.657	206.56
632.863	177.56
633.069	203.56
633.275	210.56
633.481	183.56
633.688	167.56
633.893	200.56
634.099	195.56
634.305	186.56
634.511	189.56
634.717	172.56
634.923	182.56
635.129	197.56
635.335	175.56
635.541	193.56
635.747	195.56
635.952	184.56
636.158	171.56
636.364	184.56
636.57	180.56
636.775	187.56
636.981	187.56
637.187	198.56
637.392	195.56
637.598	178.56
637.804	197.56
638.009	194.56
638.215	185.56
638.421	161.56
638.626	177.56
638.832	186.56
639.037	182.56
639.243	185.56
639.448	191.56
639.654	180.56
639.859	165.56
640.065	173.56
640.27	174.56
640.475	189.56
640.681	151.56
640.886	181.56
641.091	177.56
641.297	177.56
641.502	178.56
641.707	187.56
641.913	173.56
642.118	169.56
642.323	185.56
642.528	189.56
642.733	173.56
642.939	188.56
643.144	179.56
643.349	182.56
643.554	151.56
643.759	165.56
643.964	175.56
644.169	181.56
644.374	160.56
644.579	176.56
644.784	169.56
644.989	168.56
645.194	166.56
645.399	180.56
645.604	177.56
645.809	180.56
646.014	185.56
646.219	177.56
646.423	178.56
646.628	184.56
646.833	171.56
647.038	167.56
647.243	179.56
647.447	177.56
647.652	184.56
647.857	184.56
648.062	173.56
648.266	177.56
648.471	181.56
648.676	189.56
648.88	163.56
649.085	172.56
649.289	162.56
649.494	170.56
649.698	170.56
649.903	179.56
650.107	182.56
650.312	184.56
650.516	149.56
650.721	174.56
650.925	175.56
651.13	166.56
651.334	169.56
651.539	137.56
651.743	136.56
651.947	171.56
652.152	164.56
652.356	158.56
652.56	156.56
652.764	148.56
652.969	149.56
653.173	165.56
653.377	144.56
653.581	147.56
653.785	142.56
653.99	146.56
654.194	140.56
654.398	138.56
654.602	145.56
654.806	142.56
655.01	151.56
655.214	128.56
655.418	136.56
655.622	146.56
655.826	137.56
656.03	126.56
656.234	125.56
656.438	134.56
656.642	121.56
656.846	146.56
657.049	130.56
657.253	127.56
657.457	120.56
657.661	129.56
657.865	114.56
658.068	110.56
658.272	120.56
658.476	113.56
658.68	97.56
658.883	101.56
659.087	96.56
659.291	96.56
659.494	106.56
659.698	86.56
659.901	98.56
660.105	106.56
660.309	93.56
660.512	89.56
660.716	92.56
660.919	100.56
661.123	97.56
661.326	81.56
661.53	88.56
661.733	92.56
661.936	90.56
662.14	90.56
662.343	80.56
662.546	72.56
662.75	83.56
662.953	94.56
663.156	97.56
663.36	100.56
663.563	105.56
663.766	87.56
663.969	92.56
664.173	67.56
664.376	81.56
664.579	80.56
664.782	93.56
664.985	84.56
665.188	79.56
665.391	81.56
665.594	83.56
665.797	90.56
666	85.56
666.203	93.56
666.406	87.56
666.609	84.56
666.812	71.56
667.015	71.56
667.218	86.56
667.421	83.56
667.624	87.56
667.827	89.56
668.03	78.56
668.232	87.56
668.435	84.56
668.638	85.56
668.841	82.56
669.043	78.56
669.246	85.56
669.449	86.56
669.651	84.56
669.854	86.56
670.057	95.56
670.259	78.56
670.462	81.56
670.665	90.56
670.867	87.56
671.07	84.56
671.272	85.56
671.475	82.56
671.677	77.56
671.88	101.56
672.082	88.56
672.284	76.56
672.487	70.56
672.689	73.56
672.892	79.56
