Data from 1973.PennyLincolnUp.Lamp.En5.5.200Scan.071719.P1.Changed Mount._HRD10591_15-44-22-852.txt Node
Date: Thu Jul 18 15:44:22 EDT 2019
User: cochatt
Spectrometer: HR+D1059
Trigger mode: 1
Integration Time (sec): 1.000000E-1
Scans to average: 1
Electric dark correction enabled: true
Nonlinearity correction enabled: false
Boxcar width: 0
XAxis mode: Wavelengths
Number of Pixels in Spectrum: 2048
>>>>>Begin Spectral Data<<<<<
223.165	-14.75
223.4	-14.75
223.635	-14.75
223.869	-28.75
224.104	-22.75
224.338	-11.75
224.573	-9.75
224.808	-13.75
225.042	0.25
225.277	-18.75
225.511	1.25
225.746	20.25
225.98	4.25
226.215	11.25
226.449	10.25
226.683	21.25
226.918	26.25
227.152	25.25
227.387	44.25
227.621	26.25
227.856	44.25
228.09	48.25
228.324	51.25
228.559	50.25
228.793	62.25
229.027	95.25
229.262	102.25
229.496	114.25
229.73	120.25
229.964	133.25
230.199	124.25
230.433	122.25
230.667	117.25
230.901	115.25
231.136	117.25
231.37	115.25
231.604	112.25
231.838	119.25
232.072	118.25
232.306	119.25
232.541	121.25
232.775	115.25
233.009	117.25
233.243	124.25
233.477	114.25
233.711	95.25
233.945	120.25
234.179	126.25
234.413	123.25
234.647	117.25
234.881	121.25
235.115	105.25
235.349	130.25
235.583	137.25
235.817	124.25
236.051	110.25
236.285	130.25
236.519	118.25
236.753	130.25
236.987	123.25
237.221	174.25
237.455	207.25
237.689	170.25
237.922	128.25
238.156	134.25
238.39	130.25
238.624	116.25
238.858	123.25
239.091	124.25
239.325	130.25
239.559	130.25
239.793	128.25
240.027	144.25
240.26	154.25
240.494	142.25
240.728	139.25
240.961	154.25
241.195	134.25
241.429	136.25
241.662	144.25
241.896	137.25
242.13	136.25
242.363	136.25
242.597	131.25
242.83	138.25
243.064	144.25
243.298	135.25
243.531	127.25
243.765	128.25
243.998	130.25
244.232	143.25
244.465	156.25
244.699	150.25
244.932	151.25
245.166	160.25
245.399	159.25
245.633	149.25
245.866	145.25
246.099	139.25
246.333	156.25
246.566	163.25
246.8	171.25
247.033	149.25
247.266	145.25
247.5	166.25
247.733	183.25
247.966	161.25
248.2	181.25
248.433	166.25
248.666	170.25
248.899	167.25
249.133	205.25
249.366	198.25
249.599	186.25
249.832	176.25
250.066	183.25
250.299	175.25
250.532	194.25
250.765	205.25
250.998	212.25
251.231	211.25
251.465	226.25
251.698	196.25
251.931	194.25
252.164	193.25
252.397	202.25
252.63	191.25
252.863	202.25
253.096	218.25
253.329	220.25
253.562	216.25
253.795	191.25
254.028	211.25
254.261	219.25
254.494	222.25
254.727	242.25
254.96	269.25
255.193	250.25
255.426	244.25
255.659	228.25
255.892	246.25
256.124	234.25
256.357	229.25
256.59	215.25
256.823	213.25
257.056	208.25
257.289	208.25
257.521	191.25
257.754	200.25
257.987	208.25
258.22	217.25
258.452	228.25
258.685	208.25
258.918	201.25
259.151	184.25
259.383	218.25
259.616	231.25
259.849	237.25
260.081	233.25
260.314	264.25
260.547	248.25
260.779	235.25
261.012	238.25
261.244	238.25
261.477	221.25
261.71	234.25
261.942	220.25
262.175	228.25
262.407	222.25
262.64	224.25
262.872	223.25
263.105	222.25
263.337	220.25
263.57	220.25
263.802	233.25
264.035	222.25
264.267	214.25
264.499	210.25
264.732	224.25
264.964	231.25
265.197	224.25
265.429	217.25
265.661	217.25
265.894	228.25
266.126	227.25
266.358	221.25
266.591	235.25
266.823	231.25
267.055	232.25
267.287	231.25
267.52	236.25
267.752	249.25
267.984	248.25
268.216	244.25
268.448	252.25
268.681	250.25
268.913	246.25
269.145	269.25
269.377	269.25
269.609	287.25
269.841	273.25
270.073	271.25
270.306	294.25
270.538	311.25
270.77	320.25
271.002	302.25
271.234	283.25
271.466	276.25
271.698	300.25
271.93	300.25
272.162	325.25
272.394	306.25
272.626	302.25
272.858	308.25
273.09	291.25
273.322	273.25
273.553	259.25
273.785	285.25
274.017	260.25
274.249	270.25
274.481	273.25
274.713	283.25
274.945	275.25
275.176	277.25
275.408	274.25
275.64	280.25
275.872	262.25
276.104	276.25
276.335	279.25
276.567	276.25
276.799	294.25
277.031	298.25
277.262	328.25
277.494	332.25
277.726	300.25
277.957	299.25
278.189	287.25
278.421	300.25
278.652	277.25
278.884	285.25
279.115	295.25
279.347	260.25
279.579	284.25
279.81	278.25
280.042	278.25
280.273	278.25
280.505	293.25
280.736	293.25
280.968	284.25
281.199	270.25
281.431	293.25
281.662	287.25
281.894	272.25
282.125	290.25
282.356	324.25
282.588	310.25
282.819	308.25
283.051	299.25
283.282	292.25
283.513	289.25
283.745	299.25
283.976	316.25
284.207	300.25
284.439	301.25
284.67	285.25
284.901	306.25
285.132	324.25
285.364	318.25
285.595	308.25
285.826	300.25
286.057	307.25
286.288	296.25
286.52	286.25
286.751	318.25
286.982	304.25
287.213	298.25
287.444	317.25
287.675	313.25
287.906	318.25
288.138	316.25
288.369	340.25
288.6	333.25
288.831	306.25
289.062	334.25
289.293	324.25
289.524	307.25
289.755	300.25
289.986	322.25
290.217	317.25
290.448	315.25
290.679	327.25
290.91	310.25
291.141	306.25
291.371	316.25
291.602	328.25
291.833	306.25
292.064	310.25
292.295	298.25
292.526	316.25
292.757	304.25
292.987	307.25
293.218	311.25
293.449	332.25
293.68	308.25
293.91	316.25
294.141	307.25
294.372	324.25
294.603	300.25
294.833	329.25
295.064	323.25
295.295	319.25
295.525	336.25
295.756	324.25
295.987	318.25
296.217	333.25
296.448	335.25
296.679	343.25
296.909	326.25
297.14	289.25
297.37	332.25
297.601	321.25
297.831	319.25
298.062	333.25
298.292	344.25
298.523	355.25
298.753	334.25
298.984	351.25
299.214	326.25
299.445	342.25
299.675	356.25
299.905	336.25
300.136	333.25
300.366	331.25
300.597	324.25
300.827	348.25
301.057	362.25
301.288	352.25
301.518	340.25
301.748	338.25
301.979	345.25
302.209	373.25
302.439	320.25
302.669	347.25
302.9	345.25
303.13	349.25
303.36	368.25
303.59	358.25
303.82	350.25
304.051	375.25
304.281	385.25
304.511	352.25
304.741	351.25
304.971	335.25
305.201	358.25
305.431	352.25
305.661	371.25
305.891	346.25
306.121	338.25
306.352	365.25
306.582	345.25
306.812	337.25
307.042	366.25
307.272	339.25
307.502	345.25
307.731	365.25
307.961	353.25
308.191	346.25
308.421	358.25
308.651	361.25
308.881	353.25
309.111	386.25
309.341	355.25
309.571	372.25
309.8	370.25
310.03	368.25
310.26	384.25
310.49	376.25
310.72	378.25
310.949	387.25
311.179	387.25
311.409	365.25
311.639	380.25
311.868	408.25
312.098	388.25
312.328	384.25
312.557	376.25
312.787	402.25
313.017	399.25
313.246	405.25
313.476	406.25
313.706	381.25
313.935	393.25
314.165	418.25
314.394	397.25
314.624	401.25
314.853	417.25
315.083	403.25
315.312	394.25
315.542	379.25
315.771	387.25
316.001	384.25
316.23	404.25
316.46	395.25
316.689	395.25
316.919	395.25
317.148	407.25
317.377	392.25
317.607	394.25
317.836	410.25
318.065	394.25
318.295	383.25
318.524	397.25
318.753	368.25
318.983	378.25
319.212	391.25
319.441	402.25
319.67	395.25
319.9	396.25
320.129	389.25
320.358	405.25
320.587	391.25
320.816	401.25
321.046	405.25
321.275	421.25
321.504	415.25
321.733	390.25
321.962	406.25
322.191	415.25
322.42	420.25
322.649	438.25
322.878	441.25
323.108	434.25
323.337	443.25
323.566	447.25
323.795	498.25
324.024	503.25
324.253	539.25
324.482	732.25
324.71	1047.25
324.939	1425.25
325.168	1304.25
325.397	719.25
325.626	555.25
325.855	488.25
326.084	465.25
326.313	446.25
326.542	457.25
326.77	481.25
326.999	556.25
327.228	734.25
327.457	960.25
327.686	1152.25
327.914	818.25
328.143	597.25
328.372	549.25
328.6	527.25
328.829	476.25
329.058	517.25
329.287	520.25
329.515	486.25
329.744	476.25
329.972	476.25
330.201	490.25
330.43	523.25
330.658	530.25
330.887	537.25
331.115	535.25
331.344	510.25
331.572	475.25
331.801	457.25
332.03	486.25
332.258	478.25
332.486	495.25
332.715	474.25
332.943	492.25
333.172	501.25
333.4	506.25
333.629	502.25
333.857	543.25
334.085	516.25
334.314	508.25
334.542	535.25
334.771	550.25
334.999	516.25
335.227	487.25
335.455	506.25
335.684	460.25
335.912	467.25
336.14	472.25
336.369	483.25
336.597	486.25
336.825	488.25
337.053	473.25
337.281	461.25
337.51	469.25
337.738	482.25
337.966	472.25
338.194	459.25
338.422	458.25
338.65	467.25
338.878	458.25
339.106	452.25
339.334	474.25
339.562	451.25
339.79	430.25
340.018	459.25
340.246	464.25
340.474	430.25
340.702	422.25
340.93	447.25
341.158	438.25
341.386	448.25
341.614	456.25
341.842	455.25
342.07	429.25
342.298	443.25
342.526	432.25
342.754	458.25
342.981	442.25
343.209	463.25
343.437	438.25
343.665	463.25
343.893	473.25
344.12	459.25
344.348	468.25
344.576	462.25
344.804	465.25
345.031	456.25
345.259	461.25
345.487	449.25
345.714	434.25
345.942	426.25
346.17	443.25
346.397	429.25
346.625	438.25
346.853	418.25
347.08	408.25
347.308	424.25
347.535	439.25
347.763	416.25
347.99	430.25
348.218	429.25
348.445	420.25
348.673	437.25
348.9	416.25
349.128	415.25
349.355	421.25
349.583	415.25
349.81	400.25
350.037	424.25
350.265	425.25
350.492	416.25
350.72	400.25
350.947	410.25
351.174	414.25
351.402	430.25
351.629	422.25
351.856	413.25
352.083	442.25
352.311	449.25
352.538	417.25
352.765	424.25
352.992	428.25
353.22	405.25
353.447	406.25
353.674	416.25
353.901	409.25
354.128	390.25
354.355	393.25
354.583	383.25
354.81	383.25
355.037	405.25
355.264	414.25
355.491	391.25
355.718	388.25
355.945	412.25
356.172	399.25
356.399	399.25
356.626	382.25
356.853	388.25
357.08	413.25
357.307	411.25
357.534	387.25
357.761	397.25
357.988	390.25
358.215	399.25
358.441	389.25
358.668	382.25
358.895	403.25
359.122	400.25
359.349	411.25
359.576	426.25
359.802	437.25
360.029	424.25
360.256	474.25
360.483	451.25
360.709	421.25
360.936	423.25
361.163	422.25
361.39	421.25
361.616	439.25
361.843	412.25
362.07	416.25
362.296	406.25
362.523	406.25
362.749	440.25
362.976	419.25
363.203	425.25
363.429	397.25
363.656	419.25
363.882	392.25
364.109	418.25
364.335	406.25
364.562	388.25
364.788	412.25
365.015	410.25
365.241	409.25
365.468	418.25
365.694	399.25
365.92	409.25
366.147	407.25
366.373	410.25
366.599	420.25
366.826	411.25
367.052	422.25
367.278	404.25
367.505	402.25
367.731	415.25
367.957	400.25
368.184	391.25
368.41	413.25
368.636	425.25
368.862	420.25
369.089	419.25
369.315	407.25
369.541	413.25
369.767	414.25
369.993	400.25
370.219	398.25
370.445	398.25
370.672	401.25
370.898	415.25
371.124	416.25
371.35	437.25
371.576	404.25
371.802	397.25
372.028	415.25
372.254	408.25
372.48	416.25
372.706	436.25
372.932	426.25
373.158	438.25
373.384	440.25
373.61	421.25
373.835	427.25
374.061	410.25
374.287	429.25
374.513	417.25
374.739	463.25
374.965	450.25
375.191	420.25
375.416	430.25
375.642	419.25
375.868	440.25
376.094	429.25
376.319	412.25
376.545	435.25
376.771	425.25
376.997	408.25
377.222	422.25
377.448	415.25
377.674	410.25
377.899	410.25
378.125	408.25
378.35	419.25
378.576	410.25
378.802	405.25
379.027	417.25
379.253	431.25
379.478	415.25
379.704	426.25
379.929	414.25
380.155	427.25
380.38	422.25
380.606	410.25
380.831	415.25
381.057	408.25
381.282	399.25
381.507	406.25
381.733	418.25
381.958	423.25
382.184	431.25
382.409	438.25
382.634	437.25
382.86	415.25
383.085	431.25
383.31	419.25
383.535	432.25
383.761	444.25
383.986	452.25
384.211	459.25
384.436	461.25
384.662	454.25
384.887	458.25
385.112	478.25
385.337	456.25
385.562	485.25
385.787	471.25
386.013	469.25
386.238	472.25
386.463	490.25
386.688	481.25
386.913	452.25
387.138	469.25
387.363	464.25
387.588	467.25
387.813	468.25
388.038	447.25
388.263	460.25
388.488	468.25
388.713	469.25
388.938	453.25
389.163	473.25
389.387	469.25
389.612	466.25
389.837	444.25
390.062	460.25
390.287	471.25
390.512	438.25
390.736	464.25
390.961	476.25
391.186	500.25
391.411	476.25
391.636	480.25
391.86	494.25
392.085	481.25
392.31	491.25
392.534	488.25
392.759	505.25
392.984	455.25
393.208	486.25
393.433	478.25
393.658	462.25
393.882	493.25
394.107	482.25
394.331	477.25
394.556	485.25
394.78	492.25
395.005	500.25
395.229	475.25
395.454	492.25
395.678	492.25
395.903	501.25
396.127	518.25
396.352	530.25
396.576	481.25
396.801	500.25
397.025	489.25
397.249	491.25
397.474	491.25
397.698	507.25
397.922	527.25
398.147	533.25
398.371	524.25
398.595	519.25
398.82	564.25
399.044	586.25
399.268	568.25
399.492	634.25
399.717	680.25
399.941	709.25
400.165	724.25
400.389	704.25
400.613	614.25
400.837	586.25
401.062	567.25
401.286	564.25
401.51	571.25
401.734	529.25
401.958	540.25
402.182	524.25
402.406	554.25
402.63	548.25
402.854	562.25
403.078	575.25
403.302	564.25
403.526	572.25
403.75	578.25
403.974	582.25
404.198	577.25
404.422	589.25
404.645	582.25
404.869	581.25
405.093	615.25
405.317	642.25
405.541	648.25
405.765	629.25
405.988	591.25
406.212	584.25
406.436	596.25
406.66	650.25
406.883	600.25
407.107	660.25
407.331	671.25
407.555	755.25
407.778	777.25
408.002	706.25
408.226	650.25
408.449	616.25
408.673	623.25
408.896	644.25
409.12	668.25
409.344	652.25
409.567	591.25
409.791	558.25
410.014	572.25
410.238	578.25
410.461	578.25
410.685	576.25
410.908	586.25
411.132	614.25
411.355	633.25
411.578	599.25
411.802	576.25
412.025	553.25
412.249	568.25
412.472	594.25
412.695	626.25
412.919	606.25
413.142	573.25
413.365	544.25
413.589	552.25
413.812	554.25
414.035	539.25
414.258	547.25
414.482	550.25
414.705	550.25
414.928	545.25
415.151	556.25
415.374	551.25
415.597	545.25
415.821	526.25
416.044	549.25
416.267	546.25
416.49	548.25
416.713	555.25
416.936	531.25
417.159	543.25
417.382	544.25
417.605	528.25
417.828	567.25
418.051	568.25
418.274	539.25
418.497	550.25
418.72	546.25
418.943	546.25
419.166	580.25
419.389	586.25
419.611	597.25
419.834	588.25
420.057	586.25
420.28	563.25
420.503	566.25
420.726	566.25
420.948	584.25
421.171	598.25
421.394	605.25
421.617	557.25
421.839	564.25
422.062	551.25
422.285	546.25
422.507	602.25
422.73	689.25
422.953	681.25
423.175	620.25
423.398	595.25
423.621	564.25
423.843	594.25
424.066	591.25
424.288	590.25
424.511	589.25
424.733	666.25
424.956	708.25
425.178	697.25
425.401	699.25
425.623	714.25
425.846	597.25
426.068	578.25
426.291	548.25
426.513	582.25
426.735	571.25
426.958	601.25
427.18	659.25
427.402	774.25
427.625	829.25
427.847	711.25
428.069	660.25
428.292	583.25
428.514	555.25
428.736	553.25
428.958	558.25
429.181	526.25
429.403	535.25
429.625	523.25
429.847	564.25
430.069	634.25
430.292	626.25
430.514	540.25
430.736	527.25
430.958	532.25
431.18	528.25
431.402	493.25
431.624	498.25
431.846	504.25
432.068	510.25
432.29	526.25
432.512	504.25
432.734	513.25
432.956	532.25
433.178	519.25
433.4	487.25
433.622	517.25
433.844	500.25
434.066	532.25
434.287	529.25
434.509	526.25
434.731	540.25
434.953	558.25
435.175	560.25
435.397	587.25
435.618	568.25
435.84	591.25
436.062	667.25
436.284	724.25
436.505	627.25
436.727	579.25
436.949	548.25
437.17	548.25
437.392	519.25
437.614	514.25
437.835	531.25
438.057	629.25
438.278	702.25
438.5	734.25
438.721	771.25
438.943	726.25
439.165	605.25
439.386	553.25
439.608	566.25
439.829	584.25
440.05	567.25
440.272	632.25
440.493	566.25
440.715	546.25
440.936	548.25
441.158	548.25
441.379	532.25
441.6	566.25
441.822	557.25
442.043	595.25
442.264	673.25
442.486	687.25
442.707	623.25
442.928	602.25
443.149	607.25
443.371	588.25
443.592	644.25
443.813	720.25
444.034	770.25
444.255	660.25
444.476	615.25
444.698	635.25
444.919	619.25
445.14	685.25
445.361	660.25
445.582	626.25
445.803	650.25
446.024	730.25
446.245	732.25
446.466	673.25
446.687	597.25
446.908	563.25
447.129	522.25
447.35	526.25
447.571	538.25
447.792	503.25
448.013	518.25
448.234	529.25
448.455	570.25
448.675	686.25
448.896	763.25
449.117	660.25
449.338	599.25
449.559	692.25
449.779	818.25
450	663.25
450.221	557.25
450.442	527.25
450.662	500.25
450.883	484.25
451.104	505.25
451.324	507.25
451.545	489.25
451.766	455.25
451.986	474.25
452.207	486.25
452.428	469.25
452.648	468.25
452.869	476.25
453.089	468.25
453.31	461.25
453.53	469.25
453.751	465.25
453.971	459.25
454.192	464.25
454.412	467.25
454.633	461.25
454.853	455.25
455.073	452.25
455.294	495.25
455.514	516.25
455.734	518.25
455.955	463.25
456.175	459.25
456.395	445.25
456.616	449.25
456.836	435.25
457.056	442.25
457.276	432.25
457.497	437.25
457.717	431.25
457.937	458.25
458.157	450.25
458.377	463.25
458.598	473.25
458.818	499.25
459.038	564.25
459.258	590.25
459.478	550.25
459.698	535.25
459.918	514.25
460.138	535.25
460.358	518.25
460.578	537.25
460.798	553.25
461.018	536.25
461.238	533.25
461.458	546.25
461.678	538.25
461.898	566.25
462.118	543.25
462.338	569.25
462.558	571.25
462.777	572.25
462.997	599.25
463.217	630.25
463.437	632.25
463.657	600.25
463.876	596.25
464.096	603.25
464.316	578.25
464.536	591.25
464.755	560.25
464.975	575.25
465.195	580.25
465.414	630.25
465.634	557.25
465.854	530.25
466.073	514.25
466.293	507.25
466.512	478.25
466.732	475.25
466.951	486.25
467.171	487.25
467.391	494.25
467.61	490.25
467.829	475.25
468.049	485.25
468.268	469.25
468.488	505.25
468.707	491.25
468.927	478.25
469.146	483.25
469.365	471.25
469.585	484.25
469.804	483.25
470.023	504.25
470.243	503.25
470.462	502.25
470.681	507.25
470.901	500.25
471.12	495.25
471.339	505.25
471.558	496.25
471.777	488.25
471.997	481.25
472.216	489.25
472.435	492.25
472.654	498.25
472.873	484.25
473.092	476.25
473.311	482.25
473.53	474.25
473.749	476.25
473.968	511.25
474.187	606.25
474.406	599.25
474.625	538.25
474.844	481.25
475.063	509.25
475.282	486.25
475.501	491.25
475.72	483.25
475.939	462.25
476.158	491.25
476.377	493.25
476.596	516.25
476.814	497.25
477.033	492.25
477.252	500.25
477.471	535.25
477.69	507.25
477.908	554.25
478.127	534.25
478.346	542.25
478.564	555.25
478.783	544.25
479.002	577.25
479.22	559.25
479.439	555.25
479.658	589.25
479.876	596.25
480.095	598.25
480.313	610.25
480.532	618.25
480.751	622.25
480.969	628.25
481.188	665.25
481.406	655.25
481.624	612.25
481.843	596.25
482.061	559.25
482.28	570.25
482.498	573.25
482.717	548.25
482.935	562.25
483.153	559.25
483.372	542.25
483.59	572.25
483.808	567.25
484.027	567.25
484.245	564.25
484.463	577.25
484.681	570.25
484.9	588.25
485.118	553.25
485.336	577.25
485.554	579.25
485.772	591.25
485.99	578.25
486.209	570.25
486.427	580.25
486.645	567.25
486.863	601.25
487.081	614.25
487.299	599.25
487.517	607.25
487.735	614.25
487.953	607.25
488.171	564.25
488.389	589.25
488.607	599.25
488.825	584.25
489.043	606.25
489.261	612.25
489.479	605.25
489.696	620.25
489.914	605.25
490.132	604.25
490.35	629.25
490.568	662.25
490.786	630.25
491.003	637.25
491.221	643.25
491.439	673.25
491.657	666.25
491.874	689.25
492.092	656.25
492.31	678.25
492.527	651.25
492.745	687.25
492.963	698.25
493.18	686.25
493.398	686.25
493.615	695.25
493.833	692.25
494.05	693.25
494.268	707.25
494.485	685.25
494.703	704.25
494.92	695.25
495.138	711.25
495.355	714.25
495.573	713.25
495.79	706.25
496.008	702.25
496.225	710.25
496.442	712.25
496.66	719.25
496.877	720.25
497.094	732.25
497.312	739.25
497.529	732.25
497.746	749.25
497.963	749.25
498.181	783.25
498.398	792.25
498.615	810.25
498.832	836.25
499.049	871.25
499.267	892.25
499.484	984.25
499.701	1002.25
499.918	1055.25
500.135	1151.25
500.352	1224.25
500.569	1246.25
500.786	1224.25
501.003	1198.25
501.22	1119.25
501.437	1078.25
501.654	1026.25
501.871	973.25
502.088	934.25
502.305	875.25
502.522	837.25
502.739	832.25
502.956	781.25
503.172	743.25
503.389	773.25
503.606	738.25
503.823	749.25
504.04	738.25
504.256	723.25
504.473	724.25
504.69	718.25
504.907	728.25
505.123	707.25
505.34	683.25
505.557	674.25
505.773	681.25
505.99	683.25
506.207	645.25
506.423	652.25
506.64	658.25
506.856	629.25
507.073	657.25
507.289	636.25
507.506	610.25
507.722	630.25
507.939	629.25
508.155	619.25
508.372	604.25
508.588	605.25
508.805	636.25
509.021	614.25
509.238	631.25
509.454	634.25
509.67	610.25
509.887	616.25
510.103	599.25
510.319	615.25
510.536	664.25
510.752	925.25
510.968	793.25
511.184	590.25
511.401	590.25
511.617	580.25
511.833	579.25
512.049	583.25
512.265	568.25
512.481	578.25
512.698	568.25
512.914	551.25
513.13	553.25
513.346	571.25
513.562	557.25
513.778	588.25
513.994	586.25
514.21	607.25
514.426	593.25
514.642	622.25
514.858	638.25
515.074	642.25
515.29	720.25
515.506	951.25
515.721	863.25
515.937	661.25
516.153	627.25
516.369	605.25
516.585	609.25
516.801	597.25
517.016	611.25
517.232	626.25
517.448	646.25
517.664	660.25
517.879	667.25
518.095	644.25
518.311	660.25
518.527	636.25
518.742	636.25
518.958	606.25
519.173	614.25
519.389	581.25
519.605	575.25
519.82	598.25
520.036	597.25
520.251	590.25
520.467	598.25
520.682	592.25
520.898	581.25
521.113	605.25
521.329	605.25
521.544	650.25
521.76	736.25
521.975	1135.25
522.19	1106.25
522.406	662.25
522.621	603.25
522.836	569.25
523.052	558.25
523.267	526.25
523.482	540.25
523.698	518.25
523.913	531.25
524.128	536.25
524.343	509.25
524.559	509.25
524.774	498.25
524.989	495.25
525.204	506.25
525.419	516.25
525.634	518.25
525.849	494.25
526.064	493.25
526.28	500.25
526.495	487.25
526.71	494.25
526.925	462.25
527.14	490.25
527.355	469.25
527.57	475.25
527.785	465.25
527.999	494.25
528.214	485.25
528.429	486.25
528.644	485.25
528.859	483.25
529.074	485.25
529.289	526.25
529.503	536.25
529.718	519.25
529.933	479.25
530.148	458.25
530.363	489.25
530.577	519.25
530.792	481.25
531.007	486.25
531.221	484.25
531.436	474.25
531.651	475.25
531.865	470.25
532.08	473.25
532.295	457.25
532.509	497.25
532.724	493.25
532.938	472.25
533.153	484.25
533.367	488.25
533.582	471.25
533.796	466.25
534.011	467.25
534.225	449.25
534.44	475.25
534.654	470.25
534.868	469.25
535.083	475.25
535.297	480.25
535.511	490.25
535.726	475.25
535.94	474.25
536.154	456.25
536.369	461.25
536.583	447.25
536.797	442.25
537.011	449.25
537.225	457.25
537.44	469.25
537.654	470.25
537.868	451.25
538.082	450.25
538.296	454.25
538.51	458.25
538.724	460.25
538.938	477.25
539.153	446.25
539.367	460.25
539.581	461.25
539.795	460.25
540.009	447.25
540.222	451.25
540.436	472.25
540.65	448.25
540.864	459.25
541.078	452.25
541.292	457.25
541.506	451.25
541.72	448.25
541.934	468.25
542.147	469.25
542.361	455.25
542.575	425.25
542.789	453.25
543.002	443.25
543.216	445.25
543.43	438.25
543.644	452.25
543.857	450.25
544.071	460.25
544.285	476.25
544.498	447.25
544.712	442.25
544.925	472.25
545.139	427.25
545.352	434.25
545.566	439.25
545.779	447.25
545.993	465.25
546.206	444.25
546.42	462.25
546.633	452.25
546.847	450.25
547.06	443.25
547.274	434.25
547.487	433.25
547.7	436.25
547.914	475.25
548.127	441.25
548.34	450.25
548.554	453.25
548.767	467.25
548.98	432.25
549.193	453.25
549.407	429.25
549.62	421.25
549.833	440.25
550.046	445.25
550.259	450.25
550.473	453.25
550.686	446.25
550.899	440.25
551.112	439.25
551.325	437.25
551.538	446.25
551.751	432.25
551.964	450.25
552.177	447.25
552.39	437.25
552.603	478.25
552.816	462.25
553.029	479.25
553.242	472.25
553.455	477.25
553.667	490.25
553.88	466.25
554.093	441.25
554.306	450.25
554.519	486.25
554.732	460.25
554.944	455.25
555.157	456.25
555.37	421.25
555.583	441.25
555.795	440.25
556.008	431.25
556.221	423.25
556.433	414.25
556.646	415.25
556.859	406.25
557.071	422.25
557.284	394.25
557.496	380.25
557.709	413.25
557.921	400.25
558.134	399.25
558.346	412.25
558.559	391.25
558.771	389.25
558.984	417.25
559.196	389.25
559.409	413.25
559.621	389.25
559.833	390.25
560.046	384.25
560.258	403.25
560.47	396.25
560.683	392.25
560.895	381.25
561.107	396.25
561.32	396.25
561.532	392.25
561.744	387.25
561.956	384.25
562.168	382.25
562.381	397.25
562.593	411.25
562.805	405.25
563.017	387.25
563.229	418.25
563.441	401.25
563.653	421.25
563.865	409.25
564.077	389.25
564.289	420.25
564.501	410.25
564.713	404.25
564.925	414.25
565.137	443.25
565.349	442.25
565.561	458.25
565.773	446.25
565.985	454.25
566.197	476.25
566.408	525.25
566.62	508.25
566.832	556.25
567.044	548.25
567.255	543.25
567.467	576.25
567.679	585.25
567.891	586.25
568.102	576.25
568.314	580.25
568.526	568.25
568.737	516.25
568.949	490.25
569.161	478.25
569.372	462.25
569.584	454.25
569.795	417.25
570.007	427.25
570.218	407.25
570.43	426.25
570.641	431.25
570.853	416.25
571.064	424.25
571.276	404.25
571.487	409.25
571.698	388.25
571.91	384.25
572.121	376.25
572.333	357.25
572.544	349.25
572.755	368.25
572.966	347.25
573.178	362.25
573.389	332.25
573.6	359.25
573.811	362.25
574.023	341.25
574.234	331.25
574.445	351.25
574.656	352.25
574.867	356.25
575.078	333.25
575.289	352.25
575.501	335.25
575.712	342.25
575.923	339.25
576.134	346.25
576.345	347.25
576.556	328.25
576.767	344.25
576.978	350.25
577.188	340.25
577.399	356.25
577.61	333.25
577.821	333.25
578.032	338.25
578.243	338.25
578.454	501.25
578.665	383.25
578.875	324.25
579.086	324.25
579.297	328.25
579.508	332.25
579.718	312.25
579.929	318.25
580.14	291.25
580.35	322.25
580.561	304.25
580.772	313.25
580.982	325.25
581.193	302.25
581.403	312.25
581.614	316.25
581.825	319.25
582.035	298.25
582.246	300.25
582.456	308.25
582.667	301.25
582.877	285.25
583.087	293.25
583.298	296.25
583.508	319.25
583.719	315.25
583.929	300.25
584.139	301.25
584.35	299.25
584.56	308.25
584.77	306.25
584.981	312.25
585.191	310.25
585.401	314.25
585.611	324.25
585.821	306.25
586.032	295.25
586.242	297.25
586.452	303.25
586.662	308.25
586.872	306.25
587.082	325.25
587.292	302.25
587.502	308.25
587.713	317.25
587.923	309.25
588.133	292.25
588.343	302.25
588.553	296.25
588.762	308.25
588.972	306.25
589.182	301.25
589.392	302.25
589.602	313.25
589.812	306.25
590.022	302.25
590.232	300.25
590.441	320.25
590.651	296.25
590.861	300.25
591.071	307.25
591.281	313.25
591.49	301.25
591.7	306.25
591.91	314.25
592.119	322.25
592.329	330.25
592.539	329.25
592.748	328.25
592.958	336.25
593.167	327.25
593.377	345.25
593.587	362.25
593.796	348.25
594.006	336.25
594.215	349.25
594.424	344.25
594.634	340.25
594.843	337.25
595.053	325.25
595.262	324.25
595.472	320.25
595.681	307.25
595.89	311.25
596.1	307.25
596.309	306.25
596.518	297.25
596.727	287.25
596.937	286.25
597.146	287.25
597.355	274.25
597.564	296.25
597.774	282.25
597.983	268.25
598.192	298.25
598.401	286.25
598.61	260.25
598.819	280.25
599.028	276.25
599.237	253.25
599.446	268.25
599.655	280.25
599.864	262.25
600.073	275.25
600.282	280.25
600.491	282.25
600.7	286.25
600.909	268.25
601.118	271.25
601.327	269.25
601.536	258.25
601.745	269.25
601.953	274.25
602.162	268.25
602.371	278.25
602.58	254.25
602.789	259.25
602.997	267.25
603.206	263.25
603.415	266.25
603.623	257.25
603.832	258.25
604.041	260.25
604.249	260.25
604.458	265.25
604.666	247.25
604.875	261.25
605.084	271.25
605.292	254.25
605.501	251.25
605.709	237.25
605.918	239.25
606.126	265.25
606.334	258.25
606.543	260.25
606.751	245.25
606.96	252.25
607.168	264.25
607.376	243.25
607.585	243.25
607.793	271.25
608.001	245.25
608.21	227.25
608.418	252.25
608.626	234.25
608.834	256.25
609.043	256.25
609.251	248.25
609.459	242.25
609.667	252.25
609.875	236.25
610.083	258.25
610.291	232.25
610.499	243.25
610.707	239.25
610.916	232.25
611.124	266.25
611.332	264.25
611.54	245.25
611.748	252.25
611.955	239.25
612.163	236.25
612.371	248.25
612.579	228.25
612.787	237.25
612.995	252.25
613.203	237.25
613.411	244.25
613.618	234.25
613.826	230.25
614.034	239.25
614.242	235.25
614.449	225.25
614.657	245.25
614.865	226.25
615.072	245.25
615.28	241.25
615.488	238.25
615.695	258.25
615.903	244.25
616.111	249.25
616.318	244.25
616.526	234.25
616.733	239.25
616.941	246.25
617.148	246.25
617.356	239.25
617.563	238.25
617.771	256.25
617.978	230.25
618.185	231.25
618.393	240.25
618.6	238.25
618.807	256.25
619.015	234.25
619.222	235.25
619.429	236.25
619.637	231.25
619.844	248.25
620.051	237.25
620.258	219.25
620.466	224.25
620.673	212.25
620.88	233.25
621.087	235.25
621.294	225.25
621.501	227.25
621.708	222.25
621.915	216.25
622.122	215.25
622.329	231.25
622.536	220.25
622.743	229.25
622.95	237.25
623.157	225.25
623.364	216.25
623.571	225.25
623.778	222.25
623.985	215.25
624.192	221.25
624.399	222.25
624.606	217.25
624.812	216.25
625.019	211.25
625.226	216.25
625.433	223.25
625.639	224.25
625.846	208.25
626.053	225.25
626.259	205.25
626.466	199.25
626.673	202.25
626.879	207.25
627.086	201.25
627.293	196.25
627.499	194.25
627.706	195.25
627.912	216.25
628.119	215.25
628.325	196.25
628.532	196.25
628.738	220.25
628.945	213.25
629.151	200.25
629.357	197.25
629.564	206.25
629.77	207.25
629.976	193.25
630.183	197.25
630.389	201.25
630.595	196.25
630.802	208.25
631.008	200.25
631.214	191.25
631.42	202.25
631.627	214.25
631.833	191.25
632.039	191.25
632.245	196.25
632.451	213.25
632.657	192.25
632.863	183.25
633.069	192.25
633.275	196.25
633.481	192.25
633.688	198.25
633.893	192.25
634.099	180.25
634.305	200.25
634.511	204.25
634.717	174.25
634.923	186.25
635.129	185.25
635.335	192.25
635.541	179.25
635.747	187.25
635.952	187.25
636.158	190.25
636.364	195.25
636.57	190.25
636.775	183.25
636.981	192.25
637.187	177.25
637.392	188.25
637.598	192.25
637.804	180.25
638.009	180.25
638.215	188.25
638.421	181.25
638.626	184.25
638.832	183.25
639.037	180.25
639.243	191.25
639.448	171.25
639.654	172.25
639.859	175.25
640.065	178.25
640.27	175.25
640.475	176.25
640.681	167.25
640.886	190.25
641.091	173.25
641.297	193.25
641.502	170.25
641.707	172.25
641.913	176.25
642.118	170.25
642.323	176.25
642.528	183.25
642.733	177.25
642.939	158.25
643.144	177.25
643.349	178.25
643.554	185.25
643.759	164.25
643.964	162.25
644.169	179.25
644.374	166.25
644.579	172.25
644.784	175.25
644.989	161.25
645.194	156.25
645.399	175.25
645.604	184.25
645.809	176.25
646.014	171.25
646.219	164.25
646.423	167.25
646.628	168.25
646.833	187.25
647.038	184.25
647.243	196.25
647.447	185.25
647.652	183.25
647.857	175.25
648.062	194.25
648.266	183.25
648.471	171.25
648.676	183.25
648.88	158.25
649.085	173.25
649.289	188.25
649.494	186.25
649.698	171.25
649.903	188.25
650.107	169.25
650.312	173.25
650.516	162.25
650.721	154.25
650.925	151.25
651.13	163.25
651.334	163.25
651.539	155.25
651.743	151.25
651.947	158.25
652.152	150.25
652.356	146.25
652.56	151.25
652.764	161.25
652.969	152.25
653.173	143.25
653.377	155.25
653.581	148.25
653.785	144.25
653.99	140.25
654.194	146.25
654.398	119.25
654.602	131.25
654.806	148.25
655.01	146.25
655.214	152.25
655.418	130.25
655.622	132.25
655.826	136.25
656.03	151.25
656.234	147.25
656.438	143.25
656.642	135.25
656.846	146.25
657.049	130.25
657.253	144.25
657.457	131.25
657.661	120.25
657.865	115.25
658.068	131.25
658.272	105.25
658.476	108.25
658.68	118.25
658.883	105.25
659.087	107.25
659.291	118.25
659.494	114.25
659.698	111.25
659.901	122.25
660.105	98.25
660.309	96.25
660.512	100.25
660.716	86.25
660.919	110.25
661.123	95.25
661.326	83.25
661.53	94.25
661.733	95.25
661.936	82.25
662.14	84.25
662.343	87.25
662.546	80.25
662.75	84.25
662.953	80.25
663.156	89.25
663.36	85.25
663.563	91.25
663.766	79.25
663.969	74.25
664.173	91.25
664.376	95.25
664.579	83.25
664.782	90.25
664.985	95.25
665.188	95.25
665.391	80.25
665.594	71.25
665.797	88.25
666	80.25
666.203	90.25
666.406	95.25
666.609	84.25
666.812	80.25
667.015	80.25
667.218	80.25
667.421	71.25
667.624	89.25
667.827	94.25
668.03	68.25
668.232	78.25
668.435	90.25
668.638	86.25
668.841	79.25
669.043	91.25
669.246	86.25
669.449	84.25
669.651	94.25
669.854	91.25
670.057	86.25
670.259	74.25
670.462	74.25
670.665	83.25
670.867	98.25
671.07	82.25
671.272	82.25
671.475	84.25
671.677	79.25
671.88	82.25
672.082	85.25
672.284	92.25
672.487	78.25
672.689	98.25
672.892	74.25
