Data from 1973.PennyLincolnUp.Lamp.En5.5.200Scan.071719.P1.Changed Mount._HRD10591_15-44-42-852.txt Node
Date: Thu Jul 18 15:44:42 EDT 2019
User: cochatt
Spectrometer: HR+D1059
Trigger mode: 1
Integration Time (sec): 1.000000E-1
Scans to average: 1
Electric dark correction enabled: true
Nonlinearity correction enabled: false
Boxcar width: 0
XAxis mode: Wavelengths
Number of Pixels in Spectrum: 2048
>>>>>Begin Spectral Data<<<<<
223.165	-10.06
223.4	-10.06
223.635	-10.06
223.869	-30.06
224.104	-17.06
224.338	-12.06
224.573	-22.06
224.808	-7.06
225.042	-0.06
225.277	-10.06
225.511	-0.06
225.746	-2.06
225.98	2.94
226.215	17.94
226.449	22.94
226.683	19.94
226.918	14.94
227.152	31.94
227.387	23.94
227.621	34.94
227.856	49.94
228.09	45.94
228.324	53.94
228.559	34.94
228.793	64.94
229.027	86.94
229.262	115.94
229.496	97.94
229.73	113.94
229.964	161.94
230.199	125.94
230.433	109.94
230.667	121.94
230.901	117.94
231.136	106.94
231.37	107.94
231.604	102.94
231.838	127.94
232.072	107.94
232.306	113.94
232.541	117.94
232.775	106.94
233.009	113.94
233.243	124.94
233.477	121.94
233.711	123.94
233.945	130.94
234.179	124.94
234.413	117.94
234.647	116.94
234.881	116.94
235.115	124.94
235.349	121.94
235.583	117.94
235.817	124.94
236.051	129.94
236.285	134.94
236.519	118.94
236.753	133.94
236.987	130.94
237.221	156.94
237.455	201.94
237.689	183.94
237.922	130.94
238.156	119.94
238.39	135.94
238.624	127.94
238.858	121.94
239.091	125.94
239.325	132.94
239.559	123.94
239.793	137.94
240.027	134.94
240.26	142.94
240.494	150.94
240.728	162.94
240.961	163.94
241.195	154.94
241.429	150.94
241.662	141.94
241.896	124.94
242.13	148.94
242.363	123.94
242.597	130.94
242.83	146.94
243.064	137.94
243.298	133.94
243.531	152.94
243.765	147.94
243.998	146.94
244.232	153.94
244.465	158.94
244.699	150.94
244.932	149.94
245.166	154.94
245.399	154.94
245.633	151.94
245.866	160.94
246.099	159.94
246.333	162.94
246.566	154.94
246.8	154.94
247.033	157.94
247.266	149.94
247.5	164.94
247.733	158.94
247.966	185.94
248.2	175.94
248.433	177.94
248.666	170.94
248.899	183.94
249.133	193.94
249.366	202.94
249.599	199.94
249.832	186.94
250.066	195.94
250.299	187.94
250.532	187.94
250.765	198.94
250.998	213.94
251.231	212.94
251.465	219.94
251.698	211.94
251.931	207.94
252.164	197.94
252.397	198.94
252.63	198.94
252.863	207.94
253.096	222.94
253.329	223.94
253.562	233.94
253.795	222.94
254.028	215.94
254.261	226.94
254.494	229.94
254.727	238.94
254.96	284.94
255.193	280.94
255.426	237.94
255.659	210.94
255.892	238.94
256.124	235.94
256.357	234.94
256.59	220.94
256.823	211.94
257.056	203.94
257.289	209.94
257.521	233.94
257.754	225.94
257.987	210.94
258.22	222.94
258.452	222.94
258.685	219.94
258.918	214.94
259.151	215.94
259.383	211.94
259.616	223.94
259.849	233.94
260.081	246.94
260.314	255.94
260.547	261.94
260.779	244.94
261.012	233.94
261.244	229.94
261.477	221.94
261.71	227.94
261.942	224.94
262.175	223.94
262.407	222.94
262.64	223.94
262.872	207.94
263.105	214.94
263.337	208.94
263.57	223.94
263.802	226.94
264.035	234.94
264.267	214.94
264.499	222.94
264.732	231.94
264.964	222.94
265.197	218.94
265.429	221.94
265.661	230.94
265.894	237.94
266.126	242.94
266.358	216.94
266.591	222.94
266.823	222.94
267.055	228.94
267.287	249.94
267.52	251.94
267.752	244.94
267.984	237.94
268.216	225.94
268.448	257.94
268.681	264.94
268.913	259.94
269.145	285.94
269.377	284.94
269.609	297.94
269.841	265.94
270.073	262.94
270.306	284.94
270.538	321.94
270.77	314.94
271.002	294.94
271.234	306.94
271.466	298.94
271.698	311.94
271.93	334.94
272.162	332.94
272.394	327.94
272.626	289.94
272.858	288.94
273.09	297.94
273.322	301.94
273.553	276.94
273.785	297.94
274.017	276.94
274.249	277.94
274.481	295.94
274.713	269.94
274.945	284.94
275.176	284.94
275.408	278.94
275.64	287.94
275.872	271.94
276.104	288.94
276.335	287.94
276.567	286.94
276.799	293.94
277.031	313.94
277.262	324.94
277.494	334.94
277.726	313.94
277.957	309.94
278.189	294.94
278.421	287.94
278.652	290.94
278.884	283.94
279.115	300.94
279.347	290.94
279.579	291.94
279.81	262.94
280.042	284.94
280.273	288.94
280.505	284.94
280.736	291.94
280.968	296.94
281.199	284.94
281.431	297.94
281.662	292.94
281.894	286.94
282.125	302.94
282.356	331.94
282.588	325.94
282.819	325.94
283.051	314.94
283.282	296.94
283.513	296.94
283.745	313.94
283.976	300.94
284.207	296.94
284.439	317.94
284.67	302.94
284.901	299.94
285.132	309.94
285.364	298.94
285.595	315.94
285.826	311.94
286.057	327.94
286.288	310.94
286.52	311.94
286.751	295.94
286.982	310.94
287.213	309.94
287.444	313.94
287.675	323.94
287.906	335.94
288.138	326.94
288.369	341.94
288.6	328.94
288.831	332.94
289.062	313.94
289.293	302.94
289.524	329.94
289.755	325.94
289.986	326.94
290.217	314.94
290.448	339.94
290.679	324.94
290.91	339.94
291.141	297.94
291.371	320.94
291.602	323.94
291.833	320.94
292.064	317.94
292.295	317.94
292.526	324.94
292.757	313.94
292.987	323.94
293.218	323.94
293.449	336.94
293.68	326.94
293.91	314.94
294.141	339.94
294.372	323.94
294.603	332.94
294.833	323.94
295.064	330.94
295.295	335.94
295.525	328.94
295.756	333.94
295.987	340.94
296.217	369.94
296.448	347.94
296.679	348.94
296.909	345.94
297.14	331.94
297.37	357.94
297.601	331.94
297.831	322.94
298.062	343.94
298.292	325.94
298.523	330.94
298.753	333.94
298.984	328.94
299.214	328.94
299.445	333.94
299.675	350.94
299.905	335.94
300.136	370.94
300.366	340.94
300.597	348.94
300.827	364.94
301.057	364.94
301.288	386.94
301.518	361.94
301.748	362.94
301.979	334.94
302.209	363.94
302.439	365.94
302.669	353.94
302.9	371.94
303.13	366.94
303.36	380.94
303.59	375.94
303.82	377.94
304.051	364.94
304.281	359.94
304.511	355.94
304.741	372.94
304.971	357.94
305.201	365.94
305.431	374.94
305.661	366.94
305.891	362.94
306.121	345.94
306.352	366.94
306.582	375.94
306.812	355.94
307.042	361.94
307.272	339.94
307.502	389.94
307.731	375.94
307.961	376.94
308.191	365.94
308.421	372.94
308.651	367.94
308.881	350.94
309.111	362.94
309.341	383.94
309.571	384.94
309.8	371.94
310.03	389.94
310.26	387.94
310.49	395.94
310.72	376.94
310.949	414.94
311.179	397.94
311.409	398.94
311.639	408.94
311.868	401.94
312.098	408.94
312.328	415.94
312.557	402.94
312.787	405.94
313.017	423.94
313.246	398.94
313.476	407.94
313.706	408.94
313.935	409.94
314.165	412.94
314.394	417.94
314.624	429.94
314.853	404.94
315.083	426.94
315.312	399.94
315.542	420.94
315.771	401.94
316.001	388.94
316.23	399.94
316.46	407.94
316.689	409.94
316.919	405.94
317.148	421.94
317.377	425.94
317.607	420.94
317.836	407.94
318.065	394.94
318.295	406.94
318.524	399.94
318.753	418.94
318.983	389.94
319.212	396.94
319.441	403.94
319.67	407.94
319.9	417.94
320.129	396.94
320.358	399.94
320.587	413.94
320.816	406.94
321.046	404.94
321.275	396.94
321.504	426.94
321.733	420.94
321.962	433.94
322.191	416.94
322.42	417.94
322.649	450.94
322.878	457.94
323.108	478.94
323.337	471.94
323.566	454.94
323.795	497.94
324.024	531.94
324.253	597.94
324.482	823.94
324.71	1174.94
324.939	1645.94
325.168	1473.94
325.397	808.94
325.626	599.94
325.855	502.94
326.084	499.94
326.313	495.94
326.542	480.94
326.77	522.94
326.999	595.94
327.228	731.94
327.457	1051.94
327.686	1275.94
327.914	879.94
328.143	627.94
328.372	552.94
328.6	529.94
328.829	507.94
329.058	538.94
329.287	556.94
329.515	526.94
329.744	516.94
329.972	490.94
330.201	492.94
330.43	529.94
330.658	566.94
330.887	575.94
331.115	573.94
331.344	516.94
331.572	513.94
331.801	516.94
332.03	506.94
332.258	471.94
332.486	499.94
332.715	505.94
332.943	470.94
333.172	498.94
333.4	511.94
333.629	513.94
333.857	549.94
334.085	532.94
334.314	542.94
334.542	534.94
334.771	552.94
334.999	529.94
335.227	494.94
335.455	511.94
335.684	479.94
335.912	499.94
336.14	507.94
336.369	519.94
336.597	487.94
336.825	485.94
337.053	470.94
337.281	496.94
337.51	471.94
337.738	499.94
337.966	469.94
338.194	471.94
338.422	467.94
338.65	445.94
338.878	469.94
339.106	445.94
339.334	451.94
339.562	438.94
339.79	438.94
340.018	456.94
340.246	458.94
340.474	457.94
340.702	479.94
340.93	455.94
341.158	450.94
341.386	442.94
341.614	446.94
341.842	437.94
342.07	446.94
342.298	422.94
342.526	433.94
342.754	424.94
342.981	455.94
343.209	452.94
343.437	445.94
343.665	467.94
343.893	476.94
344.12	510.94
344.348	504.94
344.576	482.94
344.804	479.94
345.031	458.94
345.259	470.94
345.487	452.94
345.714	445.94
345.942	435.94
346.17	441.94
346.397	459.94
346.625	419.94
346.853	440.94
347.08	428.94
347.308	450.94
347.535	449.94
347.763	422.94
347.99	433.94
348.218	451.94
348.445	470.94
348.673	437.94
348.9	427.94
349.128	422.94
349.355	409.94
349.583	409.94
349.81	434.94
350.037	447.94
350.265	420.94
350.492	421.94
350.72	419.94
350.947	413.94
351.174	437.94
351.402	431.94
351.629	433.94
351.856	406.94
352.083	451.94
352.311	443.94
352.538	450.94
352.765	443.94
352.992	447.94
353.22	425.94
353.447	415.94
353.674	429.94
353.901	405.94
354.128	406.94
354.355	415.94
354.583	412.94
354.81	414.94
355.037	410.94
355.264	410.94
355.491	417.94
355.718	405.94
355.945	426.94
356.172	397.94
356.399	419.94
356.626	424.94
356.853	443.94
357.08	399.94
357.307	412.94
357.534	413.94
357.761	435.94
357.988	431.94
358.215	411.94
358.441	417.94
358.668	407.94
358.895	396.94
359.122	407.94
359.349	444.94
359.576	425.94
359.802	447.94
360.029	470.94
360.256	442.94
360.483	452.94
360.709	427.94
360.936	425.94
361.163	406.94
361.39	433.94
361.616	437.94
361.843	424.94
362.07	419.94
362.296	433.94
362.523	414.94
362.749	433.94
362.976	417.94
363.203	428.94
363.429	412.94
363.656	393.94
363.882	414.94
364.109	398.94
364.335	419.94
364.562	406.94
364.788	411.94
365.015	409.94
365.241	419.94
365.468	410.94
365.694	411.94
365.92	398.94
366.147	421.94
366.373	436.94
366.599	430.94
366.826	422.94
367.052	404.94
367.278	413.94
367.505	425.94
367.731	437.94
367.957	413.94
368.184	414.94
368.41	431.94
368.636	428.94
368.862	398.94
369.089	425.94
369.315	421.94
369.541	413.94
369.767	428.94
369.993	404.94
370.219	415.94
370.445	407.94
370.672	424.94
370.898	419.94
371.124	413.94
371.35	416.94
371.576	408.94
371.802	437.94
372.028	413.94
372.254	411.94
372.48	417.94
372.706	433.94
372.932	430.94
373.158	435.94
373.384	447.94
373.61	412.94
373.835	426.94
374.061	433.94
374.287	431.94
374.513	430.94
374.739	426.94
374.965	437.94
375.191	465.94
375.416	437.94
375.642	427.94
375.868	423.94
376.094	430.94
376.319	430.94
376.545	397.94
376.771	415.94
376.997	431.94
377.222	418.94
377.448	411.94
377.674	438.94
377.899	439.94
378.125	404.94
378.35	404.94
378.576	409.94
378.802	420.94
379.027	427.94
379.253	441.94
379.478	425.94
379.704	426.94
379.929	422.94
380.155	437.94
380.38	417.94
380.606	409.94
380.831	450.94
381.057	436.94
381.282	415.94
381.507	435.94
381.733	437.94
381.958	436.94
382.184	422.94
382.409	444.94
382.634	439.94
382.86	441.94
383.085	429.94
383.31	441.94
383.535	433.94
383.761	440.94
383.986	443.94
384.211	449.94
384.436	449.94
384.662	465.94
384.887	468.94
385.112	477.94
385.337	483.94
385.562	445.94
385.787	454.94
386.013	480.94
386.238	488.94
386.463	489.94
386.688	487.94
386.913	481.94
387.138	478.94
387.363	487.94
387.588	484.94
387.813	485.94
388.038	481.94
388.263	472.94
388.488	465.94
388.713	476.94
388.938	463.94
389.163	476.94
389.387	479.94
389.612	486.94
389.837	475.94
390.062	453.94
390.287	465.94
390.512	456.94
390.736	460.94
390.961	479.94
391.186	491.94
391.411	500.94
391.636	494.94
391.86	521.94
392.085	503.94
392.31	517.94
392.534	489.94
392.759	491.94
392.984	473.94
393.208	482.94
393.433	498.94
393.658	507.94
393.882	485.94
394.107	489.94
394.331	480.94
394.556	461.94
394.78	473.94
395.005	499.94
395.229	477.94
395.454	492.94
395.678	502.94
395.903	532.94
396.127	513.94
396.352	525.94
396.576	526.94
396.801	483.94
397.025	521.94
397.249	500.94
397.474	516.94
397.698	522.94
397.922	501.94
398.147	561.94
398.371	546.94
398.595	523.94
398.82	559.94
399.044	561.94
399.268	614.94
399.492	656.94
399.717	714.94
399.941	750.94
400.165	743.94
400.389	708.94
400.613	647.94
400.837	595.94
401.062	584.94
401.286	568.94
401.51	557.94
401.734	583.94
401.958	566.94
402.182	570.94
402.406	574.94
402.63	590.94
402.854	583.94
403.078	589.94
403.302	606.94
403.526	598.94
403.75	588.94
403.974	597.94
404.198	581.94
404.422	599.94
404.645	613.94
404.869	593.94
405.093	635.94
405.317	668.94
405.541	661.94
405.765	621.94
405.988	607.94
406.212	651.94
406.436	631.94
406.66	627.94
406.883	645.94
407.107	666.94
407.331	703.94
407.555	778.94
407.778	748.94
408.002	722.94
408.226	667.94
408.449	629.94
408.673	643.94
408.896	655.94
409.12	693.94
409.344	647.94
409.567	597.94
409.791	601.94
410.014	596.94
410.238	571.94
410.461	575.94
410.685	589.94
410.908	611.94
411.132	627.94
411.355	630.94
411.578	636.94
411.802	609.94
412.025	588.94
412.249	613.94
412.472	603.94
412.695	649.94
412.919	636.94
413.142	576.94
413.365	585.94
413.589	577.94
413.812	564.94
414.035	562.94
414.258	563.94
414.482	547.94
414.705	551.94
414.928	546.94
415.151	553.94
415.374	550.94
415.597	528.94
415.821	532.94
416.044	534.94
416.267	546.94
416.49	535.94
416.713	563.94
416.936	567.94
417.159	533.94
417.382	533.94
417.605	565.94
417.828	554.94
418.051	580.94
418.274	580.94
418.497	549.94
418.72	538.94
418.943	538.94
419.166	577.94
419.389	612.94
419.611	602.94
419.834	603.94
420.057	585.94
420.28	590.94
420.503	591.94
420.726	571.94
420.948	583.94
421.171	609.94
421.394	651.94
421.617	597.94
421.839	564.94
422.062	575.94
422.285	585.94
422.507	640.94
422.73	710.94
422.953	695.94
423.175	631.94
423.398	599.94
423.621	590.94
423.843	615.94
424.066	627.94
424.288	603.94
424.511	637.94
424.733	671.94
424.956	757.94
425.178	715.94
425.401	691.94
425.623	719.94
425.846	629.94
426.068	586.94
426.291	583.94
426.513	590.94
426.735	588.94
426.958	647.94
427.18	690.94
427.402	808.94
427.625	872.94
427.847	759.94
428.069	656.94
428.292	631.94
428.514	581.94
428.736	558.94
428.958	551.94
429.181	523.94
429.403	544.94
429.625	559.94
429.847	585.94
430.069	626.94
430.292	621.94
430.514	567.94
430.736	530.94
430.958	519.94
431.18	530.94
431.402	538.94
431.624	525.94
431.846	537.94
432.068	526.94
432.29	521.94
432.512	523.94
432.734	547.94
432.956	540.94
433.178	539.94
433.4	547.94
433.622	525.94
433.844	520.94
434.066	523.94
434.287	529.94
434.509	541.94
434.731	559.94
434.953	567.94
435.175	588.94
435.397	589.94
435.618	595.94
435.84	622.94
436.062	685.94
436.284	745.94
436.505	658.94
436.727	591.94
436.949	567.94
437.17	538.94
437.392	556.94
437.614	552.94
437.835	550.94
438.057	643.94
438.278	715.94
438.5	744.94
438.721	779.94
438.943	762.94
439.165	629.94
439.386	605.94
439.608	593.94
439.829	580.94
440.05	597.94
440.272	626.94
440.493	623.94
440.715	584.94
440.936	543.94
441.158	541.94
441.379	569.94
441.6	563.94
441.822	609.94
442.043	623.94
442.264	706.94
442.486	731.94
442.707	638.94
442.928	613.94
443.149	603.94
443.371	637.94
443.592	653.94
443.813	756.94
444.034	813.94
444.255	689.94
444.476	632.94
444.698	631.94
444.919	631.94
445.14	744.94
445.361	675.94
445.582	649.94
445.803	665.94
446.024	745.94
446.245	755.94
446.466	685.94
446.687	615.94
446.908	576.94
447.129	549.94
447.35	541.94
447.571	523.94
447.792	543.94
448.013	524.94
448.234	539.94
448.455	564.94
448.675	677.94
448.896	786.94
449.117	684.94
449.338	613.94
449.559	702.94
449.779	838.94
450	679.94
450.221	570.94
450.442	525.94
450.662	517.94
450.883	514.94
451.104	535.94
451.324	529.94
451.545	500.94
451.766	497.94
451.986	477.94
452.207	452.94
452.428	466.94
452.648	463.94
452.869	463.94
453.089	495.94
453.31	494.94
453.53	481.94
453.751	478.94
453.971	469.94
454.192	489.94
454.412	451.94
454.633	450.94
454.853	477.94
455.073	464.94
455.294	497.94
455.514	549.94
455.734	533.94
455.955	481.94
456.175	476.94
456.395	453.94
456.616	437.94
456.836	451.94
457.056	429.94
457.276	442.94
457.497	451.94
457.717	451.94
457.937	462.94
458.157	470.94
458.377	473.94
458.598	497.94
458.818	510.94
459.038	589.94
459.258	625.94
459.478	569.94
459.698	540.94
459.918	512.94
460.138	520.94
460.358	542.94
460.578	550.94
460.798	553.94
461.018	571.94
461.238	569.94
461.458	573.94
461.678	553.94
461.898	540.94
462.118	566.94
462.338	581.94
462.558	592.94
462.777	609.94
462.997	621.94
463.217	666.94
463.437	659.94
463.657	627.94
463.876	625.94
464.096	603.94
464.316	596.94
464.536	635.94
464.755	578.94
464.975	592.94
465.195	611.94
465.414	628.94
465.634	573.94
465.854	536.94
466.073	534.94
466.293	536.94
466.512	497.94
466.732	479.94
466.951	504.94
467.171	466.94
467.391	489.94
467.61	504.94
467.829	524.94
468.049	512.94
468.268	504.94
468.488	494.94
468.707	485.94
468.927	493.94
469.146	476.94
469.365	498.94
469.585	495.94
469.804	494.94
470.023	512.94
470.243	524.94
470.462	519.94
470.681	536.94
470.901	508.94
471.12	514.94
471.339	503.94
471.558	509.94
471.777	507.94
471.997	504.94
472.216	505.94
472.435	535.94
472.654	507.94
472.873	501.94
473.092	494.94
473.311	511.94
473.53	517.94
473.749	481.94
473.968	536.94
474.187	618.94
474.406	641.94
474.625	559.94
474.844	498.94
475.063	502.94
475.282	494.94
475.501	515.94
475.72	514.94
475.939	502.94
476.158	519.94
476.377	503.94
476.596	528.94
476.814	526.94
477.033	538.94
477.252	519.94
477.471	522.94
477.69	529.94
477.908	538.94
478.127	553.94
478.346	569.94
478.564	567.94
478.783	574.94
479.002	575.94
479.22	593.94
479.439	595.94
479.658	589.94
479.876	583.94
480.095	620.94
480.313	645.94
480.532	637.94
480.751	632.94
480.969	644.94
481.188	647.94
481.406	659.94
481.624	627.94
481.843	611.94
482.061	601.94
482.28	560.94
482.498	580.94
482.717	566.94
482.935	581.94
483.153	581.94
483.372	586.94
483.59	584.94
483.808	585.94
484.027	570.94
484.245	586.94
484.463	602.94
484.681	620.94
484.9	570.94
485.118	585.94
485.336	563.94
485.554	586.94
485.772	588.94
485.99	596.94
486.209	593.94
486.427	597.94
486.645	597.94
486.863	626.94
487.081	592.94
487.299	611.94
487.517	581.94
487.735	618.94
487.953	614.94
488.171	618.94
488.389	599.94
488.607	629.94
488.825	617.94
489.043	616.94
489.261	629.94
489.479	612.94
489.696	610.94
489.914	604.94
490.132	634.94
490.35	651.94
490.568	638.94
490.786	655.94
491.003	646.94
491.221	675.94
491.439	676.94
491.657	670.94
491.874	675.94
492.092	678.94
492.31	700.94
492.527	683.94
492.745	697.94
492.963	702.94
493.18	703.94
493.398	722.94
493.615	756.94
493.833	746.94
494.05	713.94
494.268	742.94
494.485	725.94
494.703	726.94
494.92	729.94
495.138	723.94
495.355	737.94
495.573	745.94
495.79	716.94
496.008	730.94
496.225	747.94
496.442	732.94
496.66	725.94
496.877	739.94
497.094	722.94
497.312	731.94
497.529	747.94
497.746	776.94
497.963	791.94
498.181	805.94
498.398	794.94
498.615	865.94
498.832	879.94
499.049	901.94
499.267	928.94
499.484	988.94
499.701	1033.94
499.918	1060.94
500.135	1143.94
500.352	1246.94
500.569	1275.94
500.786	1259.94
501.003	1235.94
501.22	1177.94
501.437	1108.94
501.654	1056.94
501.871	1001.94
502.088	979.94
502.305	932.94
502.522	879.94
502.739	843.94
502.956	810.94
503.172	791.94
503.389	796.94
503.606	749.94
503.823	775.94
504.04	757.94
504.256	765.94
504.473	758.94
504.69	771.94
504.907	762.94
505.123	751.94
505.34	705.94
505.557	701.94
505.773	721.94
505.99	714.94
506.207	666.94
506.423	700.94
506.64	660.94
506.856	668.94
507.073	669.94
507.289	654.94
507.506	677.94
507.722	675.94
507.939	665.94
508.155	645.94
508.372	636.94
508.588	610.94
508.805	622.94
509.021	642.94
509.238	642.94
509.454	673.94
509.67	655.94
509.887	641.94
510.103	661.94
510.319	641.94
510.536	678.94
510.752	1017.94
510.968	864.94
511.184	643.94
511.401	606.94
511.617	599.94
511.833	614.94
512.049	618.94
512.265	600.94
512.481	596.94
512.698	590.94
512.914	611.94
513.13	611.94
513.346	591.94
513.562	603.94
513.778	601.94
513.994	602.94
514.21	611.94
514.426	620.94
514.642	633.94
514.858	642.94
515.074	673.94
515.29	782.94
515.506	1054.94
515.721	885.94
515.937	678.94
516.153	660.94
516.369	665.94
516.585	648.94
516.801	652.94
517.016	677.94
517.232	662.94
517.448	674.94
517.664	677.94
517.879	679.94
518.095	674.94
518.311	675.94
518.527	655.94
518.742	663.94
518.958	643.94
519.173	641.94
519.389	621.94
519.605	617.94
519.82	608.94
520.036	622.94
520.251	603.94
520.467	633.94
520.682	607.94
520.898	618.94
521.113	633.94
521.329	651.94
521.544	706.94
521.76	821.94
521.975	1333.94
522.19	1274.94
522.406	773.94
522.621	632.94
522.836	587.94
523.052	594.94
523.267	553.94
523.482	541.94
523.698	562.94
523.913	546.94
524.128	543.94
524.343	542.94
524.559	540.94
524.774	518.94
524.989	519.94
525.204	526.94
525.419	519.94
525.634	523.94
525.849	518.94
526.064	515.94
526.28	516.94
526.495	503.94
526.71	516.94
526.925	509.94
527.14	494.94
527.355	492.94
527.57	508.94
527.785	507.94
527.999	507.94
528.214	524.94
528.429	498.94
528.644	525.94
528.859	515.94
529.074	491.94
529.289	525.94
529.503	565.94
529.718	545.94
529.933	514.94
530.148	497.94
530.363	502.94
530.577	508.94
530.792	503.94
531.007	479.94
531.221	494.94
531.436	495.94
531.651	477.94
531.865	498.94
532.08	492.94
532.295	514.94
532.509	489.94
532.724	493.94
532.938	490.94
533.153	506.94
533.367	475.94
533.582	478.94
533.796	492.94
534.011	464.94
534.225	459.94
534.44	471.94
534.654	482.94
534.868	485.94
535.083	456.94
535.297	467.94
535.511	489.94
535.726	484.94
535.94	502.94
536.154	479.94
536.369	467.94
536.583	469.94
536.797	480.94
537.011	474.94
537.225	463.94
537.44	496.94
537.654	463.94
537.868	465.94
538.082	460.94
538.296	490.94
538.51	485.94
538.724	455.94
538.938	461.94
539.153	462.94
539.367	457.94
539.581	462.94
539.795	459.94
540.009	462.94
540.222	465.94
540.436	433.94
540.65	460.94
540.864	450.94
541.078	475.94
541.292	469.94
541.506	452.94
541.72	469.94
541.934	482.94
542.147	478.94
542.361	459.94
542.575	451.94
542.789	446.94
543.002	449.94
543.216	463.94
543.43	477.94
543.644	455.94
543.857	465.94
544.071	455.94
544.285	471.94
544.498	461.94
544.712	478.94
544.925	470.94
545.139	453.94
545.352	456.94
545.566	474.94
545.779	446.94
545.993	453.94
546.206	447.94
546.42	467.94
546.633	457.94
546.847	482.94
547.06	451.94
547.274	478.94
547.487	487.94
547.7	476.94
547.914	469.94
548.127	445.94
548.34	460.94
548.554	447.94
548.767	463.94
548.98	453.94
549.193	469.94
549.407	458.94
549.62	457.94
549.833	468.94
550.046	467.94
550.259	487.94
550.473	449.94
550.686	474.94
550.899	457.94
551.112	457.94
551.325	427.94
551.538	455.94
551.751	454.94
551.964	438.94
552.177	437.94
552.39	452.94
552.603	482.94
552.816	474.94
553.029	484.94
553.242	496.94
553.455	499.94
553.667	505.94
553.88	492.94
554.093	473.94
554.306	462.94
554.519	460.94
554.732	467.94
554.944	423.94
555.157	448.94
555.37	435.94
555.583	442.94
555.795	455.94
556.008	445.94
556.221	426.94
556.433	424.94
556.646	420.94
556.859	404.94
557.071	404.94
557.284	404.94
557.496	430.94
557.709	388.94
557.921	398.94
558.134	435.94
558.346	413.94
558.559	388.94
558.771	420.94
558.984	391.94
559.196	413.94
559.409	402.94
559.621	389.94
559.833	427.94
560.046	396.94
560.258	422.94
560.47	395.94
560.683	407.94
560.895	389.94
561.107	388.94
561.32	383.94
561.532	420.94
561.744	420.94
561.956	417.94
562.168	409.94
562.381	395.94
562.593	392.94
562.805	393.94
563.017	390.94
563.229	400.94
563.441	431.94
563.653	419.94
563.865	409.94
564.077	404.94
564.289	427.94
564.501	412.94
564.713	422.94
564.925	428.94
565.137	426.94
565.349	441.94
565.561	450.94
565.773	477.94
565.985	475.94
566.197	476.94
566.408	505.94
566.62	531.94
566.832	544.94
567.044	556.94
567.255	561.94
567.467	585.94
567.679	578.94
567.891	611.94
568.102	606.94
568.314	587.94
568.526	546.94
568.737	527.94
568.949	503.94
569.161	487.94
569.372	451.94
569.584	443.94
569.795	439.94
570.007	425.94
570.218	470.94
570.43	441.94
570.641	409.94
570.853	406.94
571.064	396.94
571.276	424.94
571.487	414.94
571.698	399.94
571.91	406.94
572.121	385.94
572.333	389.94
572.544	375.94
572.755	361.94
572.966	361.94
573.178	362.94
573.389	366.94
573.6	344.94
573.811	364.94
574.023	355.94
574.234	345.94
574.445	342.94
574.656	346.94
574.867	354.94
575.078	362.94
575.289	365.94
575.501	353.94
575.712	354.94
575.923	353.94
576.134	354.94
576.345	345.94
576.556	334.94
576.767	344.94
576.978	357.94
577.188	338.94
577.399	332.94
577.61	336.94
577.821	331.94
578.032	334.94
578.243	363.94
578.454	513.94
578.665	405.94
578.875	331.94
579.086	333.94
579.297	323.94
579.508	335.94
579.718	323.94
579.929	310.94
580.14	323.94
580.35	321.94
580.561	322.94
580.772	317.94
580.982	305.94
581.193	308.94
581.403	312.94
581.614	336.94
581.825	316.94
582.035	322.94
582.246	321.94
582.456	315.94
582.667	316.94
582.877	325.94
583.087	315.94
583.298	317.94
583.508	314.94
583.719	312.94
583.929	314.94
584.139	318.94
584.35	298.94
584.56	325.94
584.77	319.94
584.981	314.94
585.191	303.94
585.401	327.94
585.611	308.94
585.821	314.94
586.032	306.94
586.242	299.94
586.452	310.94
586.662	306.94
586.872	301.94
587.082	313.94
587.292	309.94
587.502	309.94
587.713	309.94
587.923	320.94
588.133	293.94
588.343	295.94
588.553	314.94
588.762	306.94
588.972	314.94
589.182	316.94
589.392	311.94
589.602	302.94
589.812	317.94
590.022	289.94
590.232	301.94
590.441	302.94
590.651	296.94
590.861	312.94
591.071	314.94
591.281	292.94
591.49	328.94
591.7	327.94
591.91	331.94
592.119	324.94
592.329	319.94
592.539	330.94
592.748	346.94
592.958	335.94
593.167	326.94
593.377	362.94
593.587	353.94
593.796	351.94
594.006	364.94
594.215	353.94
594.424	354.94
594.634	345.94
594.843	344.94
595.053	335.94
595.262	329.94
595.472	324.94
595.681	313.94
595.89	313.94
596.1	302.94
596.309	313.94
596.518	292.94
596.727	296.94
596.937	286.94
597.146	302.94
597.355	293.94
597.564	277.94
597.774	293.94
597.983	271.94
598.192	271.94
598.401	282.94
598.61	265.94
598.819	286.94
599.028	277.94
599.237	283.94
599.446	277.94
599.655	277.94
599.864	263.94
600.073	261.94
600.282	281.94
600.491	275.94
600.7	277.94
600.909	286.94
601.118	255.94
601.327	261.94
601.536	272.94
601.745	246.94
601.953	267.94
602.162	276.94
602.371	285.94
602.58	271.94
602.789	261.94
602.997	269.94
603.206	272.94
603.415	254.94
603.623	285.94
603.832	257.94
604.041	260.94
604.249	250.94
604.458	225.94
604.666	255.94
604.875	257.94
605.084	245.94
605.292	251.94
605.501	267.94
605.709	248.94
605.918	246.94
606.126	251.94
606.334	264.94
606.543	254.94
606.751	252.94
606.96	266.94
607.168	253.94
607.376	244.94
607.585	251.94
607.793	234.94
608.001	261.94
608.21	255.94
608.418	243.94
608.626	237.94
608.834	247.94
609.043	255.94
609.251	278.94
609.459	258.94
609.667	251.94
609.875	248.94
610.083	242.94
610.291	254.94
610.499	254.94
610.707	242.94
610.916	231.94
611.124	252.94
611.332	243.94
611.54	270.94
611.748	258.94
611.955	237.94
612.163	249.94
612.371	247.94
612.579	250.94
612.787	257.94
612.995	247.94
613.203	242.94
613.411	226.94
613.618	224.94
613.826	245.94
614.034	243.94
614.242	243.94
614.449	252.94
614.657	229.94
614.865	229.94
615.072	239.94
615.28	242.94
615.488	247.94
615.695	237.94
615.903	234.94
616.111	255.94
616.318	253.94
616.526	253.94
616.733	247.94
616.941	238.94
617.148	257.94
617.356	262.94
617.563	238.94
617.771	243.94
617.978	226.94
618.185	234.94
618.393	254.94
618.6	229.94
618.807	247.94
619.015	238.94
619.222	225.94
619.429	230.94
619.637	232.94
619.844	229.94
620.051	253.94
620.258	245.94
620.466	219.94
620.673	238.94
620.88	227.94
621.087	223.94
621.294	233.94
621.501	230.94
621.708	214.94
621.915	230.94
622.122	236.94
622.329	239.94
622.536	242.94
622.743	237.94
622.95	211.94
623.157	221.94
623.364	221.94
623.571	241.94
623.778	222.94
623.985	219.94
624.192	221.94
624.399	242.94
624.606	235.94
624.812	221.94
625.019	213.94
625.226	194.94
625.433	221.94
625.639	223.94
625.846	211.94
626.053	225.94
626.259	224.94
626.466	207.94
626.673	218.94
626.879	218.94
627.086	219.94
627.293	198.94
627.499	195.94
627.706	219.94
627.912	216.94
628.119	218.94
628.325	208.94
628.532	209.94
628.738	214.94
628.945	212.94
629.151	214.94
629.357	205.94
629.564	186.94
629.77	213.94
629.976	215.94
630.183	205.94
630.389	222.94
630.595	218.94
630.802	213.94
631.008	223.94
631.214	202.94
631.42	205.94
631.627	210.94
631.833	209.94
632.039	210.94
632.245	186.94
632.451	201.94
632.657	198.94
632.863	191.94
633.069	201.94
633.275	195.94
633.481	195.94
633.688	186.94
633.893	189.94
634.099	189.94
634.305	205.94
634.511	183.94
634.717	188.94
634.923	197.94
635.129	177.94
635.335	170.94
635.541	206.94
635.747	199.94
635.952	172.94
636.158	198.94
636.364	203.94
636.57	209.94
636.775	201.94
636.981	183.94
637.187	183.94
637.392	181.94
637.598	182.94
637.804	187.94
638.009	183.94
638.215	196.94
638.421	177.94
638.626	179.94
638.832	185.94
639.037	177.94
639.243	178.94
639.448	181.94
639.654	174.94
639.859	171.94
640.065	181.94
640.27	187.94
640.475	183.94
640.681	160.94
640.886	185.94
641.091	189.94
641.297	183.94
641.502	188.94
641.707	173.94
641.913	180.94
642.118	181.94
642.323	178.94
642.528	179.94
642.733	195.94
642.939	171.94
643.144	174.94
643.349	178.94
643.554	173.94
643.759	190.94
643.964	178.94
644.169	179.94
644.374	163.94
644.579	165.94
644.784	191.94
644.989	174.94
645.194	158.94
645.399	163.94
645.604	162.94
645.809	183.94
646.014	165.94
646.219	195.94
646.423	169.94
646.628	167.94
646.833	187.94
647.038	169.94
647.243	171.94
647.447	181.94
647.652	171.94
647.857	172.94
648.062	182.94
648.266	173.94
648.471	190.94
648.676	172.94
648.88	173.94
649.085	194.94
649.289	174.94
649.494	172.94
649.698	193.94
649.903	176.94
650.107	178.94
650.312	173.94
650.516	185.94
650.721	172.94
650.925	179.94
651.13	153.94
651.334	174.94
651.539	154.94
651.743	157.94
651.947	145.94
652.152	161.94
652.356	146.94
652.56	154.94
652.764	156.94
652.969	146.94
653.173	150.94
653.377	144.94
653.581	129.94
653.785	131.94
653.99	149.94
654.194	140.94
654.398	149.94
654.602	143.94
654.806	134.94
655.01	160.94
655.214	158.94
655.418	148.94
655.622	137.94
655.826	131.94
656.03	144.94
656.234	133.94
656.438	157.94
656.642	138.94
656.846	143.94
657.049	119.94
657.253	133.94
657.457	113.94
657.661	133.94
657.865	114.94
658.068	117.94
658.272	120.94
658.476	105.94
658.68	117.94
658.883	90.94
659.087	95.94
659.291	114.94
659.494	101.94
659.698	106.94
659.901	102.94
660.105	93.94
660.309	103.94
660.512	99.94
660.716	105.94
660.919	96.94
661.123	104.94
661.326	92.94
661.53	84.94
661.733	79.94
661.936	81.94
662.14	83.94
662.343	92.94
662.546	105.94
662.75	86.94
662.953	100.94
663.156	92.94
663.36	89.94
663.563	81.94
663.766	79.94
663.969	89.94
664.173	87.94
664.376	77.94
664.579	85.94
664.782	82.94
664.985	89.94
665.188	84.94
665.391	96.94
665.594	96.94
665.797	83.94
666	94.94
666.203	90.94
666.406	79.94
666.609	76.94
666.812	84.94
667.015	78.94
667.218	85.94
667.421	89.94
667.624	71.94
667.827	77.94
668.03	83.94
668.232	82.94
668.435	87.94
668.638	93.94
668.841	77.94
669.043	72.94
669.246	78.94
669.449	78.94
669.651	94.94
669.854	81.94
670.057	85.94
670.259	87.94
670.462	87.94
670.665	82.94
670.867	68.94
671.07	85.94
671.272	71.94
671.475	86.94
671.677	79.94
671.88	81.94
672.082	93.94
672.284	82.94
672.487	80.94
672.689	83.94
672.892	76.94
