Data from 1973.PennyLincolnUp.Lamp.En5.5.200Scan.071719.P1.Changed Mount._HRD10591_15-46-06-852.txt Node
Date: Thu Jul 18 15:46:06 EDT 2019
User: cochatt
Spectrometer: HR+D1059
Trigger mode: 1
Integration Time (sec): 1.000000E-1
Scans to average: 1
Electric dark correction enabled: true
Nonlinearity correction enabled: false
Boxcar width: 0
XAxis mode: Wavelengths
Number of Pixels in Spectrum: 2048
>>>>>Begin Spectral Data<<<<<
223.165	-26.19
223.4	-26.19
223.635	-26.19
223.869	-6.19
224.104	-20.19
224.338	-3.19
224.573	-14.19
224.808	-16.19
225.042	-18.19
225.277	-2.19
225.511	-2.19
225.746	5.81
225.98	14.81
226.215	16.81
226.449	20.81
226.683	7.81
226.918	16.81
227.152	25.81
227.387	40.81
227.621	26.81
227.856	44.81
228.09	45.81
228.324	34.81
228.559	57.81
228.793	62.81
229.027	105.81
229.262	102.81
229.496	121.81
229.73	123.81
229.964	144.81
230.199	114.81
230.433	114.81
230.667	99.81
230.901	121.81
231.136	107.81
231.37	110.81
231.604	117.81
231.838	112.81
232.072	111.81
232.306	109.81
232.541	114.81
232.775	122.81
233.009	111.81
233.243	122.81
233.477	128.81
233.711	132.81
233.945	108.81
234.179	129.81
234.413	130.81
234.647	114.81
234.881	104.81
235.115	125.81
235.349	116.81
235.583	118.81
235.817	123.81
236.051	130.81
236.285	139.81
236.519	116.81
236.753	133.81
236.987	144.81
237.221	175.81
237.455	217.81
237.689	178.81
237.922	134.81
238.156	135.81
238.39	126.81
238.624	133.81
238.858	126.81
239.091	134.81
239.325	127.81
239.559	121.81
239.793	142.81
240.027	130.81
240.26	140.81
240.494	139.81
240.728	153.81
240.961	149.81
241.195	144.81
241.429	140.81
241.662	137.81
241.896	152.81
242.13	132.81
242.363	137.81
242.597	143.81
242.83	148.81
243.064	127.81
243.298	136.81
243.531	137.81
243.765	136.81
243.998	147.81
244.232	128.81
244.465	147.81
244.699	153.81
244.932	151.81
245.166	163.81
245.399	152.81
245.633	153.81
245.866	140.81
246.099	154.81
246.333	165.81
246.566	161.81
246.8	149.81
247.033	160.81
247.266	162.81
247.5	163.81
247.733	178.81
247.966	196.81
248.2	180.81
248.433	173.81
248.666	195.81
248.899	182.81
249.133	196.81
249.366	211.81
249.599	198.81
249.832	192.81
250.066	186.81
250.299	183.81
250.532	184.81
250.765	199.81
250.998	214.81
251.231	226.81
251.465	201.81
251.698	208.81
251.931	199.81
252.164	210.81
252.397	196.81
252.63	211.81
252.863	211.81
253.096	210.81
253.329	241.81
253.562	232.81
253.795	206.81
254.028	222.81
254.261	224.81
254.494	236.81
254.727	242.81
254.96	252.81
255.193	269.81
255.426	243.81
255.659	223.81
255.892	220.81
256.124	234.81
256.357	243.81
256.59	232.81
256.823	215.81
257.056	224.81
257.289	211.81
257.521	215.81
257.754	219.81
257.987	203.81
258.22	214.81
258.452	216.81
258.685	224.81
258.918	221.81
259.151	209.81
259.383	224.81
259.616	225.81
259.849	239.81
260.081	256.81
260.314	244.81
260.547	274.81
260.779	245.81
261.012	254.81
261.244	226.81
261.477	258.81
261.71	231.81
261.942	240.81
262.175	238.81
262.407	232.81
262.64	224.81
262.872	225.81
263.105	212.81
263.337	220.81
263.57	230.81
263.802	221.81
264.035	229.81
264.267	231.81
264.499	228.81
264.732	244.81
264.964	237.81
265.197	248.81
265.429	231.81
265.661	211.81
265.894	237.81
266.126	236.81
266.358	235.81
266.591	226.81
266.823	235.81
267.055	242.81
267.287	245.81
267.52	239.81
267.752	236.81
267.984	229.81
268.216	235.81
268.448	261.81
268.681	253.81
268.913	245.81
269.145	281.81
269.377	299.81
269.609	284.81
269.841	264.81
270.073	281.81
270.306	295.81
270.538	313.81
270.77	331.81
271.002	320.81
271.234	279.81
271.466	298.81
271.698	312.81
271.93	317.81
272.162	316.81
272.394	322.81
272.626	317.81
272.858	310.81
273.09	286.81
273.322	291.81
273.553	292.81
273.785	274.81
274.017	265.81
274.249	296.81
274.481	279.81
274.713	277.81
274.945	287.81
275.176	295.81
275.408	306.81
275.64	286.81
275.872	273.81
276.104	281.81
276.335	278.81
276.567	292.81
276.799	289.81
277.031	317.81
277.262	322.81
277.494	345.81
277.726	318.81
277.957	318.81
278.189	303.81
278.421	301.81
278.652	282.81
278.884	299.81
279.115	287.81
279.347	282.81
279.579	295.81
279.81	307.81
280.042	274.81
280.273	286.81
280.505	296.81
280.736	290.81
280.968	290.81
281.199	298.81
281.431	294.81
281.662	304.81
281.894	309.81
282.125	293.81
282.356	306.81
282.588	335.81
282.819	318.81
283.051	313.81
283.282	300.81
283.513	315.81
283.745	313.81
283.976	312.81
284.207	314.81
284.439	303.81
284.67	287.81
284.901	323.81
285.132	317.81
285.364	314.81
285.595	320.81
285.826	321.81
286.057	309.81
286.288	318.81
286.52	317.81
286.751	317.81
286.982	331.81
287.213	309.81
287.444	321.81
287.675	334.81
287.906	334.81
288.138	337.81
288.369	315.81
288.6	331.81
288.831	326.81
289.062	348.81
289.293	333.81
289.524	326.81
289.755	330.81
289.986	330.81
290.217	314.81
290.448	320.81
290.679	323.81
290.91	326.81
291.141	342.81
291.371	336.81
291.602	329.81
291.833	339.81
292.064	317.81
292.295	308.81
292.526	321.81
292.757	336.81
292.987	328.81
293.218	323.81
293.449	320.81
293.68	321.81
293.91	335.81
294.141	333.81
294.372	313.81
294.603	331.81
294.833	326.81
295.064	334.81
295.295	342.81
295.525	340.81
295.756	335.81
295.987	357.81
296.217	360.81
296.448	363.81
296.679	336.81
296.909	350.81
297.14	335.81
297.37	346.81
297.601	336.81
297.831	329.81
298.062	340.81
298.292	331.81
298.523	355.81
298.753	358.81
298.984	357.81
299.214	354.81
299.445	337.81
299.675	351.81
299.905	351.81
300.136	331.81
300.366	362.81
300.597	362.81
300.827	345.81
301.057	357.81
301.288	362.81
301.518	366.81
301.748	335.81
301.979	353.81
302.209	354.81
302.439	361.81
302.669	361.81
302.9	380.81
303.13	378.81
303.36	383.81
303.59	406.81
303.82	374.81
304.051	381.81
304.281	379.81
304.511	374.81
304.741	363.81
304.971	361.81
305.201	363.81
305.431	376.81
305.661	378.81
305.891	367.81
306.121	380.81
306.352	383.81
306.582	389.81
306.812	358.81
307.042	364.81
307.272	363.81
307.502	382.81
307.731	372.81
307.961	364.81
308.191	381.81
308.421	358.81
308.651	372.81
308.881	359.81
309.111	381.81
309.341	388.81
309.571	372.81
309.8	399.81
310.03	407.81
310.26	414.81
310.49	399.81
310.72	406.81
310.949	399.81
311.179	411.81
311.409	398.81
311.639	377.81
311.868	399.81
312.098	409.81
312.328	422.81
312.557	434.81
312.787	420.81
313.017	414.81
313.246	429.81
313.476	402.81
313.706	414.81
313.935	412.81
314.165	398.81
314.394	413.81
314.624	428.81
314.853	403.81
315.083	419.81
315.312	408.81
315.542	399.81
315.771	412.81
316.001	414.81
316.23	418.81
316.46	397.81
316.689	411.81
316.919	411.81
317.148	412.81
317.377	400.81
317.607	407.81
317.836	413.81
318.065	412.81
318.295	410.81
318.524	408.81
318.753	402.81
318.983	418.81
319.212	419.81
319.441	411.81
319.67	395.81
319.9	409.81
320.129	414.81
320.358	409.81
320.587	422.81
320.816	405.81
321.046	440.81
321.275	432.81
321.504	428.81
321.733	424.81
321.962	413.81
322.191	446.81
322.42	471.81
322.649	459.81
322.878	462.81
323.108	456.81
323.337	467.81
323.566	474.81
323.795	484.81
324.024	534.81
324.253	599.81
324.482	784.81
324.71	1126.81
324.939	1588.81
325.168	1430.81
325.397	781.81
325.626	560.81
325.855	545.81
326.084	502.81
326.313	483.81
326.542	503.81
326.77	512.81
326.999	582.81
327.228	741.81
327.457	1032.81
327.686	1236.81
327.914	884.81
328.143	614.81
328.372	581.81
328.6	541.81
328.829	546.81
329.058	534.81
329.287	532.81
329.515	547.81
329.744	507.81
329.972	495.81
330.201	510.81
330.43	538.81
330.658	567.81
330.887	552.81
331.115	555.81
331.344	509.81
331.572	476.81
331.801	510.81
332.03	524.81
332.258	487.81
332.486	504.81
332.715	497.81
332.943	498.81
333.172	513.81
333.4	496.81
333.629	524.81
333.857	537.81
334.085	547.81
334.314	557.81
334.542	567.81
334.771	598.81
334.999	548.81
335.227	534.81
335.455	521.81
335.684	530.81
335.912	506.81
336.14	511.81
336.369	527.81
336.597	501.81
336.825	495.81
337.053	516.81
337.281	487.81
337.51	477.81
337.738	489.81
337.966	472.81
338.194	482.81
338.422	472.81
338.65	459.81
338.878	487.81
339.106	484.81
339.334	464.81
339.562	473.81
339.79	470.81
340.018	473.81
340.246	464.81
340.474	464.81
340.702	471.81
340.93	472.81
341.158	476.81
341.386	468.81
341.614	462.81
341.842	471.81
342.07	474.81
342.298	439.81
342.526	442.81
342.754	453.81
342.981	448.81
343.209	469.81
343.437	457.81
343.665	479.81
343.893	499.81
344.12	518.81
344.348	499.81
344.576	471.81
344.804	496.81
345.031	517.81
345.259	474.81
345.487	482.81
345.714	468.81
345.942	456.81
346.17	461.81
346.397	447.81
346.625	453.81
346.853	449.81
347.08	446.81
347.308	451.81
347.535	431.81
347.763	468.81
347.99	440.81
348.218	455.81
348.445	434.81
348.673	450.81
348.9	462.81
349.128	427.81
349.355	436.81
349.583	430.81
349.81	442.81
350.037	446.81
350.265	434.81
350.492	424.81
350.72	442.81
350.947	428.81
351.174	434.81
351.402	442.81
351.629	419.81
351.856	440.81
352.083	422.81
352.311	450.81
352.538	453.81
352.765	430.81
352.992	439.81
353.22	441.81
353.447	439.81
353.674	439.81
353.901	438.81
354.128	427.81
354.355	431.81
354.583	423.81
354.81	431.81
355.037	418.81
355.264	424.81
355.491	420.81
355.718	431.81
355.945	426.81
356.172	407.81
356.399	435.81
356.626	427.81
356.853	423.81
357.08	412.81
357.307	446.81
357.534	406.81
357.761	430.81
357.988	425.81
358.215	415.81
358.441	427.81
358.668	410.81
358.895	430.81
359.122	445.81
359.349	420.81
359.576	444.81
359.802	443.81
360.029	467.81
360.256	479.81
360.483	447.81
360.709	430.81
360.936	431.81
361.163	406.81
361.39	439.81
361.616	452.81
361.843	435.81
362.07	443.81
362.296	432.81
362.523	423.81
362.749	442.81
362.976	444.81
363.203	447.81
363.429	441.81
363.656	442.81
363.882	422.81
364.109	449.81
364.335	431.81
364.562	412.81
364.788	431.81
365.015	420.81
365.241	443.81
365.468	431.81
365.694	443.81
365.92	435.81
366.147	436.81
366.373	413.81
366.599	401.81
366.826	427.81
367.052	439.81
367.278	434.81
367.505	426.81
367.731	438.81
367.957	421.81
368.184	435.81
368.41	445.81
368.636	428.81
368.862	436.81
369.089	435.81
369.315	426.81
369.541	428.81
369.767	468.81
369.993	420.81
370.219	431.81
370.445	452.81
370.672	428.81
370.898	429.81
371.124	428.81
371.35	431.81
371.576	456.81
371.802	421.81
372.028	423.81
372.254	440.81
372.48	451.81
372.706	446.81
372.932	472.81
373.158	442.81
373.384	442.81
373.61	455.81
373.835	446.81
374.061	428.81
374.287	437.81
374.513	448.81
374.739	443.81
374.965	442.81
375.191	459.81
375.416	471.81
375.642	460.81
375.868	444.81
376.094	456.81
376.319	434.81
376.545	434.81
376.771	433.81
376.997	453.81
377.222	456.81
377.448	439.81
377.674	439.81
377.899	439.81
378.125	422.81
378.35	448.81
378.576	438.81
378.802	417.81
379.027	426.81
379.253	431.81
379.478	430.81
379.704	440.81
379.929	445.81
380.155	427.81
380.38	409.81
380.606	439.81
380.831	434.81
381.057	453.81
381.282	450.81
381.507	458.81
381.733	444.81
381.958	450.81
382.184	437.81
382.409	441.81
382.634	444.81
382.86	444.81
383.085	437.81
383.31	468.81
383.535	463.81
383.761	477.81
383.986	458.81
384.211	459.81
384.436	482.81
384.662	485.81
384.887	499.81
385.112	477.81
385.337	465.81
385.562	493.81
385.787	476.81
386.013	503.81
386.238	489.81
386.463	499.81
386.688	499.81
386.913	504.81
387.138	494.81
387.363	481.81
387.588	504.81
387.813	497.81
388.038	498.81
388.263	515.81
388.488	485.81
388.713	508.81
388.938	486.81
389.163	468.81
389.387	478.81
389.612	486.81
389.837	477.81
390.062	487.81
390.287	482.81
390.512	471.81
390.736	501.81
390.961	503.81
391.186	514.81
391.411	495.81
391.636	528.81
391.86	506.81
392.085	529.81
392.31	525.81
392.534	500.81
392.759	518.81
392.984	508.81
393.208	507.81
393.433	520.81
393.658	499.81
393.882	495.81
394.107	491.81
394.331	493.81
394.556	507.81
394.78	507.81
395.005	499.81
395.229	522.81
395.454	522.81
395.678	534.81
395.903	537.81
396.127	557.81
396.352	557.81
396.576	509.81
396.801	516.81
397.025	512.81
397.249	539.81
397.474	544.81
397.698	546.81
397.922	562.81
398.147	551.81
398.371	578.81
398.595	560.81
398.82	566.81
399.044	604.81
399.268	635.81
399.492	692.81
399.717	723.81
399.941	750.81
400.165	747.81
400.389	735.81
400.613	672.81
400.837	616.81
401.062	600.81
401.286	603.81
401.51	589.81
401.734	613.81
401.958	605.81
402.182	604.81
402.406	580.81
402.63	602.81
402.854	636.81
403.078	601.81
403.302	622.81
403.526	614.81
403.75	622.81
403.974	621.81
404.198	615.81
404.422	612.81
404.645	623.81
404.869	619.81
405.093	638.81
405.317	688.81
405.541	699.81
405.765	664.81
405.988	640.81
406.212	622.81
406.436	635.81
406.66	670.81
406.883	676.81
407.107	714.81
407.331	693.81
407.555	803.81
407.778	769.81
408.002	702.81
408.226	675.81
408.449	679.81
408.673	662.81
408.896	686.81
409.12	684.81
409.344	678.81
409.567	637.81
409.791	632.81
410.014	605.81
410.238	607.81
410.461	606.81
410.685	606.81
410.908	629.81
411.132	653.81
411.355	657.81
411.578	651.81
411.802	615.81
412.025	622.81
412.249	600.81
412.472	620.81
412.695	637.81
412.919	632.81
413.142	610.81
413.365	604.81
413.589	602.81
413.812	583.81
414.035	560.81
414.258	576.81
414.482	578.81
414.705	571.81
414.928	568.81
415.151	586.81
415.374	577.81
415.597	584.81
415.821	574.81
416.044	567.81
416.267	554.81
416.49	558.81
416.713	557.81
416.936	551.81
417.159	556.81
417.382	575.81
417.605	576.81
417.828	592.81
418.051	588.81
418.274	564.81
418.497	578.81
418.72	555.81
418.943	572.81
419.166	604.81
419.389	638.81
419.611	618.81
419.834	630.81
420.057	616.81
420.28	601.81
420.503	590.81
420.726	599.81
420.948	599.81
421.171	608.81
421.394	656.81
421.617	598.81
421.839	594.81
422.062	601.81
422.285	603.81
422.507	662.81
422.73	734.81
422.953	692.81
423.175	633.81
423.398	623.81
423.621	623.81
423.843	612.81
424.066	639.81
424.288	637.81
424.511	649.81
424.733	683.81
424.956	736.81
425.178	712.81
425.401	720.81
425.623	726.81
425.846	639.81
426.068	608.81
426.291	610.81
426.513	620.81
426.735	603.81
426.958	641.81
427.18	716.81
427.402	825.81
427.625	891.81
427.847	772.81
428.069	694.81
428.292	622.81
428.514	619.81
428.736	598.81
428.958	588.81
429.181	539.81
429.403	580.81
429.625	574.81
429.847	603.81
430.069	607.81
430.292	626.81
430.514	550.81
430.736	552.81
430.958	568.81
431.18	533.81
431.402	550.81
431.624	537.81
431.846	542.81
432.068	543.81
432.29	510.81
432.512	536.81
432.734	565.81
432.956	538.81
433.178	552.81
433.4	543.81
433.622	552.81
433.844	543.81
434.066	516.81
434.287	548.81
434.509	545.81
434.731	583.81
434.953	567.81
435.175	607.81
435.397	597.81
435.618	613.81
435.84	638.81
436.062	704.81
436.284	765.81
436.505	663.81
436.727	606.81
436.949	586.81
437.17	571.81
437.392	559.81
437.614	572.81
437.835	590.81
438.057	641.81
438.278	728.81
438.5	723.81
438.721	821.81
438.943	789.81
439.165	655.81
439.386	606.81
439.608	590.81
439.829	575.81
440.05	615.81
440.272	634.81
440.493	614.81
440.715	569.81
440.936	600.81
441.158	568.81
441.379	562.81
441.6	599.81
441.822	626.81
442.043	676.81
442.264	703.81
442.486	749.81
442.707	636.81
442.928	629.81
443.149	612.81
443.371	649.81
443.592	682.81
443.813	762.81
444.034	832.81
444.255	715.81
444.476	662.81
444.698	636.81
444.919	625.81
445.14	716.81
445.361	664.81
445.582	647.81
445.803	685.81
446.024	776.81
446.245	763.81
446.466	698.81
446.687	598.81
446.908	605.81
447.129	597.81
447.35	547.81
447.571	547.81
447.792	533.81
448.013	555.81
448.234	585.81
448.455	588.81
448.675	702.81
448.896	803.81
449.117	676.81
449.338	644.81
449.559	718.81
449.779	840.81
450	664.81
450.221	595.81
450.442	534.81
450.662	551.81
450.883	528.81
451.104	533.81
451.324	512.81
451.545	532.81
451.766	506.81
451.986	504.81
452.207	479.81
452.428	508.81
452.648	515.81
452.869	476.81
453.089	511.81
453.31	507.81
453.53	485.81
453.751	493.81
453.971	487.81
454.192	495.81
454.412	512.81
454.633	490.81
454.853	502.81
455.073	484.81
455.294	514.81
455.514	558.81
455.734	532.81
455.955	493.81
456.175	472.81
456.395	482.81
456.616	453.81
456.836	475.81
457.056	470.81
457.276	466.81
457.497	476.81
457.717	474.81
457.937	463.81
458.157	483.81
458.377	488.81
458.598	525.81
458.818	547.81
459.038	602.81
459.258	632.81
459.478	567.81
459.698	546.81
459.918	543.81
460.138	554.81
460.358	582.81
460.578	581.81
460.798	576.81
461.018	576.81
461.238	570.81
461.458	570.81
461.678	571.81
461.898	568.81
462.118	598.81
462.338	584.81
462.558	609.81
462.777	601.81
462.997	646.81
463.217	692.81
463.437	685.81
463.657	646.81
463.876	651.81
464.096	622.81
464.316	613.81
464.536	635.81
464.755	635.81
464.975	601.81
465.195	599.81
465.414	640.81
465.634	588.81
465.854	550.81
466.073	525.81
466.293	535.81
466.512	508.81
466.732	520.81
466.951	546.81
467.171	541.81
467.391	531.81
467.61	527.81
467.829	530.81
468.049	514.81
468.268	515.81
468.488	494.81
468.707	488.81
468.927	493.81
469.146	501.81
469.365	498.81
469.585	488.81
469.804	503.81
470.023	510.81
470.243	512.81
470.462	512.81
470.681	528.81
470.901	541.81
471.12	536.81
471.339	526.81
471.558	529.81
471.777	531.81
471.997	525.81
472.216	533.81
472.435	528.81
472.654	538.81
472.873	508.81
473.092	501.81
473.311	522.81
473.53	501.81
473.749	512.81
473.968	535.81
474.187	630.81
474.406	632.81
474.625	556.81
474.844	517.81
475.063	522.81
475.282	501.81
475.501	506.81
475.72	542.81
475.939	524.81
476.158	523.81
476.377	527.81
476.596	521.81
476.814	552.81
477.033	526.81
477.252	540.81
477.471	538.81
477.69	584.81
477.908	565.81
478.127	572.81
478.346	568.81
478.564	575.81
478.783	604.81
479.002	612.81
479.22	599.81
479.439	637.81
479.658	589.81
479.876	634.81
480.095	632.81
480.313	654.81
480.532	666.81
480.751	638.81
480.969	643.81
481.188	665.81
481.406	671.81
481.624	648.81
481.843	615.81
482.061	621.81
482.28	610.81
482.498	586.81
482.717	600.81
482.935	580.81
483.153	571.81
483.372	572.81
483.59	591.81
483.808	597.81
484.027	584.81
484.245	590.81
484.463	588.81
484.681	620.81
484.9	591.81
485.118	605.81
485.336	617.81
485.554	620.81
485.772	621.81
485.99	612.81
486.209	606.81
486.427	609.81
486.645	620.81
486.863	615.81
487.081	619.81
487.299	630.81
487.517	610.81
487.735	620.81
487.953	630.81
488.171	640.81
488.389	621.81
488.607	630.81
488.825	628.81
489.043	619.81
489.261	652.81
489.479	652.81
489.696	629.81
489.914	656.81
490.132	638.81
490.35	669.81
490.568	663.81
490.786	661.81
491.003	683.81
491.221	674.81
491.439	711.81
491.657	696.81
491.874	702.81
492.092	710.81
492.31	712.81
492.527	712.81
492.745	734.81
492.963	740.81
493.18	746.81
493.398	717.81
493.615	723.81
493.833	714.81
494.05	742.81
494.268	728.81
494.485	720.81
494.703	721.81
494.92	727.81
495.138	751.81
495.355	755.81
495.573	734.81
495.79	733.81
496.008	763.81
496.225	755.81
496.442	762.81
496.66	729.81
496.877	785.81
497.094	772.81
497.312	767.81
497.529	766.81
497.746	812.81
497.963	836.81
498.181	814.81
498.398	839.81
498.615	888.81
498.832	903.81
499.049	963.81
499.267	952.81
499.484	1011.81
499.701	1088.81
499.918	1100.81
500.135	1235.81
500.352	1319.81
500.569	1306.81
500.786	1346.81
501.003	1300.81
501.22	1231.81
501.437	1147.81
501.654	1125.81
501.871	1072.81
502.088	997.81
502.305	915.81
502.522	916.81
502.739	866.81
502.956	844.81
503.172	831.81
503.389	782.81
503.606	812.81
503.823	782.81
504.04	772.81
504.256	791.81
504.473	776.81
504.69	770.81
504.907	793.81
505.123	770.81
505.34	734.81
505.557	732.81
505.773	699.81
505.99	705.81
506.207	680.81
506.423	698.81
506.64	678.81
506.856	693.81
507.073	664.81
507.289	682.81
507.506	691.81
507.722	682.81
507.939	667.81
508.155	642.81
508.372	654.81
508.588	658.81
508.805	669.81
509.021	660.81
509.238	653.81
509.454	662.81
509.67	674.81
509.887	650.81
510.103	621.81
510.319	623.81
510.536	695.81
510.752	969.81
510.968	823.81
511.184	650.81
511.401	630.81
511.617	637.81
511.833	614.81
512.049	587.81
512.265	603.81
512.481	601.81
512.698	615.81
512.914	604.81
513.13	612.81
513.346	596.81
513.562	613.81
513.778	584.81
513.994	605.81
514.21	623.81
514.426	651.81
514.642	654.81
514.858	637.81
515.074	711.81
515.29	748.81
515.506	992.81
515.721	864.81
515.937	667.81
516.153	668.81
516.369	659.81
516.585	635.81
516.801	654.81
517.016	694.81
517.232	682.81
517.448	669.81
517.664	672.81
517.879	708.81
518.095	687.81
518.311	698.81
518.527	692.81
518.742	664.81
518.958	648.81
519.173	640.81
519.389	630.81
519.605	627.81
519.82	612.81
520.036	600.81
520.251	626.81
520.467	622.81
520.682	624.81
520.898	632.81
521.113	644.81
521.329	642.81
521.544	702.81
521.76	810.81
521.975	1205.81
522.19	1154.81
522.406	735.81
522.621	640.81
522.836	605.81
523.052	596.81
523.267	574.81
523.482	574.81
523.698	561.81
523.913	562.81
524.128	557.81
524.343	562.81
524.559	559.81
524.774	521.81
524.989	538.81
525.204	550.81
525.419	545.81
525.634	534.81
525.849	528.81
526.064	549.81
526.28	522.81
526.495	516.81
526.71	500.81
526.925	507.81
527.14	502.81
527.355	491.81
527.57	489.81
527.785	498.81
527.999	528.81
528.214	520.81
528.429	505.81
528.644	526.81
528.859	528.81
529.074	516.81
529.289	514.81
529.503	567.81
529.718	563.81
529.933	526.81
530.148	524.81
530.363	523.81
530.577	528.81
530.792	522.81
531.007	518.81
531.221	510.81
531.436	525.81
531.651	488.81
531.865	482.81
532.08	509.81
532.295	514.81
532.509	509.81
532.724	489.81
532.938	491.81
533.153	505.81
533.367	496.81
533.582	494.81
533.796	498.81
534.011	510.81
534.225	527.81
534.44	472.81
534.654	512.81
534.868	494.81
535.083	485.81
535.297	505.81
535.511	487.81
535.726	490.81
535.94	490.81
536.154	470.81
536.369	482.81
536.583	490.81
536.797	490.81
537.011	491.81
537.225	492.81
537.44	472.81
537.654	492.81
537.868	458.81
538.082	488.81
538.296	502.81
538.51	489.81
538.724	483.81
538.938	483.81
539.153	472.81
539.367	478.81
539.581	472.81
539.795	435.81
540.009	469.81
540.222	455.81
540.436	492.81
540.65	490.81
540.864	476.81
541.078	491.81
541.292	479.81
541.506	471.81
541.72	465.81
541.934	510.81
542.147	479.81
542.361	472.81
542.575	453.81
542.789	460.81
543.002	462.81
543.216	496.81
543.43	476.81
543.644	460.81
543.857	463.81
544.071	475.81
544.285	474.81
544.498	472.81
544.712	478.81
544.925	479.81
545.139	492.81
545.352	470.81
545.566	458.81
545.779	470.81
545.993	469.81
546.206	461.81
546.42	462.81
546.633	481.81
546.847	475.81
547.06	482.81
547.274	469.81
547.487	462.81
547.7	491.81
547.914	456.81
548.127	468.81
548.34	460.81
548.554	468.81
548.767	454.81
548.98	472.81
549.193	470.81
549.407	483.81
549.62	494.81
549.833	478.81
550.046	476.81
550.259	443.81
550.473	465.81
550.686	478.81
550.899	461.81
551.112	475.81
551.325	464.81
551.538	464.81
551.751	450.81
551.964	472.81
552.177	479.81
552.39	456.81
552.603	475.81
552.816	485.81
553.029	477.81
553.242	486.81
553.455	498.81
553.667	502.81
553.88	515.81
554.093	501.81
554.306	486.81
554.519	475.81
554.732	459.81
554.944	445.81
555.157	447.81
555.37	472.81
555.583	452.81
555.795	447.81
556.008	440.81
556.221	433.81
556.433	438.81
556.646	428.81
556.859	422.81
557.071	431.81
557.284	434.81
557.496	416.81
557.709	416.81
557.921	430.81
558.134	422.81
558.346	420.81
558.559	434.81
558.771	406.81
558.984	429.81
559.196	424.81
559.409	383.81
559.621	424.81
559.833	418.81
560.046	402.81
560.258	411.81
560.47	414.81
560.683	409.81
560.895	407.81
561.107	392.81
561.32	403.81
561.532	401.81
561.744	412.81
561.956	420.81
562.168	408.81
562.381	397.81
562.593	407.81
562.805	427.81
563.017	426.81
563.229	413.81
563.441	422.81
563.653	438.81
563.865	435.81
564.077	424.81
564.289	429.81
564.501	438.81
564.713	435.81
564.925	454.81
565.137	440.81
565.349	453.81
565.561	451.81
565.773	461.81
565.985	494.81
566.197	504.81
566.408	527.81
566.62	554.81
566.832	592.81
567.044	588.81
567.255	590.81
567.467	599.81
567.679	587.81
567.891	616.81
568.102	626.81
568.314	626.81
568.526	560.81
568.737	554.81
568.949	528.81
569.161	501.81
569.372	481.81
569.584	447.81
569.795	469.81
570.007	448.81
570.218	445.81
570.43	457.81
570.641	418.81
570.853	440.81
571.064	421.81
571.276	424.81
571.487	414.81
571.698	409.81
571.91	386.81
572.121	369.81
572.333	371.81
572.544	380.81
572.755	373.81
572.966	390.81
573.178	372.81
573.389	365.81
573.6	389.81
573.811	374.81
574.023	359.81
574.234	372.81
574.445	353.81
574.656	342.81
574.867	377.81
575.078	390.81
575.289	357.81
575.501	362.81
575.712	356.81
575.923	347.81
576.134	355.81
576.345	347.81
576.556	364.81
576.767	348.81
576.978	348.81
577.188	355.81
577.399	351.81
577.61	349.81
577.821	338.81
578.032	339.81
578.243	370.81
578.454	456.81
578.665	386.81
578.875	327.81
579.086	329.81
579.297	321.81
579.508	339.81
579.718	344.81
579.929	348.81
580.14	333.81
580.35	321.81
580.561	323.81
580.772	323.81
580.982	336.81
581.193	332.81
581.403	325.81
581.614	324.81
581.825	312.81
582.035	303.81
582.246	324.81
582.456	327.81
582.667	332.81
582.877	327.81
583.087	315.81
583.298	330.81
583.508	308.81
583.719	304.81
583.929	338.81
584.139	334.81
584.35	322.81
584.56	315.81
584.77	318.81
584.981	315.81
585.191	320.81
585.401	306.81
585.611	322.81
585.821	313.81
586.032	324.81
586.242	328.81
586.452	331.81
586.662	302.81
586.872	307.81
587.082	322.81
587.292	324.81
587.502	325.81
587.713	332.81
587.923	307.81
588.133	331.81
588.343	313.81
588.553	306.81
588.762	315.81
588.972	319.81
589.182	301.81
589.392	312.81
589.602	310.81
589.812	306.81
590.022	320.81
590.232	318.81
590.441	315.81
590.651	318.81
590.861	309.81
591.071	325.81
591.281	326.81
591.49	326.81
591.7	332.81
591.91	296.81
592.119	333.81
592.329	360.81
592.539	354.81
592.748	359.81
592.958	368.81
593.167	355.81
593.377	354.81
593.587	368.81
593.796	356.81
594.006	375.81
594.215	370.81
594.424	370.81
594.634	375.81
594.843	359.81
595.053	336.81
595.262	349.81
595.472	306.81
595.681	332.81
595.89	317.81
596.1	303.81
596.309	295.81
596.518	308.81
596.727	320.81
596.937	304.81
597.146	293.81
597.355	293.81
597.564	289.81
597.774	294.81
597.983	293.81
598.192	296.81
598.401	290.81
598.61	292.81
598.819	293.81
599.028	291.81
599.237	281.81
599.446	277.81
599.655	263.81
599.864	262.81
600.073	282.81
600.282	258.81
600.491	280.81
600.7	265.81
600.909	277.81
601.118	273.81
601.327	275.81
601.536	264.81
601.745	279.81
601.953	290.81
602.162	248.81
602.371	267.81
602.58	269.81
602.789	267.81
602.997	276.81
603.206	254.81
603.415	264.81
603.623	275.81
603.832	269.81
604.041	274.81
604.249	267.81
604.458	259.81
604.666	243.81
604.875	259.81
605.084	256.81
605.292	255.81
605.501	254.81
605.709	263.81
605.918	255.81
606.126	255.81
606.334	254.81
606.543	262.81
606.751	239.81
606.96	253.81
607.168	246.81
607.376	269.81
607.585	264.81
607.793	268.81
608.001	262.81
608.21	252.81
608.418	261.81
608.626	260.81
608.834	252.81
609.043	261.81
609.251	238.81
609.459	261.81
609.667	265.81
609.875	265.81
610.083	262.81
610.291	249.81
610.499	252.81
610.707	264.81
610.916	256.81
611.124	257.81
611.332	262.81
611.54	271.81
611.748	251.81
611.955	243.81
612.163	237.81
612.371	258.81
612.579	257.81
612.787	250.81
612.995	232.81
613.203	256.81
613.411	237.81
613.618	247.81
613.826	230.81
614.034	264.81
614.242	255.81
614.449	246.81
614.657	258.81
614.865	244.81
615.072	254.81
615.28	247.81
615.488	240.81
615.695	258.81
615.903	238.81
616.111	260.81
616.318	271.81
616.526	256.81
616.733	250.81
616.941	241.81
617.148	237.81
617.356	249.81
617.563	257.81
617.771	251.81
617.978	247.81
618.185	254.81
618.393	235.81
618.6	268.81
618.807	235.81
619.015	229.81
619.222	228.81
619.429	233.81
619.637	255.81
619.844	238.81
620.051	231.81
620.258	221.81
620.466	238.81
620.673	244.81
620.88	224.81
621.087	246.81
621.294	225.81
621.501	230.81
621.708	238.81
621.915	246.81
622.122	242.81
622.329	233.81
622.536	228.81
622.743	232.81
622.95	252.81
623.157	228.81
623.364	232.81
623.571	229.81
623.778	244.81
623.985	235.81
624.192	236.81
624.399	236.81
624.606	221.81
624.812	214.81
625.019	219.81
625.226	216.81
625.433	227.81
625.639	215.81
625.846	218.81
626.053	229.81
626.259	212.81
626.466	235.81
626.673	210.81
626.879	226.81
627.086	220.81
627.293	220.81
627.499	203.81
627.706	196.81
627.912	227.81
628.119	217.81
628.325	224.81
628.532	202.81
628.738	206.81
628.945	201.81
629.151	209.81
629.357	205.81
629.564	206.81
629.77	207.81
629.976	204.81
630.183	221.81
630.389	223.81
630.595	208.81
630.802	197.81
631.008	222.81
631.214	203.81
631.42	200.81
631.627	198.81
631.833	213.81
632.039	209.81
632.245	213.81
632.451	190.81
632.657	191.81
632.863	211.81
633.069	191.81
633.275	186.81
633.481	204.81
633.688	203.81
633.893	205.81
634.099	202.81
634.305	198.81
634.511	190.81
634.717	211.81
634.923	201.81
635.129	204.81
635.335	183.81
635.541	195.81
635.747	194.81
635.952	172.81
636.158	196.81
636.364	187.81
636.57	201.81
636.775	204.81
636.981	195.81
637.187	183.81
637.392	184.81
637.598	194.81
637.804	218.81
638.009	201.81
638.215	195.81
638.421	200.81
638.626	183.81
638.832	190.81
639.037	195.81
639.243	197.81
639.448	192.81
639.654	193.81
639.859	193.81
640.065	169.81
640.27	169.81
640.475	189.81
640.681	166.81
640.886	188.81
641.091	189.81
641.297	198.81
641.502	182.81
641.707	195.81
641.913	180.81
642.118	178.81
642.323	198.81
642.528	187.81
642.733	182.81
642.939	172.81
643.144	173.81
643.349	175.81
643.554	180.81
643.759	176.81
643.964	185.81
644.169	168.81
644.374	170.81
644.579	185.81
644.784	169.81
644.989	174.81
645.194	189.81
645.399	188.81
645.604	166.81
645.809	174.81
646.014	188.81
646.219	176.81
646.423	169.81
646.628	186.81
646.833	184.81
647.038	187.81
647.243	190.81
647.447	171.81
647.652	168.81
647.857	194.81
648.062	183.81
648.266	176.81
648.471	191.81
648.676	196.81
648.88	182.81
649.085	191.81
649.289	197.81
649.494	188.81
649.698	170.81
649.903	188.81
650.107	178.81
650.312	169.81
650.516	166.81
650.721	149.81
650.925	154.81
651.13	161.81
651.334	179.81
651.539	158.81
651.743	152.81
651.947	162.81
652.152	144.81
652.356	147.81
652.56	150.81
652.764	164.81
652.969	145.81
653.173	155.81
653.377	143.81
653.581	143.81
653.785	134.81
653.99	144.81
654.194	147.81
654.398	145.81
654.602	138.81
654.806	140.81
655.01	133.81
655.214	152.81
655.418	130.81
655.622	130.81
655.826	128.81
656.03	149.81
656.234	133.81
656.438	138.81
656.642	151.81
656.846	150.81
657.049	131.81
657.253	142.81
657.457	131.81
657.661	124.81
657.865	133.81
658.068	124.81
658.272	112.81
658.476	118.81
658.68	111.81
658.883	118.81
659.087	114.81
659.291	114.81
659.494	93.81
659.698	92.81
659.901	107.81
660.105	107.81
660.309	101.81
660.512	117.81
660.716	91.81
660.919	107.81
661.123	94.81
661.326	89.81
661.53	83.81
661.733	76.81
661.936	97.81
662.14	90.81
662.343	89.81
662.546	83.81
662.75	90.81
662.953	90.81
663.156	90.81
663.36	98.81
663.563	103.81
663.766	80.81
663.969	85.81
664.173	88.81
664.376	87.81
664.579	85.81
664.782	98.81
664.985	77.81
665.188	95.81
665.391	94.81
665.594	85.81
665.797	80.81
666	91.81
666.203	93.81
666.406	74.81
666.609	87.81
666.812	92.81
667.015	88.81
667.218	78.81
667.421	86.81
667.624	86.81
667.827	76.81
668.03	70.81
668.232	75.81
668.435	76.81
668.638	73.81
668.841	79.81
669.043	99.81
669.246	84.81
669.449	89.81
669.651	75.81
669.854	94.81
670.057	93.81
670.259	72.81
670.462	87.81
670.665	90.81
670.867	87.81
671.07	92.81
671.272	85.81
671.475	83.81
671.677	77.81
671.88	100.81
672.082	72.81
672.284	82.81
672.487	80.81
672.689	89.81
672.892	100.81
