Data from 1973.PennyLincolnUp.Lamp.En5.5.200Scan.071719.P1.Changed Mount._HRD10591_15-44-56-852.txt Node
Date: Thu Jul 18 15:44:56 EDT 2019
User: cochatt
Spectrometer: HR+D1059
Trigger mode: 1
Integration Time (sec): 1.000000E-1
Scans to average: 1
Electric dark correction enabled: true
Nonlinearity correction enabled: false
Boxcar width: 0
XAxis mode: Wavelengths
Number of Pixels in Spectrum: 2048
>>>>>Begin Spectral Data<<<<<
223.165	-0.25
223.4	-0.25
223.635	-0.25
223.869	2.75
224.104	-19.25
224.338	-14.25
224.573	-27.25
224.808	-19.25
225.042	1.75
225.277	-14.25
225.511	3.75
225.746	-3.25
225.98	7.75
226.215	9.75
226.449	10.75
226.683	21.75
226.918	19.75
227.152	19.75
227.387	35.75
227.621	42.75
227.856	51.75
228.09	41.75
228.324	46.75
228.559	58.75
228.793	55.75
229.027	78.75
229.262	93.75
229.496	104.75
229.73	123.75
229.964	139.75
230.199	119.75
230.433	113.75
230.667	110.75
230.901	104.75
231.136	117.75
231.37	113.75
231.604	111.75
231.838	131.75
232.072	113.75
232.306	100.75
232.541	115.75
232.775	116.75
233.009	103.75
233.243	106.75
233.477	111.75
233.711	103.75
233.945	115.75
234.179	120.75
234.413	128.75
234.647	117.75
234.881	115.75
235.115	125.75
235.349	107.75
235.583	147.75
235.817	133.75
236.051	113.75
236.285	117.75
236.519	134.75
236.753	123.75
236.987	143.75
237.221	164.75
237.455	220.75
237.689	153.75
237.922	147.75
238.156	132.75
238.39	124.75
238.624	135.75
238.858	133.75
239.091	126.75
239.325	128.75
239.559	119.75
239.793	129.75
240.027	151.75
240.26	138.75
240.494	161.75
240.728	159.75
240.961	163.75
241.195	137.75
241.429	134.75
241.662	121.75
241.896	127.75
242.13	143.75
242.363	149.75
242.597	136.75
242.83	137.75
243.064	150.75
243.298	134.75
243.531	133.75
243.765	155.75
243.998	135.75
244.232	149.75
244.465	151.75
244.699	151.75
244.932	137.75
245.166	166.75
245.399	145.75
245.633	154.75
245.866	148.75
246.099	152.75
246.333	158.75
246.566	170.75
246.8	157.75
247.033	165.75
247.266	143.75
247.5	158.75
247.733	173.75
247.966	171.75
248.2	181.75
248.433	185.75
248.666	180.75
248.899	163.75
249.133	193.75
249.366	207.75
249.599	203.75
249.832	198.75
250.066	179.75
250.299	177.75
250.532	200.75
250.765	204.75
250.998	225.75
251.231	220.75
251.465	210.75
251.698	218.75
251.931	199.75
252.164	194.75
252.397	209.75
252.63	196.75
252.863	215.75
253.096	218.75
253.329	208.75
253.562	243.75
253.795	217.75
254.028	213.75
254.261	213.75
254.494	225.75
254.727	236.75
254.96	270.75
255.193	259.75
255.426	248.75
255.659	230.75
255.892	243.75
256.124	225.75
256.357	229.75
256.59	241.75
256.823	229.75
257.056	222.75
257.289	224.75
257.521	210.75
257.754	206.75
257.987	207.75
258.22	201.75
258.452	210.75
258.685	223.75
258.918	218.75
259.151	227.75
259.383	242.75
259.616	241.75
259.849	231.75
260.081	241.75
260.314	252.75
260.547	243.75
260.779	260.75
261.012	259.75
261.244	229.75
261.477	232.75
261.71	237.75
261.942	233.75
262.175	242.75
262.407	219.75
262.64	225.75
262.872	212.75
263.105	205.75
263.337	222.75
263.57	222.75
263.802	220.75
264.035	214.75
264.267	212.75
264.499	219.75
264.732	220.75
264.964	230.75
265.197	227.75
265.429	243.75
265.661	237.75
265.894	230.75
266.126	227.75
266.358	223.75
266.591	228.75
266.823	234.75
267.055	249.75
267.287	249.75
267.52	238.75
267.752	247.75
267.984	236.75
268.216	265.75
268.448	277.75
268.681	253.75
268.913	266.75
269.145	282.75
269.377	294.75
269.609	287.75
269.841	283.75
270.073	298.75
270.306	305.75
270.538	316.75
270.77	326.75
271.002	292.75
271.234	312.75
271.466	288.75
271.698	326.75
271.93	317.75
272.162	323.75
272.394	336.75
272.626	334.75
272.858	299.75
273.09	301.75
273.322	299.75
273.553	295.75
273.785	271.75
274.017	267.75
274.249	278.75
274.481	289.75
274.713	307.75
274.945	284.75
275.176	284.75
275.408	290.75
275.64	277.75
275.872	281.75
276.104	291.75
276.335	286.75
276.567	303.75
276.799	294.75
277.031	344.75
277.262	325.75
277.494	364.75
277.726	321.75
277.957	314.75
278.189	290.75
278.421	319.75
278.652	286.75
278.884	298.75
279.115	293.75
279.347	281.75
279.579	282.75
279.81	290.75
280.042	309.75
280.273	290.75
280.505	290.75
280.736	292.75
280.968	297.75
281.199	298.75
281.431	306.75
281.662	293.75
281.894	296.75
282.125	302.75
282.356	313.75
282.588	343.75
282.819	321.75
283.051	285.75
283.282	283.75
283.513	312.75
283.745	300.75
283.976	312.75
284.207	298.75
284.439	330.75
284.67	323.75
284.901	318.75
285.132	314.75
285.364	311.75
285.595	318.75
285.826	291.75
286.057	297.75
286.288	324.75
286.52	315.75
286.751	310.75
286.982	319.75
287.213	306.75
287.444	314.75
287.675	335.75
287.906	347.75
288.138	353.75
288.369	341.75
288.6	340.75
288.831	341.75
289.062	335.75
289.293	330.75
289.524	332.75
289.755	342.75
289.986	341.75
290.217	320.75
290.448	331.75
290.679	325.75
290.91	319.75
291.141	330.75
291.371	326.75
291.602	340.75
291.833	338.75
292.064	310.75
292.295	334.75
292.526	312.75
292.757	333.75
292.987	330.75
293.218	341.75
293.449	333.75
293.68	349.75
293.91	297.75
294.141	326.75
294.372	325.75
294.603	331.75
294.833	333.75
295.064	342.75
295.295	327.75
295.525	339.75
295.756	322.75
295.987	340.75
296.217	345.75
296.448	339.75
296.679	335.75
296.909	348.75
297.14	335.75
297.37	346.75
297.601	352.75
297.831	327.75
298.062	343.75
298.292	349.75
298.523	356.75
298.753	343.75
298.984	337.75
299.214	347.75
299.445	345.75
299.675	347.75
299.905	353.75
300.136	345.75
300.366	331.75
300.597	340.75
300.827	371.75
301.057	361.75
301.288	364.75
301.518	372.75
301.748	364.75
301.979	352.75
302.209	372.75
302.439	357.75
302.669	385.75
302.9	366.75
303.13	349.75
303.36	365.75
303.59	370.75
303.82	363.75
304.051	367.75
304.281	375.75
304.511	375.75
304.741	366.75
304.971	359.75
305.201	371.75
305.431	369.75
305.661	373.75
305.891	358.75
306.121	365.75
306.352	355.75
306.582	370.75
306.812	369.75
307.042	362.75
307.272	364.75
307.502	379.75
307.731	381.75
307.961	377.75
308.191	352.75
308.421	383.75
308.651	381.75
308.881	372.75
309.111	374.75
309.341	372.75
309.571	389.75
309.8	380.75
310.03	397.75
310.26	396.75
310.49	388.75
310.72	403.75
310.949	397.75
311.179	397.75
311.409	400.75
311.639	398.75
311.868	406.75
312.098	382.75
312.328	413.75
312.557	417.75
312.787	406.75
313.017	419.75
313.246	414.75
313.476	401.75
313.706	407.75
313.935	415.75
314.165	417.75
314.394	409.75
314.624	423.75
314.853	435.75
315.083	405.75
315.312	392.75
315.542	404.75
315.771	413.75
316.001	395.75
316.23	404.75
316.46	398.75
316.689	382.75
316.919	414.75
317.148	424.75
317.377	429.75
317.607	415.75
317.836	407.75
318.065	410.75
318.295	394.75
318.524	407.75
318.753	403.75
318.983	414.75
319.212	404.75
319.441	433.75
319.67	411.75
319.9	419.75
320.129	415.75
320.358	422.75
320.587	424.75
320.816	435.75
321.046	429.75
321.275	422.75
321.504	423.75
321.733	427.75
321.962	429.75
322.191	436.75
322.42	437.75
322.649	432.75
322.878	457.75
323.108	458.75
323.337	475.75
323.566	500.75
323.795	513.75
324.024	524.75
324.253	581.75
324.482	817.75
324.71	1170.75
324.939	1622.75
325.168	1429.75
325.397	795.75
325.626	565.75
325.855	511.75
326.084	486.75
326.313	494.75
326.542	493.75
326.77	523.75
326.999	585.75
327.228	727.75
327.457	1026.75
327.686	1224.75
327.914	853.75
328.143	639.75
328.372	578.75
328.6	539.75
328.829	545.75
329.058	541.75
329.287	543.75
329.515	513.75
329.744	513.75
329.972	512.75
330.201	538.75
330.43	563.75
330.658	538.75
330.887	552.75
331.115	563.75
331.344	513.75
331.572	500.75
331.801	511.75
332.03	505.75
332.258	502.75
332.486	483.75
332.715	512.75
332.943	469.75
333.172	515.75
333.4	495.75
333.629	517.75
333.857	524.75
334.085	535.75
334.314	539.75
334.542	576.75
334.771	543.75
334.999	556.75
335.227	525.75
335.455	518.75
335.684	488.75
335.912	494.75
336.14	489.75
336.369	487.75
336.597	483.75
336.825	535.75
337.053	509.75
337.281	487.75
337.51	464.75
337.738	484.75
337.966	481.75
338.194	473.75
338.422	482.75
338.65	467.75
338.878	479.75
339.106	466.75
339.334	476.75
339.562	476.75
339.79	466.75
340.018	452.75
340.246	472.75
340.474	473.75
340.702	474.75
340.93	465.75
341.158	470.75
341.386	470.75
341.614	458.75
341.842	467.75
342.07	457.75
342.298	457.75
342.526	439.75
342.754	455.75
342.981	446.75
343.209	474.75
343.437	479.75
343.665	487.75
343.893	515.75
344.12	517.75
344.348	485.75
344.576	488.75
344.804	498.75
345.031	477.75
345.259	475.75
345.487	466.75
345.714	463.75
345.942	437.75
346.17	456.75
346.397	435.75
346.625	433.75
346.853	446.75
347.08	436.75
347.308	437.75
347.535	439.75
347.763	450.75
347.99	443.75
348.218	455.75
348.445	456.75
348.673	443.75
348.9	424.75
349.128	443.75
349.355	441.75
349.583	434.75
349.81	443.75
350.037	434.75
350.265	433.75
350.492	433.75
350.72	426.75
350.947	437.75
351.174	439.75
351.402	437.75
351.629	440.75
351.856	429.75
352.083	440.75
352.311	446.75
352.538	439.75
352.765	451.75
352.992	417.75
353.22	456.75
353.447	441.75
353.674	408.75
353.901	443.75
354.128	419.75
354.355	426.75
354.583	419.75
354.81	424.75
355.037	419.75
355.264	414.75
355.491	431.75
355.718	406.75
355.945	413.75
356.172	416.75
356.399	410.75
356.626	422.75
356.853	410.75
357.08	408.75
357.307	412.75
357.534	403.75
357.761	416.75
357.988	410.75
358.215	416.75
358.441	418.75
358.668	412.75
358.895	423.75
359.122	445.75
359.349	428.75
359.576	449.75
359.802	450.75
360.029	463.75
360.256	486.75
360.483	443.75
360.709	410.75
360.936	433.75
361.163	430.75
361.39	444.75
361.616	436.75
361.843	429.75
362.07	446.75
362.296	424.75
362.523	430.75
362.749	428.75
362.976	439.75
363.203	445.75
363.429	425.75
363.656	407.75
363.882	424.75
364.109	433.75
364.335	409.75
364.562	403.75
364.788	420.75
365.015	425.75
365.241	404.75
365.468	445.75
365.694	405.75
365.92	413.75
366.147	431.75
366.373	431.75
366.599	425.75
366.826	424.75
367.052	417.75
367.278	430.75
367.505	425.75
367.731	445.75
367.957	447.75
368.184	425.75
368.41	441.75
368.636	435.75
368.862	432.75
369.089	438.75
369.315	426.75
369.541	419.75
369.767	414.75
369.993	417.75
370.219	426.75
370.445	435.75
370.672	424.75
370.898	435.75
371.124	435.75
371.35	441.75
371.576	419.75
371.802	419.75
372.028	432.75
372.254	419.75
372.48	433.75
372.706	428.75
372.932	439.75
373.158	427.75
373.384	425.75
373.61	415.75
373.835	412.75
374.061	435.75
374.287	432.75
374.513	453.75
374.739	447.75
374.965	459.75
375.191	444.75
375.416	445.75
375.642	430.75
375.868	433.75
376.094	445.75
376.319	430.75
376.545	426.75
376.771	429.75
376.997	420.75
377.222	427.75
377.448	414.75
377.674	421.75
377.899	425.75
378.125	412.75
378.35	427.75
378.576	425.75
378.802	431.75
379.027	435.75
379.253	413.75
379.478	419.75
379.704	434.75
379.929	439.75
380.155	435.75
380.38	427.75
380.606	410.75
380.831	417.75
381.057	410.75
381.282	424.75
381.507	434.75
381.733	430.75
381.958	439.75
382.184	449.75
382.409	441.75
382.634	442.75
382.86	438.75
383.085	455.75
383.31	449.75
383.535	461.75
383.761	469.75
383.986	469.75
384.211	460.75
384.436	461.75
384.662	483.75
384.887	471.75
385.112	471.75
385.337	459.75
385.562	463.75
385.787	471.75
386.013	490.75
386.238	517.75
386.463	505.75
386.688	479.75
386.913	445.75
387.138	493.75
387.363	485.75
387.588	469.75
387.813	482.75
388.038	498.75
388.263	475.75
388.488	484.75
388.713	474.75
388.938	474.75
389.163	474.75
389.387	474.75
389.612	476.75
389.837	474.75
390.062	475.75
390.287	501.75
390.512	484.75
390.736	483.75
390.961	485.75
391.186	486.75
391.411	499.75
391.636	520.75
391.86	505.75
392.085	520.75
392.31	532.75
392.534	513.75
392.759	523.75
392.984	498.75
393.208	474.75
393.433	497.75
393.658	485.75
393.882	487.75
394.107	482.75
394.331	494.75
394.556	478.75
394.78	485.75
395.005	517.75
395.229	520.75
395.454	522.75
395.678	515.75
395.903	524.75
396.127	523.75
396.352	539.75
396.576	506.75
396.801	490.75
397.025	507.75
397.249	525.75
397.474	521.75
397.698	522.75
397.922	531.75
398.147	562.75
398.371	558.75
398.595	545.75
398.82	577.75
399.044	568.75
399.268	603.75
399.492	671.75
399.717	708.75
399.941	742.75
400.165	723.75
400.389	698.75
400.613	643.75
400.837	618.75
401.062	584.75
401.286	582.75
401.51	599.75
401.734	588.75
401.958	583.75
402.182	575.75
402.406	578.75
402.63	569.75
402.854	571.75
403.078	604.75
403.302	611.75
403.526	598.75
403.75	613.75
403.974	630.75
404.198	614.75
404.422	607.75
404.645	612.75
404.869	614.75
405.093	635.75
405.317	670.75
405.541	706.75
405.765	645.75
405.988	602.75
406.212	625.75
406.436	637.75
406.66	649.75
406.883	613.75
407.107	675.75
407.331	705.75
407.555	789.75
407.778	773.75
408.002	730.75
408.226	681.75
408.449	666.75
408.673	659.75
408.896	662.75
409.12	689.75
409.344	661.75
409.567	603.75
409.791	616.75
410.014	599.75
410.238	601.75
410.461	597.75
410.685	604.75
410.908	617.75
411.132	625.75
411.355	652.75
411.578	643.75
411.802	595.75
412.025	594.75
412.249	573.75
412.472	634.75
412.695	652.75
412.919	631.75
413.142	561.75
413.365	578.75
413.589	564.75
413.812	571.75
414.035	545.75
414.258	552.75
414.482	548.75
414.705	569.75
414.928	556.75
415.151	538.75
415.374	554.75
415.597	562.75
415.821	554.75
416.044	556.75
416.267	578.75
416.49	550.75
416.713	547.75
416.936	554.75
417.159	535.75
417.382	563.75
417.605	573.75
417.828	551.75
418.051	564.75
418.274	570.75
418.497	558.75
418.72	582.75
418.943	561.75
419.166	570.75
419.389	602.75
419.611	615.75
419.834	594.75
420.057	590.75
420.28	573.75
420.503	590.75
420.726	587.75
420.948	594.75
421.171	608.75
421.394	631.75
421.617	590.75
421.839	591.75
422.062	578.75
422.285	590.75
422.507	669.75
422.73	691.75
422.953	681.75
423.175	615.75
423.398	615.75
423.621	613.75
423.843	626.75
424.066	599.75
424.288	618.75
424.511	629.75
424.733	655.75
424.956	757.75
425.178	724.75
425.401	701.75
425.623	724.75
425.846	638.75
426.068	623.75
426.291	586.75
426.513	597.75
426.735	607.75
426.958	654.75
427.18	669.75
427.402	802.75
427.625	863.75
427.847	746.75
428.069	661.75
428.292	609.75
428.514	592.75
428.736	542.75
428.958	562.75
429.181	509.75
429.403	549.75
429.625	545.75
429.847	571.75
430.069	626.75
430.292	625.75
430.514	566.75
430.736	539.75
430.958	544.75
431.18	537.75
431.402	530.75
431.624	502.75
431.846	512.75
432.068	552.75
432.29	520.75
432.512	533.75
432.734	534.75
432.956	548.75
433.178	569.75
433.4	554.75
433.622	545.75
433.844	517.75
434.066	507.75
434.287	525.75
434.509	523.75
434.731	549.75
434.953	595.75
435.175	565.75
435.397	593.75
435.618	597.75
435.84	626.75
436.062	674.75
436.284	764.75
436.505	653.75
436.727	591.75
436.949	564.75
437.17	535.75
437.392	551.75
437.614	549.75
437.835	571.75
438.057	611.75
438.278	717.75
438.5	726.75
438.721	796.75
438.943	779.75
439.165	646.75
439.386	595.75
439.608	577.75
439.829	575.75
440.05	589.75
440.272	635.75
440.493	614.75
440.715	551.75
440.936	561.75
441.158	554.75
441.379	533.75
441.6	569.75
441.822	587.75
442.043	642.75
442.264	675.75
442.486	732.75
442.707	625.75
442.928	591.75
443.149	623.75
443.371	622.75
443.592	666.75
443.813	743.75
444.034	789.75
444.255	695.75
444.476	631.75
444.698	618.75
444.919	619.75
445.14	755.75
445.361	702.75
445.582	640.75
445.803	663.75
446.024	735.75
446.245	777.75
446.466	689.75
446.687	630.75
446.908	575.75
447.129	575.75
447.35	534.75
447.571	553.75
447.792	549.75
448.013	520.75
448.234	559.75
448.455	598.75
448.675	686.75
448.896	770.75
449.117	667.75
449.338	639.75
449.559	717.75
449.779	827.75
450	665.75
450.221	581.75
450.442	523.75
450.662	519.75
450.883	493.75
451.104	520.75
451.324	539.75
451.545	492.75
451.766	507.75
451.986	494.75
452.207	489.75
452.428	486.75
452.648	473.75
452.869	469.75
453.089	474.75
453.31	481.75
453.53	481.75
453.751	464.75
453.971	468.75
454.192	487.75
454.412	476.75
454.633	479.75
454.853	466.75
455.073	469.75
455.294	502.75
455.514	562.75
455.734	561.75
455.955	468.75
456.175	474.75
456.395	469.75
456.616	461.75
456.836	446.75
457.056	445.75
457.276	445.75
457.497	428.75
457.717	456.75
457.937	471.75
458.157	473.75
458.377	476.75
458.598	486.75
458.818	511.75
459.038	608.75
459.258	611.75
459.478	546.75
459.698	508.75
459.918	521.75
460.138	555.75
460.358	567.75
460.578	547.75
460.798	576.75
461.018	561.75
461.238	561.75
461.458	547.75
461.678	550.75
461.898	562.75
462.118	543.75
462.338	583.75
462.558	585.75
462.777	586.75
462.997	646.75
463.217	655.75
463.437	652.75
463.657	641.75
463.876	613.75
464.096	603.75
464.316	612.75
464.536	616.75
464.755	609.75
464.975	591.75
465.195	590.75
465.414	628.75
465.634	561.75
465.854	533.75
466.073	507.75
466.293	532.75
466.512	499.75
466.732	490.75
466.951	495.75
467.171	499.75
467.391	513.75
467.61	514.75
467.829	513.75
468.049	498.75
468.268	498.75
468.488	494.75
468.707	477.75
468.927	477.75
469.146	501.75
469.365	504.75
469.585	483.75
469.804	508.75
470.023	499.75
470.243	513.75
470.462	503.75
470.681	526.75
470.901	501.75
471.12	516.75
471.339	525.75
471.558	506.75
471.777	507.75
471.997	518.75
472.216	518.75
472.435	551.75
472.654	515.75
472.873	506.75
473.092	484.75
473.311	481.75
473.53	501.75
473.749	510.75
473.968	554.75
474.187	595.75
474.406	619.75
474.625	527.75
474.844	506.75
475.063	497.75
475.282	516.75
475.501	517.75
475.72	495.75
475.939	514.75
476.158	491.75
476.377	505.75
476.596	503.75
476.814	506.75
477.033	523.75
477.252	538.75
477.471	520.75
477.69	552.75
477.908	528.75
478.127	563.75
478.346	543.75
478.564	565.75
478.783	561.75
479.002	592.75
479.22	588.75
479.439	590.75
479.658	593.75
479.876	615.75
480.095	619.75
480.313	661.75
480.532	643.75
480.751	635.75
480.969	625.75
481.188	649.75
481.406	680.75
481.624	625.75
481.843	595.75
482.061	579.75
482.28	594.75
482.498	569.75
482.717	597.75
482.935	596.75
483.153	587.75
483.372	581.75
483.59	567.75
483.808	565.75
484.027	583.75
484.245	597.75
484.463	595.75
484.681	583.75
484.9	603.75
485.118	606.75
485.336	583.75
485.554	594.75
485.772	631.75
485.99	623.75
486.209	619.75
486.427	615.75
486.645	616.75
486.863	643.75
487.081	610.75
487.299	611.75
487.517	626.75
487.735	608.75
487.953	618.75
488.171	614.75
488.389	617.75
488.607	607.75
488.825	605.75
489.043	627.75
489.261	603.75
489.479	637.75
489.696	625.75
489.914	626.75
490.132	653.75
490.35	653.75
490.568	651.75
490.786	637.75
491.003	673.75
491.221	676.75
491.439	675.75
491.657	682.75
491.874	700.75
492.092	679.75
492.31	690.75
492.527	689.75
492.745	693.75
492.963	712.75
493.18	691.75
493.398	699.75
493.615	698.75
493.833	695.75
494.05	717.75
494.268	728.75
494.485	733.75
494.703	720.75
494.92	725.75
495.138	732.75
495.355	755.75
495.573	718.75
495.79	743.75
496.008	722.75
496.225	719.75
496.442	717.75
496.66	762.75
496.877	720.75
497.094	755.75
497.312	748.75
497.529	781.75
497.746	795.75
497.963	788.75
498.181	818.75
498.398	825.75
498.615	874.75
498.832	880.75
499.049	883.75
499.267	923.75
499.484	974.75
499.701	1048.75
499.918	1117.75
500.135	1176.75
500.352	1230.75
500.569	1305.75
500.786	1262.75
501.003	1259.75
501.22	1181.75
501.437	1138.75
501.654	1081.75
501.871	1023.75
502.088	968.75
502.305	904.75
502.522	842.75
502.739	850.75
502.956	837.75
503.172	799.75
503.389	770.75
503.606	781.75
503.823	769.75
504.04	775.75
504.256	750.75
504.473	772.75
504.69	787.75
504.907	755.75
505.123	739.75
505.34	722.75
505.557	703.75
505.773	698.75
505.99	702.75
506.207	683.75
506.423	698.75
506.64	701.75
506.856	678.75
507.073	683.75
507.289	678.75
507.506	620.75
507.722	641.75
507.939	680.75
508.155	679.75
508.372	646.75
508.588	620.75
508.805	635.75
509.021	640.75
509.238	662.75
509.454	657.75
509.67	659.75
509.887	637.75
510.103	645.75
510.319	643.75
510.536	693.75
510.752	984.75
510.968	805.75
511.184	627.75
511.401	609.75
511.617	591.75
511.833	592.75
512.049	608.75
512.265	587.75
512.481	583.75
512.698	606.75
512.914	592.75
513.13	591.75
513.346	606.75
513.562	601.75
513.778	600.75
513.994	612.75
514.21	606.75
514.426	605.75
514.642	628.75
514.858	667.75
515.074	691.75
515.29	743.75
515.506	1027.75
515.721	853.75
515.937	687.75
516.153	644.75
516.369	670.75
516.585	659.75
516.801	655.75
517.016	673.75
517.232	661.75
517.448	663.75
517.664	673.75
517.879	689.75
518.095	676.75
518.311	698.75
518.527	671.75
518.742	659.75
518.958	638.75
519.173	641.75
519.389	633.75
519.605	629.75
519.82	597.75
520.036	614.75
520.251	622.75
520.467	619.75
520.682	619.75
520.898	636.75
521.113	625.75
521.329	638.75
521.544	704.75
521.76	806.75
521.975	1238.75
522.19	1194.75
522.406	790.75
522.621	638.75
522.836	590.75
523.052	577.75
523.267	556.75
523.482	541.75
523.698	536.75
523.913	533.75
524.128	523.75
524.343	553.75
524.559	534.75
524.774	526.75
524.989	515.75
525.204	532.75
525.419	533.75
525.634	530.75
525.849	526.75
526.064	508.75
526.28	495.75
526.495	483.75
526.71	491.75
526.925	527.75
527.14	506.75
527.355	505.75
527.57	499.75
527.785	507.75
527.999	494.75
528.214	510.75
528.429	493.75
528.644	493.75
528.859	518.75
529.074	481.75
529.289	523.75
529.503	548.75
529.718	545.75
529.933	536.75
530.148	493.75
530.363	507.75
530.577	487.75
530.792	478.75
531.007	478.75
531.221	492.75
531.436	481.75
531.651	507.75
531.865	465.75
532.08	497.75
532.295	491.75
532.509	483.75
532.724	477.75
532.938	487.75
533.153	481.75
533.367	485.75
533.582	517.75
533.796	503.75
534.011	494.75
534.225	453.75
534.44	472.75
534.654	477.75
534.868	487.75
535.083	491.75
535.297	473.75
535.511	475.75
535.726	514.75
535.94	469.75
536.154	469.75
536.369	484.75
536.583	459.75
536.797	450.75
537.011	466.75
537.225	483.75
537.44	463.75
537.654	467.75
537.868	451.75
538.082	450.75
538.296	483.75
538.51	458.75
538.724	483.75
538.938	493.75
539.153	453.75
539.367	454.75
539.581	462.75
539.795	452.75
540.009	477.75
540.222	461.75
540.436	465.75
540.65	477.75
540.864	451.75
541.078	485.75
541.292	472.75
541.506	445.75
541.72	466.75
541.934	466.75
542.147	490.75
542.361	477.75
542.575	462.75
542.789	467.75
543.002	444.75
543.216	449.75
543.43	443.75
543.644	460.75
543.857	453.75
544.071	463.75
544.285	472.75
544.498	469.75
544.712	455.75
544.925	478.75
545.139	461.75
545.352	486.75
545.566	453.75
545.779	451.75
545.993	466.75
546.206	481.75
546.42	466.75
546.633	462.75
546.847	456.75
547.06	467.75
547.274	447.75
547.487	463.75
547.7	447.75
547.914	448.75
548.127	452.75
548.34	450.75
548.554	459.75
548.767	493.75
548.98	460.75
549.193	452.75
549.407	453.75
549.62	471.75
549.833	455.75
550.046	454.75
550.259	454.75
550.473	438.75
550.686	453.75
550.899	444.75
551.112	460.75
551.325	441.75
551.538	446.75
551.751	431.75
551.964	453.75
552.177	460.75
552.39	468.75
552.603	436.75
552.816	464.75
553.029	475.75
553.242	476.75
553.455	487.75
553.667	489.75
553.88	501.75
554.093	481.75
554.306	493.75
554.519	475.75
554.732	472.75
554.944	446.75
555.157	450.75
555.37	417.75
555.583	430.75
555.795	438.75
556.008	427.75
556.221	414.75
556.433	434.75
556.646	426.75
556.859	422.75
557.071	410.75
557.284	410.75
557.496	414.75
557.709	421.75
557.921	393.75
558.134	403.75
558.346	423.75
558.559	409.75
558.771	402.75
558.984	403.75
559.196	404.75
559.409	396.75
559.621	397.75
559.833	380.75
560.046	392.75
560.258	398.75
560.47	409.75
560.683	425.75
560.895	405.75
561.107	402.75
561.32	414.75
561.532	402.75
561.744	405.75
561.956	420.75
562.168	395.75
562.381	396.75
562.593	389.75
562.805	413.75
563.017	396.75
563.229	403.75
563.441	407.75
563.653	411.75
563.865	416.75
564.077	420.75
564.289	426.75
564.501	425.75
564.713	424.75
564.925	448.75
565.137	431.75
565.349	441.75
565.561	448.75
565.773	462.75
565.985	483.75
566.197	496.75
566.408	518.75
566.62	553.75
566.832	553.75
567.044	562.75
567.255	554.75
567.467	549.75
567.679	590.75
567.891	600.75
568.102	592.75
568.314	606.75
568.526	569.75
568.737	535.75
568.949	479.75
569.161	480.75
569.372	458.75
569.584	434.75
569.795	442.75
570.007	455.75
570.218	454.75
570.43	448.75
570.641	413.75
570.853	422.75
571.064	440.75
571.276	407.75
571.487	404.75
571.698	396.75
571.91	381.75
572.121	377.75
572.333	379.75
572.544	383.75
572.755	361.75
572.966	367.75
573.178	365.75
573.389	365.75
573.6	355.75
573.811	362.75
574.023	365.75
574.234	349.75
574.445	361.75
574.656	347.75
574.867	345.75
575.078	339.75
575.289	340.75
575.501	333.75
575.712	335.75
575.923	341.75
576.134	329.75
576.345	331.75
576.556	357.75
576.767	355.75
576.978	339.75
577.188	360.75
577.399	347.75
577.61	335.75
577.821	332.75
578.032	356.75
578.243	339.75
578.454	469.75
578.665	385.75
578.875	338.75
579.086	344.75
579.297	333.75
579.508	322.75
579.718	323.75
579.929	334.75
580.14	308.75
580.35	306.75
580.561	321.75
580.772	324.75
580.982	316.75
581.193	325.75
581.403	312.75
581.614	311.75
581.825	321.75
582.035	317.75
582.246	323.75
582.456	298.75
582.667	311.75
582.877	317.75
583.087	333.75
583.298	309.75
583.508	299.75
583.719	313.75
583.929	317.75
584.139	319.75
584.35	324.75
584.56	327.75
584.77	313.75
584.981	327.75
585.191	328.75
585.401	317.75
585.611	309.75
585.821	308.75
586.032	323.75
586.242	323.75
586.452	300.75
586.662	300.75
586.872	303.75
587.082	303.75
587.292	309.75
587.502	297.75
587.713	288.75
587.923	301.75
588.133	307.75
588.343	285.75
588.553	290.75
588.762	294.75
588.972	308.75
589.182	316.75
589.392	302.75
589.602	301.75
589.812	300.75
590.022	317.75
590.232	297.75
590.441	289.75
590.651	305.75
590.861	322.75
591.071	325.75
591.281	296.75
591.49	309.75
591.7	309.75
591.91	324.75
592.119	330.75
592.329	322.75
592.539	341.75
592.748	340.75
592.958	343.75
593.167	328.75
593.377	350.75
593.587	348.75
593.796	347.75
594.006	333.75
594.215	328.75
594.424	342.75
594.634	350.75
594.843	334.75
595.053	338.75
595.262	333.75
595.472	337.75
595.681	315.75
595.89	311.75
596.1	318.75
596.309	298.75
596.518	317.75
596.727	305.75
596.937	315.75
597.146	301.75
597.355	277.75
597.564	307.75
597.774	271.75
597.983	292.75
598.192	290.75
598.401	283.75
598.61	295.75
598.819	280.75
599.028	247.75
599.237	267.75
599.446	277.75
599.655	278.75
599.864	290.75
600.073	267.75
600.282	290.75
600.491	278.75
600.7	277.75
600.909	269.75
601.118	281.75
601.327	282.75
601.536	261.75
601.745	258.75
601.953	273.75
602.162	273.75
602.371	257.75
602.58	262.75
602.789	272.75
602.997	267.75
603.206	284.75
603.415	268.75
603.623	259.75
603.832	270.75
604.041	248.75
604.249	249.75
604.458	271.75
604.666	260.75
604.875	257.75
605.084	258.75
605.292	251.75
605.501	261.75
605.709	269.75
605.918	250.75
606.126	255.75
606.334	256.75
606.543	258.75
606.751	249.75
606.96	239.75
607.168	244.75
607.376	243.75
607.585	261.75
607.793	264.75
608.001	250.75
608.21	242.75
608.418	240.75
608.626	263.75
608.834	254.75
609.043	258.75
609.251	266.75
609.459	243.75
609.667	232.75
609.875	252.75
610.083	242.75
610.291	270.75
610.499	251.75
610.707	261.75
610.916	247.75
611.124	260.75
611.332	258.75
611.54	266.75
611.748	247.75
611.955	249.75
612.163	259.75
612.371	259.75
612.579	249.75
612.787	253.75
612.995	236.75
613.203	242.75
613.411	262.75
613.618	248.75
613.826	245.75
614.034	259.75
614.242	228.75
614.449	248.75
614.657	236.75
614.865	245.75
615.072	265.75
615.28	249.75
615.488	243.75
615.695	241.75
615.903	249.75
616.111	250.75
616.318	259.75
616.526	257.75
616.733	248.75
616.941	246.75
617.148	248.75
617.356	245.75
617.563	250.75
617.771	248.75
617.978	243.75
618.185	225.75
618.393	237.75
618.6	247.75
618.807	228.75
619.015	235.75
619.222	225.75
619.429	234.75
619.637	253.75
619.844	255.75
620.051	238.75
620.258	229.75
620.466	225.75
620.673	232.75
620.88	226.75
621.087	220.75
621.294	239.75
621.501	236.75
621.708	218.75
621.915	216.75
622.122	219.75
622.329	225.75
622.536	238.75
622.743	241.75
622.95	242.75
623.157	236.75
623.364	234.75
623.571	220.75
623.778	217.75
623.985	219.75
624.192	238.75
624.399	233.75
624.606	225.75
624.812	204.75
625.019	230.75
625.226	228.75
625.433	220.75
625.639	196.75
625.846	187.75
626.053	213.75
626.259	213.75
626.466	206.75
626.673	217.75
626.879	205.75
627.086	202.75
627.293	219.75
627.499	198.75
627.706	217.75
627.912	219.75
628.119	213.75
628.325	215.75
628.532	207.75
628.738	211.75
628.945	212.75
629.151	202.75
629.357	206.75
629.564	202.75
629.77	206.75
629.976	216.75
630.183	198.75
630.389	207.75
630.595	212.75
630.802	207.75
631.008	206.75
631.214	209.75
631.42	193.75
631.627	235.75
631.833	215.75
632.039	212.75
632.245	204.75
632.451	213.75
632.657	195.75
632.863	205.75
633.069	198.75
633.275	199.75
633.481	202.75
633.688	189.75
633.893	210.75
634.099	185.75
634.305	191.75
634.511	175.75
634.717	189.75
634.923	195.75
635.129	191.75
635.335	191.75
635.541	199.75
635.747	186.75
635.952	188.75
636.158	197.75
636.364	195.75
636.57	203.75
636.775	197.75
636.981	194.75
637.187	186.75
637.392	185.75
637.598	178.75
637.804	184.75
638.009	200.75
638.215	182.75
638.421	172.75
638.626	198.75
638.832	181.75
639.037	175.75
639.243	201.75
639.448	188.75
639.654	203.75
639.859	194.75
640.065	180.75
640.27	169.75
640.475	172.75
640.681	183.75
640.886	191.75
641.091	174.75
641.297	166.75
641.502	179.75
641.707	189.75
641.913	179.75
642.118	174.75
642.323	187.75
642.528	190.75
642.733	169.75
642.939	185.75
643.144	151.75
643.349	164.75
643.554	172.75
643.759	170.75
643.964	173.75
644.169	175.75
644.374	184.75
644.579	170.75
644.784	165.75
644.989	161.75
645.194	177.75
645.399	177.75
645.604	183.75
645.809	177.75
646.014	168.75
646.219	165.75
646.423	174.75
646.628	171.75
646.833	177.75
647.038	166.75
647.243	184.75
647.447	177.75
647.652	170.75
647.857	169.75
648.062	170.75
648.266	184.75
648.471	178.75
648.676	173.75
648.88	185.75
649.085	176.75
649.289	172.75
649.494	181.75
649.698	183.75
649.903	169.75
650.107	172.75
650.312	169.75
650.516	177.75
650.721	163.75
650.925	163.75
651.13	150.75
651.334	143.75
651.539	143.75
651.743	165.75
651.947	165.75
652.152	153.75
652.356	160.75
652.56	156.75
652.764	141.75
652.969	152.75
653.173	138.75
653.377	157.75
653.581	127.75
653.785	142.75
653.99	138.75
654.194	146.75
654.398	139.75
654.602	138.75
654.806	147.75
655.01	135.75
655.214	141.75
655.418	126.75
655.622	142.75
655.826	141.75
656.03	126.75
656.234	142.75
656.438	148.75
656.642	147.75
656.846	153.75
657.049	129.75
657.253	144.75
657.457	128.75
657.661	118.75
657.865	116.75
658.068	124.75
658.272	123.75
658.476	101.75
658.68	107.75
658.883	110.75
659.087	107.75
659.291	98.75
659.494	97.75
659.698	95.75
659.901	94.75
660.105	76.75
660.309	104.75
660.512	91.75
660.716	86.75
660.919	87.75
661.123	102.75
661.326	97.75
661.53	101.75
661.733	90.75
661.936	92.75
662.14	87.75
662.343	88.75
662.546	90.75
662.75	83.75
662.953	87.75
663.156	93.75
663.36	84.75
663.563	82.75
663.766	92.75
663.969	78.75
664.173	74.75
664.376	76.75
664.579	74.75
664.782	87.75
664.985	89.75
665.188	73.75
665.391	80.75
665.594	86.75
665.797	77.75
666	86.75
666.203	66.75
666.406	66.75
666.609	91.75
666.812	88.75
667.015	91.75
667.218	89.75
667.421	83.75
667.624	94.75
667.827	88.75
668.03	88.75
668.232	87.75
668.435	98.75
668.638	86.75
668.841	84.75
669.043	86.75
669.246	84.75
669.449	71.75
669.651	98.75
669.854	77.75
670.057	87.75
670.259	79.75
670.462	83.75
670.665	85.75
670.867	90.75
671.07	73.75
671.272	89.75
671.475	76.75
671.677	85.75
671.88	84.75
672.082	87.75
672.284	83.75
672.487	85.75
672.689	82.75
672.892	89.75
