Data from 1973.PennyLincolnUp.Lamp.En5.5.200Scan.071719.P1.Changed Mount._HRD10591_15-46-07-853.txt Node
Date: Thu Jul 18 15:46:07 EDT 2019
User: cochatt
Spectrometer: HR+D1059
Trigger mode: 1
Integration Time (sec): 1.000000E-1
Scans to average: 1
Electric dark correction enabled: true
Nonlinearity correction enabled: false
Boxcar width: 0
XAxis mode: Wavelengths
Number of Pixels in Spectrum: 2048
>>>>>Begin Spectral Data<<<<<
223.165	-5.38
223.4	-5.38
223.635	-5.38
223.869	-18.38
224.104	-9.38
224.338	-15.38
224.573	-18.38
224.808	-10.38
225.042	-1.38
225.277	-12.38
225.511	0.62
225.746	-4.38
225.98	-0.38
226.215	18.62
226.449	9.62
226.683	21.62
226.918	15.62
227.152	29.62
227.387	28.62
227.621	34.62
227.856	49.62
228.09	35.62
228.324	42.62
228.559	47.62
228.793	74.62
229.027	93.62
229.262	97.62
229.496	96.62
229.73	112.62
229.964	139.62
230.199	124.62
230.433	120.62
230.667	106.62
230.901	108.62
231.136	112.62
231.37	102.62
231.604	102.62
231.838	100.62
232.072	103.62
232.306	123.62
232.541	117.62
232.775	119.62
233.009	120.62
233.243	123.62
233.477	118.62
233.711	100.62
233.945	111.62
234.179	105.62
234.413	121.62
234.647	109.62
234.881	116.62
235.115	124.62
235.349	109.62
235.583	123.62
235.817	121.62
236.051	135.62
236.285	116.62
236.519	127.62
236.753	132.62
236.987	142.62
237.221	177.62
237.455	211.62
237.689	169.62
237.922	126.62
238.156	138.62
238.39	126.62
238.624	133.62
238.858	123.62
239.091	127.62
239.325	134.62
239.559	122.62
239.793	127.62
240.027	131.62
240.26	153.62
240.494	139.62
240.728	160.62
240.961	139.62
241.195	147.62
241.429	145.62
241.662	127.62
241.896	137.62
242.13	139.62
242.363	135.62
242.597	145.62
242.83	144.62
243.064	148.62
243.298	150.62
243.531	143.62
243.765	147.62
243.998	148.62
244.232	145.62
244.465	141.62
244.699	153.62
244.932	151.62
245.166	141.62
245.399	154.62
245.633	127.62
245.866	146.62
246.099	131.62
246.333	146.62
246.566	142.62
246.8	156.62
247.033	159.62
247.266	147.62
247.5	155.62
247.733	167.62
247.966	184.62
248.2	176.62
248.433	165.62
248.666	181.62
248.899	203.62
249.133	203.62
249.366	199.62
249.599	183.62
249.832	197.62
250.066	171.62
250.299	177.62
250.532	193.62
250.765	208.62
250.998	220.62
251.231	219.62
251.465	196.62
251.698	207.62
251.931	209.62
252.164	200.62
252.397	204.62
252.63	196.62
252.863	210.62
253.096	211.62
253.329	223.62
253.562	216.62
253.795	211.62
254.028	209.62
254.261	217.62
254.494	214.62
254.727	252.62
254.96	260.62
255.193	278.62
255.426	244.62
255.659	247.62
255.892	218.62
256.124	211.62
256.357	234.62
256.59	221.62
256.823	216.62
257.056	211.62
257.289	201.62
257.521	206.62
257.754	213.62
257.987	216.62
258.22	214.62
258.452	221.62
258.685	223.62
258.918	201.62
259.151	209.62
259.383	237.62
259.616	231.62
259.849	234.62
260.081	230.62
260.314	243.62
260.547	269.62
260.779	247.62
261.012	241.62
261.244	247.62
261.477	231.62
261.71	226.62
261.942	227.62
262.175	237.62
262.407	235.62
262.64	211.62
262.872	213.62
263.105	231.62
263.337	229.62
263.57	223.62
263.802	226.62
264.035	211.62
264.267	230.62
264.499	228.62
264.732	213.62
264.964	228.62
265.197	222.62
265.429	240.62
265.661	226.62
265.894	216.62
266.126	227.62
266.358	215.62
266.591	216.62
266.823	225.62
267.055	250.62
267.287	274.62
267.52	241.62
267.752	244.62
267.984	255.62
268.216	241.62
268.448	253.62
268.681	242.62
268.913	263.62
269.145	272.62
269.377	277.62
269.609	270.62
269.841	288.62
270.073	291.62
270.306	307.62
270.538	313.62
270.77	326.62
271.002	328.62
271.234	299.62
271.466	311.62
271.698	312.62
271.93	326.62
272.162	312.62
272.394	325.62
272.626	309.62
272.858	286.62
273.09	295.62
273.322	296.62
273.553	279.62
273.785	272.62
274.017	278.62
274.249	285.62
274.481	268.62
274.713	270.62
274.945	283.62
275.176	284.62
275.408	287.62
275.64	295.62
275.872	296.62
276.104	282.62
276.335	276.62
276.567	292.62
276.799	292.62
277.031	309.62
277.262	324.62
277.494	310.62
277.726	328.62
277.957	319.62
278.189	284.62
278.421	302.62
278.652	307.62
278.884	287.62
279.115	306.62
279.347	290.62
279.579	285.62
279.81	283.62
280.042	286.62
280.273	305.62
280.505	300.62
280.736	294.62
280.968	303.62
281.199	300.62
281.431	305.62
281.662	299.62
281.894	277.62
282.125	310.62
282.356	295.62
282.588	320.62
282.819	296.62
283.051	281.62
283.282	282.62
283.513	300.62
283.745	309.62
283.976	315.62
284.207	295.62
284.439	316.62
284.67	306.62
284.901	302.62
285.132	297.62
285.364	295.62
285.595	308.62
285.826	315.62
286.057	297.62
286.288	313.62
286.52	319.62
286.751	301.62
286.982	308.62
287.213	317.62
287.444	308.62
287.675	324.62
287.906	339.62
288.138	327.62
288.369	323.62
288.6	338.62
288.831	332.62
289.062	334.62
289.293	345.62
289.524	334.62
289.755	303.62
289.986	319.62
290.217	320.62
290.448	332.62
290.679	317.62
290.91	311.62
291.141	311.62
291.371	313.62
291.602	319.62
291.833	322.62
292.064	299.62
292.295	333.62
292.526	342.62
292.757	319.62
292.987	306.62
293.218	332.62
293.449	341.62
293.68	328.62
293.91	324.62
294.141	334.62
294.372	320.62
294.603	324.62
294.833	331.62
295.064	328.62
295.295	332.62
295.525	350.62
295.756	339.62
295.987	338.62
296.217	339.62
296.448	361.62
296.679	341.62
296.909	341.62
297.14	328.62
297.37	340.62
297.601	322.62
297.831	344.62
298.062	330.62
298.292	324.62
298.523	344.62
298.753	346.62
298.984	348.62
299.214	333.62
299.445	330.62
299.675	331.62
299.905	351.62
300.136	340.62
300.366	352.62
300.597	361.62
300.827	359.62
301.057	353.62
301.288	372.62
301.518	343.62
301.748	350.62
301.979	360.62
302.209	364.62
302.439	381.62
302.669	370.62
302.9	366.62
303.13	348.62
303.36	364.62
303.59	354.62
303.82	375.62
304.051	379.62
304.281	362.62
304.511	369.62
304.741	365.62
304.971	375.62
305.201	351.62
305.431	361.62
305.661	379.62
305.891	373.62
306.121	360.62
306.352	367.62
306.582	375.62
306.812	373.62
307.042	365.62
307.272	351.62
307.502	346.62
307.731	375.62
307.961	369.62
308.191	362.62
308.421	360.62
308.651	343.62
308.881	368.62
309.111	356.62
309.341	349.62
309.571	392.62
309.8	377.62
310.03	364.62
310.26	402.62
310.49	388.62
310.72	398.62
310.949	391.62
311.179	409.62
311.409	414.62
311.639	401.62
311.868	394.62
312.098	408.62
312.328	408.62
312.557	397.62
312.787	444.62
313.017	424.62
313.246	380.62
313.476	382.62
313.706	402.62
313.935	395.62
314.165	411.62
314.394	415.62
314.624	439.62
314.853	409.62
315.083	401.62
315.312	411.62
315.542	399.62
315.771	402.62
316.001	396.62
316.23	398.62
316.46	394.62
316.689	415.62
316.919	423.62
317.148	416.62
317.377	388.62
317.607	387.62
317.836	391.62
318.065	396.62
318.295	405.62
318.524	398.62
318.753	395.62
318.983	377.62
319.212	402.62
319.441	393.62
319.67	412.62
319.9	409.62
320.129	391.62
320.358	397.62
320.587	396.62
320.816	411.62
321.046	424.62
321.275	409.62
321.504	414.62
321.733	382.62
321.962	398.62
322.191	445.62
322.42	438.62
322.649	438.62
322.878	436.62
323.108	443.62
323.337	465.62
323.566	471.62
323.795	478.62
324.024	496.62
324.253	592.62
324.482	790.62
324.71	1148.62
324.939	1561.62
325.168	1399.62
325.397	756.62
325.626	580.62
325.855	516.62
326.084	500.62
326.313	471.62
326.542	512.62
326.77	523.62
326.999	585.62
327.228	729.62
327.457	1007.62
327.686	1215.62
327.914	854.62
328.143	631.62
328.372	573.62
328.6	528.62
328.829	535.62
329.058	554.62
329.287	546.62
329.515	535.62
329.744	488.62
329.972	522.62
330.201	491.62
330.43	541.62
330.658	541.62
330.887	542.62
331.115	540.62
331.344	525.62
331.572	502.62
331.801	493.62
332.03	514.62
332.258	480.62
332.486	495.62
332.715	481.62
332.943	489.62
333.172	510.62
333.4	497.62
333.629	538.62
333.857	529.62
334.085	554.62
334.314	517.62
334.542	547.62
334.771	568.62
334.999	520.62
335.227	514.62
335.455	514.62
335.684	491.62
335.912	507.62
336.14	473.62
336.369	474.62
336.597	504.62
336.825	488.62
337.053	495.62
337.281	492.62
337.51	464.62
337.738	495.62
337.966	467.62
338.194	481.62
338.422	468.62
338.65	459.62
338.878	459.62
339.106	471.62
339.334	470.62
339.562	438.62
339.79	449.62
340.018	465.62
340.246	455.62
340.474	468.62
340.702	459.62
340.93	447.62
341.158	453.62
341.386	441.62
341.614	442.62
341.842	422.62
342.07	448.62
342.298	445.62
342.526	452.62
342.754	449.62
342.981	448.62
343.209	450.62
343.437	469.62
343.665	479.62
343.893	499.62
344.12	488.62
344.348	519.62
344.576	486.62
344.804	475.62
345.031	456.62
345.259	490.62
345.487	471.62
345.714	435.62
345.942	462.62
346.17	453.62
346.397	442.62
346.625	445.62
346.853	432.62
347.08	419.62
347.308	444.62
347.535	447.62
347.763	449.62
347.99	448.62
348.218	443.62
348.445	451.62
348.673	430.62
348.9	425.62
349.128	435.62
349.355	417.62
349.583	426.62
349.81	436.62
350.037	435.62
350.265	438.62
350.492	447.62
350.72	433.62
350.947	436.62
351.174	439.62
351.402	444.62
351.629	445.62
351.856	440.62
352.083	437.62
352.311	437.62
352.538	422.62
352.765	424.62
352.992	413.62
353.22	427.62
353.447	444.62
353.674	441.62
353.901	420.62
354.128	411.62
354.355	411.62
354.583	425.62
354.81	437.62
355.037	418.62
355.264	405.62
355.491	431.62
355.718	411.62
355.945	423.62
356.172	422.62
356.399	425.62
356.626	413.62
356.853	421.62
357.08	404.62
357.307	427.62
357.534	440.62
357.761	409.62
357.988	429.62
358.215	419.62
358.441	435.62
358.668	408.62
358.895	409.62
359.122	403.62
359.349	426.62
359.576	415.62
359.802	435.62
360.029	463.62
360.256	448.62
360.483	434.62
360.709	438.62
360.936	441.62
361.163	431.62
361.39	426.62
361.616	439.62
361.843	427.62
362.07	425.62
362.296	438.62
362.523	435.62
362.749	433.62
362.976	437.62
363.203	423.62
363.429	440.62
363.656	423.62
363.882	439.62
364.109	437.62
364.335	416.62
364.562	421.62
364.788	417.62
365.015	422.62
365.241	432.62
365.468	425.62
365.694	409.62
365.92	427.62
366.147	416.62
366.373	425.62
366.599	433.62
366.826	417.62
367.052	411.62
367.278	415.62
367.505	417.62
367.731	408.62
367.957	439.62
368.184	417.62
368.41	415.62
368.636	434.62
368.862	417.62
369.089	446.62
369.315	449.62
369.541	429.62
369.767	415.62
369.993	433.62
370.219	427.62
370.445	438.62
370.672	420.62
370.898	415.62
371.124	429.62
371.35	425.62
371.576	439.62
371.802	425.62
372.028	433.62
372.254	426.62
372.48	438.62
372.706	432.62
372.932	445.62
373.158	433.62
373.384	433.62
373.61	451.62
373.835	436.62
374.061	424.62
374.287	437.62
374.513	452.62
374.739	459.62
374.965	469.62
375.191	431.62
375.416	454.62
375.642	433.62
375.868	433.62
376.094	427.62
376.319	409.62
376.545	416.62
376.771	408.62
376.997	431.62
377.222	418.62
377.448	415.62
377.674	437.62
377.899	407.62
378.125	424.62
378.35	416.62
378.576	395.62
378.802	441.62
379.027	428.62
379.253	407.62
379.478	409.62
379.704	433.62
379.929	434.62
380.155	426.62
380.38	414.62
380.606	434.62
380.831	436.62
381.057	433.62
381.282	427.62
381.507	423.62
381.733	426.62
381.958	440.62
382.184	423.62
382.409	419.62
382.634	425.62
382.86	433.62
383.085	457.62
383.31	447.62
383.535	448.62
383.761	461.62
383.986	448.62
384.211	466.62
384.436	481.62
384.662	484.62
384.887	460.62
385.112	464.62
385.337	467.62
385.562	486.62
385.787	464.62
386.013	487.62
386.238	491.62
386.463	449.62
386.688	470.62
386.913	462.62
387.138	479.62
387.363	473.62
387.588	471.62
387.813	473.62
388.038	485.62
388.263	496.62
388.488	505.62
388.713	463.62
388.938	461.62
389.163	475.62
389.387	507.62
389.612	501.62
389.837	472.62
390.062	478.62
390.287	485.62
390.512	490.62
390.736	474.62
390.961	489.62
391.186	491.62
391.411	502.62
391.636	533.62
391.86	518.62
392.085	543.62
392.31	508.62
392.534	517.62
392.759	507.62
392.984	497.62
393.208	506.62
393.433	469.62
393.658	473.62
393.882	498.62
394.107	475.62
394.331	505.62
394.556	495.62
394.78	493.62
395.005	513.62
395.229	490.62
395.454	501.62
395.678	527.62
395.903	534.62
396.127	515.62
396.352	519.62
396.576	525.62
396.801	487.62
397.025	491.62
397.249	520.62
397.474	519.62
397.698	513.62
397.922	516.62
398.147	521.62
398.371	541.62
398.595	556.62
398.82	573.62
399.044	587.62
399.268	603.62
399.492	644.62
399.717	711.62
399.941	743.62
400.165	743.62
400.389	699.62
400.613	639.62
400.837	631.62
401.062	603.62
401.286	575.62
401.51	577.62
401.734	552.62
401.958	569.62
402.182	582.62
402.406	579.62
402.63	593.62
402.854	608.62
403.078	599.62
403.302	601.62
403.526	619.62
403.75	611.62
403.974	593.62
404.198	617.62
404.422	595.62
404.645	605.62
404.869	618.62
405.093	623.62
405.317	659.62
405.541	695.62
405.765	636.62
405.988	621.62
406.212	631.62
406.436	639.62
406.66	654.62
406.883	653.62
407.107	691.62
407.331	703.62
407.555	789.62
407.778	759.62
408.002	703.62
408.226	663.62
408.449	658.62
408.673	649.62
408.896	677.62
409.12	720.62
409.344	676.62
409.567	619.62
409.791	627.62
410.014	599.62
410.238	621.62
410.461	602.62
410.685	581.62
410.908	618.62
411.132	609.62
411.355	652.62
411.578	630.62
411.802	611.62
412.025	589.62
412.249	601.62
412.472	605.62
412.695	639.62
412.919	632.62
413.142	588.62
413.365	586.62
413.589	576.62
413.812	567.62
414.035	568.62
414.258	553.62
414.482	583.62
414.705	565.62
414.928	579.62
415.151	562.62
415.374	561.62
415.597	562.62
415.821	534.62
416.044	532.62
416.267	546.62
416.49	556.62
416.713	532.62
416.936	551.62
417.159	556.62
417.382	566.62
417.605	551.62
417.828	583.62
418.051	567.62
418.274	575.62
418.497	560.62
418.72	572.62
418.943	561.62
419.166	597.62
419.389	628.62
419.611	599.62
419.834	612.62
420.057	613.62
420.28	581.62
420.503	586.62
420.726	575.62
420.948	594.62
421.171	610.62
421.394	657.62
421.617	581.62
421.839	561.62
422.062	562.62
422.285	581.62
422.507	650.62
422.73	699.62
422.953	660.62
423.175	608.62
423.398	641.62
423.621	616.62
423.843	627.62
424.066	599.62
424.288	609.62
424.511	638.62
424.733	671.62
424.956	783.62
425.178	712.62
425.401	699.62
425.623	736.62
425.846	630.62
426.068	604.62
426.291	586.62
426.513	589.62
426.735	613.62
426.958	611.62
427.18	690.62
427.402	799.62
427.625	881.62
427.847	757.62
428.069	651.62
428.292	614.62
428.514	577.62
428.736	545.62
428.958	560.62
429.181	546.62
429.403	555.62
429.625	571.62
429.847	585.62
430.069	637.62
430.292	643.62
430.514	568.62
430.736	553.62
430.958	551.62
431.18	524.62
431.402	548.62
431.624	515.62
431.846	523.62
432.068	525.62
432.29	543.62
432.512	539.62
432.734	553.62
432.956	538.62
433.178	520.62
433.4	535.62
433.622	521.62
433.844	543.62
434.066	536.62
434.287	506.62
434.509	540.62
434.731	540.62
434.953	556.62
435.175	565.62
435.397	608.62
435.618	580.62
435.84	623.62
436.062	676.62
436.284	777.62
436.505	648.62
436.727	570.62
436.949	552.62
437.17	559.62
437.392	545.62
437.614	546.62
437.835	590.62
438.057	642.62
438.278	728.62
438.5	724.62
438.721	797.62
438.943	773.62
439.165	626.62
439.386	591.62
439.608	593.62
439.829	591.62
440.05	589.62
440.272	634.62
440.493	613.62
440.715	591.62
440.936	551.62
441.158	575.62
441.379	555.62
441.6	599.62
441.822	592.62
442.043	640.62
442.264	705.62
442.486	737.62
442.707	624.62
442.928	601.62
443.149	619.62
443.371	618.62
443.592	659.62
443.813	756.62
444.034	795.62
444.255	712.62
444.476	638.62
444.698	626.62
444.919	661.62
445.14	731.62
445.361	671.62
445.582	647.62
445.803	684.62
446.024	739.62
446.245	771.62
446.466	695.62
446.687	621.62
446.908	590.62
447.129	551.62
447.35	542.62
447.571	536.62
447.792	509.62
448.013	543.62
448.234	557.62
448.455	596.62
448.675	687.62
448.896	776.62
449.117	659.62
449.338	645.62
449.559	731.62
449.779	784.62
450	659.62
450.221	572.62
450.442	545.62
450.662	514.62
450.883	532.62
451.104	545.62
451.324	510.62
451.545	513.62
451.766	499.62
451.986	476.62
452.207	468.62
452.428	465.62
452.648	495.62
452.869	472.62
453.089	476.62
453.31	502.62
453.53	495.62
453.751	477.62
453.971	479.62
454.192	502.62
454.412	492.62
454.633	484.62
454.853	467.62
455.073	473.62
455.294	531.62
455.514	555.62
455.734	534.62
455.955	483.62
456.175	474.62
456.395	465.62
456.616	465.62
456.836	467.62
457.056	468.62
457.276	462.62
457.497	466.62
457.717	458.62
457.937	464.62
458.157	470.62
458.377	477.62
458.598	496.62
458.818	535.62
459.038	596.62
459.258	641.62
459.478	579.62
459.698	547.62
459.918	532.62
460.138	520.62
460.358	560.62
460.578	540.62
460.798	556.62
461.018	565.62
461.238	548.62
461.458	555.62
461.678	565.62
461.898	564.62
462.118	567.62
462.338	563.62
462.558	609.62
462.777	603.62
462.997	624.62
463.217	676.62
463.437	666.62
463.657	644.62
463.876	616.62
464.096	612.62
464.316	588.62
464.536	615.62
464.755	624.62
464.975	616.62
465.195	617.62
465.414	628.62
465.634	581.62
465.854	531.62
466.073	524.62
466.293	516.62
466.512	508.62
466.732	512.62
466.951	501.62
467.171	516.62
467.391	506.62
467.61	497.62
467.829	524.62
468.049	507.62
468.268	508.62
468.488	506.62
468.707	500.62
468.927	492.62
469.146	489.62
469.365	493.62
469.585	492.62
469.804	510.62
470.023	514.62
470.243	522.62
470.462	529.62
470.681	533.62
470.901	537.62
471.12	515.62
471.339	514.62
471.558	507.62
471.777	513.62
471.997	518.62
472.216	497.62
472.435	519.62
472.654	495.62
472.873	498.62
473.092	501.62
473.311	504.62
473.53	497.62
473.749	505.62
473.968	537.62
474.187	614.62
474.406	640.62
474.625	526.62
474.844	492.62
475.063	497.62
475.282	484.62
475.501	526.62
475.72	511.62
475.939	543.62
476.158	484.62
476.377	517.62
476.596	504.62
476.814	526.62
477.033	528.62
477.252	541.62
477.471	525.62
477.69	523.62
477.908	530.62
478.127	569.62
478.346	567.62
478.564	553.62
478.783	564.62
479.002	583.62
479.22	607.62
479.439	610.62
479.658	605.62
479.876	605.62
480.095	595.62
480.313	635.62
480.532	630.62
480.751	644.62
480.969	618.62
481.188	641.62
481.406	641.62
481.624	608.62
481.843	575.62
482.061	596.62
482.28	591.62
482.498	600.62
482.717	578.62
482.935	565.62
483.153	571.62
483.372	578.62
483.59	606.62
483.808	589.62
484.027	589.62
484.245	598.62
484.463	568.62
484.681	607.62
484.9	611.62
485.118	597.62
485.336	585.62
485.554	605.62
485.772	602.62
485.99	617.62
486.209	610.62
486.427	614.62
486.645	596.62
486.863	616.62
487.081	605.62
487.299	619.62
487.517	618.62
487.735	604.62
487.953	597.62
488.171	605.62
488.389	632.62
488.607	592.62
488.825	608.62
489.043	609.62
489.261	624.62
489.479	617.62
489.696	633.62
489.914	648.62
490.132	634.62
490.35	642.62
490.568	657.62
490.786	651.62
491.003	655.62
491.221	685.62
491.439	700.62
491.657	692.62
491.874	689.62
492.092	679.62
492.31	684.62
492.527	703.62
492.745	705.62
492.963	701.62
493.18	727.62
493.398	729.62
493.615	725.62
493.833	723.62
494.05	711.62
494.268	710.62
494.485	709.62
494.703	729.62
494.92	725.62
495.138	727.62
495.355	738.62
495.573	716.62
495.79	737.62
496.008	751.62
496.225	715.62
496.442	745.62
496.66	724.62
496.877	723.62
497.094	756.62
497.312	753.62
497.529	750.62
497.746	784.62
497.963	785.62
498.181	803.62
498.398	825.62
498.615	879.62
498.832	876.62
499.049	897.62
499.267	931.62
499.484	959.62
499.701	1032.62
499.918	1096.62
500.135	1190.62
500.352	1263.62
500.569	1286.62
500.786	1307.62
501.003	1253.62
501.22	1171.62
501.437	1129.62
501.654	1073.62
501.871	1020.62
502.088	961.62
502.305	943.62
502.522	886.62
502.739	890.62
502.956	842.62
503.172	821.62
503.389	806.62
503.606	815.62
503.823	796.62
504.04	760.62
504.256	759.62
504.473	778.62
504.69	764.62
504.907	783.62
505.123	753.62
505.34	721.62
505.557	698.62
505.773	699.62
505.99	701.62
506.207	690.62
506.423	697.62
506.64	688.62
506.856	689.62
507.073	667.62
507.289	668.62
507.506	668.62
507.722	675.62
507.939	665.62
508.155	644.62
508.372	641.62
508.588	645.62
508.805	621.62
509.021	639.62
509.238	629.62
509.454	650.62
509.67	638.62
509.887	629.62
510.103	649.62
510.319	642.62
510.536	711.62
510.752	956.62
510.968	807.62
511.184	645.62
511.401	606.62
511.617	594.62
511.833	611.62
512.049	582.62
512.265	586.62
512.481	597.62
512.698	596.62
512.914	605.62
513.13	609.62
513.346	600.62
513.562	593.62
513.778	595.62
513.994	594.62
514.21	628.62
514.426	645.62
514.642	632.62
514.858	653.62
515.074	672.62
515.29	759.62
515.506	988.62
515.721	871.62
515.937	672.62
516.153	645.62
516.369	669.62
516.585	650.62
516.801	636.62
517.016	636.62
517.232	655.62
517.448	672.62
517.664	691.62
517.879	666.62
518.095	692.62
518.311	650.62
518.527	668.62
518.742	663.62
518.958	648.62
519.173	607.62
519.389	635.62
519.605	620.62
519.82	618.62
520.036	619.62
520.251	618.62
520.467	630.62
520.682	631.62
520.898	620.62
521.113	641.62
521.329	647.62
521.544	682.62
521.76	807.62
521.975	1184.62
522.19	1120.62
522.406	726.62
522.621	635.62
522.836	571.62
523.052	575.62
523.267	545.62
523.482	577.62
523.698	533.62
523.913	542.62
524.128	543.62
524.343	539.62
524.559	546.62
524.774	517.62
524.989	509.62
525.204	529.62
525.419	507.62
525.634	534.62
525.849	526.62
526.064	541.62
526.28	515.62
526.495	482.62
526.71	488.62
526.925	508.62
527.14	493.62
527.355	491.62
527.57	495.62
527.785	502.62
527.999	497.62
528.214	493.62
528.429	515.62
528.644	499.62
528.859	511.62
529.074	504.62
529.289	507.62
529.503	548.62
529.718	556.62
529.933	523.62
530.148	505.62
530.363	502.62
530.577	497.62
530.792	497.62
531.007	497.62
531.221	501.62
531.436	500.62
531.651	502.62
531.865	499.62
532.08	493.62
532.295	495.62
532.509	471.62
532.724	482.62
532.938	510.62
533.153	505.62
533.367	504.62
533.582	515.62
533.796	506.62
534.011	494.62
534.225	494.62
534.44	484.62
534.654	459.62
534.868	487.62
535.083	474.62
535.297	472.62
535.511	505.62
535.726	507.62
535.94	472.62
536.154	487.62
536.369	465.62
536.583	473.62
536.797	459.62
537.011	471.62
537.225	443.62
537.44	458.62
537.654	464.62
537.868	482.62
538.082	475.62
538.296	479.62
538.51	480.62
538.724	475.62
538.938	464.62
539.153	469.62
539.367	467.62
539.581	485.62
539.795	476.62
540.009	459.62
540.222	467.62
540.436	471.62
540.65	465.62
540.864	470.62
541.078	450.62
541.292	460.62
541.506	471.62
541.72	478.62
541.934	465.62
542.147	449.62
542.361	436.62
542.575	473.62
542.789	470.62
543.002	471.62
543.216	460.62
543.43	470.62
543.644	463.62
543.857	469.62
544.071	483.62
544.285	475.62
544.498	481.62
544.712	470.62
544.925	468.62
545.139	475.62
545.352	471.62
545.566	462.62
545.779	474.62
545.993	460.62
546.206	478.62
546.42	480.62
546.633	461.62
546.847	467.62
547.06	466.62
547.274	451.62
547.487	458.62
547.7	455.62
547.914	456.62
548.127	471.62
548.34	485.62
548.554	445.62
548.767	452.62
548.98	471.62
549.193	473.62
549.407	445.62
549.62	472.62
549.833	453.62
550.046	460.62
550.259	454.62
550.473	465.62
550.686	479.62
550.899	460.62
551.112	445.62
551.325	457.62
551.538	454.62
551.751	457.62
551.964	453.62
552.177	453.62
552.39	461.62
552.603	466.62
552.816	481.62
553.029	474.62
553.242	492.62
553.455	469.62
553.667	501.62
553.88	489.62
554.093	477.62
554.306	488.62
554.519	487.62
554.732	472.62
554.944	454.62
555.157	443.62
555.37	449.62
555.583	466.62
555.795	447.62
556.008	429.62
556.221	441.62
556.433	435.62
556.646	440.62
556.859	433.62
557.071	414.62
557.284	413.62
557.496	407.62
557.709	415.62
557.921	419.62
558.134	398.62
558.346	399.62
558.559	411.62
558.771	408.62
558.984	412.62
559.196	409.62
559.409	394.62
559.621	397.62
559.833	387.62
560.046	388.62
560.258	396.62
560.47	434.62
560.683	410.62
560.895	407.62
561.107	418.62
561.32	389.62
561.532	398.62
561.744	413.62
561.956	402.62
562.168	407.62
562.381	404.62
562.593	418.62
562.805	392.62
563.017	417.62
563.229	391.62
563.441	427.62
563.653	423.62
563.865	418.62
564.077	420.62
564.289	423.62
564.501	424.62
564.713	433.62
564.925	431.62
565.137	439.62
565.349	462.62
565.561	440.62
565.773	459.62
565.985	469.62
566.197	511.62
566.408	503.62
566.62	536.62
566.832	549.62
567.044	550.62
567.255	570.62
567.467	571.62
567.679	597.62
567.891	626.62
568.102	610.62
568.314	596.62
568.526	562.62
568.737	532.62
568.949	510.62
569.161	487.62
569.372	465.62
569.584	460.62
569.795	408.62
570.007	417.62
570.218	463.62
570.43	428.62
570.641	423.62
570.853	416.62
571.064	433.62
571.276	426.62
571.487	403.62
571.698	388.62
571.91	379.62
572.121	393.62
572.333	384.62
572.544	370.62
572.755	385.62
572.966	349.62
573.178	375.62
573.389	355.62
573.6	355.62
573.811	378.62
574.023	373.62
574.234	378.62
574.445	336.62
574.656	356.62
574.867	349.62
575.078	355.62
575.289	353.62
575.501	337.62
575.712	341.62
575.923	350.62
576.134	362.62
576.345	344.62
576.556	355.62
576.767	331.62
576.978	355.62
577.188	351.62
577.399	355.62
577.61	347.62
577.821	332.62
578.032	340.62
578.243	359.62
578.454	484.62
578.665	385.62
578.875	341.62
579.086	343.62
579.297	338.62
579.508	338.62
579.718	335.62
579.929	309.62
580.14	296.62
580.35	320.62
580.561	336.62
580.772	322.62
580.982	321.62
581.193	322.62
581.403	316.62
581.614	339.62
581.825	320.62
582.035	310.62
582.246	332.62
582.456	308.62
582.667	312.62
582.877	303.62
583.087	304.62
583.298	303.62
583.508	296.62
583.719	314.62
583.929	319.62
584.139	311.62
584.35	311.62
584.56	324.62
584.77	311.62
584.981	309.62
585.191	304.62
585.401	284.62
585.611	307.62
585.821	295.62
586.032	326.62
586.242	316.62
586.452	297.62
586.662	314.62
586.872	312.62
587.082	319.62
587.292	311.62
587.502	319.62
587.713	303.62
587.923	297.62
588.133	298.62
588.343	292.62
588.553	313.62
588.762	295.62
588.972	318.62
589.182	291.62
589.392	307.62
589.602	304.62
589.812	297.62
590.022	315.62
590.232	301.62
590.441	319.62
590.651	316.62
590.861	313.62
591.071	303.62
591.281	307.62
591.49	315.62
591.7	325.62
591.91	313.62
592.119	324.62
592.329	319.62
592.539	350.62
592.748	347.62
592.958	342.62
593.167	346.62
593.377	353.62
593.587	367.62
593.796	353.62
594.006	357.62
594.215	345.62
594.424	335.62
594.634	341.62
594.843	337.62
595.053	325.62
595.262	332.62
595.472	330.62
595.681	338.62
595.89	288.62
596.1	323.62
596.309	296.62
596.518	292.62
596.727	285.62
596.937	298.62
597.146	298.62
597.355	302.62
597.564	282.62
597.774	272.62
597.983	305.62
598.192	285.62
598.401	279.62
598.61	279.62
598.819	290.62
599.028	285.62
599.237	283.62
599.446	279.62
599.655	278.62
599.864	277.62
600.073	261.62
600.282	281.62
600.491	286.62
600.7	275.62
600.909	263.62
601.118	257.62
601.327	273.62
601.536	266.62
601.745	268.62
601.953	259.62
602.162	274.62
602.371	259.62
602.58	282.62
602.789	259.62
602.997	241.62
603.206	247.62
603.415	259.62
603.623	249.62
603.832	255.62
604.041	252.62
604.249	256.62
604.458	244.62
604.666	263.62
604.875	260.62
605.084	269.62
605.292	267.62
605.501	279.62
605.709	260.62
605.918	260.62
606.126	262.62
606.334	276.62
606.543	238.62
606.751	267.62
606.96	253.62
607.168	266.62
607.376	236.62
607.585	242.62
607.793	260.62
608.001	248.62
608.21	232.62
608.418	253.62
608.626	258.62
608.834	260.62
609.043	248.62
609.251	256.62
609.459	260.62
609.667	264.62
609.875	256.62
610.083	257.62
610.291	243.62
610.499	253.62
610.707	261.62
610.916	258.62
611.124	267.62
611.332	261.62
611.54	269.62
611.748	244.62
611.955	244.62
612.163	246.62
612.371	257.62
612.579	231.62
612.787	244.62
612.995	244.62
613.203	248.62
613.411	232.62
613.618	239.62
613.826	233.62
614.034	240.62
614.242	249.62
614.449	255.62
614.657	236.62
614.865	236.62
615.072	240.62
615.28	242.62
615.488	256.62
615.695	241.62
615.903	236.62
616.111	251.62
616.318	247.62
616.526	248.62
616.733	246.62
616.941	259.62
617.148	244.62
617.356	258.62
617.563	244.62
617.771	231.62
617.978	246.62
618.185	246.62
618.393	250.62
618.6	239.62
618.807	241.62
619.015	245.62
619.222	227.62
619.429	231.62
619.637	219.62
619.844	234.62
620.051	225.62
620.258	236.62
620.466	229.62
620.673	218.62
620.88	222.62
621.087	212.62
621.294	245.62
621.501	243.62
621.708	230.62
621.915	231.62
622.122	232.62
622.329	213.62
622.536	226.62
622.743	229.62
622.95	228.62
623.157	219.62
623.364	218.62
623.571	227.62
623.778	231.62
623.985	220.62
624.192	234.62
624.399	224.62
624.606	217.62
624.812	209.62
625.019	220.62
625.226	234.62
625.433	226.62
625.639	224.62
625.846	221.62
626.053	216.62
626.259	213.62
626.466	227.62
626.673	217.62
626.879	221.62
627.086	210.62
627.293	217.62
627.499	205.62
627.706	211.62
627.912	201.62
628.119	209.62
628.325	209.62
628.532	209.62
628.738	205.62
628.945	212.62
629.151	204.62
629.357	196.62
629.564	193.62
629.77	216.62
629.976	205.62
630.183	205.62
630.389	192.62
630.595	212.62
630.802	195.62
631.008	191.62
631.214	198.62
631.42	212.62
631.627	195.62
631.833	205.62
632.039	193.62
632.245	201.62
632.451	218.62
632.657	206.62
632.863	191.62
633.069	198.62
633.275	187.62
633.481	185.62
633.688	208.62
633.893	199.62
634.099	185.62
634.305	189.62
634.511	196.62
634.717	193.62
634.923	201.62
635.129	205.62
635.335	186.62
635.541	186.62
635.747	174.62
635.952	177.62
636.158	208.62
636.364	185.62
636.57	197.62
636.775	188.62
636.981	196.62
637.187	177.62
637.392	181.62
637.598	184.62
637.804	189.62
638.009	180.62
638.215	189.62
638.421	189.62
638.626	192.62
638.832	188.62
639.037	184.62
639.243	183.62
639.448	169.62
639.654	164.62
639.859	161.62
640.065	169.62
640.27	184.62
640.475	185.62
640.681	182.62
640.886	181.62
641.091	170.62
641.297	179.62
641.502	176.62
641.707	178.62
641.913	170.62
642.118	163.62
642.323	167.62
642.528	168.62
642.733	165.62
642.939	164.62
643.144	176.62
643.349	163.62
643.554	172.62
643.759	175.62
643.964	173.62
644.169	168.62
644.374	164.62
644.579	162.62
644.784	166.62
644.989	175.62
645.194	178.62
645.399	177.62
645.604	172.62
645.809	163.62
646.014	175.62
646.219	166.62
646.423	183.62
646.628	176.62
646.833	169.62
647.038	166.62
647.243	164.62
647.447	156.62
647.652	168.62
647.857	172.62
648.062	172.62
648.266	184.62
648.471	180.62
648.676	183.62
648.88	170.62
649.085	179.62
649.289	149.62
649.494	177.62
649.698	185.62
649.903	171.62
650.107	192.62
650.312	163.62
650.516	155.62
650.721	169.62
650.925	162.62
651.13	143.62
651.334	166.62
651.539	153.62
651.743	151.62
651.947	164.62
652.152	151.62
652.356	132.62
652.56	159.62
652.764	147.62
652.969	146.62
653.173	137.62
653.377	147.62
653.581	145.62
653.785	141.62
653.99	159.62
654.194	133.62
654.398	130.62
654.602	130.62
654.806	140.62
655.01	139.62
655.214	142.62
655.418	135.62
655.622	131.62
655.826	138.62
656.03	139.62
656.234	138.62
656.438	135.62
656.642	139.62
656.846	144.62
657.049	124.62
657.253	124.62
657.457	132.62
657.661	122.62
657.865	112.62
658.068	117.62
658.272	106.62
658.476	115.62
658.68	103.62
658.883	110.62
659.087	99.62
659.291	105.62
659.494	95.62
659.698	98.62
659.901	96.62
660.105	100.62
660.309	91.62
660.512	89.62
660.716	97.62
660.919	84.62
661.123	97.62
661.326	87.62
661.53	78.62
661.733	98.62
661.936	83.62
662.14	88.62
662.343	80.62
662.546	82.62
662.75	66.62
662.953	87.62
663.156	82.62
663.36	75.62
663.563	88.62
663.766	82.62
663.969	89.62
664.173	91.62
664.376	101.62
664.579	68.62
664.782	79.62
664.985	77.62
665.188	82.62
665.391	77.62
665.594	84.62
665.797	66.62
666	90.62
666.203	89.62
666.406	83.62
666.609	78.62
666.812	92.62
667.015	75.62
667.218	84.62
667.421	76.62
667.624	75.62
667.827	82.62
668.03	75.62
668.232	68.62
668.435	94.62
668.638	97.62
668.841	91.62
669.043	65.62
669.246	68.62
669.449	82.62
669.651	74.62
669.854	75.62
670.057	95.62
670.259	86.62
670.462	81.62
670.665	65.62
670.867	81.62
671.07	98.62
671.272	85.62
671.475	80.62
671.677	75.62
671.88	88.62
672.082	79.62
672.284	87.62
672.487	78.62
672.689	81.62
672.892	90.62
