Data from 1973.PennyLincolnUp.Lamp.En5.5.200Scan.071719.P1.Changed Mount._HRD10591_15-44-17-852.txt Node
Date: Thu Jul 18 15:44:17 EDT 2019
User: cochatt
Spectrometer: HR+D1059
Trigger mode: 1
Integration Time (sec): 1.000000E-1
Scans to average: 1
Electric dark correction enabled: true
Nonlinearity correction enabled: false
Boxcar width: 0
XAxis mode: Wavelengths
Number of Pixels in Spectrum: 2048
>>>>>Begin Spectral Data<<<<<
223.165	-9.44
223.4	-9.44
223.635	-9.44
223.869	-21.44
224.104	-18.44
224.338	-24.44
224.573	-20.44
224.808	-24.44
225.042	-4.44
225.277	-5.44
225.511	-3.44
225.746	14.56
225.98	3.56
226.215	26.56
226.449	28.56
226.683	16.56
226.918	19.56
227.152	22.56
227.387	25.56
227.621	31.56
227.856	40.56
228.09	53.56
228.324	48.56
228.559	48.56
228.793	70.56
229.027	97.56
229.262	95.56
229.496	101.56
229.73	120.56
229.964	138.56
230.199	121.56
230.433	114.56
230.667	109.56
230.901	103.56
231.136	106.56
231.37	119.56
231.604	100.56
231.838	116.56
232.072	100.56
232.306	108.56
232.541	125.56
232.775	118.56
233.009	111.56
233.243	100.56
233.477	116.56
233.711	100.56
233.945	104.56
234.179	118.56
234.413	116.56
234.647	111.56
234.881	119.56
235.115	115.56
235.349	100.56
235.583	115.56
235.817	125.56
236.051	109.56
236.285	104.56
236.519	116.56
236.753	124.56
236.987	132.56
237.221	161.56
237.455	199.56
237.689	165.56
237.922	127.56
238.156	121.56
238.39	122.56
238.624	111.56
238.858	113.56
239.091	118.56
239.325	124.56
239.559	114.56
239.793	119.56
240.027	119.56
240.26	143.56
240.494	149.56
240.728	149.56
240.961	141.56
241.195	148.56
241.429	140.56
241.662	126.56
241.896	121.56
242.13	123.56
242.363	128.56
242.597	135.56
242.83	147.56
243.064	134.56
243.298	138.56
243.531	133.56
243.765	149.56
243.998	141.56
244.232	134.56
244.465	147.56
244.699	158.56
244.932	137.56
245.166	137.56
245.399	144.56
245.633	132.56
245.866	146.56
246.099	140.56
246.333	135.56
246.566	147.56
246.8	148.56
247.033	146.56
247.266	159.56
247.5	147.56
247.733	161.56
247.966	180.56
248.2	180.56
248.433	157.56
248.666	168.56
248.899	176.56
249.133	178.56
249.366	193.56
249.599	185.56
249.832	193.56
250.066	181.56
250.299	182.56
250.532	191.56
250.765	199.56
250.998	224.56
251.231	207.56
251.465	202.56
251.698	187.56
251.931	184.56
252.164	189.56
252.397	184.56
252.63	206.56
252.863	197.56
253.096	204.56
253.329	220.56
253.562	215.56
253.795	213.56
254.028	215.56
254.261	209.56
254.494	197.56
254.727	224.56
254.96	251.56
255.193	264.56
255.426	228.56
255.659	222.56
255.892	205.56
256.124	215.56
256.357	239.56
256.59	210.56
256.823	210.56
257.056	207.56
257.289	204.56
257.521	224.56
257.754	190.56
257.987	203.56
258.22	212.56
258.452	209.56
258.685	200.56
258.918	218.56
259.151	211.56
259.383	208.56
259.616	206.56
259.849	223.56
260.081	220.56
260.314	240.56
260.547	243.56
260.779	252.56
261.012	228.56
261.244	214.56
261.477	237.56
261.71	209.56
261.942	222.56
262.175	219.56
262.407	217.56
262.64	220.56
262.872	209.56
263.105	214.56
263.337	231.56
263.57	223.56
263.802	206.56
264.035	222.56
264.267	224.56
264.499	222.56
264.732	214.56
264.964	218.56
265.197	215.56
265.429	213.56
265.661	229.56
265.894	224.56
266.126	245.56
266.358	210.56
266.591	247.56
266.823	233.56
267.055	240.56
267.287	224.56
267.52	225.56
267.752	234.56
267.984	230.56
268.216	232.56
268.448	217.56
268.681	240.56
268.913	233.56
269.145	271.56
269.377	284.56
269.609	265.56
269.841	274.56
270.073	288.56
270.306	273.56
270.538	285.56
270.77	312.56
271.002	292.56
271.234	276.56
271.466	289.56
271.698	282.56
271.93	297.56
272.162	319.56
272.394	300.56
272.626	296.56
272.858	275.56
273.09	289.56
273.322	289.56
273.553	266.56
273.785	276.56
274.017	264.56
274.249	273.56
274.481	275.56
274.713	249.56
274.945	271.56
275.176	272.56
275.408	277.56
275.64	269.56
275.872	275.56
276.104	273.56
276.335	266.56
276.567	286.56
276.799	289.56
277.031	319.56
277.262	323.56
277.494	320.56
277.726	300.56
277.957	290.56
278.189	280.56
278.421	265.56
278.652	280.56
278.884	282.56
279.115	266.56
279.347	274.56
279.579	280.56
279.81	272.56
280.042	295.56
280.273	279.56
280.505	285.56
280.736	262.56
280.968	287.56
281.199	285.56
281.431	289.56
281.662	286.56
281.894	294.56
282.125	296.56
282.356	293.56
282.588	314.56
282.819	302.56
283.051	293.56
283.282	284.56
283.513	288.56
283.745	286.56
283.976	293.56
284.207	311.56
284.439	321.56
284.67	298.56
284.901	289.56
285.132	305.56
285.364	294.56
285.595	300.56
285.826	293.56
286.057	288.56
286.288	301.56
286.52	309.56
286.751	309.56
286.982	326.56
287.213	294.56
287.444	324.56
287.675	287.56
287.906	331.56
288.138	317.56
288.369	334.56
288.6	326.56
288.831	317.56
289.062	320.56
289.293	322.56
289.524	305.56
289.755	288.56
289.986	308.56
290.217	310.56
290.448	305.56
290.679	320.56
290.91	317.56
291.141	310.56
291.371	321.56
291.602	310.56
291.833	306.56
292.064	316.56
292.295	308.56
292.526	342.56
292.757	324.56
292.987	312.56
293.218	309.56
293.449	318.56
293.68	320.56
293.91	307.56
294.141	314.56
294.372	318.56
294.603	303.56
294.833	320.56
295.064	332.56
295.295	332.56
295.525	307.56
295.756	343.56
295.987	307.56
296.217	329.56
296.448	325.56
296.679	329.56
296.909	324.56
297.14	334.56
297.37	316.56
297.601	328.56
297.831	304.56
298.062	313.56
298.292	324.56
298.523	330.56
298.753	328.56
298.984	322.56
299.214	349.56
299.445	325.56
299.675	336.56
299.905	332.56
300.136	339.56
300.366	356.56
300.597	362.56
300.827	333.56
301.057	361.56
301.288	369.56
301.518	336.56
301.748	355.56
301.979	367.56
302.209	361.56
302.439	383.56
302.669	368.56
302.9	365.56
303.13	354.56
303.36	353.56
303.59	371.56
303.82	368.56
304.051	358.56
304.281	357.56
304.511	348.56
304.741	352.56
304.971	357.56
305.201	371.56
305.431	346.56
305.661	356.56
305.891	354.56
306.121	335.56
306.352	343.56
306.582	340.56
306.812	361.56
307.042	330.56
307.272	346.56
307.502	357.56
307.731	361.56
307.961	347.56
308.191	359.56
308.421	360.56
308.651	360.56
308.881	367.56
309.111	365.56
309.341	355.56
309.571	378.56
309.8	351.56
310.03	366.56
310.26	390.56
310.49	359.56
310.72	382.56
310.949	402.56
311.179	377.56
311.409	380.56
311.639	380.56
311.868	391.56
312.098	395.56
312.328	402.56
312.557	401.56
312.787	401.56
313.017	390.56
313.246	412.56
313.476	399.56
313.706	391.56
313.935	366.56
314.165	382.56
314.394	419.56
314.624	391.56
314.853	394.56
315.083	402.56
315.312	386.56
315.542	389.56
315.771	410.56
316.001	396.56
316.23	386.56
316.46	389.56
316.689	400.56
316.919	400.56
317.148	404.56
317.377	391.56
317.607	396.56
317.836	373.56
318.065	375.56
318.295	375.56
318.524	376.56
318.753	400.56
318.983	384.56
319.212	391.56
319.441	406.56
319.67	375.56
319.9	366.56
320.129	393.56
320.358	383.56
320.587	371.56
320.816	415.56
321.046	402.56
321.275	392.56
321.504	396.56
321.733	407.56
321.962	396.56
322.191	397.56
322.42	404.56
322.649	420.56
322.878	421.56
323.108	444.56
323.337	452.56
323.566	453.56
323.795	473.56
324.024	485.56
324.253	553.56
324.482	742.56
324.71	1038.56
324.939	1500.56
325.168	1331.56
325.397	718.56
325.626	553.56
325.855	466.56
326.084	438.56
326.313	446.56
326.542	470.56
326.77	486.56
326.999	541.56
327.228	677.56
327.457	979.56
327.686	1156.56
327.914	818.56
328.143	586.56
328.372	529.56
328.6	513.56
328.829	479.56
329.058	529.56
329.287	538.56
329.515	488.56
329.744	491.56
329.972	498.56
330.201	500.56
330.43	517.56
330.658	519.56
330.887	528.56
331.115	512.56
331.344	494.56
331.572	464.56
331.801	498.56
332.03	496.56
332.258	478.56
332.486	461.56
332.715	474.56
332.943	481.56
333.172	495.56
333.4	512.56
333.629	493.56
333.857	512.56
334.085	500.56
334.314	543.56
334.542	528.56
334.771	564.56
334.999	504.56
335.227	518.56
335.455	500.56
335.684	494.56
335.912	490.56
336.14	475.56
336.369	453.56
336.597	478.56
336.825	484.56
337.053	499.56
337.281	470.56
337.51	458.56
337.738	450.56
337.966	454.56
338.194	453.56
338.422	448.56
338.65	458.56
338.878	439.56
339.106	453.56
339.334	478.56
339.562	437.56
339.79	433.56
340.018	440.56
340.246	428.56
340.474	459.56
340.702	444.56
340.93	475.56
341.158	436.56
341.386	454.56
341.614	449.56
341.842	462.56
342.07	441.56
342.298	453.56
342.526	445.56
342.754	418.56
342.981	448.56
343.209	441.56
343.437	456.56
343.665	470.56
343.893	471.56
344.12	480.56
344.348	484.56
344.576	462.56
344.804	482.56
345.031	478.56
345.259	467.56
345.487	464.56
345.714	413.56
345.942	434.56
346.17	445.56
346.397	430.56
346.625	439.56
346.853	407.56
347.08	418.56
347.308	432.56
347.535	431.56
347.763	409.56
347.99	418.56
348.218	431.56
348.445	414.56
348.673	426.56
348.9	428.56
349.128	408.56
349.355	413.56
349.583	433.56
349.81	417.56
350.037	412.56
350.265	403.56
350.492	417.56
350.72	388.56
350.947	416.56
351.174	421.56
351.402	400.56
351.629	416.56
351.856	422.56
352.083	412.56
352.311	420.56
352.538	416.56
352.765	422.56
352.992	419.56
353.22	430.56
353.447	425.56
353.674	406.56
353.901	416.56
354.128	401.56
354.355	418.56
354.583	414.56
354.81	410.56
355.037	404.56
355.264	404.56
355.491	423.56
355.718	400.56
355.945	399.56
356.172	396.56
356.399	401.56
356.626	408.56
356.853	403.56
357.08	403.56
357.307	410.56
357.534	422.56
357.761	424.56
357.988	397.56
358.215	400.56
358.441	385.56
358.668	418.56
358.895	407.56
359.122	396.56
359.349	417.56
359.576	404.56
359.802	419.56
360.029	448.56
360.256	427.56
360.483	413.56
360.709	418.56
360.936	403.56
361.163	429.56
361.39	419.56
361.616	421.56
361.843	428.56
362.07	414.56
362.296	422.56
362.523	420.56
362.749	414.56
362.976	420.56
363.203	428.56
363.429	400.56
363.656	388.56
363.882	408.56
364.109	421.56
364.335	421.56
364.562	413.56
364.788	417.56
365.015	413.56
365.241	415.56
365.468	386.56
365.694	398.56
365.92	414.56
366.147	394.56
366.373	411.56
366.599	421.56
366.826	415.56
367.052	406.56
367.278	402.56
367.505	398.56
367.731	418.56
367.957	414.56
368.184	418.56
368.41	424.56
368.636	403.56
368.862	415.56
369.089	414.56
369.315	403.56
369.541	414.56
369.767	391.56
369.993	425.56
370.219	429.56
370.445	420.56
370.672	409.56
370.898	426.56
371.124	401.56
371.35	408.56
371.576	408.56
371.802	412.56
372.028	412.56
372.254	421.56
372.48	422.56
372.706	433.56
372.932	428.56
373.158	422.56
373.384	439.56
373.61	419.56
373.835	426.56
374.061	414.56
374.287	457.56
374.513	424.56
374.739	453.56
374.965	424.56
375.191	433.56
375.416	451.56
375.642	430.56
375.868	428.56
376.094	414.56
376.319	423.56
376.545	430.56
376.771	414.56
376.997	412.56
377.222	422.56
377.448	420.56
377.674	390.56
377.899	409.56
378.125	418.56
378.35	406.56
378.576	406.56
378.802	417.56
379.027	417.56
379.253	422.56
379.478	417.56
379.704	417.56
379.929	428.56
380.155	407.56
380.38	412.56
380.606	434.56
380.831	398.56
381.057	426.56
381.282	409.56
381.507	429.56
381.733	422.56
381.958	434.56
382.184	408.56
382.409	414.56
382.634	444.56
382.86	413.56
383.085	420.56
383.31	430.56
383.535	453.56
383.761	470.56
383.986	453.56
384.211	440.56
384.436	454.56
384.662	458.56
384.887	457.56
385.112	426.56
385.337	472.56
385.562	467.56
385.787	470.56
386.013	483.56
386.238	474.56
386.463	466.56
386.688	462.56
386.913	494.56
387.138	467.56
387.363	461.56
387.588	460.56
387.813	468.56
388.038	446.56
388.263	482.56
388.488	463.56
388.713	462.56
388.938	467.56
389.163	464.56
389.387	463.56
389.612	464.56
389.837	459.56
390.062	471.56
390.287	463.56
390.512	471.56
390.736	476.56
390.961	452.56
391.186	455.56
391.411	454.56
391.636	485.56
391.86	482.56
392.085	500.56
392.31	506.56
392.534	498.56
392.759	474.56
392.984	467.56
393.208	501.56
393.433	461.56
393.658	480.56
393.882	493.56
394.107	504.56
394.331	482.56
394.556	470.56
394.78	495.56
395.005	478.56
395.229	477.56
395.454	481.56
395.678	498.56
395.903	512.56
396.127	529.56
396.352	522.56
396.576	480.56
396.801	481.56
397.025	479.56
397.249	495.56
397.474	500.56
397.698	515.56
397.922	524.56
398.147	515.56
398.371	550.56
398.595	543.56
398.82	553.56
399.044	566.56
399.268	601.56
399.492	636.56
399.717	706.56
399.941	712.56
400.165	719.56
400.389	705.56
400.613	644.56
400.837	588.56
401.062	582.56
401.286	565.56
401.51	560.56
401.734	572.56
401.958	586.56
402.182	585.56
402.406	556.56
402.63	567.56
402.854	566.56
403.078	582.56
403.302	568.56
403.526	572.56
403.75	579.56
403.974	591.56
404.198	586.56
404.422	593.56
404.645	601.56
404.869	589.56
405.093	612.56
405.317	660.56
405.541	688.56
405.765	626.56
405.988	621.56
406.212	599.56
406.436	591.56
406.66	629.56
406.883	642.56
407.107	624.56
407.331	678.56
407.555	743.56
407.778	748.56
408.002	716.56
408.226	654.56
408.449	638.56
408.673	615.56
408.896	646.56
409.12	662.56
409.344	660.56
409.567	593.56
409.791	598.56
410.014	578.56
410.238	577.56
410.461	589.56
410.685	554.56
410.908	604.56
411.132	631.56
411.355	627.56
411.578	607.56
411.802	580.56
412.025	543.56
412.249	609.56
412.472	589.56
412.695	632.56
412.919	597.56
413.142	575.56
413.365	582.56
413.589	561.56
413.812	574.56
414.035	534.56
414.258	554.56
414.482	567.56
414.705	552.56
414.928	556.56
415.151	550.56
415.374	556.56
415.597	533.56
415.821	510.56
416.044	529.56
416.267	541.56
416.49	531.56
416.713	534.56
416.936	532.56
417.159	536.56
417.382	542.56
417.605	557.56
417.828	556.56
418.051	558.56
418.274	564.56
418.497	576.56
418.72	573.56
418.943	560.56
419.166	566.56
419.389	625.56
419.611	610.56
419.834	584.56
420.057	566.56
420.28	572.56
420.503	557.56
420.726	578.56
420.948	581.56
421.171	611.56
421.394	625.56
421.617	586.56
421.839	561.56
422.062	569.56
422.285	549.56
422.507	617.56
422.73	659.56
422.953	644.56
423.175	595.56
423.398	595.56
423.621	570.56
423.843	599.56
424.066	590.56
424.288	594.56
424.511	622.56
424.733	638.56
424.956	724.56
425.178	702.56
425.401	693.56
425.623	698.56
425.846	588.56
426.068	582.56
426.291	585.56
426.513	565.56
426.735	561.56
426.958	593.56
427.18	668.56
427.402	786.56
427.625	852.56
427.847	726.56
428.069	654.56
428.292	610.56
428.514	564.56
428.736	550.56
428.958	545.56
429.181	526.56
429.403	543.56
429.625	532.56
429.847	570.56
430.069	621.56
430.292	626.56
430.514	535.56
430.736	536.56
430.958	536.56
431.18	505.56
431.402	518.56
431.624	496.56
431.846	507.56
432.068	525.56
432.29	537.56
432.512	522.56
432.734	520.56
432.956	530.56
433.178	506.56
433.4	532.56
433.622	512.56
433.844	496.56
434.066	502.56
434.287	537.56
434.509	527.56
434.731	542.56
434.953	545.56
435.175	548.56
435.397	569.56
435.618	577.56
435.84	597.56
436.062	672.56
436.284	720.56
436.505	629.56
436.727	553.56
436.949	528.56
437.17	528.56
437.392	515.56
437.614	540.56
437.835	555.56
438.057	608.56
438.278	698.56
438.5	724.56
438.721	805.56
438.943	744.56
439.165	606.56
439.386	572.56
439.608	574.56
439.829	575.56
440.05	600.56
440.272	617.56
440.493	577.56
440.715	550.56
440.936	530.56
441.158	547.56
441.379	534.56
441.6	544.56
441.822	575.56
442.043	591.56
442.264	656.56
442.486	720.56
442.707	621.56
442.928	608.56
443.149	592.56
443.371	614.56
443.592	636.56
443.813	727.56
444.034	770.56
444.255	682.56
444.476	614.56
444.698	588.56
444.919	622.56
445.14	677.56
445.361	663.56
445.582	646.56
445.803	649.56
446.024	706.56
446.245	734.56
446.466	691.56
446.687	593.56
446.908	553.56
447.129	524.56
447.35	527.56
447.571	505.56
447.792	518.56
448.013	526.56
448.234	525.56
448.455	570.56
448.675	688.56
448.896	780.56
449.117	663.56
449.338	629.56
449.559	703.56
449.779	798.56
450	639.56
450.221	534.56
450.442	530.56
450.662	519.56
450.883	517.56
451.104	488.56
451.324	501.56
451.545	487.56
451.766	503.56
451.986	463.56
452.207	462.56
452.428	446.56
452.648	471.56
452.869	449.56
453.089	465.56
453.31	482.56
453.53	470.56
453.751	484.56
453.971	470.56
454.192	494.56
454.412	470.56
454.633	473.56
454.853	466.56
455.073	462.56
455.294	485.56
455.514	542.56
455.734	526.56
455.955	467.56
456.175	458.56
456.395	433.56
456.616	433.56
456.836	428.56
457.056	439.56
457.276	441.56
457.497	446.56
457.717	447.56
457.937	448.56
458.157	454.56
458.377	472.56
458.598	469.56
458.818	511.56
459.038	568.56
459.258	596.56
459.478	546.56
459.698	497.56
459.918	518.56
460.138	534.56
460.358	543.56
460.578	541.56
460.798	548.56
461.018	556.56
461.238	533.56
461.458	532.56
461.678	538.56
461.898	546.56
462.118	530.56
462.338	568.56
462.558	584.56
462.777	596.56
462.997	609.56
463.217	636.56
463.437	642.56
463.657	635.56
463.876	604.56
464.096	613.56
464.316	596.56
464.536	594.56
464.755	591.56
464.975	570.56
465.195	591.56
465.414	602.56
465.634	575.56
465.854	561.56
466.073	510.56
466.293	514.56
466.512	488.56
466.732	495.56
466.951	485.56
467.171	472.56
467.391	492.56
467.61	493.56
467.829	497.56
468.049	503.56
468.268	494.56
468.488	476.56
468.707	467.56
468.927	478.56
469.146	471.56
469.365	483.56
469.585	476.56
469.804	494.56
470.023	498.56
470.243	530.56
470.462	512.56
470.681	511.56
470.901	520.56
471.12	490.56
471.339	516.56
471.558	476.56
471.777	495.56
471.997	497.56
472.216	494.56
472.435	503.56
472.654	493.56
472.873	464.56
473.092	470.56
473.311	495.56
473.53	462.56
473.749	495.56
473.968	515.56
474.187	591.56
474.406	624.56
474.625	529.56
474.844	502.56
475.063	490.56
475.282	473.56
475.501	484.56
475.72	489.56
475.939	489.56
476.158	513.56
476.377	520.56
476.596	490.56
476.814	508.56
477.033	500.56
477.252	506.56
477.471	516.56
477.69	531.56
477.908	522.56
478.127	551.56
478.346	561.56
478.564	542.56
478.783	573.56
479.002	602.56
479.22	561.56
479.439	567.56
479.658	560.56
479.876	573.56
480.095	600.56
480.313	632.56
480.532	631.56
480.751	633.56
480.969	624.56
481.188	650.56
481.406	648.56
481.624	612.56
481.843	578.56
482.061	578.56
482.28	593.56
482.498	561.56
482.717	566.56
482.935	578.56
483.153	547.56
483.372	598.56
483.59	534.56
483.808	544.56
484.027	561.56
484.245	557.56
484.463	570.56
484.681	584.56
484.9	564.56
485.118	579.56
485.336	583.56
485.554	597.56
485.772	597.56
485.99	586.56
486.209	598.56
486.427	569.56
486.645	615.56
486.863	592.56
487.081	592.56
487.299	597.56
487.517	604.56
487.735	599.56
487.953	592.56
488.171	593.56
488.389	628.56
488.607	596.56
488.825	586.56
489.043	604.56
489.261	618.56
489.479	601.56
489.696	620.56
489.914	620.56
490.132	612.56
490.35	607.56
490.568	624.56
490.786	658.56
491.003	651.56
491.221	646.56
491.439	646.56
491.657	664.56
491.874	675.56
492.092	673.56
492.31	711.56
492.527	682.56
492.745	681.56
492.963	707.56
493.18	696.56
493.398	710.56
493.615	675.56
493.833	741.56
494.05	715.56
494.268	670.56
494.485	700.56
494.703	704.56
494.92	702.56
495.138	702.56
495.355	702.56
495.573	701.56
495.79	717.56
496.008	725.56
496.225	689.56
496.442	704.56
496.66	713.56
496.877	704.56
497.094	713.56
497.312	725.56
497.529	745.56
497.746	757.56
497.963	760.56
498.181	802.56
498.398	808.56
498.615	800.56
498.832	864.56
499.049	873.56
499.267	899.56
499.484	945.56
499.701	1044.56
499.918	1061.56
500.135	1153.56
500.352	1218.56
500.569	1257.56
500.786	1272.56
501.003	1201.56
501.22	1204.56
501.437	1101.56
501.654	1029.56
501.871	982.56
502.088	938.56
502.305	909.56
502.522	853.56
502.739	823.56
502.956	777.56
503.172	790.56
503.389	759.56
503.606	738.56
503.823	748.56
504.04	735.56
504.256	736.56
504.473	736.56
504.69	748.56
504.907	743.56
505.123	718.56
505.34	696.56
505.557	686.56
505.773	674.56
505.99	669.56
506.207	650.56
506.423	655.56
506.64	648.56
506.856	636.56
507.073	627.56
507.289	634.56
507.506	653.56
507.722	640.56
507.939	642.56
508.155	647.56
508.372	631.56
508.588	590.56
508.805	606.56
509.021	624.56
509.238	610.56
509.454	628.56
509.67	628.56
509.887	620.56
510.103	600.56
510.319	614.56
510.536	641.56
510.752	908.56
510.968	748.56
511.184	613.56
511.401	612.56
511.617	581.56
511.833	581.56
512.049	599.56
512.265	582.56
512.481	590.56
512.698	576.56
512.914	578.56
513.13	571.56
513.346	552.56
513.562	560.56
513.778	578.56
513.994	576.56
514.21	594.56
514.426	598.56
514.642	620.56
514.858	631.56
515.074	652.56
515.29	717.56
515.506	930.56
515.721	807.56
515.937	638.56
516.153	634.56
516.369	629.56
516.585	596.56
516.801	626.56
517.016	647.56
517.232	636.56
517.448	649.56
517.664	670.56
517.879	671.56
518.095	657.56
518.311	653.56
518.527	631.56
518.742	637.56
518.958	627.56
519.173	607.56
519.389	609.56
519.605	592.56
519.82	590.56
520.036	602.56
520.251	588.56
520.467	625.56
520.682	606.56
520.898	604.56
521.113	603.56
521.329	627.56
521.544	667.56
521.76	757.56
521.975	1078.56
522.19	1064.56
522.406	709.56
522.621	596.56
522.836	572.56
523.052	559.56
523.267	562.56
523.482	546.56
523.698	522.56
523.913	526.56
524.128	510.56
524.343	521.56
524.559	507.56
524.774	499.56
524.989	508.56
525.204	524.56
525.419	525.56
525.634	518.56
525.849	510.56
526.064	474.56
526.28	498.56
526.495	493.56
526.71	487.56
526.925	510.56
527.14	475.56
527.355	474.56
527.57	488.56
527.785	470.56
527.999	478.56
528.214	498.56
528.429	477.56
528.644	508.56
528.859	486.56
529.074	472.56
529.289	504.56
529.503	543.56
529.718	520.56
529.933	503.56
530.148	497.56
530.363	499.56
530.577	484.56
530.792	478.56
531.007	474.56
531.221	474.56
531.436	485.56
531.651	477.56
531.865	478.56
532.08	458.56
532.295	489.56
532.509	469.56
532.724	482.56
532.938	504.56
533.153	470.56
533.367	465.56
533.582	469.56
533.796	489.56
534.011	475.56
534.225	479.56
534.44	471.56
534.654	474.56
534.868	450.56
535.083	472.56
535.297	473.56
535.511	455.56
535.726	489.56
535.94	495.56
536.154	463.56
536.369	457.56
536.583	435.56
536.797	464.56
537.011	444.56
537.225	460.56
537.44	442.56
537.654	477.56
537.868	455.56
538.082	467.56
538.296	448.56
538.51	458.56
538.724	449.56
538.938	450.56
539.153	445.56
539.367	468.56
539.581	455.56
539.795	448.56
540.009	446.56
540.222	449.56
540.436	463.56
540.65	446.56
540.864	467.56
541.078	460.56
541.292	471.56
541.506	456.56
541.72	460.56
541.934	454.56
542.147	470.56
542.361	476.56
542.575	446.56
542.789	451.56
543.002	451.56
543.216	444.56
543.43	454.56
543.644	437.56
543.857	448.56
544.071	471.56
544.285	467.56
544.498	456.56
544.712	470.56
544.925	459.56
545.139	448.56
545.352	454.56
545.566	454.56
545.779	466.56
545.993	445.56
546.206	467.56
546.42	457.56
546.633	457.56
546.847	453.56
547.06	458.56
547.274	469.56
547.487	457.56
547.7	449.56
547.914	454.56
548.127	434.56
548.34	471.56
548.554	462.56
548.767	468.56
548.98	462.56
549.193	441.56
549.407	454.56
549.62	459.56
549.833	450.56
550.046	447.56
550.259	448.56
550.473	451.56
550.686	446.56
550.899	438.56
551.112	454.56
551.325	456.56
551.538	433.56
551.751	448.56
551.964	433.56
552.177	462.56
552.39	457.56
552.603	464.56
552.816	449.56
553.029	446.56
553.242	459.56
553.455	463.56
553.667	477.56
553.88	490.56
554.093	477.56
554.306	459.56
554.519	466.56
554.732	443.56
554.944	438.56
555.157	431.56
555.37	425.56
555.583	398.56
555.795	414.56
556.008	415.56
556.221	410.56
556.433	410.56
556.646	420.56
556.859	399.56
557.071	412.56
557.284	408.56
557.496	428.56
557.709	386.56
557.921	397.56
558.134	395.56
558.346	405.56
558.559	403.56
558.771	409.56
558.984	409.56
559.196	394.56
559.409	401.56
559.621	407.56
559.833	388.56
560.046	386.56
560.258	389.56
560.47	388.56
560.683	394.56
560.895	381.56
561.107	383.56
561.32	378.56
561.532	395.56
561.744	396.56
561.956	401.56
562.168	406.56
562.381	380.56
562.593	404.56
562.805	403.56
563.017	378.56
563.229	405.56
563.441	402.56
563.653	410.56
563.865	416.56
564.077	406.56
564.289	409.56
564.501	421.56
564.713	415.56
564.925	424.56
565.137	419.56
565.349	426.56
565.561	444.56
565.773	461.56
565.985	478.56
566.197	503.56
566.408	496.56
566.62	519.56
566.832	535.56
567.044	550.56
567.255	584.56
567.467	560.56
567.679	569.56
567.891	600.56
568.102	597.56
568.314	597.56
568.526	560.56
568.737	532.56
568.949	499.56
569.161	497.56
569.372	443.56
569.584	442.56
569.795	435.56
570.007	422.56
570.218	423.56
570.43	412.56
570.641	422.56
570.853	417.56
571.064	409.56
571.276	412.56
571.487	405.56
571.698	396.56
571.91	388.56
572.121	377.56
572.333	359.56
572.544	364.56
572.755	377.56
572.966	383.56
573.178	344.56
573.389	350.56
573.6	352.56
573.811	356.56
574.023	344.56
574.234	353.56
574.445	360.56
574.656	353.56
574.867	353.56
575.078	335.56
575.289	357.56
575.501	343.56
575.712	341.56
575.923	352.56
576.134	364.56
576.345	344.56
576.556	346.56
576.767	340.56
576.978	340.56
577.188	339.56
577.399	333.56
577.61	340.56
577.821	307.56
578.032	328.56
578.243	344.56
578.454	434.56
578.665	372.56
578.875	332.56
579.086	337.56
579.297	331.56
579.508	308.56
579.718	326.56
579.929	327.56
580.14	322.56
580.35	316.56
580.561	316.56
580.772	292.56
580.982	319.56
581.193	321.56
581.403	328.56
581.614	306.56
581.825	312.56
582.035	295.56
582.246	298.56
582.456	310.56
582.667	318.56
582.877	313.56
583.087	320.56
583.298	306.56
583.508	316.56
583.719	311.56
583.929	312.56
584.139	297.56
584.35	306.56
584.56	300.56
584.77	281.56
584.981	308.56
585.191	310.56
585.401	301.56
585.611	280.56
585.821	314.56
586.032	317.56
586.242	291.56
586.452	306.56
586.662	301.56
586.872	297.56
587.082	300.56
587.292	320.56
587.502	291.56
587.713	306.56
587.923	286.56
588.133	302.56
588.343	292.56
588.553	300.56
588.762	321.56
588.972	298.56
589.182	295.56
589.392	304.56
589.602	321.56
589.812	295.56
590.022	303.56
590.232	305.56
590.441	296.56
590.651	317.56
590.861	316.56
591.071	319.56
591.281	295.56
591.49	310.56
591.7	305.56
591.91	322.56
592.119	308.56
592.329	321.56
592.539	344.56
592.748	337.56
592.958	332.56
593.167	349.56
593.377	362.56
593.587	355.56
593.796	356.56
594.006	343.56
594.215	346.56
594.424	352.56
594.634	352.56
594.843	337.56
595.053	346.56
595.262	341.56
595.472	320.56
595.681	337.56
595.89	295.56
596.1	313.56
596.309	294.56
596.518	301.56
596.727	279.56
596.937	288.56
597.146	284.56
597.355	284.56
597.564	289.56
597.774	295.56
597.983	282.56
598.192	285.56
598.401	276.56
598.61	268.56
598.819	275.56
599.028	279.56
599.237	281.56
599.446	266.56
599.655	275.56
599.864	286.56
600.073	263.56
600.282	263.56
600.491	263.56
600.7	275.56
600.909	270.56
601.118	265.56
601.327	274.56
601.536	278.56
601.745	270.56
601.953	254.56
602.162	270.56
602.371	260.56
602.58	255.56
602.789	266.56
602.997	265.56
603.206	261.56
603.415	258.56
603.623	238.56
603.832	252.56
604.041	241.56
604.249	265.56
604.458	254.56
604.666	262.56
604.875	266.56
605.084	266.56
605.292	269.56
605.501	237.56
605.709	246.56
605.918	247.56
606.126	250.56
606.334	232.56
606.543	264.56
606.751	242.56
606.96	252.56
607.168	242.56
607.376	244.56
607.585	250.56
607.793	245.56
608.001	245.56
608.21	225.56
608.418	244.56
608.626	248.56
608.834	251.56
609.043	255.56
609.251	232.56
609.459	233.56
609.667	263.56
609.875	260.56
610.083	244.56
610.291	262.56
610.499	260.56
610.707	240.56
610.916	255.56
611.124	257.56
611.332	252.56
611.54	252.56
611.748	253.56
611.955	262.56
612.163	258.56
612.371	245.56
612.579	256.56
612.787	251.56
612.995	252.56
613.203	254.56
613.411	238.56
613.618	229.56
613.826	242.56
614.034	237.56
614.242	251.56
614.449	221.56
614.657	231.56
614.865	226.56
615.072	216.56
615.28	252.56
615.488	240.56
615.695	248.56
615.903	250.56
616.111	241.56
616.318	237.56
616.526	234.56
616.733	245.56
616.941	229.56
617.148	252.56
617.356	258.56
617.563	231.56
617.771	256.56
617.978	230.56
618.185	252.56
618.393	227.56
618.6	220.56
618.807	239.56
619.015	229.56
619.222	239.56
619.429	236.56
619.637	218.56
619.844	224.56
620.051	237.56
620.258	237.56
620.466	219.56
620.673	224.56
620.88	227.56
621.087	231.56
621.294	227.56
621.501	205.56
621.708	221.56
621.915	243.56
622.122	221.56
622.329	214.56
622.536	241.56
622.743	236.56
622.95	209.56
623.157	217.56
623.364	220.56
623.571	225.56
623.778	208.56
623.985	230.56
624.192	214.56
624.399	212.56
624.606	241.56
624.812	232.56
625.019	222.56
625.226	212.56
625.433	212.56
625.639	214.56
625.846	187.56
626.053	206.56
626.259	206.56
626.466	216.56
626.673	199.56
626.879	221.56
627.086	195.56
627.293	220.56
627.499	199.56
627.706	212.56
627.912	233.56
628.119	208.56
628.325	207.56
628.532	211.56
628.738	209.56
628.945	207.56
629.151	200.56
629.357	198.56
629.564	196.56
629.77	195.56
629.976	195.56
630.183	205.56
630.389	200.56
630.595	211.56
630.802	190.56
631.008	192.56
631.214	196.56
631.42	196.56
631.627	185.56
631.833	188.56
632.039	186.56
632.245	177.56
632.451	185.56
632.657	192.56
632.863	186.56
633.069	192.56
633.275	172.56
633.481	190.56
633.688	196.56
633.893	194.56
634.099	200.56
634.305	182.56
634.511	190.56
634.717	177.56
634.923	188.56
635.129	175.56
635.335	180.56
635.541	180.56
635.747	186.56
635.952	196.56
636.158	172.56
636.364	199.56
636.57	190.56
636.775	184.56
636.981	192.56
637.187	188.56
637.392	172.56
637.598	178.56
637.804	166.56
638.009	193.56
638.215	184.56
638.421	162.56
638.626	164.56
638.832	178.56
639.037	190.56
639.243	163.56
639.448	166.56
639.654	162.56
639.859	188.56
640.065	186.56
640.27	185.56
640.475	177.56
640.681	181.56
640.886	177.56
641.091	176.56
641.297	199.56
641.502	164.56
641.707	153.56
641.913	172.56
642.118	165.56
642.323	176.56
642.528	168.56
642.733	166.56
642.939	154.56
643.144	174.56
643.349	177.56
643.554	165.56
643.759	150.56
643.964	158.56
644.169	159.56
644.374	163.56
644.579	163.56
644.784	175.56
644.989	180.56
645.194	161.56
645.399	164.56
645.604	174.56
645.809	161.56
646.014	182.56
646.219	172.56
646.423	160.56
646.628	148.56
646.833	168.56
647.038	174.56
647.243	191.56
647.447	176.56
647.652	167.56
647.857	160.56
648.062	168.56
648.266	178.56
648.471	189.56
648.676	196.56
648.88	168.56
649.085	176.56
649.289	183.56
649.494	177.56
649.698	178.56
649.903	184.56
650.107	161.56
650.312	158.56
650.516	162.56
650.721	181.56
650.925	169.56
651.13	165.56
651.334	162.56
651.539	164.56
651.743	165.56
651.947	160.56
652.152	157.56
652.356	153.56
652.56	150.56
652.764	135.56
652.969	140.56
653.173	147.56
653.377	149.56
653.581	141.56
653.785	149.56
653.99	151.56
654.194	136.56
654.398	133.56
654.602	125.56
654.806	143.56
655.01	150.56
655.214	122.56
655.418	146.56
655.622	149.56
655.826	124.56
656.03	130.56
656.234	149.56
656.438	132.56
656.642	131.56
656.846	119.56
657.049	116.56
657.253	127.56
657.457	109.56
657.661	101.56
657.865	108.56
658.068	118.56
658.272	109.56
658.476	103.56
658.68	111.56
658.883	108.56
659.087	98.56
659.291	103.56
659.494	92.56
659.698	94.56
659.901	87.56
660.105	88.56
660.309	95.56
660.512	97.56
660.716	82.56
660.919	88.56
661.123	85.56
661.326	86.56
661.53	87.56
661.733	97.56
661.936	101.56
662.14	80.56
662.343	85.56
662.546	78.56
662.75	82.56
662.953	82.56
663.156	65.56
663.36	83.56
663.563	75.56
663.766	92.56
663.969	74.56
664.173	75.56
664.376	66.56
664.579	80.56
664.782	77.56
664.985	86.56
665.188	77.56
665.391	82.56
665.594	74.56
665.797	69.56
666	84.56
666.203	67.56
666.406	70.56
666.609	81.56
666.812	85.56
667.015	79.56
667.218	77.56
667.421	81.56
667.624	74.56
667.827	67.56
668.03	70.56
668.232	76.56
668.435	89.56
668.638	96.56
668.841	91.56
669.043	79.56
669.246	80.56
669.449	87.56
669.651	75.56
669.854	87.56
670.057	86.56
670.259	64.56
670.462	70.56
670.665	79.56
670.867	87.56
671.07	80.56
671.272	89.56
671.475	87.56
671.677	70.56
671.88	72.56
672.082	59.56
672.284	71.56
672.487	75.56
672.689	72.56
672.892	80.56
