Data from 1973.PennyLincolnUp.Lamp.En5.5.200Scan.071719.P1.Changed Mount._HRD10591_15-43-39-851.txt Node
Date: Thu Jul 18 15:43:39 EDT 2019
User: cochatt
Spectrometer: HR+D1059
Trigger mode: 1
Integration Time (sec): 1.000000E-1
Scans to average: 1
Electric dark correction enabled: true
Nonlinearity correction enabled: false
Boxcar width: 0
XAxis mode: Wavelengths
Number of Pixels in Spectrum: 2048
>>>>>Begin Spectral Data<<<<<
223.165	-7.25
223.4	-7.25
223.635	-7.25
223.869	-28.25
224.104	-14.25
224.338	-16.25
224.573	-11.25
224.808	-9.25
225.042	-18.25
225.277	-7.25
225.511	9.75
225.746	2.75
225.98	12.75
226.215	13.75
226.449	-1.25
226.683	16.75
226.918	20.75
227.152	36.75
227.387	35.75
227.621	30.75
227.856	34.75
228.09	44.75
228.324	54.75
228.559	55.75
228.793	58.75
229.027	98.75
229.262	102.75
229.496	105.75
229.73	124.75
229.964	133.75
230.199	112.75
230.433	102.75
230.667	94.75
230.901	115.75
231.136	97.75
231.37	119.75
231.604	130.75
231.838	121.75
232.072	116.75
232.306	116.75
232.541	108.75
232.775	120.75
233.009	122.75
233.243	108.75
233.477	137.75
233.711	117.75
233.945	119.75
234.179	126.75
234.413	122.75
234.647	104.75
234.881	111.75
235.115	119.75
235.349	138.75
235.583	127.75
235.817	124.75
236.051	120.75
236.285	135.75
236.519	122.75
236.753	123.75
236.987	144.75
237.221	166.75
237.455	204.75
237.689	160.75
237.922	132.75
238.156	130.75
238.39	115.75
238.624	123.75
238.858	130.75
239.091	132.75
239.325	124.75
239.559	139.75
239.793	132.75
240.027	134.75
240.26	133.75
240.494	138.75
240.728	147.75
240.961	138.75
241.195	137.75
241.429	141.75
241.662	124.75
241.896	139.75
242.13	119.75
242.363	147.75
242.597	142.75
242.83	144.75
243.064	132.75
243.298	143.75
243.531	146.75
243.765	124.75
243.998	136.75
244.232	132.75
244.465	136.75
244.699	141.75
244.932	148.75
245.166	129.75
245.399	147.75
245.633	142.75
245.866	144.75
246.099	153.75
246.333	144.75
246.566	154.75
246.8	146.75
247.033	162.75
247.266	159.75
247.5	148.75
247.733	170.75
247.966	175.75
248.2	167.75
248.433	165.75
248.666	155.75
248.899	175.75
249.133	195.75
249.366	191.75
249.599	185.75
249.832	161.75
250.066	193.75
250.299	168.75
250.532	180.75
250.765	192.75
250.998	212.75
251.231	225.75
251.465	210.75
251.698	198.75
251.931	189.75
252.164	185.75
252.397	193.75
252.63	199.75
252.863	197.75
253.096	206.75
253.329	216.75
253.562	208.75
253.795	214.75
254.028	215.75
254.261	216.75
254.494	223.75
254.727	230.75
254.96	242.75
255.193	246.75
255.426	233.75
255.659	221.75
255.892	224.75
256.124	216.75
256.357	211.75
256.59	220.75
256.823	217.75
257.056	215.75
257.289	214.75
257.521	209.75
257.754	205.75
257.987	194.75
258.22	208.75
258.452	216.75
258.685	202.75
258.918	224.75
259.151	200.75
259.383	204.75
259.616	230.75
259.849	218.75
260.081	237.75
260.314	247.75
260.547	238.75
260.779	242.75
261.012	219.75
261.244	210.75
261.477	216.75
261.71	208.75
261.942	214.75
262.175	235.75
262.407	225.75
262.64	211.75
262.872	214.75
263.105	216.75
263.337	241.75
263.57	215.75
263.802	208.75
264.035	221.75
264.267	215.75
264.499	223.75
264.732	227.75
264.964	221.75
265.197	206.75
265.429	215.75
265.661	220.75
265.894	208.75
266.126	214.75
266.358	208.75
266.591	234.75
266.823	233.75
267.055	223.75
267.287	236.75
267.52	240.75
267.752	225.75
267.984	220.75
268.216	234.75
268.448	234.75
268.681	231.75
268.913	260.75
269.145	246.75
269.377	266.75
269.609	266.75
269.841	266.75
270.073	247.75
270.306	279.75
270.538	290.75
270.77	296.75
271.002	303.75
271.234	287.75
271.466	293.75
271.698	302.75
271.93	289.75
272.162	302.75
272.394	295.75
272.626	277.75
272.858	300.75
273.09	263.75
273.322	268.75
273.553	280.75
273.785	258.75
274.017	264.75
274.249	263.75
274.481	247.75
274.713	273.75
274.945	260.75
275.176	257.75
275.408	250.75
275.64	266.75
275.872	259.75
276.104	283.75
276.335	277.75
276.567	282.75
276.799	276.75
277.031	298.75
277.262	308.75
277.494	313.75
277.726	297.75
277.957	301.75
278.189	284.75
278.421	263.75
278.652	275.75
278.884	272.75
279.115	258.75
279.347	269.75
279.579	286.75
279.81	278.75
280.042	277.75
280.273	283.75
280.505	276.75
280.736	280.75
280.968	281.75
281.199	273.75
281.431	279.75
281.662	283.75
281.894	290.75
282.125	272.75
282.356	302.75
282.588	289.75
282.819	295.75
283.051	302.75
283.282	294.75
283.513	307.75
283.745	304.75
283.976	282.75
284.207	296.75
284.439	296.75
284.67	310.75
284.901	292.75
285.132	296.75
285.364	286.75
285.595	295.75
285.826	284.75
286.057	301.75
286.288	285.75
286.52	311.75
286.751	314.75
286.982	286.75
287.213	316.75
287.444	307.75
287.675	299.75
287.906	317.75
288.138	296.75
288.369	296.75
288.6	301.75
288.831	301.75
289.062	312.75
289.293	316.75
289.524	311.75
289.755	302.75
289.986	301.75
290.217	316.75
290.448	318.75
290.679	310.75
290.91	316.75
291.141	309.75
291.371	301.75
291.602	304.75
291.833	315.75
292.064	319.75
292.295	312.75
292.526	300.75
292.757	299.75
292.987	293.75
293.218	309.75
293.449	322.75
293.68	309.75
293.91	294.75
294.141	313.75
294.372	317.75
294.603	308.75
294.833	328.75
295.064	325.75
295.295	308.75
295.525	300.75
295.756	311.75
295.987	309.75
296.217	338.75
296.448	330.75
296.679	334.75
296.909	311.75
297.14	308.75
297.37	333.75
297.601	331.75
297.831	317.75
298.062	315.75
298.292	320.75
298.523	320.75
298.753	320.75
298.984	354.75
299.214	319.75
299.445	331.75
299.675	320.75
299.905	347.75
300.136	336.75
300.366	331.75
300.597	323.75
300.827	333.75
301.057	347.75
301.288	330.75
301.518	367.75
301.748	332.75
301.979	326.75
302.209	338.75
302.439	337.75
302.669	354.75
302.9	335.75
303.13	330.75
303.36	346.75
303.59	372.75
303.82	342.75
304.051	349.75
304.281	359.75
304.511	340.75
304.741	343.75
304.971	338.75
305.201	350.75
305.431	364.75
305.661	344.75
305.891	332.75
306.121	354.75
306.352	341.75
306.582	335.75
306.812	360.75
307.042	350.75
307.272	352.75
307.502	346.75
307.731	335.75
307.961	350.75
308.191	361.75
308.421	334.75
308.651	343.75
308.881	340.75
309.111	334.75
309.341	360.75
309.571	333.75
309.8	366.75
310.03	379.75
310.26	363.75
310.49	357.75
310.72	378.75
310.949	366.75
311.179	388.75
311.409	386.75
311.639	359.75
311.868	376.75
312.098	374.75
312.328	378.75
312.557	379.75
312.787	385.75
313.017	382.75
313.246	390.75
313.476	359.75
313.706	378.75
313.935	382.75
314.165	383.75
314.394	394.75
314.624	392.75
314.853	388.75
315.083	385.75
315.312	398.75
315.542	372.75
315.771	379.75
316.001	387.75
316.23	376.75
316.46	372.75
316.689	394.75
316.919	372.75
317.148	377.75
317.377	371.75
317.607	383.75
317.836	387.75
318.065	382.75
318.295	374.75
318.524	367.75
318.753	374.75
318.983	386.75
319.212	375.75
319.441	400.75
319.67	387.75
319.9	378.75
320.129	374.75
320.358	386.75
320.587	395.75
320.816	382.75
321.046	404.75
321.275	371.75
321.504	393.75
321.733	377.75
321.962	378.75
322.191	388.75
322.42	420.75
322.649	416.75
322.878	392.75
323.108	404.75
323.337	420.75
323.566	413.75
323.795	452.75
324.024	463.75
324.253	528.75
324.482	647.75
324.71	907.75
324.939	1319.75
325.168	1168.75
325.397	659.75
325.626	500.75
325.855	472.75
326.084	449.75
326.313	444.75
326.542	445.75
326.77	475.75
326.999	492.75
327.228	621.75
327.457	879.75
327.686	1004.75
327.914	727.75
328.143	520.75
328.372	462.75
328.6	471.75
328.829	457.75
329.058	478.75
329.287	490.75
329.515	474.75
329.744	455.75
329.972	451.75
330.201	470.75
330.43	478.75
330.658	483.75
330.887	493.75
331.115	496.75
331.344	470.75
331.572	452.75
331.801	467.75
332.03	456.75
332.258	453.75
332.486	443.75
332.715	444.75
332.943	459.75
333.172	439.75
333.4	451.75
333.629	488.75
333.857	490.75
334.085	485.75
334.314	506.75
334.542	514.75
334.771	527.75
334.999	527.75
335.227	479.75
335.455	478.75
335.684	450.75
335.912	461.75
336.14	462.75
336.369	445.75
336.597	450.75
336.825	459.75
337.053	450.75
337.281	434.75
337.51	448.75
337.738	435.75
337.966	445.75
338.194	458.75
338.422	455.75
338.65	458.75
338.878	455.75
339.106	434.75
339.334	431.75
339.562	420.75
339.79	398.75
340.018	434.75
340.246	439.75
340.474	437.75
340.702	447.75
340.93	430.75
341.158	410.75
341.386	434.75
341.614	442.75
341.842	439.75
342.07	405.75
342.298	425.75
342.526	416.75
342.754	412.75
342.981	420.75
343.209	424.75
343.437	439.75
343.665	420.75
343.893	448.75
344.12	454.75
344.348	460.75
344.576	450.75
344.804	446.75
345.031	459.75
345.259	445.75
345.487	447.75
345.714	417.75
345.942	418.75
346.17	406.75
346.397	422.75
346.625	416.75
346.853	421.75
347.08	419.75
347.308	420.75
347.535	389.75
347.763	420.75
347.99	429.75
348.218	422.75
348.445	405.75
348.673	436.75
348.9	410.75
349.128	426.75
349.355	408.75
349.583	436.75
349.81	407.75
350.037	412.75
350.265	376.75
350.492	405.75
350.72	403.75
350.947	390.75
351.174	408.75
351.402	411.75
351.629	395.75
351.856	408.75
352.083	400.75
352.311	416.75
352.538	428.75
352.765	416.75
352.992	411.75
353.22	404.75
353.447	402.75
353.674	404.75
353.901	412.75
354.128	397.75
354.355	380.75
354.583	412.75
354.81	387.75
355.037	387.75
355.264	391.75
355.491	400.75
355.718	393.75
355.945	367.75
356.172	385.75
356.399	399.75
356.626	390.75
356.853	386.75
357.08	397.75
357.307	389.75
357.534	405.75
357.761	406.75
357.988	394.75
358.215	387.75
358.441	384.75
358.668	395.75
358.895	388.75
359.122	396.75
359.349	386.75
359.576	398.75
359.802	415.75
360.029	437.75
360.256	436.75
360.483	428.75
360.709	411.75
360.936	383.75
361.163	395.75
361.39	400.75
361.616	410.75
361.843	399.75
362.07	404.75
362.296	396.75
362.523	380.75
362.749	398.75
362.976	424.75
363.203	410.75
363.429	372.75
363.656	400.75
363.882	394.75
364.109	409.75
364.335	394.75
364.562	392.75
364.788	408.75
365.015	388.75
365.241	372.75
365.468	397.75
365.694	397.75
365.92	414.75
366.147	403.75
366.373	400.75
366.599	404.75
366.826	379.75
367.052	413.75
367.278	393.75
367.505	397.75
367.731	410.75
367.957	384.75
368.184	399.75
368.41	392.75
368.636	412.75
368.862	402.75
369.089	406.75
369.315	401.75
369.541	391.75
369.767	407.75
369.993	401.75
370.219	412.75
370.445	408.75
370.672	411.75
370.898	401.75
371.124	405.75
371.35	418.75
371.576	416.75
371.802	422.75
372.028	416.75
372.254	392.75
372.48	402.75
372.706	440.75
372.932	422.75
373.158	374.75
373.384	446.75
373.61	438.75
373.835	401.75
374.061	401.75
374.287	402.75
374.513	427.75
374.739	416.75
374.965	415.75
375.191	429.75
375.416	436.75
375.642	402.75
375.868	430.75
376.094	402.75
376.319	413.75
376.545	405.75
376.771	424.75
376.997	390.75
377.222	426.75
377.448	407.75
377.674	408.75
377.899	401.75
378.125	413.75
378.35	430.75
378.576	389.75
378.802	408.75
379.027	441.75
379.253	423.75
379.478	400.75
379.704	425.75
379.929	406.75
380.155	414.75
380.38	391.75
380.606	386.75
380.831	423.75
381.057	412.75
381.282	412.75
381.507	430.75
381.733	413.75
381.958	399.75
382.184	419.75
382.409	408.75
382.634	430.75
382.86	419.75
383.085	413.75
383.31	405.75
383.535	433.75
383.761	430.75
383.986	430.75
384.211	459.75
384.436	444.75
384.662	444.75
384.887	455.75
385.112	451.75
385.337	476.75
385.562	475.75
385.787	459.75
386.013	462.75
386.238	481.75
386.463	452.75
386.688	478.75
386.913	468.75
387.138	479.75
387.363	473.75
387.588	464.75
387.813	443.75
388.038	466.75
388.263	471.75
388.488	482.75
388.713	458.75
388.938	460.75
389.163	482.75
389.387	461.75
389.612	454.75
389.837	455.75
390.062	455.75
390.287	455.75
390.512	444.75
390.736	450.75
390.961	471.75
391.186	451.75
391.411	474.75
391.636	466.75
391.86	498.75
392.085	500.75
392.31	486.75
392.534	486.75
392.759	476.75
392.984	486.75
393.208	489.75
393.433	452.75
393.658	477.75
393.882	438.75
394.107	485.75
394.331	476.75
394.556	465.75
394.78	475.75
395.005	460.75
395.229	478.75
395.454	487.75
395.678	484.75
395.903	496.75
396.127	522.75
396.352	520.75
396.576	471.75
396.801	486.75
397.025	480.75
397.249	508.75
397.474	496.75
397.698	526.75
397.922	502.75
398.147	515.75
398.371	541.75
398.595	547.75
398.82	526.75
399.044	555.75
399.268	595.75
399.492	628.75
399.717	687.75
399.941	707.75
400.165	691.75
400.389	664.75
400.613	610.75
400.837	560.75
401.062	564.75
401.286	543.75
401.51	523.75
401.734	549.75
401.958	551.75
402.182	526.75
402.406	559.75
402.63	533.75
402.854	582.75
403.078	538.75
403.302	558.75
403.526	562.75
403.75	581.75
403.974	573.75
404.198	583.75
404.422	575.75
404.645	597.75
404.869	596.75
405.093	591.75
405.317	624.75
405.541	631.75
405.765	606.75
405.988	576.75
406.212	570.75
406.436	594.75
406.66	605.75
406.883	611.75
407.107	626.75
407.331	682.75
407.555	717.75
407.778	704.75
408.002	674.75
408.226	613.75
408.449	602.75
408.673	579.75
408.896	630.75
409.12	671.75
409.344	628.75
409.567	614.75
409.791	566.75
410.014	580.75
410.238	546.75
410.461	581.75
410.685	553.75
410.908	565.75
411.132	594.75
411.355	635.75
411.578	592.75
411.802	542.75
412.025	550.75
412.249	560.75
412.472	576.75
412.695	608.75
412.919	592.75
413.142	563.75
413.365	555.75
413.589	554.75
413.812	539.75
414.035	544.75
414.258	532.75
414.482	539.75
414.705	565.75
414.928	503.75
415.151	559.75
415.374	524.75
415.597	504.75
415.821	539.75
416.044	542.75
416.267	512.75
416.49	511.75
416.713	518.75
416.936	502.75
417.159	522.75
417.382	520.75
417.605	543.75
417.828	516.75
418.051	546.75
418.274	537.75
418.497	528.75
418.72	534.75
418.943	547.75
419.166	554.75
419.389	584.75
419.611	572.75
419.834	580.75
420.057	567.75
420.28	582.75
420.503	540.75
420.726	547.75
420.948	589.75
421.171	582.75
421.394	596.75
421.617	572.75
421.839	538.75
422.062	546.75
422.285	549.75
422.507	619.75
422.73	664.75
422.953	651.75
423.175	593.75
423.398	546.75
423.621	553.75
423.843	589.75
424.066	586.75
424.288	600.75
424.511	596.75
424.733	619.75
424.956	672.75
425.178	674.75
425.401	666.75
425.623	696.75
425.846	582.75
426.068	562.75
426.291	568.75
426.513	548.75
426.735	542.75
426.958	592.75
427.18	633.75
427.402	758.75
427.625	833.75
427.847	674.75
428.069	634.75
428.292	580.75
428.514	520.75
428.736	513.75
428.958	515.75
429.181	506.75
429.403	530.75
429.625	508.75
429.847	535.75
430.069	597.75
430.292	598.75
430.514	533.75
430.736	522.75
430.958	520.75
431.18	504.75
431.402	495.75
431.624	501.75
431.846	490.75
432.068	500.75
432.29	476.75
432.512	486.75
432.734	510.75
432.956	486.75
433.178	514.75
433.4	511.75
433.622	475.75
433.844	502.75
434.066	485.75
434.287	496.75
434.509	526.75
434.731	533.75
434.953	546.75
435.175	534.75
435.397	574.75
435.618	563.75
435.84	572.75
436.062	635.75
436.284	688.75
436.505	588.75
436.727	544.75
436.949	538.75
437.17	535.75
437.392	503.75
437.614	518.75
437.835	538.75
438.057	602.75
438.278	695.75
438.5	703.75
438.721	752.75
438.943	730.75
439.165	581.75
439.386	548.75
439.608	565.75
439.829	532.75
440.05	568.75
440.272	591.75
440.493	556.75
440.715	530.75
440.936	531.75
441.158	504.75
441.379	523.75
441.6	568.75
441.822	562.75
442.043	592.75
442.264	654.75
442.486	681.75
442.707	611.75
442.928	571.75
443.149	583.75
443.371	595.75
443.592	602.75
443.813	694.75
444.034	726.75
444.255	651.75
444.476	593.75
444.698	592.75
444.919	633.75
445.14	673.75
445.361	618.75
445.582	604.75
445.803	616.75
446.024	663.75
446.245	710.75
446.466	652.75
446.687	566.75
446.908	552.75
447.129	537.75
447.35	501.75
447.571	505.75
447.792	494.75
448.013	492.75
448.234	515.75
448.455	567.75
448.675	648.75
448.896	742.75
449.117	632.75
449.338	603.75
449.559	683.75
449.779	794.75
450	644.75
450.221	518.75
450.442	498.75
450.662	501.75
450.883	507.75
451.104	508.75
451.324	492.75
451.545	487.75
451.766	475.75
451.986	440.75
452.207	446.75
452.428	442.75
452.648	469.75
452.869	472.75
453.089	439.75
453.31	457.75
453.53	446.75
453.751	452.75
453.971	439.75
454.192	447.75
454.412	440.75
454.633	454.75
454.853	437.75
455.073	454.75
455.294	470.75
455.514	513.75
455.734	518.75
455.955	466.75
456.175	450.75
456.395	435.75
456.616	427.75
456.836	422.75
457.056	436.75
457.276	421.75
457.497	445.75
457.717	424.75
457.937	429.75
458.157	457.75
458.377	445.75
458.598	467.75
458.818	495.75
459.038	532.75
459.258	580.75
459.478	519.75
459.698	515.75
459.918	507.75
460.138	500.75
460.358	537.75
460.578	524.75
460.798	546.75
461.018	554.75
461.238	538.75
461.458	514.75
461.678	537.75
461.898	532.75
462.118	538.75
462.338	567.75
462.558	560.75
462.777	588.75
462.997	609.75
463.217	647.75
463.437	615.75
463.657	638.75
463.876	584.75
464.096	562.75
464.316	578.75
464.536	559.75
464.755	568.75
464.975	586.75
465.195	580.75
465.414	590.75
465.634	538.75
465.854	503.75
466.073	510.75
466.293	500.75
466.512	482.75
466.732	470.75
466.951	473.75
467.171	472.75
467.391	475.75
467.61	476.75
467.829	487.75
468.049	475.75
468.268	468.75
468.488	468.75
468.707	467.75
468.927	450.75
469.146	442.75
469.365	462.75
469.585	477.75
469.804	485.75
470.023	485.75
470.243	476.75
470.462	491.75
470.681	515.75
470.901	493.75
471.12	492.75
471.339	484.75
471.558	500.75
471.777	492.75
471.997	470.75
472.216	484.75
472.435	495.75
472.654	492.75
472.873	466.75
473.092	471.75
473.311	471.75
473.53	475.75
473.749	451.75
473.968	518.75
474.187	568.75
474.406	568.75
474.625	515.75
474.844	478.75
475.063	474.75
475.282	498.75
475.501	500.75
475.72	494.75
475.939	470.75
476.158	495.75
476.377	490.75
476.596	480.75
476.814	502.75
477.033	508.75
477.252	504.75
477.471	506.75
477.69	537.75
477.908	522.75
478.127	532.75
478.346	531.75
478.564	547.75
478.783	541.75
479.002	562.75
479.22	554.75
479.439	553.75
479.658	599.75
479.876	573.75
480.095	598.75
480.313	601.75
480.532	593.75
480.751	585.75
480.969	612.75
481.188	611.75
481.406	596.75
481.624	598.75
481.843	570.75
482.061	562.75
482.28	552.75
482.498	569.75
482.717	557.75
482.935	556.75
483.153	564.75
483.372	530.75
483.59	554.75
483.808	546.75
484.027	554.75
484.245	543.75
484.463	578.75
484.681	580.75
484.9	548.75
485.118	566.75
485.336	567.75
485.554	590.75
485.772	580.75
485.99	576.75
486.209	583.75
486.427	575.75
486.645	594.75
486.863	589.75
487.081	587.75
487.299	592.75
487.517	586.75
487.735	610.75
487.953	579.75
488.171	584.75
488.389	597.75
488.607	596.75
488.825	605.75
489.043	563.75
489.261	610.75
489.479	610.75
489.696	621.75
489.914	582.75
490.132	599.75
490.35	612.75
490.568	610.75
490.786	629.75
491.003	622.75
491.221	634.75
491.439	641.75
491.657	639.75
491.874	666.75
492.092	643.75
492.31	662.75
492.527	675.75
492.745	659.75
492.963	652.75
493.18	672.75
493.398	687.75
493.615	679.75
493.833	674.75
494.05	698.75
494.268	684.75
494.485	669.75
494.703	679.75
494.92	688.75
495.138	686.75
495.355	667.75
495.573	687.75
495.79	691.75
496.008	672.75
496.225	705.75
496.442	706.75
496.66	709.75
496.877	700.75
497.094	684.75
497.312	720.75
497.529	707.75
497.746	715.75
497.963	735.75
498.181	766.75
498.398	770.75
498.615	825.75
498.832	825.75
499.049	872.75
499.267	905.75
499.484	966.75
499.701	994.75
499.918	1043.75
500.135	1132.75
500.352	1220.75
500.569	1267.75
500.786	1243.75
501.003	1202.75
501.22	1162.75
501.437	1058.75
501.654	1022.75
501.871	976.75
502.088	908.75
502.305	880.75
502.522	842.75
502.739	791.75
502.956	777.75
503.172	782.75
503.389	759.75
503.606	710.75
503.823	713.75
504.04	736.75
504.256	713.75
504.473	738.75
504.69	736.75
504.907	737.75
505.123	690.75
505.34	692.75
505.557	671.75
505.773	643.75
505.99	640.75
506.207	640.75
506.423	625.75
506.64	637.75
506.856	633.75
507.073	635.75
507.289	622.75
507.506	626.75
507.722	606.75
507.939	618.75
508.155	618.75
508.372	598.75
508.588	602.75
508.805	610.75
509.021	590.75
509.238	616.75
509.454	599.75
509.67	591.75
509.887	587.75
510.103	598.75
510.319	574.75
510.536	621.75
510.752	827.75
510.968	756.75
511.184	592.75
511.401	562.75
511.617	568.75
511.833	571.75
512.049	558.75
512.265	553.75
512.481	568.75
512.698	555.75
512.914	558.75
513.13	566.75
513.346	535.75
513.562	556.75
513.778	566.75
513.994	573.75
514.21	557.75
514.426	572.75
514.642	585.75
514.858	598.75
515.074	600.75
515.29	648.75
515.506	823.75
515.721	727.75
515.937	635.75
516.153	602.75
516.369	587.75
516.585	620.75
516.801	604.75
517.016	594.75
517.232	637.75
517.448	642.75
517.664	651.75
517.879	663.75
518.095	656.75
518.311	639.75
518.527	645.75
518.742	607.75
518.958	601.75
519.173	621.75
519.389	598.75
519.605	604.75
519.82	566.75
520.036	571.75
520.251	588.75
520.467	583.75
520.682	595.75
520.898	553.75
521.113	571.75
521.329	583.75
521.544	617.75
521.76	695.75
521.975	936.75
522.19	898.75
522.406	667.75
522.621	572.75
522.836	557.75
523.052	529.75
523.267	540.75
523.482	550.75
523.698	508.75
523.913	534.75
524.128	492.75
524.343	519.75
524.559	500.75
524.774	518.75
524.989	501.75
525.204	510.75
525.419	501.75
525.634	496.75
525.849	483.75
526.064	487.75
526.28	477.75
526.495	472.75
526.71	496.75
526.925	484.75
527.14	494.75
527.355	491.75
527.57	485.75
527.785	478.75
527.999	496.75
528.214	501.75
528.429	486.75
528.644	459.75
528.859	478.75
529.074	481.75
529.289	499.75
529.503	535.75
529.718	506.75
529.933	485.75
530.148	477.75
530.363	479.75
530.577	484.75
530.792	478.75
531.007	446.75
531.221	473.75
531.436	471.75
531.651	466.75
531.865	452.75
532.08	474.75
532.295	485.75
532.509	463.75
532.724	492.75
532.938	476.75
533.153	503.75
533.367	463.75
533.582	467.75
533.796	461.75
534.011	484.75
534.225	448.75
534.44	471.75
534.654	456.75
534.868	482.75
535.083	469.75
535.297	452.75
535.511	470.75
535.726	465.75
535.94	468.75
536.154	449.75
536.369	467.75
536.583	453.75
536.797	463.75
537.011	458.75
537.225	440.75
537.44	463.75
537.654	453.75
537.868	463.75
538.082	456.75
538.296	469.75
538.51	458.75
538.724	467.75
538.938	467.75
539.153	439.75
539.367	462.75
539.581	462.75
539.795	437.75
540.009	452.75
540.222	443.75
540.436	447.75
540.65	456.75
540.864	455.75
541.078	453.75
541.292	447.75
541.506	456.75
541.72	458.75
541.934	462.75
542.147	463.75
542.361	439.75
542.575	458.75
542.789	468.75
543.002	442.75
543.216	458.75
543.43	445.75
543.644	455.75
543.857	451.75
544.071	450.75
544.285	452.75
544.498	441.75
544.712	449.75
544.925	453.75
545.139	441.75
545.352	463.75
545.566	469.75
545.779	442.75
545.993	469.75
546.206	446.75
546.42	463.75
546.633	442.75
546.847	449.75
547.06	446.75
547.274	451.75
547.487	465.75
547.7	445.75
547.914	463.75
548.127	460.75
548.34	453.75
548.554	457.75
548.767	452.75
548.98	441.75
549.193	453.75
549.407	450.75
549.62	457.75
549.833	446.75
550.046	460.75
550.259	451.75
550.473	422.75
550.686	437.75
550.899	455.75
551.112	438.75
551.325	441.75
551.538	446.75
551.751	430.75
551.964	461.75
552.177	458.75
552.39	455.75
552.603	445.75
552.816	452.75
553.029	458.75
553.242	476.75
553.455	471.75
553.667	491.75
553.88	494.75
554.093	473.75
554.306	475.75
554.519	448.75
554.732	426.75
554.944	427.75
555.157	436.75
555.37	454.75
555.583	419.75
555.795	421.75
556.008	403.75
556.221	420.75
556.433	438.75
556.646	413.75
556.859	398.75
557.071	399.75
557.284	383.75
557.496	401.75
557.709	379.75
557.921	402.75
558.134	406.75
558.346	396.75
558.559	407.75
558.771	398.75
558.984	362.75
559.196	417.75
559.409	371.75
559.621	397.75
559.833	385.75
560.046	373.75
560.258	381.75
560.47	376.75
560.683	387.75
560.895	379.75
561.107	385.75
561.32	395.75
561.532	409.75
561.744	397.75
561.956	395.75
562.168	399.75
562.381	420.75
562.593	405.75
562.805	405.75
563.017	426.75
563.229	418.75
563.441	400.75
563.653	401.75
563.865	399.75
564.077	389.75
564.289	404.75
564.501	418.75
564.713	423.75
564.925	418.75
565.137	432.75
565.349	452.75
565.561	452.75
565.773	459.75
565.985	461.75
566.197	481.75
566.408	511.75
566.62	520.75
566.832	541.75
567.044	554.75
567.255	557.75
567.467	567.75
567.679	590.75
567.891	589.75
568.102	602.75
568.314	588.75
568.526	569.75
568.737	539.75
568.949	490.75
569.161	474.75
569.372	430.75
569.584	430.75
569.795	433.75
570.007	439.75
570.218	444.75
570.43	444.75
570.641	410.75
570.853	396.75
571.064	410.75
571.276	419.75
571.487	388.75
571.698	387.75
571.91	377.75
572.121	398.75
572.333	385.75
572.544	372.75
572.755	362.75
572.966	364.75
573.178	366.75
573.389	355.75
573.6	360.75
573.811	347.75
574.023	337.75
574.234	380.75
574.445	351.75
574.656	346.75
574.867	373.75
575.078	348.75
575.289	354.75
575.501	340.75
575.712	314.75
575.923	338.75
576.134	356.75
576.345	344.75
576.556	338.75
576.767	348.75
576.978	343.75
577.188	367.75
577.399	336.75
577.61	334.75
577.821	316.75
578.032	322.75
578.243	352.75
578.454	400.75
578.665	365.75
578.875	331.75
579.086	298.75
579.297	326.75
579.508	322.75
579.718	339.75
579.929	315.75
580.14	317.75
580.35	336.75
580.561	310.75
580.772	314.75
580.982	317.75
581.193	328.75
581.403	316.75
581.614	315.75
581.825	317.75
582.035	311.75
582.246	310.75
582.456	303.75
582.667	318.75
582.877	301.75
583.087	325.75
583.298	322.75
583.508	324.75
583.719	314.75
583.929	311.75
584.139	303.75
584.35	301.75
584.56	315.75
584.77	307.75
584.981	315.75
585.191	312.75
585.401	310.75
585.611	307.75
585.821	296.75
586.032	314.75
586.242	310.75
586.452	319.75
586.662	319.75
586.872	298.75
587.082	301.75
587.292	300.75
587.502	310.75
587.713	308.75
587.923	324.75
588.133	308.75
588.343	299.75
588.553	313.75
588.762	302.75
588.972	299.75
589.182	333.75
589.392	332.75
589.602	321.75
589.812	326.75
590.022	307.75
590.232	294.75
590.441	310.75
590.651	310.75
590.861	311.75
591.071	304.75
591.281	309.75
591.49	303.75
591.7	332.75
591.91	330.75
592.119	323.75
592.329	342.75
592.539	343.75
592.748	344.75
592.958	359.75
593.167	354.75
593.377	348.75
593.587	350.75
593.796	360.75
594.006	354.75
594.215	360.75
594.424	366.75
594.634	344.75
594.843	349.75
595.053	333.75
595.262	341.75
595.472	312.75
595.681	308.75
595.89	329.75
596.1	296.75
596.309	314.75
596.518	318.75
596.727	304.75
596.937	288.75
597.146	296.75
597.355	304.75
597.564	288.75
597.774	268.75
597.983	295.75
598.192	290.75
598.401	292.75
598.61	272.75
598.819	278.75
599.028	283.75
599.237	266.75
599.446	270.75
599.655	281.75
599.864	271.75
600.073	264.75
600.282	302.75
600.491	270.75
600.7	279.75
600.909	270.75
601.118	266.75
601.327	282.75
601.536	266.75
601.745	272.75
601.953	280.75
602.162	280.75
602.371	279.75
602.58	277.75
602.789	266.75
602.997	241.75
603.206	266.75
603.415	274.75
603.623	253.75
603.832	263.75
604.041	263.75
604.249	250.75
604.458	252.75
604.666	250.75
604.875	246.75
605.084	267.75
605.292	266.75
605.501	260.75
605.709	260.75
605.918	248.75
606.126	247.75
606.334	255.75
606.543	237.75
606.751	252.75
606.96	246.75
607.168	255.75
607.376	252.75
607.585	259.75
607.793	251.75
608.001	263.75
608.21	248.75
608.418	250.75
608.626	247.75
608.834	250.75
609.043	244.75
609.251	239.75
609.459	269.75
609.667	246.75
609.875	257.75
610.083	277.75
610.291	253.75
610.499	248.75
610.707	248.75
610.916	254.75
611.124	264.75
611.332	262.75
611.54	263.75
611.748	276.75
611.955	264.75
612.163	264.75
612.371	261.75
612.579	251.75
612.787	262.75
612.995	260.75
613.203	253.75
613.411	243.75
613.618	236.75
613.826	251.75
614.034	254.75
614.242	249.75
614.449	261.75
614.657	239.75
614.865	240.75
615.072	247.75
615.28	256.75
615.488	244.75
615.695	271.75
615.903	261.75
616.111	246.75
616.318	258.75
616.526	258.75
616.733	251.75
616.941	225.75
617.148	244.75
617.356	249.75
617.563	239.75
617.771	266.75
617.978	244.75
618.185	233.75
618.393	242.75
618.6	247.75
618.807	239.75
619.015	246.75
619.222	255.75
619.429	242.75
619.637	235.75
619.844	232.75
620.051	229.75
620.258	230.75
620.466	233.75
620.673	231.75
620.88	217.75
621.087	226.75
621.294	231.75
621.501	229.75
621.708	215.75
621.915	246.75
622.122	235.75
622.329	233.75
622.536	240.75
622.743	255.75
622.95	237.75
623.157	239.75
623.364	230.75
623.571	233.75
623.778	233.75
623.985	219.75
624.192	226.75
624.399	238.75
624.606	219.75
624.812	235.75
625.019	225.75
625.226	230.75
625.433	221.75
625.639	232.75
625.846	211.75
626.053	205.75
626.259	222.75
626.466	208.75
626.673	237.75
626.879	211.75
627.086	215.75
627.293	219.75
627.499	231.75
627.706	211.75
627.912	219.75
628.119	208.75
628.325	222.75
628.532	219.75
628.738	226.75
628.945	223.75
629.151	208.75
629.357	191.75
629.564	208.75
629.77	212.75
629.976	215.75
630.183	210.75
630.389	194.75
630.595	203.75
630.802	195.75
631.008	196.75
631.214	212.75
631.42	221.75
631.627	202.75
631.833	205.75
632.039	205.75
632.245	204.75
632.451	202.75
632.657	199.75
632.863	195.75
633.069	208.75
633.275	210.75
633.481	201.75
633.688	202.75
633.893	181.75
634.099	201.75
634.305	180.75
634.511	193.75
634.717	182.75
634.923	202.75
635.129	192.75
635.335	194.75
635.541	205.75
635.747	186.75
635.952	185.75
636.158	196.75
636.364	184.75
636.57	188.75
636.775	203.75
636.981	209.75
637.187	187.75
637.392	182.75
637.598	179.75
637.804	190.75
638.009	170.75
638.215	190.75
638.421	192.75
638.626	184.75
638.832	185.75
639.037	188.75
639.243	194.75
639.448	190.75
639.654	186.75
639.859	168.75
640.065	174.75
640.27	195.75
640.475	186.75
640.681	186.75
640.886	188.75
641.091	162.75
641.297	195.75
641.502	177.75
641.707	182.75
641.913	181.75
642.118	159.75
642.323	192.75
642.528	196.75
642.733	182.75
642.939	182.75
643.144	174.75
643.349	185.75
643.554	175.75
643.759	180.75
643.964	180.75
644.169	183.75
644.374	169.75
644.579	174.75
644.784	175.75
644.989	170.75
645.194	184.75
645.399	174.75
645.604	173.75
645.809	159.75
646.014	176.75
646.219	182.75
646.423	202.75
646.628	173.75
646.833	179.75
647.038	168.75
647.243	189.75
647.447	194.75
647.652	188.75
647.857	195.75
648.062	177.75
648.266	179.75
648.471	191.75
648.676	190.75
648.88	181.75
649.085	176.75
649.289	183.75
649.494	192.75
649.698	186.75
649.903	201.75
650.107	178.75
650.312	171.75
650.516	156.75
650.721	180.75
650.925	155.75
651.13	168.75
651.334	165.75
651.539	154.75
651.743	164.75
651.947	156.75
652.152	155.75
652.356	158.75
652.56	172.75
652.764	147.75
652.969	160.75
653.173	146.75
653.377	150.75
653.581	145.75
653.785	131.75
653.99	150.75
654.194	152.75
654.398	152.75
654.602	141.75
654.806	158.75
655.01	148.75
655.214	142.75
655.418	139.75
655.622	144.75
655.826	139.75
656.03	153.75
656.234	154.75
656.438	144.75
656.642	161.75
656.846	139.75
657.049	149.75
657.253	139.75
657.457	122.75
657.661	124.75
657.865	107.75
658.068	129.75
658.272	120.75
658.476	104.75
658.68	112.75
658.883	119.75
659.087	112.75
659.291	107.75
659.494	109.75
659.698	103.75
659.901	86.75
660.105	86.75
660.309	106.75
660.512	100.75
660.716	92.75
660.919	91.75
661.123	100.75
661.326	90.75
661.53	86.75
661.733	99.75
661.936	97.75
662.14	86.75
662.343	97.75
662.546	91.75
662.75	79.75
662.953	101.75
663.156	79.75
663.36	78.75
663.563	83.75
663.766	81.75
663.969	84.75
664.173	83.75
664.376	70.75
664.579	94.75
664.782	80.75
664.985	92.75
665.188	90.75
665.391	80.75
665.594	87.75
665.797	96.75
666	75.75
666.203	66.75
666.406	89.75
666.609	91.75
666.812	93.75
667.015	80.75
667.218	93.75
667.421	85.75
667.624	81.75
667.827	84.75
668.03	87.75
668.232	92.75
668.435	84.75
668.638	71.75
668.841	98.75
669.043	88.75
669.246	91.75
669.449	89.75
669.651	86.75
669.854	82.75
670.057	79.75
670.259	75.75
670.462	76.75
670.665	78.75
670.867	79.75
671.07	95.75
671.272	94.75
671.475	78.75
671.677	79.75
671.88	79.75
672.082	82.75
672.284	81.75
672.487	88.75
672.689	86.75
672.892	70.75
