Data from 1973.PennyLincolnUp.Lamp.En5.5.200Scan.071719.P1.Changed Mount._HRD10591_15-45-42-852.txt Node
Date: Thu Jul 18 15:45:42 EDT 2019
User: cochatt
Spectrometer: HR+D1059
Trigger mode: 1
Integration Time (sec): 1.000000E-1
Scans to average: 1
Electric dark correction enabled: true
Nonlinearity correction enabled: false
Boxcar width: 0
XAxis mode: Wavelengths
Number of Pixels in Spectrum: 2048
>>>>>Begin Spectral Data<<<<<
223.165	-19.56
223.4	-19.56
223.635	-19.56
223.869	-11.56
224.104	-16.56
224.338	-23.56
224.573	-5.56
224.808	-12.56
225.042	-8.56
225.277	-7.56
225.511	-3.56
225.746	-4.56
225.98	-3.56
226.215	25.44
226.449	8.44
226.683	28.44
226.918	24.44
227.152	30.44
227.387	30.44
227.621	32.44
227.856	29.44
228.09	59.44
228.324	56.44
228.559	56.44
228.793	74.44
229.027	87.44
229.262	112.44
229.496	105.44
229.73	132.44
229.964	158.44
230.199	133.44
230.433	99.44
230.667	104.44
230.901	115.44
231.136	116.44
231.37	115.44
231.604	132.44
231.838	110.44
232.072	109.44
232.306	124.44
232.541	116.44
232.775	110.44
233.009	114.44
233.243	125.44
233.477	125.44
233.711	121.44
233.945	117.44
234.179	128.44
234.413	112.44
234.647	117.44
234.881	122.44
235.115	125.44
235.349	119.44
235.583	122.44
235.817	129.44
236.051	131.44
236.285	126.44
236.519	118.44
236.753	137.44
236.987	133.44
237.221	169.44
237.455	236.44
237.689	194.44
237.922	135.44
238.156	130.44
238.39	120.44
238.624	120.44
238.858	117.44
239.091	129.44
239.325	127.44
239.559	126.44
239.793	133.44
240.027	139.44
240.26	146.44
240.494	160.44
240.728	146.44
240.961	159.44
241.195	149.44
241.429	151.44
241.662	142.44
241.896	147.44
242.13	138.44
242.363	150.44
242.597	130.44
242.83	154.44
243.064	129.44
243.298	156.44
243.531	150.44
243.765	145.44
243.998	150.44
244.232	155.44
244.465	147.44
244.699	154.44
244.932	143.44
245.166	148.44
245.399	147.44
245.633	156.44
245.866	142.44
246.099	156.44
246.333	142.44
246.566	150.44
246.8	156.44
247.033	163.44
247.266	163.44
247.5	180.44
247.733	194.44
247.966	178.44
248.2	191.44
248.433	169.44
248.666	178.44
248.899	184.44
249.133	202.44
249.366	190.44
249.599	193.44
249.832	173.44
250.066	185.44
250.299	184.44
250.532	196.44
250.765	196.44
250.998	226.44
251.231	233.44
251.465	224.44
251.698	205.44
251.931	227.44
252.164	201.44
252.397	212.44
252.63	202.44
252.863	208.44
253.096	204.44
253.329	211.44
253.562	233.44
253.795	234.44
254.028	226.44
254.261	212.44
254.494	229.44
254.727	258.44
254.96	287.44
255.193	278.44
255.426	237.44
255.659	238.44
255.892	233.44
256.124	248.44
256.357	245.44
256.59	219.44
256.823	220.44
257.056	225.44
257.289	218.44
257.521	216.44
257.754	215.44
257.987	209.44
258.22	230.44
258.452	225.44
258.685	220.44
258.918	224.44
259.151	230.44
259.383	262.44
259.616	242.44
259.849	237.44
260.081	242.44
260.314	252.44
260.547	272.44
260.779	256.44
261.012	259.44
261.244	234.44
261.477	250.44
261.71	248.44
261.942	251.44
262.175	240.44
262.407	237.44
262.64	235.44
262.872	232.44
263.105	237.44
263.337	222.44
263.57	231.44
263.802	239.44
264.035	216.44
264.267	236.44
264.499	222.44
264.732	221.44
264.964	240.44
265.197	229.44
265.429	236.44
265.661	230.44
265.894	246.44
266.126	234.44
266.358	229.44
266.591	218.44
266.823	246.44
267.055	247.44
267.287	251.44
267.52	243.44
267.752	261.44
267.984	270.44
268.216	236.44
268.448	229.44
268.681	261.44
268.913	277.44
269.145	284.44
269.377	292.44
269.609	282.44
269.841	285.44
270.073	300.44
270.306	299.44
270.538	353.44
270.77	336.44
271.002	312.44
271.234	307.44
271.466	312.44
271.698	349.44
271.93	325.44
272.162	329.44
272.394	336.44
272.626	324.44
272.858	294.44
273.09	277.44
273.322	313.44
273.553	282.44
273.785	282.44
274.017	283.44
274.249	307.44
274.481	286.44
274.713	301.44
274.945	290.44
275.176	288.44
275.408	280.44
275.64	278.44
275.872	300.44
276.104	286.44
276.335	287.44
276.567	296.44
276.799	313.44
277.031	326.44
277.262	334.44
277.494	328.44
277.726	320.44
277.957	317.44
278.189	304.44
278.421	310.44
278.652	275.44
278.884	294.44
279.115	289.44
279.347	303.44
279.579	305.44
279.81	299.44
280.042	293.44
280.273	291.44
280.505	311.44
280.736	303.44
280.968	302.44
281.199	308.44
281.431	314.44
281.662	310.44
281.894	298.44
282.125	314.44
282.356	312.44
282.588	314.44
282.819	333.44
283.051	324.44
283.282	322.44
283.513	327.44
283.745	313.44
283.976	306.44
284.207	334.44
284.439	322.44
284.67	329.44
284.901	318.44
285.132	301.44
285.364	320.44
285.595	314.44
285.826	304.44
286.057	317.44
286.288	320.44
286.52	320.44
286.751	325.44
286.982	310.44
287.213	304.44
287.444	320.44
287.675	321.44
287.906	323.44
288.138	340.44
288.369	338.44
288.6	358.44
288.831	342.44
289.062	332.44
289.293	337.44
289.524	331.44
289.755	322.44
289.986	329.44
290.217	323.44
290.448	325.44
290.679	326.44
290.91	329.44
291.141	350.44
291.371	320.44
291.602	318.44
291.833	299.44
292.064	324.44
292.295	330.44
292.526	340.44
292.757	347.44
292.987	340.44
293.218	336.44
293.449	318.44
293.68	350.44
293.91	351.44
294.141	328.44
294.372	331.44
294.603	335.44
294.833	337.44
295.064	341.44
295.295	334.44
295.525	327.44
295.756	340.44
295.987	355.44
296.217	373.44
296.448	356.44
296.679	339.44
296.909	341.44
297.14	331.44
297.37	353.44
297.601	354.44
297.831	355.44
298.062	369.44
298.292	340.44
298.523	355.44
298.753	361.44
298.984	354.44
299.214	341.44
299.445	353.44
299.675	357.44
299.905	348.44
300.136	355.44
300.366	363.44
300.597	357.44
300.827	363.44
301.057	362.44
301.288	368.44
301.518	390.44
301.748	390.44
301.979	395.44
302.209	365.44
302.439	374.44
302.669	393.44
302.9	390.44
303.13	359.44
303.36	370.44
303.59	377.44
303.82	373.44
304.051	384.44
304.281	382.44
304.511	381.44
304.741	376.44
304.971	369.44
305.201	370.44
305.431	373.44
305.661	382.44
305.891	354.44
306.121	372.44
306.352	357.44
306.582	370.44
306.812	351.44
307.042	386.44
307.272	384.44
307.502	384.44
307.731	371.44
307.961	392.44
308.191	391.44
308.421	388.44
308.651	384.44
308.881	403.44
309.111	374.44
309.341	392.44
309.571	396.44
309.8	386.44
310.03	397.44
310.26	386.44
310.49	384.44
310.72	411.44
310.949	428.44
311.179	435.44
311.409	407.44
311.639	405.44
311.868	407.44
312.098	397.44
312.328	420.44
312.557	420.44
312.787	430.44
313.017	433.44
313.246	432.44
313.476	428.44
313.706	418.44
313.935	406.44
314.165	412.44
314.394	440.44
314.624	437.44
314.853	416.44
315.083	438.44
315.312	409.44
315.542	426.44
315.771	404.44
316.001	424.44
316.23	424.44
316.46	403.44
316.689	425.44
316.919	404.44
317.148	419.44
317.377	403.44
317.607	446.44
317.836	411.44
318.065	400.44
318.295	420.44
318.524	406.44
318.753	439.44
318.983	415.44
319.212	426.44
319.441	422.44
319.67	406.44
319.9	417.44
320.129	413.44
320.358	417.44
320.587	437.44
320.816	429.44
321.046	424.44
321.275	430.44
321.504	439.44
321.733	428.44
321.962	441.44
322.191	440.44
322.42	444.44
322.649	466.44
322.878	460.44
323.108	458.44
323.337	474.44
323.566	478.44
323.795	499.44
324.024	552.44
324.253	610.44
324.482	797.44
324.71	1178.44
324.939	1661.44
325.168	1460.44
325.397	826.44
325.626	614.44
325.855	527.44
326.084	496.44
326.313	496.44
326.542	499.44
326.77	518.44
326.999	594.44
327.228	774.44
327.457	1075.44
327.686	1270.44
327.914	908.44
328.143	633.44
328.372	572.44
328.6	542.44
328.829	536.44
329.058	530.44
329.287	543.44
329.515	514.44
329.744	521.44
329.972	507.44
330.201	524.44
330.43	564.44
330.658	568.44
330.887	578.44
331.115	575.44
331.344	514.44
331.572	521.44
331.801	519.44
332.03	529.44
332.258	494.44
332.486	500.44
332.715	488.44
332.943	512.44
333.172	518.44
333.4	557.44
333.629	542.44
333.857	541.44
334.085	554.44
334.314	562.44
334.542	594.44
334.771	589.44
334.999	558.44
335.227	533.44
335.455	507.44
335.684	518.44
335.912	509.44
336.14	513.44
336.369	515.44
336.597	493.44
336.825	516.44
337.053	492.44
337.281	483.44
337.51	487.44
337.738	505.44
337.966	507.44
338.194	504.44
338.422	506.44
338.65	471.44
338.878	486.44
339.106	486.44
339.334	488.44
339.562	484.44
339.79	477.44
340.018	455.44
340.246	466.44
340.474	484.44
340.702	465.44
340.93	476.44
341.158	480.44
341.386	463.44
341.614	470.44
341.842	456.44
342.07	462.44
342.298	455.44
342.526	474.44
342.754	462.44
342.981	443.44
343.209	469.44
343.437	485.44
343.665	490.44
343.893	508.44
344.12	528.44
344.348	537.44
344.576	510.44
344.804	493.44
345.031	497.44
345.259	496.44
345.487	466.44
345.714	480.44
345.942	464.44
346.17	472.44
346.397	448.44
346.625	438.44
346.853	458.44
347.08	421.44
347.308	472.44
347.535	448.44
347.763	454.44
347.99	449.44
348.218	459.44
348.445	454.44
348.673	438.44
348.9	440.44
349.128	440.44
349.355	426.44
349.583	442.44
349.81	434.44
350.037	449.44
350.265	427.44
350.492	423.44
350.72	443.44
350.947	416.44
351.174	455.44
351.402	462.44
351.629	451.44
351.856	457.44
352.083	468.44
352.311	453.44
352.538	469.44
352.765	463.44
352.992	468.44
353.22	438.44
353.447	459.44
353.674	442.44
353.901	440.44
354.128	432.44
354.355	431.44
354.583	426.44
354.81	416.44
355.037	432.44
355.264	425.44
355.491	392.44
355.718	433.44
355.945	406.44
356.172	411.44
356.399	420.44
356.626	439.44
356.853	432.44
357.08	426.44
357.307	409.44
357.534	422.44
357.761	413.44
357.988	406.44
358.215	433.44
358.441	416.44
358.668	446.44
358.895	427.44
359.122	427.44
359.349	437.44
359.576	444.44
359.802	471.44
360.029	466.44
360.256	488.44
360.483	462.44
360.709	452.44
360.936	454.44
361.163	461.44
361.39	446.44
361.616	466.44
361.843	428.44
362.07	450.44
362.296	447.44
362.523	411.44
362.749	435.44
362.976	438.44
363.203	429.44
363.429	424.44
363.656	430.44
363.882	438.44
364.109	449.44
364.335	419.44
364.562	427.44
364.788	443.44
365.015	446.44
365.241	410.44
365.468	433.44
365.694	426.44
365.92	439.44
366.147	416.44
366.373	442.44
366.599	428.44
366.826	430.44
367.052	426.44
367.278	424.44
367.505	424.44
367.731	437.44
367.957	441.44
368.184	456.44
368.41	419.44
368.636	443.44
368.862	455.44
369.089	446.44
369.315	449.44
369.541	445.44
369.767	441.44
369.993	426.44
370.219	439.44
370.445	444.44
370.672	409.44
370.898	412.44
371.124	426.44
371.35	459.44
371.576	449.44
371.802	456.44
372.028	443.44
372.254	432.44
372.48	444.44
372.706	438.44
372.932	443.44
373.158	458.44
373.384	452.44
373.61	452.44
373.835	449.44
374.061	457.44
374.287	447.44
374.513	459.44
374.739	453.44
374.965	466.44
375.191	476.44
375.416	473.44
375.642	458.44
375.868	451.44
376.094	457.44
376.319	457.44
376.545	455.44
376.771	448.44
376.997	439.44
377.222	429.44
377.448	434.44
377.674	441.44
377.899	440.44
378.125	434.44
378.35	431.44
378.576	437.44
378.802	422.44
379.027	442.44
379.253	446.44
379.478	444.44
379.704	443.44
379.929	453.44
380.155	448.44
380.38	443.44
380.606	450.44
380.831	456.44
381.057	456.44
381.282	456.44
381.507	447.44
381.733	444.44
381.958	440.44
382.184	443.44
382.409	427.44
382.634	454.44
382.86	465.44
383.085	468.44
383.31	444.44
383.535	438.44
383.761	460.44
383.986	477.44
384.211	475.44
384.436	471.44
384.662	494.44
384.887	465.44
385.112	491.44
385.337	496.44
385.562	493.44
385.787	512.44
386.013	525.44
386.238	489.44
386.463	498.44
386.688	506.44
386.913	505.44
387.138	492.44
387.363	490.44
387.588	465.44
387.813	489.44
388.038	489.44
388.263	496.44
388.488	504.44
388.713	503.44
388.938	490.44
389.163	494.44
389.387	497.44
389.612	475.44
389.837	495.44
390.062	487.44
390.287	486.44
390.512	499.44
390.736	497.44
390.961	508.44
391.186	494.44
391.411	512.44
391.636	508.44
391.86	513.44
392.085	528.44
392.31	556.44
392.534	546.44
392.759	514.44
392.984	506.44
393.208	513.44
393.433	503.44
393.658	491.44
393.882	518.44
394.107	488.44
394.331	504.44
394.556	512.44
394.78	509.44
395.005	491.44
395.229	512.44
395.454	519.44
395.678	523.44
395.903	523.44
396.127	565.44
396.352	569.44
396.576	525.44
396.801	529.44
397.025	527.44
397.249	544.44
397.474	547.44
397.698	541.44
397.922	571.44
398.147	551.44
398.371	575.44
398.595	561.44
398.82	588.44
399.044	576.44
399.268	642.44
399.492	696.44
399.717	732.44
399.941	796.44
400.165	790.44
400.389	739.44
400.613	642.44
400.837	629.44
401.062	603.44
401.286	580.44
401.51	579.44
401.734	571.44
401.958	584.44
402.182	598.44
402.406	607.44
402.63	600.44
402.854	597.44
403.078	634.44
403.302	624.44
403.526	634.44
403.75	632.44
403.974	619.44
404.198	619.44
404.422	630.44
404.645	634.44
404.869	630.44
405.093	649.44
405.317	688.44
405.541	717.44
405.765	680.44
405.988	649.44
406.212	632.44
406.436	657.44
406.66	644.44
406.883	660.44
407.107	690.44
407.331	744.44
407.555	809.44
407.778	825.44
408.002	740.44
408.226	701.44
408.449	677.44
408.673	670.44
408.896	694.44
409.12	700.44
409.344	694.44
409.567	617.44
409.791	626.44
410.014	628.44
410.238	596.44
410.461	619.44
410.685	612.44
410.908	604.44
411.132	656.44
411.355	672.44
411.578	651.44
411.802	594.44
412.025	603.44
412.249	632.44
412.472	642.44
412.695	641.44
412.919	636.44
413.142	638.44
413.365	586.44
413.589	608.44
413.812	583.44
414.035	566.44
414.258	572.44
414.482	585.44
414.705	585.44
414.928	582.44
415.151	585.44
415.374	586.44
415.597	571.44
415.821	553.44
416.044	564.44
416.267	604.44
416.49	565.44
416.713	568.44
416.936	568.44
417.159	555.44
417.382	578.44
417.605	566.44
417.828	569.44
418.051	570.44
418.274	588.44
418.497	589.44
418.72	581.44
418.943	578.44
419.166	612.44
419.389	640.44
419.611	636.44
419.834	616.44
420.057	629.44
420.28	601.44
420.503	573.44
420.726	594.44
420.948	621.44
421.171	635.44
421.394	680.44
421.617	605.44
421.839	584.44
422.062	600.44
422.285	619.44
422.507	660.44
422.73	706.44
422.953	714.44
423.175	627.44
423.398	600.44
423.621	610.44
423.843	654.44
424.066	642.44
424.288	640.44
424.511	652.44
424.733	692.44
424.956	766.44
425.178	742.44
425.401	723.44
425.623	732.44
425.846	646.44
426.068	632.44
426.291	614.44
426.513	624.44
426.735	603.44
426.958	644.44
427.18	694.44
427.402	836.44
427.625	898.44
427.847	790.44
428.069	704.44
428.292	644.44
428.514	612.44
428.736	590.44
428.958	587.44
429.181	569.44
429.403	561.44
429.625	540.44
429.847	584.44
430.069	659.44
430.292	650.44
430.514	587.44
430.736	587.44
430.958	541.44
431.18	544.44
431.402	528.44
431.624	526.44
431.846	548.44
432.068	551.44
432.29	530.44
432.512	556.44
432.734	549.44
432.956	541.44
433.178	565.44
433.4	572.44
433.622	535.44
433.844	549.44
434.066	530.44
434.287	556.44
434.509	573.44
434.731	584.44
434.953	622.44
435.175	612.44
435.397	628.44
435.618	624.44
435.84	636.44
436.062	731.44
436.284	757.44
436.505	665.44
436.727	614.44
436.949	583.44
437.17	593.44
437.392	557.44
437.614	587.44
437.835	589.44
438.057	619.44
438.278	766.44
438.5	740.44
438.721	801.44
438.943	799.44
439.165	678.44
439.386	624.44
439.608	602.44
439.829	594.44
440.05	606.44
440.272	655.44
440.493	622.44
440.715	588.44
440.936	572.44
441.158	586.44
441.379	592.44
441.6	593.44
441.822	592.44
442.043	654.44
442.264	710.44
442.486	734.44
442.707	675.44
442.928	647.44
443.149	630.44
443.371	627.44
443.592	672.44
443.813	759.44
444.034	828.44
444.255	741.44
444.476	668.44
444.698	670.44
444.919	660.44
445.14	731.44
445.361	686.44
445.582	668.44
445.803	706.44
446.024	740.44
446.245	774.44
446.466	702.44
446.687	641.44
446.908	602.44
447.129	573.44
447.35	566.44
447.571	562.44
447.792	545.44
448.013	566.44
448.234	550.44
448.455	586.44
448.675	683.44
448.896	812.44
449.117	693.44
449.338	641.44
449.559	723.44
449.779	819.44
450	698.44
450.221	580.44
450.442	536.44
450.662	546.44
450.883	522.44
451.104	544.44
451.324	546.44
451.545	513.44
451.766	532.44
451.986	506.44
452.207	473.44
452.428	478.44
452.648	492.44
452.869	505.44
453.089	496.44
453.31	521.44
453.53	492.44
453.751	497.44
453.971	491.44
454.192	496.44
454.412	501.44
454.633	491.44
454.853	484.44
455.073	484.44
455.294	538.44
455.514	572.44
455.734	594.44
455.955	522.44
456.175	481.44
456.395	472.44
456.616	471.44
456.836	487.44
457.056	466.44
457.276	470.44
457.497	464.44
457.717	499.44
457.937	488.44
458.157	499.44
458.377	501.44
458.598	513.44
458.818	572.44
459.038	594.44
459.258	649.44
459.478	564.44
459.698	574.44
459.918	562.44
460.138	556.44
460.358	588.44
460.578	568.44
460.798	562.44
461.018	569.44
461.238	564.44
461.458	578.44
461.678	564.44
461.898	576.44
462.118	587.44
462.338	593.44
462.558	603.44
462.777	604.44
462.997	645.44
463.217	654.44
463.437	666.44
463.657	643.44
463.876	644.44
464.096	642.44
464.316	625.44
464.536	661.44
464.755	621.44
464.975	618.44
465.195	627.44
465.414	650.44
465.634	611.44
465.854	548.44
466.073	541.44
466.293	539.44
466.512	531.44
466.732	530.44
466.951	512.44
467.171	503.44
467.391	532.44
467.61	513.44
467.829	527.44
468.049	530.44
468.268	510.44
468.488	521.44
468.707	514.44
468.927	505.44
469.146	520.44
469.365	525.44
469.585	512.44
469.804	554.44
470.023	522.44
470.243	518.44
470.462	531.44
470.681	561.44
470.901	540.44
471.12	544.44
471.339	520.44
471.558	508.44
471.777	536.44
471.997	527.44
472.216	536.44
472.435	545.44
472.654	502.44
472.873	503.44
473.092	523.44
473.311	506.44
473.53	523.44
473.749	522.44
473.968	567.44
474.187	642.44
474.406	650.44
474.625	569.44
474.844	553.44
475.063	524.44
475.282	531.44
475.501	517.44
475.72	546.44
475.939	523.44
476.158	527.44
476.377	539.44
476.596	521.44
476.814	553.44
477.033	536.44
477.252	542.44
477.471	568.44
477.69	576.44
477.908	576.44
478.127	570.44
478.346	596.44
478.564	582.44
478.783	599.44
479.002	596.44
479.22	605.44
479.439	619.44
479.658	618.44
479.876	621.44
480.095	617.44
480.313	655.44
480.532	684.44
480.751	643.44
480.969	638.44
481.188	694.44
481.406	693.44
481.624	658.44
481.843	605.44
482.061	618.44
482.28	601.44
482.498	603.44
482.717	590.44
482.935	608.44
483.153	610.44
483.372	602.44
483.59	610.44
483.808	589.44
484.027	578.44
484.245	617.44
484.463	618.44
484.681	641.44
484.9	598.44
485.118	590.44
485.336	619.44
485.554	629.44
485.772	629.44
485.99	641.44
486.209	643.44
486.427	626.44
486.645	610.44
486.863	626.44
487.081	624.44
487.299	644.44
487.517	641.44
487.735	610.44
487.953	644.44
488.171	642.44
488.389	637.44
488.607	642.44
488.825	639.44
489.043	642.44
489.261	651.44
489.479	648.44
489.696	660.44
489.914	648.44
490.132	652.44
490.35	699.44
490.568	664.44
490.786	693.44
491.003	699.44
491.221	699.44
491.439	696.44
491.657	710.44
491.874	749.44
492.092	727.44
492.31	708.44
492.527	738.44
492.745	720.44
492.963	724.44
493.18	731.44
493.398	752.44
493.615	757.44
493.833	747.44
494.05	749.44
494.268	741.44
494.485	768.44
494.703	742.44
494.92	725.44
495.138	732.44
495.355	770.44
495.573	752.44
495.79	747.44
496.008	758.44
496.225	770.44
496.442	740.44
496.66	761.44
496.877	803.44
497.094	813.44
497.312	803.44
497.529	786.44
497.746	803.44
497.963	793.44
498.181	822.44
498.398	834.44
498.615	871.44
498.832	890.44
499.049	930.44
499.267	984.44
499.484	1035.44
499.701	1088.44
499.918	1142.44
500.135	1244.44
500.352	1305.44
500.569	1337.44
500.786	1329.44
501.003	1312.44
501.22	1241.44
501.437	1148.44
501.654	1107.44
501.871	1052.44
502.088	1014.44
502.305	946.44
502.522	928.44
502.739	872.44
502.956	863.44
503.172	846.44
503.389	803.44
503.606	784.44
503.823	800.44
504.04	813.44
504.256	799.44
504.473	801.44
504.69	767.44
504.907	795.44
505.123	780.44
505.34	749.44
505.557	735.44
505.773	733.44
505.99	719.44
506.207	690.44
506.423	695.44
506.64	708.44
506.856	691.44
507.073	707.44
507.289	693.44
507.506	707.44
507.722	684.44
507.939	692.44
508.155	668.44
508.372	659.44
508.588	650.44
508.805	673.44
509.021	638.44
509.238	658.44
509.454	676.44
509.67	654.44
509.887	655.44
510.103	656.44
510.319	666.44
510.536	732.44
510.752	998.44
510.968	845.44
511.184	638.44
511.401	609.44
511.617	635.44
511.833	622.44
512.049	627.44
512.265	619.44
512.481	644.44
512.698	595.44
512.914	624.44
513.13	601.44
513.346	609.44
513.562	635.44
513.778	628.44
513.994	645.44
514.21	637.44
514.426	643.44
514.642	650.44
514.858	680.44
515.074	717.44
515.29	768.44
515.506	1030.44
515.721	881.44
515.937	709.44
516.153	678.44
516.369	665.44
516.585	654.44
516.801	685.44
517.016	699.44
517.232	685.44
517.448	674.44
517.664	694.44
517.879	730.44
518.095	717.44
518.311	706.44
518.527	675.44
518.742	690.44
518.958	655.44
519.173	654.44
519.389	663.44
519.605	629.44
519.82	614.44
520.036	634.44
520.251	647.44
520.467	673.44
520.682	668.44
520.898	646.44
521.113	636.44
521.329	690.44
521.544	716.44
521.76	840.44
521.975	1214.44
522.19	1206.44
522.406	734.44
522.621	621.44
522.836	608.44
523.052	596.44
523.267	589.44
523.482	557.44
523.698	544.44
523.913	570.44
524.128	549.44
524.343	555.44
524.559	541.44
524.774	541.44
524.989	541.44
525.204	548.44
525.419	556.44
525.634	548.44
525.849	540.44
526.064	538.44
526.28	532.44
526.495	515.44
526.71	500.44
526.925	511.44
527.14	530.44
527.355	530.44
527.57	531.44
527.785	528.44
527.999	507.44
528.214	534.44
528.429	520.44
528.644	523.44
528.859	520.44
529.074	501.44
529.289	514.44
529.503	566.44
529.718	549.44
529.933	542.44
530.148	531.44
530.363	544.44
530.577	522.44
530.792	516.44
531.007	525.44
531.221	498.44
531.436	519.44
531.651	524.44
531.865	515.44
532.08	502.44
532.295	494.44
532.509	497.44
532.724	496.44
532.938	509.44
533.153	506.44
533.367	503.44
533.582	488.44
533.796	486.44
534.011	492.44
534.225	512.44
534.44	492.44
534.654	494.44
534.868	489.44
535.083	476.44
535.297	491.44
535.511	483.44
535.726	510.44
535.94	496.44
536.154	486.44
536.369	515.44
536.583	470.44
536.797	473.44
537.011	496.44
537.225	492.44
537.44	468.44
537.654	494.44
537.868	486.44
538.082	453.44
538.296	486.44
538.51	481.44
538.724	481.44
538.938	477.44
539.153	489.44
539.367	502.44
539.581	489.44
539.795	484.44
540.009	470.44
540.222	466.44
540.436	469.44
540.65	473.44
540.864	488.44
541.078	489.44
541.292	489.44
541.506	474.44
541.72	482.44
541.934	491.44
542.147	497.44
542.361	481.44
542.575	472.44
542.789	488.44
543.002	480.44
543.216	493.44
543.43	481.44
543.644	468.44
543.857	496.44
544.071	488.44
544.285	474.44
544.498	481.44
544.712	465.44
544.925	489.44
545.139	491.44
545.352	484.44
545.566	485.44
545.779	483.44
545.993	482.44
546.206	466.44
546.42	486.44
546.633	491.44
546.847	485.44
547.06	470.44
547.274	459.44
547.487	488.44
547.7	486.44
547.914	475.44
548.127	468.44
548.34	460.44
548.554	489.44
548.767	509.44
548.98	485.44
549.193	469.44
549.407	492.44
549.62	467.44
549.833	482.44
550.046	482.44
550.259	486.44
550.473	468.44
550.686	456.44
550.899	495.44
551.112	466.44
551.325	474.44
551.538	476.44
551.751	465.44
551.964	451.44
552.177	485.44
552.39	480.44
552.603	483.44
552.816	485.44
553.029	489.44
553.242	504.44
553.455	498.44
553.667	507.44
553.88	514.44
554.093	486.44
554.306	488.44
554.519	482.44
554.732	486.44
554.944	450.44
555.157	457.44
555.37	456.44
555.583	465.44
555.795	458.44
556.008	442.44
556.221	438.44
556.433	446.44
556.646	442.44
556.859	446.44
557.071	445.44
557.284	434.44
557.496	430.44
557.709	420.44
557.921	430.44
558.134	422.44
558.346	420.44
558.559	411.44
558.771	412.44
558.984	412.44
559.196	427.44
559.409	415.44
559.621	422.44
559.833	408.44
560.046	408.44
560.258	421.44
560.47	422.44
560.683	420.44
560.895	404.44
561.107	427.44
561.32	418.44
561.532	406.44
561.744	398.44
561.956	408.44
562.168	414.44
562.381	398.44
562.593	428.44
562.805	421.44
563.017	421.44
563.229	404.44
563.441	403.44
563.653	437.44
563.865	425.44
564.077	429.44
564.289	426.44
564.501	437.44
564.713	440.44
564.925	442.44
565.137	443.44
565.349	484.44
565.561	456.44
565.773	468.44
565.985	491.44
566.197	516.44
566.408	532.44
566.62	545.44
566.832	574.44
567.044	599.44
567.255	582.44
567.467	589.44
567.679	603.44
567.891	626.44
568.102	648.44
568.314	628.44
568.526	571.44
568.737	580.44
568.949	524.44
569.161	489.44
569.372	484.44
569.584	446.44
569.795	457.44
570.007	463.44
570.218	460.44
570.43	458.44
570.641	420.44
570.853	413.44
571.064	433.44
571.276	419.44
571.487	422.44
571.698	410.44
571.91	393.44
572.121	398.44
572.333	384.44
572.544	377.44
572.755	363.44
572.966	395.44
573.178	380.44
573.389	366.44
573.6	379.44
573.811	352.44
574.023	348.44
574.234	359.44
574.445	360.44
574.656	372.44
574.867	366.44
575.078	386.44
575.289	376.44
575.501	370.44
575.712	359.44
575.923	370.44
576.134	352.44
576.345	352.44
576.556	354.44
576.767	349.44
576.978	354.44
577.188	353.44
577.399	353.44
577.61	341.44
577.821	349.44
578.032	341.44
578.243	365.44
578.454	482.44
578.665	392.44
578.875	340.44
579.086	328.44
579.297	346.44
579.508	349.44
579.718	354.44
579.929	323.44
580.14	315.44
580.35	333.44
580.561	328.44
580.772	332.44
580.982	321.44
581.193	318.44
581.403	321.44
581.614	329.44
581.825	337.44
582.035	313.44
582.246	320.44
582.456	318.44
582.667	331.44
582.877	321.44
583.087	304.44
583.298	314.44
583.508	345.44
583.719	334.44
583.929	333.44
584.139	298.44
584.35	319.44
584.56	315.44
584.77	314.44
584.981	315.44
585.191	328.44
585.401	306.44
585.611	330.44
585.821	313.44
586.032	313.44
586.242	307.44
586.452	325.44
586.662	330.44
586.872	295.44
587.082	329.44
587.292	312.44
587.502	304.44
587.713	306.44
587.923	309.44
588.133	311.44
588.343	309.44
588.553	304.44
588.762	326.44
588.972	312.44
589.182	301.44
589.392	313.44
589.602	307.44
589.812	306.44
590.022	304.44
590.232	320.44
590.441	326.44
590.651	326.44
590.861	310.44
591.071	320.44
591.281	327.44
591.49	312.44
591.7	323.44
591.91	315.44
592.119	334.44
592.329	325.44
592.539	328.44
592.748	329.44
592.958	357.44
593.167	337.44
593.377	356.44
593.587	365.44
593.796	376.44
594.006	380.44
594.215	375.44
594.424	363.44
594.634	356.44
594.843	357.44
595.053	349.44
595.262	329.44
595.472	326.44
595.681	328.44
595.89	322.44
596.1	312.44
596.309	316.44
596.518	310.44
596.727	325.44
596.937	294.44
597.146	304.44
597.355	298.44
597.564	303.44
597.774	296.44
597.983	296.44
598.192	292.44
598.401	297.44
598.61	274.44
598.819	295.44
599.028	302.44
599.237	294.44
599.446	277.44
599.655	296.44
599.864	289.44
600.073	266.44
600.282	283.44
600.491	283.44
600.7	290.44
600.909	277.44
601.118	262.44
601.327	284.44
601.536	274.44
601.745	275.44
601.953	267.44
602.162	271.44
602.371	249.44
602.58	277.44
602.789	273.44
602.997	264.44
603.206	266.44
603.415	282.44
603.623	260.44
603.832	264.44
604.041	253.44
604.249	271.44
604.458	246.44
604.666	261.44
604.875	251.44
605.084	256.44
605.292	268.44
605.501	262.44
605.709	253.44
605.918	252.44
606.126	259.44
606.334	276.44
606.543	263.44
606.751	260.44
606.96	252.44
607.168	256.44
607.376	262.44
607.585	266.44
607.793	267.44
608.001	261.44
608.21	261.44
608.418	263.44
608.626	273.44
608.834	267.44
609.043	260.44
609.251	259.44
609.459	247.44
609.667	271.44
609.875	262.44
610.083	257.44
610.291	268.44
610.499	260.44
610.707	241.44
610.916	254.44
611.124	250.44
611.332	267.44
611.54	266.44
611.748	267.44
611.955	267.44
612.163	247.44
612.371	244.44
612.579	251.44
612.787	257.44
612.995	257.44
613.203	252.44
613.411	256.44
613.618	244.44
613.826	259.44
614.034	256.44
614.242	259.44
614.449	264.44
614.657	226.44
614.865	237.44
615.072	260.44
615.28	228.44
615.488	251.44
615.695	251.44
615.903	231.44
616.111	245.44
616.318	266.44
616.526	254.44
616.733	267.44
616.941	233.44
617.148	243.44
617.356	263.44
617.563	256.44
617.771	266.44
617.978	253.44
618.185	258.44
618.393	261.44
618.6	234.44
618.807	254.44
619.015	250.44
619.222	255.44
619.429	249.44
619.637	245.44
619.844	244.44
620.051	250.44
620.258	241.44
620.466	228.44
620.673	232.44
620.88	248.44
621.087	233.44
621.294	236.44
621.501	240.44
621.708	251.44
621.915	237.44
622.122	244.44
622.329	227.44
622.536	241.44
622.743	240.44
622.95	236.44
623.157	228.44
623.364	213.44
623.571	234.44
623.778	245.44
623.985	248.44
624.192	230.44
624.399	228.44
624.606	227.44
624.812	224.44
625.019	238.44
625.226	219.44
625.433	220.44
625.639	224.44
625.846	214.44
626.053	234.44
626.259	222.44
626.466	199.44
626.673	216.44
626.879	223.44
627.086	214.44
627.293	222.44
627.499	234.44
627.706	235.44
627.912	227.44
628.119	220.44
628.325	213.44
628.532	217.44
628.738	204.44
628.945	215.44
629.151	221.44
629.357	203.44
629.564	204.44
629.77	201.44
629.976	208.44
630.183	202.44
630.389	217.44
630.595	203.44
630.802	196.44
631.008	207.44
631.214	214.44
631.42	203.44
631.627	209.44
631.833	197.44
632.039	203.44
632.245	215.44
632.451	198.44
632.657	198.44
632.863	194.44
633.069	204.44
633.275	204.44
633.481	194.44
633.688	181.44
633.893	204.44
634.099	196.44
634.305	204.44
634.511	199.44
634.717	195.44
634.923	188.44
635.129	189.44
635.335	198.44
635.541	201.44
635.747	197.44
635.952	180.44
636.158	196.44
636.364	201.44
636.57	187.44
636.775	198.44
636.981	192.44
637.187	180.44
637.392	179.44
637.598	176.44
637.804	190.44
638.009	198.44
638.215	191.44
638.421	187.44
638.626	182.44
638.832	172.44
639.037	182.44
639.243	186.44
639.448	185.44
639.654	182.44
639.859	186.44
640.065	189.44
640.27	182.44
640.475	189.44
640.681	164.44
640.886	181.44
641.091	197.44
641.297	195.44
641.502	173.44
641.707	184.44
641.913	176.44
642.118	185.44
642.323	187.44
642.528	189.44
642.733	168.44
642.939	168.44
643.144	167.44
643.349	164.44
643.554	173.44
643.759	178.44
643.964	161.44
644.169	178.44
644.374	186.44
644.579	180.44
644.784	172.44
644.989	164.44
645.194	170.44
645.399	164.44
645.604	180.44
645.809	180.44
646.014	176.44
646.219	179.44
646.423	183.44
646.628	178.44
646.833	186.44
647.038	181.44
647.243	173.44
647.447	178.44
647.652	171.44
647.857	171.44
648.062	168.44
648.266	166.44
648.471	193.44
648.676	187.44
648.88	193.44
649.085	156.44
649.289	168.44
649.494	171.44
649.698	193.44
649.903	182.44
650.107	187.44
650.312	174.44
650.516	180.44
650.721	160.44
650.925	168.44
651.13	159.44
651.334	168.44
651.539	144.44
651.743	150.44
651.947	142.44
652.152	160.44
652.356	154.44
652.56	136.44
652.764	147.44
652.969	140.44
653.173	148.44
653.377	139.44
653.581	126.44
653.785	146.44
653.99	139.44
654.194	142.44
654.398	148.44
654.602	152.44
654.806	141.44
655.01	141.44
655.214	153.44
655.418	143.44
655.622	121.44
655.826	120.44
656.03	117.44
656.234	136.44
656.438	138.44
656.642	131.44
656.846	141.44
657.049	125.44
657.253	134.44
657.457	122.44
657.661	120.44
657.865	118.44
658.068	117.44
658.272	104.44
658.476	114.44
658.68	104.44
658.883	108.44
659.087	100.44
659.291	106.44
659.494	101.44
659.698	97.44
659.901	102.44
660.105	97.44
660.309	84.44
660.512	109.44
660.716	82.44
660.919	104.44
661.123	94.44
661.326	102.44
661.53	86.44
661.733	88.44
661.936	93.44
662.14	88.44
662.343	82.44
662.546	84.44
662.75	88.44
662.953	76.44
663.156	94.44
663.36	86.44
663.563	83.44
663.766	76.44
663.969	86.44
664.173	74.44
664.376	75.44
664.579	86.44
664.782	76.44
664.985	77.44
665.188	80.44
665.391	84.44
665.594	69.44
665.797	84.44
666	83.44
666.203	88.44
666.406	82.44
666.609	90.44
666.812	75.44
667.015	91.44
667.218	86.44
667.421	80.44
667.624	84.44
667.827	73.44
668.03	84.44
668.232	77.44
668.435	107.44
668.638	94.44
668.841	89.44
669.043	82.44
669.246	80.44
669.449	73.44
669.651	93.44
669.854	82.44
670.057	72.44
670.259	74.44
670.462	84.44
670.665	99.44
670.867	83.44
671.07	73.44
671.272	68.44
671.475	76.44
671.677	82.44
671.88	84.44
672.082	84.44
672.284	83.44
672.487	86.44
672.689	71.44
672.892	84.44
