Data from 1974.PennyLincolnUp.Lamp.En5.5.200Scan.071719.P1.Changed Mount._HRD10591_15-51-27-857.txt Node
Date: Thu Jul 18 15:51:27 EDT 2019
User: cochatt
Spectrometer: HR+D1059
Trigger mode: 1
Integration Time (sec): 1.000000E-1
Scans to average: 1
Electric dark correction enabled: true
Nonlinearity correction enabled: false
Boxcar width: 0
XAxis mode: Wavelengths
Number of Pixels in Spectrum: 2048
>>>>>Begin Spectral Data<<<<<
223.165	-7.19
223.4	-7.19
223.635	-7.19
223.869	-11.19
224.104	-10.19
224.338	-15.19
224.573	-21.19
224.808	-17.19
225.042	-20.19
225.277	-10.19
225.511	5.81
225.746	12.81
225.98	6.81
226.215	-0.19
226.449	14.81
226.683	14.81
226.918	28.81
227.152	28.81
227.387	28.81
227.621	28.81
227.856	44.81
228.09	43.81
228.324	39.81
228.559	39.81
228.793	63.81
229.027	82.81
229.262	101.81
229.496	115.81
229.73	107.81
229.964	140.81
230.199	130.81
230.433	115.81
230.667	120.81
230.901	117.81
231.136	114.81
231.37	116.81
231.604	116.81
231.838	114.81
232.072	113.81
232.306	121.81
232.541	105.81
232.775	104.81
233.009	118.81
233.243	106.81
233.477	109.81
233.711	120.81
233.945	111.81
234.179	132.81
234.413	106.81
234.647	103.81
234.881	123.81
235.115	112.81
235.349	125.81
235.583	118.81
235.817	121.81
236.051	112.81
236.285	121.81
236.519	126.81
236.753	126.81
236.987	138.81
237.221	165.81
237.455	209.81
237.689	173.81
237.922	125.81
238.156	129.81
238.39	116.81
238.624	118.81
238.858	128.81
239.091	113.81
239.325	113.81
239.559	137.81
239.793	128.81
240.027	142.81
240.26	145.81
240.494	150.81
240.728	136.81
240.961	138.81
241.195	128.81
241.429	141.81
241.662	155.81
241.896	128.81
242.13	128.81
242.363	131.81
242.597	128.81
242.83	132.81
243.064	154.81
243.298	139.81
243.531	141.81
243.765	149.81
243.998	148.81
244.232	145.81
244.465	144.81
244.699	133.81
244.932	145.81
245.166	148.81
245.399	133.81
245.633	146.81
245.866	128.81
246.099	143.81
246.333	150.81
246.566	148.81
246.8	150.81
247.033	155.81
247.266	158.81
247.5	169.81
247.733	171.81
247.966	181.81
248.2	168.81
248.433	163.81
248.666	152.81
248.899	181.81
249.133	204.81
249.366	188.81
249.599	193.81
249.832	182.81
250.066	149.81
250.299	178.81
250.532	176.81
250.765	191.81
250.998	210.81
251.231	211.81
251.465	212.81
251.698	189.81
251.931	182.81
252.164	187.81
252.397	185.81
252.63	198.81
252.863	206.81
253.096	212.81
253.329	223.81
253.562	212.81
253.795	199.81
254.028	215.81
254.261	194.81
254.494	224.81
254.727	232.81
254.96	257.81
255.193	249.81
255.426	229.81
255.659	221.81
255.892	223.81
256.124	230.81
256.357	231.81
256.59	206.81
256.823	209.81
257.056	220.81
257.289	189.81
257.521	203.81
257.754	202.81
257.987	216.81
258.22	202.81
258.452	205.81
258.685	211.81
258.918	201.81
259.151	189.81
259.383	190.81
259.616	209.81
259.849	217.81
260.081	214.81
260.314	240.81
260.547	242.81
260.779	240.81
261.012	234.81
261.244	210.81
261.477	204.81
261.71	195.81
261.942	209.81
262.175	202.81
262.407	224.81
262.64	217.81
262.872	219.81
263.105	210.81
263.337	225.81
263.57	223.81
263.802	198.81
264.035	200.81
264.267	213.81
264.499	211.81
264.732	214.81
264.964	211.81
265.197	206.81
265.429	236.81
265.661	220.81
265.894	218.81
266.126	224.81
266.358	208.81
266.591	211.81
266.823	210.81
267.055	221.81
267.287	235.81
267.52	212.81
267.752	222.81
267.984	214.81
268.216	229.81
268.448	231.81
268.681	235.81
268.913	241.81
269.145	250.81
269.377	256.81
269.609	247.81
269.841	271.81
270.073	255.81
270.306	279.81
270.538	288.81
270.77	290.81
271.002	297.81
271.234	288.81
271.466	282.81
271.698	311.81
271.93	291.81
272.162	299.81
272.394	292.81
272.626	289.81
272.858	278.81
273.09	252.81
273.322	263.81
273.553	259.81
273.785	250.81
274.017	262.81
274.249	249.81
274.481	252.81
274.713	262.81
274.945	266.81
275.176	269.81
275.408	251.81
275.64	254.81
275.872	248.81
276.104	252.81
276.335	259.81
276.567	260.81
276.799	277.81
277.031	283.81
277.262	284.81
277.494	291.81
277.726	288.81
277.957	279.81
278.189	255.81
278.421	280.81
278.652	267.81
278.884	270.81
279.115	261.81
279.347	273.81
279.579	261.81
279.81	246.81
280.042	265.81
280.273	260.81
280.505	266.81
280.736	273.81
280.968	258.81
281.199	260.81
281.431	274.81
281.662	284.81
281.894	267.81
282.125	261.81
282.356	285.81
282.588	282.81
282.819	294.81
283.051	285.81
283.282	265.81
283.513	292.81
283.745	286.81
283.976	286.81
284.207	280.81
284.439	276.81
284.67	266.81
284.901	281.81
285.132	276.81
285.364	280.81
285.595	274.81
285.826	271.81
286.057	282.81
286.288	275.81
286.52	281.81
286.751	279.81
286.982	284.81
287.213	282.81
287.444	302.81
287.675	296.81
287.906	297.81
288.138	297.81
288.369	295.81
288.6	316.81
288.831	310.81
289.062	299.81
289.293	294.81
289.524	305.81
289.755	289.81
289.986	285.81
290.217	288.81
290.448	281.81
290.679	304.81
290.91	281.81
291.141	292.81
291.371	296.81
291.602	299.81
291.833	282.81
292.064	290.81
292.295	292.81
292.526	300.81
292.757	298.81
292.987	309.81
293.218	288.81
293.449	307.81
293.68	277.81
293.91	291.81
294.141	282.81
294.372	312.81
294.603	320.81
294.833	301.81
295.064	312.81
295.295	293.81
295.525	277.81
295.756	280.81
295.987	301.81
296.217	327.81
296.448	315.81
296.679	305.81
296.909	297.81
297.14	308.81
297.37	325.81
297.601	293.81
297.831	300.81
298.062	314.81
298.292	298.81
298.523	300.81
298.753	308.81
298.984	301.81
299.214	309.81
299.445	334.81
299.675	315.81
299.905	306.81
300.136	323.81
300.366	314.81
300.597	298.81
300.827	320.81
301.057	313.81
301.288	346.81
301.518	327.81
301.748	337.81
301.979	325.81
302.209	341.81
302.439	330.81
302.669	331.81
302.9	329.81
303.13	343.81
303.36	325.81
303.59	331.81
303.82	329.81
304.051	343.81
304.281	325.81
304.511	313.81
304.741	340.81
304.971	326.81
305.201	321.81
305.431	323.81
305.661	311.81
305.891	316.81
306.121	341.81
306.352	320.81
306.582	334.81
306.812	327.81
307.042	317.81
307.272	315.81
307.502	320.81
307.731	316.81
307.961	354.81
308.191	331.81
308.421	313.81
308.651	324.81
308.881	316.81
309.111	337.81
309.341	335.81
309.571	353.81
309.8	359.81
310.03	334.81
310.26	347.81
310.49	340.81
310.72	346.81
310.949	377.81
311.179	368.81
311.409	372.81
311.639	354.81
311.868	356.81
312.098	348.81
312.328	360.81
312.557	379.81
312.787	377.81
313.017	369.81
313.246	356.81
313.476	382.81
313.706	360.81
313.935	356.81
314.165	380.81
314.394	365.81
314.624	382.81
314.853	360.81
315.083	384.81
315.312	361.81
315.542	361.81
315.771	341.81
316.001	359.81
316.23	349.81
316.46	370.81
316.689	377.81
316.919	360.81
317.148	385.81
317.377	360.81
317.607	372.81
317.836	354.81
318.065	374.81
318.295	360.81
318.524	360.81
318.753	360.81
318.983	361.81
319.212	361.81
319.441	381.81
319.67	373.81
319.9	357.81
320.129	342.81
320.358	382.81
320.587	378.81
320.816	359.81
321.046	360.81
321.275	377.81
321.504	390.81
321.733	388.81
321.962	370.81
322.191	372.81
322.42	381.81
322.649	391.81
322.878	412.81
323.108	400.81
323.337	429.81
323.566	407.81
323.795	431.81
324.024	461.81
324.253	537.81
324.482	699.81
324.71	1064.81
324.939	1552.81
325.168	1325.81
325.397	714.81
325.626	513.81
325.855	471.81
326.084	429.81
326.313	432.81
326.542	456.81
326.77	456.81
326.999	515.81
327.228	685.81
327.457	973.81
327.686	1219.81
327.914	806.81
328.143	548.81
328.372	508.81
328.6	484.81
328.829	476.81
329.058	506.81
329.287	480.81
329.515	473.81
329.744	432.81
329.972	449.81
330.201	452.81
330.43	465.81
330.658	499.81
330.887	525.81
331.115	503.81
331.344	445.81
331.572	450.81
331.801	461.81
332.03	454.81
332.258	460.81
332.486	448.81
332.715	425.81
332.943	461.81
333.172	451.81
333.4	456.81
333.629	446.81
333.857	478.81
334.085	471.81
334.314	489.81
334.542	497.81
334.771	510.81
334.999	503.81
335.227	470.81
335.455	480.81
335.684	453.81
335.912	425.81
336.14	437.81
336.369	438.81
336.597	434.81
336.825	458.81
337.053	438.81
337.281	441.81
337.51	420.81
337.738	447.81
337.966	421.81
338.194	438.81
338.422	443.81
338.65	448.81
338.878	446.81
339.106	426.81
339.334	436.81
339.562	426.81
339.79	418.81
340.018	433.81
340.246	430.81
340.474	422.81
340.702	403.81
340.93	403.81
341.158	410.81
341.386	418.81
341.614	441.81
341.842	416.81
342.07	420.81
342.298	430.81
342.526	421.81
342.754	412.81
342.981	433.81
343.209	400.81
343.437	428.81
343.665	453.81
343.893	467.81
344.12	470.81
344.348	438.81
344.576	440.81
344.804	428.81
345.031	448.81
345.259	442.81
345.487	429.81
345.714	418.81
345.942	421.81
346.17	416.81
346.397	406.81
346.625	399.81
346.853	402.81
347.08	402.81
347.308	393.81
347.535	423.81
347.763	438.81
347.99	436.81
348.218	419.81
348.445	400.81
348.673	408.81
348.9	416.81
349.128	389.81
349.355	398.81
349.583	410.81
349.81	412.81
350.037	379.81
350.265	389.81
350.492	393.81
350.72	401.81
350.947	399.81
351.174	395.81
351.402	415.81
351.629	412.81
351.856	398.81
352.083	434.81
352.311	413.81
352.538	428.81
352.765	410.81
352.992	424.81
353.22	410.81
353.447	404.81
353.674	408.81
353.901	402.81
354.128	408.81
354.355	398.81
354.583	400.81
354.81	394.81
355.037	411.81
355.264	406.81
355.491	414.81
355.718	395.81
355.945	398.81
356.172	375.81
356.399	384.81
356.626	406.81
356.853	386.81
357.08	372.81
357.307	393.81
357.534	373.81
357.761	371.81
357.988	378.81
358.215	399.81
358.441	390.81
358.668	388.81
358.895	388.81
359.122	405.81
359.349	412.81
359.576	397.81
359.802	421.81
360.029	423.81
360.256	429.81
360.483	427.81
360.709	419.81
360.936	423.81
361.163	401.81
361.39	383.81
361.616	402.81
361.843	397.81
362.07	422.81
362.296	438.81
362.523	392.81
362.749	411.81
362.976	396.81
363.203	402.81
363.429	387.81
363.656	405.81
363.882	422.81
364.109	397.81
364.335	402.81
364.562	382.81
364.788	411.81
365.015	405.81
365.241	387.81
365.468	403.81
365.694	433.81
365.92	393.81
366.147	386.81
366.373	405.81
366.599	391.81
366.826	403.81
367.052	382.81
367.278	404.81
367.505	404.81
367.731	409.81
367.957	396.81
368.184	408.81
368.41	414.81
368.636	407.81
368.862	423.81
369.089	420.81
369.315	412.81
369.541	421.81
369.767	410.81
369.993	396.81
370.219	424.81
370.445	426.81
370.672	412.81
370.898	402.81
371.124	420.81
371.35	425.81
371.576	422.81
371.802	402.81
372.028	416.81
372.254	427.81
372.48	409.81
372.706	396.81
372.932	410.81
373.158	402.81
373.384	436.81
373.61	425.81
373.835	406.81
374.061	407.81
374.287	420.81
374.513	422.81
374.739	428.81
374.965	424.81
375.191	449.81
375.416	425.81
375.642	416.81
375.868	426.81
376.094	415.81
376.319	407.81
376.545	428.81
376.771	425.81
376.997	436.81
377.222	413.81
377.448	418.81
377.674	436.81
377.899	415.81
378.125	412.81
378.35	418.81
378.576	429.81
378.802	415.81
379.027	419.81
379.253	421.81
379.478	417.81
379.704	413.81
379.929	430.81
380.155	413.81
380.38	417.81
380.606	424.81
380.831	412.81
381.057	426.81
381.282	436.81
381.507	401.81
381.733	428.81
381.958	410.81
382.184	430.81
382.409	428.81
382.634	433.81
382.86	445.81
383.085	434.81
383.31	431.81
383.535	424.81
383.761	431.81
383.986	437.81
384.211	438.81
384.436	485.81
384.662	458.81
384.887	443.81
385.112	476.81
385.337	470.81
385.562	474.81
385.787	474.81
386.013	459.81
386.238	502.81
386.463	477.81
386.688	466.81
386.913	449.81
387.138	475.81
387.363	479.81
387.588	454.81
387.813	492.81
388.038	460.81
388.263	484.81
388.488	484.81
388.713	454.81
388.938	469.81
389.163	452.81
389.387	464.81
389.612	452.81
389.837	461.81
390.062	485.81
390.287	473.81
390.512	437.81
390.736	469.81
390.961	473.81
391.186	465.81
391.411	462.81
391.636	478.81
391.86	463.81
392.085	505.81
392.31	492.81
392.534	463.81
392.759	474.81
392.984	473.81
393.208	476.81
393.433	467.81
393.658	475.81
393.882	503.81
394.107	487.81
394.331	489.81
394.556	474.81
394.78	472.81
395.005	486.81
395.229	470.81
395.454	496.81
395.678	499.81
395.903	497.81
396.127	528.81
396.352	541.81
396.576	485.81
396.801	491.81
397.025	496.81
397.249	491.81
397.474	526.81
397.698	507.81
397.922	497.81
398.147	509.81
398.371	508.81
398.595	540.81
398.82	522.81
399.044	536.81
399.268	577.81
399.492	628.81
399.717	674.81
399.941	675.81
400.165	685.81
400.389	680.81
400.613	606.81
400.837	572.81
401.062	553.81
401.286	538.81
401.51	548.81
401.734	532.81
401.958	531.81
402.182	548.81
402.406	565.81
402.63	588.81
402.854	566.81
403.078	560.81
403.302	574.81
403.526	565.81
403.75	581.81
403.974	575.81
404.198	548.81
404.422	585.81
404.645	598.81
404.869	592.81
405.093	624.81
405.317	640.81
405.541	670.81
405.765	634.81
405.988	605.81
406.212	583.81
406.436	609.81
406.66	614.81
406.883	600.81
407.107	617.81
407.331	696.81
407.555	765.81
407.778	728.81
408.002	664.81
408.226	650.81
408.449	648.81
408.673	617.81
408.896	637.81
409.12	688.81
409.344	653.81
409.567	576.81
409.791	578.81
410.014	571.81
410.238	582.81
410.461	585.81
410.685	571.81
410.908	581.81
411.132	636.81
411.355	636.81
411.578	637.81
411.802	592.81
412.025	573.81
412.249	585.81
412.472	618.81
412.695	634.81
412.919	611.81
413.142	579.81
413.365	573.81
413.589	572.81
413.812	526.81
414.035	533.81
414.258	542.81
414.482	559.81
414.705	546.81
414.928	558.81
415.151	543.81
415.374	548.81
415.597	553.81
415.821	512.81
416.044	532.81
416.267	543.81
416.49	548.81
416.713	540.81
416.936	523.81
417.159	539.81
417.382	549.81
417.605	542.81
417.828	548.81
418.051	553.81
418.274	546.81
418.497	551.81
418.72	563.81
418.943	532.81
419.166	569.81
419.389	605.81
419.611	596.81
419.834	565.81
420.057	564.81
420.28	550.81
420.503	550.81
420.726	544.81
420.948	582.81
421.171	615.81
421.394	648.81
421.617	574.81
421.839	572.81
422.062	563.81
422.285	581.81
422.507	616.81
422.73	709.81
422.953	672.81
423.175	605.81
423.398	588.81
423.621	596.81
423.843	607.81
424.066	595.81
424.288	601.81
424.511	594.81
424.733	649.81
424.956	736.81
425.178	704.81
425.401	701.81
425.623	716.81
425.846	650.81
426.068	596.81
426.291	554.81
426.513	579.81
426.735	598.81
426.958	633.81
427.18	672.81
427.402	798.81
427.625	892.81
427.847	785.81
428.069	656.81
428.292	587.81
428.514	580.81
428.736	552.81
428.958	572.81
429.181	533.81
429.403	546.81
429.625	539.81
429.847	582.81
430.069	638.81
430.292	652.81
430.514	548.81
430.736	548.81
430.958	537.81
431.18	528.81
431.402	530.81
431.624	512.81
431.846	501.81
432.068	531.81
432.29	536.81
432.512	522.81
432.734	525.81
432.956	490.81
433.178	535.81
433.4	536.81
433.622	565.81
433.844	545.81
434.066	501.81
434.287	511.81
434.509	548.81
434.731	544.81
434.953	554.81
435.175	563.81
435.397	601.81
435.618	589.81
435.84	618.81
436.062	689.81
436.284	806.81
436.505	655.81
436.727	599.81
436.949	570.81
437.17	564.81
437.392	521.81
437.614	557.81
437.835	545.81
438.057	669.81
438.278	762.81
438.5	726.81
438.721	840.81
438.943	783.81
439.165	636.81
439.386	588.81
439.608	591.81
439.829	588.81
440.05	612.81
440.272	641.81
440.493	604.81
440.715	572.81
440.936	538.81
441.158	531.81
441.379	532.81
441.6	563.81
441.822	590.81
442.043	644.81
442.264	706.81
442.486	748.81
442.707	654.81
442.928	605.81
443.149	610.81
443.371	616.81
443.592	653.81
443.813	727.81
444.034	818.81
444.255	665.81
444.476	624.81
444.698	615.81
444.919	604.81
445.14	748.81
445.361	663.81
445.582	612.81
445.803	669.81
446.024	755.81
446.245	777.81
446.466	721.81
446.687	614.81
446.908	586.81
447.129	552.81
447.35	543.81
447.571	539.81
447.792	553.81
448.013	548.81
448.234	563.81
448.455	598.81
448.675	711.81
448.896	812.81
449.117	701.81
449.338	668.81
449.559	768.81
449.779	880.81
450	707.81
450.221	581.81
450.442	535.81
450.662	517.81
450.883	529.81
451.104	516.81
451.324	523.81
451.545	515.81
451.766	501.81
451.986	460.81
452.207	501.81
452.428	481.81
452.648	497.81
452.869	451.81
453.089	493.81
453.31	500.81
453.53	489.81
453.751	484.81
453.971	477.81
454.192	479.81
454.412	464.81
454.633	466.81
454.853	469.81
455.073	496.81
455.294	502.81
455.514	555.81
455.734	541.81
455.955	471.81
456.175	455.81
456.395	447.81
456.616	452.81
456.836	444.81
457.056	451.81
457.276	456.81
457.497	466.81
457.717	451.81
457.937	476.81
458.157	471.81
458.377	476.81
458.598	501.81
458.818	523.81
459.038	583.81
459.258	603.81
459.478	560.81
459.698	539.81
459.918	528.81
460.138	528.81
460.358	541.81
460.578	521.81
460.798	549.81
461.018	532.81
461.238	529.81
461.458	525.81
461.678	548.81
461.898	570.81
462.118	553.81
462.338	543.81
462.558	547.81
462.777	590.81
462.997	598.81
463.217	603.81
463.437	615.81
463.657	611.81
463.876	590.81
464.096	599.81
464.316	598.81
464.536	612.81
464.755	601.81
464.975	576.81
465.195	590.81
465.414	629.81
465.634	568.81
465.854	547.81
466.073	533.81
466.293	530.81
466.512	519.81
466.732	518.81
466.951	508.81
467.171	498.81
467.391	508.81
467.61	506.81
467.829	510.81
468.049	498.81
468.268	497.81
468.488	479.81
468.707	480.81
468.927	500.81
469.146	495.81
469.365	503.81
469.585	500.81
469.804	484.81
470.023	512.81
470.243	505.81
470.462	509.81
470.681	515.81
470.901	534.81
471.12	513.81
471.339	512.81
471.558	510.81
471.777	522.81
471.997	517.81
472.216	530.81
472.435	534.81
472.654	527.81
472.873	502.81
473.092	499.81
473.311	502.81
473.53	481.81
473.749	510.81
473.968	528.81
474.187	634.81
474.406	647.81
474.625	535.81
474.844	504.81
475.063	519.81
475.282	512.81
475.501	512.81
475.72	511.81
475.939	501.81
476.158	537.81
476.377	526.81
476.596	520.81
476.814	546.81
477.033	513.81
477.252	528.81
477.471	549.81
477.69	567.81
477.908	555.81
478.127	551.81
478.346	568.81
478.564	568.81
478.783	582.81
479.002	578.81
479.22	582.81
479.439	596.81
479.658	610.81
479.876	610.81
480.095	613.81
480.313	618.81
480.532	646.81
480.751	623.81
480.969	628.81
481.188	642.81
481.406	658.81
481.624	643.81
481.843	587.81
482.061	589.81
482.28	587.81
482.498	605.81
482.717	588.81
482.935	597.81
483.153	605.81
483.372	581.81
483.59	636.81
483.808	601.81
484.027	587.81
484.245	603.81
484.463	610.81
484.681	626.81
484.9	609.81
485.118	620.81
485.336	570.81
485.554	614.81
485.772	600.81
485.99	604.81
486.209	586.81
486.427	626.81
486.645	628.81
486.863	630.81
487.081	640.81
487.299	631.81
487.517	618.81
487.735	640.81
487.953	631.81
488.171	632.81
488.389	641.81
488.607	641.81
488.825	645.81
489.043	625.81
489.261	627.81
489.479	627.81
489.696	654.81
489.914	662.81
490.132	638.81
490.35	672.81
490.568	670.81
490.786	659.81
491.003	694.81
491.221	690.81
491.439	699.81
491.657	717.81
491.874	707.81
492.092	733.81
492.31	718.81
492.527	750.81
492.745	704.81
492.963	766.81
493.18	729.81
493.398	756.81
493.615	783.81
493.833	761.81
494.05	753.81
494.268	783.81
494.485	769.81
494.703	739.81
494.92	741.81
495.138	742.81
495.355	747.81
495.573	740.81
495.79	737.81
496.008	729.81
496.225	741.81
496.442	749.81
496.66	740.81
496.877	762.81
497.094	791.81
497.312	773.81
497.529	779.81
497.746	793.81
497.963	800.81
498.181	838.81
498.398	842.81
498.615	857.81
498.832	882.81
499.049	894.81
499.267	899.81
499.484	956.81
499.701	1014.81
499.918	1068.81
500.135	1141.81
500.352	1162.81
500.569	1219.81
500.786	1197.81
501.003	1210.81
501.22	1147.81
501.437	1113.81
501.654	1058.81
501.871	1021.81
502.088	942.81
502.305	930.81
502.522	896.81
502.739	856.81
502.956	820.81
503.172	824.81
503.389	780.81
503.606	792.81
503.823	788.81
504.04	773.81
504.256	758.81
504.473	763.81
504.69	759.81
504.907	738.81
505.123	752.81
505.34	736.81
505.557	750.81
505.773	705.81
505.99	728.81
506.207	709.81
506.423	692.81
506.64	683.81
506.856	688.81
507.073	688.81
507.289	696.81
507.506	685.81
507.722	684.81
507.939	675.81
508.155	662.81
508.372	663.81
508.588	665.81
508.805	667.81
509.021	641.81
509.238	642.81
509.454	687.81
509.67	670.81
509.887	655.81
510.103	653.81
510.319	668.81
510.536	710.81
510.752	952.81
510.968	834.81
511.184	626.81
511.401	620.81
511.617	620.81
511.833	618.81
512.049	642.81
512.265	637.81
512.481	622.81
512.698	608.81
512.914	602.81
513.13	633.81
513.346	603.81
513.562	620.81
513.778	615.81
513.994	612.81
514.21	629.81
514.426	629.81
514.642	663.81
514.858	655.81
515.074	696.81
515.29	730.81
515.506	956.81
515.721	840.81
515.937	678.81
516.153	674.81
516.369	641.81
516.585	641.81
516.801	673.81
517.016	645.81
517.232	656.81
517.448	666.81
517.664	670.81
517.879	694.81
518.095	676.81
518.311	677.81
518.527	654.81
518.742	623.81
518.958	643.81
519.173	638.81
519.389	620.81
519.605	648.81
519.82	591.81
520.036	660.81
520.251	664.81
520.467	644.81
520.682	630.81
520.898	637.81
521.113	630.81
521.329	663.81
521.544	717.81
521.76	790.81
521.975	1114.81
522.19	1089.81
522.406	739.81
522.621	620.81
522.836	605.81
523.052	600.81
523.267	568.81
523.482	580.81
523.698	548.81
523.913	553.81
524.128	549.81
524.343	554.81
524.559	565.81
524.774	551.81
524.989	532.81
525.204	539.81
525.419	544.81
525.634	543.81
525.849	527.81
526.064	549.81
526.28	527.81
526.495	513.81
526.71	520.81
526.925	528.81
527.14	519.81
527.355	508.81
527.57	523.81
527.785	518.81
527.999	503.81
528.214	506.81
528.429	513.81
528.644	519.81
528.859	514.81
529.074	524.81
529.289	530.81
529.503	554.81
529.718	558.81
529.933	527.81
530.148	514.81
530.363	530.81
530.577	522.81
530.792	524.81
531.007	497.81
531.221	502.81
531.436	506.81
531.651	491.81
531.865	487.81
532.08	512.81
532.295	516.81
532.509	501.81
532.724	486.81
532.938	518.81
533.153	505.81
533.367	496.81
533.582	514.81
533.796	509.81
534.011	505.81
534.225	516.81
534.44	508.81
534.654	514.81
534.868	498.81
535.083	499.81
535.297	505.81
535.511	512.81
535.726	503.81
535.94	496.81
536.154	488.81
536.369	497.81
536.583	475.81
536.797	503.81
537.011	482.81
537.225	476.81
537.44	488.81
537.654	480.81
537.868	480.81
538.082	470.81
538.296	494.81
538.51	504.81
538.724	481.81
538.938	481.81
539.153	471.81
539.367	487.81
539.581	475.81
539.795	490.81
540.009	453.81
540.222	477.81
540.436	485.81
540.65	487.81
540.864	470.81
541.078	498.81
541.292	496.81
541.506	499.81
541.72	471.81
541.934	472.81
542.147	517.81
542.361	498.81
542.575	476.81
542.789	476.81
543.002	460.81
543.216	484.81
543.43	467.81
543.644	483.81
543.857	464.81
544.071	474.81
544.285	502.81
544.498	502.81
544.712	490.81
544.925	478.81
545.139	514.81
545.352	498.81
545.566	456.81
545.779	500.81
545.993	469.81
546.206	512.81
546.42	485.81
546.633	491.81
546.847	473.81
547.06	492.81
547.274	475.81
547.487	477.81
547.7	473.81
547.914	491.81
548.127	470.81
548.34	466.81
548.554	476.81
548.767	470.81
548.98	469.81
549.193	480.81
549.407	487.81
549.62	486.81
549.833	508.81
550.046	468.81
550.259	489.81
550.473	487.81
550.686	456.81
550.899	460.81
551.112	457.81
551.325	492.81
551.538	470.81
551.751	459.81
551.964	467.81
552.177	466.81
552.39	483.81
552.603	485.81
552.816	499.81
553.029	475.81
553.242	473.81
553.455	489.81
553.667	496.81
553.88	497.81
554.093	483.81
554.306	481.81
554.519	459.81
554.732	492.81
554.944	463.81
555.157	460.81
555.37	470.81
555.583	453.81
555.795	474.81
556.008	427.81
556.221	435.81
556.433	428.81
556.646	432.81
556.859	427.81
557.071	433.81
557.284	438.81
557.496	426.81
557.709	441.81
557.921	428.81
558.134	426.81
558.346	420.81
558.559	437.81
558.771	425.81
558.984	418.81
559.196	428.81
559.409	418.81
559.621	417.81
559.833	412.81
560.046	411.81
560.258	418.81
560.47	420.81
560.683	395.81
560.895	415.81
561.107	404.81
561.32	437.81
561.532	442.81
561.744	418.81
561.956	413.81
562.168	428.81
562.381	428.81
562.593	423.81
562.805	429.81
563.017	430.81
563.229	436.81
563.441	410.81
563.653	437.81
563.865	423.81
564.077	439.81
564.289	432.81
564.501	425.81
564.713	449.81
564.925	438.81
565.137	472.81
565.349	471.81
565.561	468.81
565.773	483.81
565.985	488.81
566.197	480.81
566.408	492.81
566.62	530.81
566.832	529.81
567.044	551.81
567.255	555.81
567.467	588.81
567.679	595.81
567.891	580.81
568.102	583.81
568.314	554.81
568.526	570.81
568.737	515.81
568.949	518.81
569.161	485.81
569.372	466.81
569.584	468.81
569.795	449.81
570.007	416.81
570.218	457.81
570.43	457.81
570.641	428.81
570.853	423.81
571.064	416.81
571.276	414.81
571.487	421.81
571.698	396.81
571.91	411.81
572.121	408.81
572.333	405.81
572.544	387.81
572.755	379.81
572.966	376.81
573.178	368.81
573.389	403.81
573.6	369.81
573.811	345.81
574.023	370.81
574.234	359.81
574.445	363.81
574.656	358.81
574.867	368.81
575.078	360.81
575.289	378.81
575.501	368.81
575.712	364.81
575.923	356.81
576.134	369.81
576.345	344.81
576.556	340.81
576.767	359.81
576.978	341.81
577.188	333.81
577.399	353.81
577.61	353.81
577.821	341.81
578.032	330.81
578.243	365.81
578.454	444.81
578.665	405.81
578.875	351.81
579.086	334.81
579.297	329.81
579.508	324.81
579.718	321.81
579.929	342.81
580.14	341.81
580.35	319.81
580.561	350.81
580.772	337.81
580.982	324.81
581.193	323.81
581.403	311.81
581.614	314.81
581.825	337.81
582.035	348.81
582.246	343.81
582.456	335.81
582.667	324.81
582.877	312.81
583.087	310.81
583.298	331.81
583.508	318.81
583.719	315.81
583.929	327.81
584.139	313.81
584.35	329.81
584.56	322.81
584.77	311.81
584.981	321.81
585.191	310.81
585.401	314.81
585.611	310.81
585.821	327.81
586.032	316.81
586.242	329.81
586.452	323.81
586.662	314.81
586.872	305.81
587.082	317.81
587.292	321.81
587.502	316.81
587.713	324.81
587.923	326.81
588.133	325.81
588.343	308.81
588.553	297.81
588.762	314.81
588.972	331.81
589.182	321.81
589.392	328.81
589.602	317.81
589.812	312.81
590.022	312.81
590.232	307.81
590.441	296.81
590.651	314.81
590.861	324.81
591.071	318.81
591.281	337.81
591.49	320.81
591.7	324.81
591.91	333.81
592.119	326.81
592.329	326.81
592.539	336.81
592.748	348.81
592.958	341.81
593.167	337.81
593.377	341.81
593.587	343.81
593.796	343.81
594.006	352.81
594.215	357.81
594.424	368.81
594.634	348.81
594.843	340.81
595.053	339.81
595.262	342.81
595.472	332.81
595.681	326.81
595.89	326.81
596.1	308.81
596.309	312.81
596.518	323.81
596.727	320.81
596.937	311.81
597.146	298.81
597.355	309.81
597.564	309.81
597.774	291.81
597.983	289.81
598.192	292.81
598.401	289.81
598.61	268.81
598.819	292.81
599.028	289.81
599.237	288.81
599.446	262.81
599.655	277.81
599.864	272.81
600.073	279.81
600.282	285.81
600.491	267.81
600.7	291.81
600.909	278.81
601.118	282.81
601.327	279.81
601.536	288.81
601.745	269.81
601.953	262.81
602.162	281.81
602.371	282.81
602.58	282.81
602.789	282.81
602.997	268.81
603.206	290.81
603.415	277.81
603.623	284.81
603.832	265.81
604.041	286.81
604.249	265.81
604.458	257.81
604.666	253.81
604.875	252.81
605.084	256.81
605.292	260.81
605.501	242.81
605.709	264.81
605.918	291.81
606.126	291.81
606.334	268.81
606.543	262.81
606.751	279.81
606.96	274.81
607.168	293.81
607.376	254.81
607.585	251.81
607.793	276.81
608.001	274.81
608.21	267.81
608.418	268.81
608.626	269.81
608.834	280.81
609.043	256.81
609.251	258.81
609.459	249.81
609.667	273.81
609.875	259.81
610.083	254.81
610.291	264.81
610.499	277.81
610.707	283.81
610.916	258.81
611.124	256.81
611.332	269.81
611.54	272.81
611.748	266.81
611.955	265.81
612.163	244.81
612.371	261.81
612.579	270.81
612.787	260.81
612.995	248.81
613.203	260.81
613.411	272.81
613.618	269.81
613.826	250.81
614.034	280.81
614.242	264.81
614.449	258.81
614.657	268.81
614.865	247.81
615.072	270.81
615.28	247.81
615.488	257.81
615.695	254.81
615.903	243.81
616.111	256.81
616.318	262.81
616.526	259.81
616.733	275.81
616.941	256.81
617.148	262.81
617.356	259.81
617.563	251.81
617.771	245.81
617.978	270.81
618.185	252.81
618.393	264.81
618.6	241.81
618.807	244.81
619.015	252.81
619.222	263.81
619.429	235.81
619.637	244.81
619.844	230.81
620.051	225.81
620.258	228.81
620.466	232.81
620.673	245.81
620.88	236.81
621.087	242.81
621.294	229.81
621.501	245.81
621.708	234.81
621.915	252.81
622.122	247.81
622.329	244.81
622.536	227.81
622.743	252.81
622.95	226.81
623.157	233.81
623.364	234.81
623.571	258.81
623.778	237.81
623.985	226.81
624.192	227.81
624.399	220.81
624.606	247.81
624.812	244.81
625.019	229.81
625.226	240.81
625.433	235.81
625.639	215.81
625.846	226.81
626.053	224.81
626.259	229.81
626.466	240.81
626.673	231.81
626.879	208.81
627.086	237.81
627.293	225.81
627.499	217.81
627.706	216.81
627.912	216.81
628.119	226.81
628.325	213.81
628.532	216.81
628.738	218.81
628.945	219.81
629.151	206.81
629.357	216.81
629.564	219.81
629.77	221.81
629.976	213.81
630.183	229.81
630.389	210.81
630.595	210.81
630.802	197.81
631.008	204.81
631.214	205.81
631.42	214.81
631.627	203.81
631.833	197.81
632.039	218.81
632.245	212.81
632.451	231.81
632.657	199.81
632.863	199.81
633.069	211.81
633.275	225.81
633.481	219.81
633.688	202.81
633.893	211.81
634.099	203.81
634.305	192.81
634.511	185.81
634.717	212.81
634.923	185.81
635.129	188.81
635.335	199.81
635.541	198.81
635.747	190.81
635.952	192.81
636.158	179.81
636.364	196.81
636.57	199.81
636.775	183.81
636.981	197.81
637.187	206.81
637.392	188.81
637.598	213.81
637.804	173.81
638.009	187.81
638.215	188.81
638.421	186.81
638.626	200.81
638.832	189.81
639.037	181.81
639.243	188.81
639.448	188.81
639.654	198.81
639.859	186.81
640.065	178.81
640.27	189.81
640.475	191.81
640.681	182.81
640.886	183.81
641.091	170.81
641.297	178.81
641.502	176.81
641.707	186.81
641.913	188.81
642.118	194.81
642.323	172.81
642.528	180.81
642.733	187.81
642.939	198.81
643.144	183.81
643.349	169.81
643.554	180.81
643.759	176.81
643.964	172.81
644.169	178.81
644.374	179.81
644.579	179.81
644.784	168.81
644.989	181.81
645.194	174.81
645.399	192.81
645.604	192.81
645.809	173.81
646.014	185.81
646.219	182.81
646.423	153.81
646.628	179.81
646.833	177.81
647.038	191.81
647.243	201.81
647.447	183.81
647.652	179.81
647.857	177.81
648.062	188.81
648.266	176.81
648.471	180.81
648.676	186.81
648.88	186.81
649.085	197.81
649.289	176.81
649.494	178.81
649.698	207.81
649.903	179.81
650.107	189.81
650.312	184.81
650.516	168.81
650.721	154.81
650.925	184.81
651.13	165.81
651.334	162.81
651.539	177.81
651.743	152.81
651.947	162.81
652.152	146.81
652.356	154.81
652.56	160.81
652.764	157.81
652.969	160.81
653.173	152.81
653.377	140.81
653.581	147.81
653.785	149.81
653.99	143.81
654.194	145.81
654.398	124.81
654.602	136.81
654.806	146.81
655.01	161.81
655.214	140.81
655.418	131.81
655.622	151.81
655.826	131.81
656.03	139.81
656.234	150.81
656.438	150.81
656.642	146.81
656.846	150.81
657.049	143.81
657.253	139.81
657.457	144.81
657.661	126.81
657.865	118.81
658.068	125.81
658.272	122.81
658.476	128.81
658.68	103.81
658.883	122.81
659.087	107.81
659.291	99.81
659.494	109.81
659.698	102.81
659.901	105.81
660.105	113.81
660.309	94.81
660.512	104.81
660.716	106.81
660.919	92.81
661.123	86.81
661.326	81.81
661.53	104.81
661.733	90.81
661.936	90.81
662.14	86.81
662.343	83.81
662.546	99.81
662.75	87.81
662.953	92.81
663.156	89.81
663.36	81.81
663.563	85.81
663.766	74.81
663.969	89.81
664.173	99.81
664.376	90.81
664.579	91.81
664.782	76.81
664.985	86.81
665.188	90.81
665.391	93.81
665.594	89.81
665.797	84.81
666	81.81
666.203	89.81
666.406	69.81
666.609	84.81
666.812	83.81
667.015	84.81
667.218	86.81
667.421	89.81
667.624	87.81
667.827	69.81
668.03	64.81
668.232	83.81
668.435	89.81
668.638	75.81
668.841	89.81
669.043	76.81
669.246	86.81
669.449	86.81
669.651	89.81
669.854	91.81
670.057	98.81
670.259	83.81
670.462	71.81
670.665	87.81
670.867	76.81
671.07	81.81
671.272	83.81
671.475	93.81
671.677	83.81
671.88	76.81
672.082	93.81
672.284	77.81
672.487	86.81
672.689	68.81
672.892	76.81
