Data from 1974.PennyLincolnUp.Lamp.En5.5.200Scan.071719.P1.Changed Mount._HRD10591_15-51-36-856.txt Node
Date: Thu Jul 18 15:51:36 EDT 2019
User: cochatt
Spectrometer: HR+D1059
Trigger mode: 1
Integration Time (sec): 1.000000E-1
Scans to average: 1
Electric dark correction enabled: true
Nonlinearity correction enabled: false
Boxcar width: 0
XAxis mode: Wavelengths
Number of Pixels in Spectrum: 2048
>>>>>Begin Spectral Data<<<<<
223.165	-26.5
223.4	-26.5
223.635	-26.5
223.869	-7.5
224.104	-14.5
224.338	-19.5
224.573	-31.5
224.808	-22.5
225.042	2.5
225.277	-12.5
225.511	-0.5
225.746	9.5
225.98	7.5
226.215	15.5
226.449	5.5
226.683	24.5
226.918	25.5
227.152	44.5
227.387	40.5
227.621	51.5
227.856	63.5
228.09	46.5
228.324	37.5
228.559	45.5
228.793	66.5
229.027	99.5
229.262	113.5
229.496	109.5
229.73	123.5
229.964	121.5
230.199	128.5
230.433	103.5
230.667	124.5
230.901	104.5
231.136	114.5
231.37	117.5
231.604	99.5
231.838	117.5
232.072	127.5
232.306	103.5
232.541	121.5
232.775	105.5
233.009	109.5
233.243	120.5
233.477	119.5
233.711	112.5
233.945	123.5
234.179	114.5
234.413	118.5
234.647	107.5
234.881	110.5
235.115	103.5
235.349	127.5
235.583	128.5
235.817	112.5
236.051	119.5
236.285	119.5
236.519	123.5
236.753	149.5
236.987	123.5
237.221	170.5
237.455	190.5
237.689	159.5
237.922	131.5
238.156	126.5
238.39	124.5
238.624	127.5
238.858	124.5
239.091	117.5
239.325	136.5
239.559	119.5
239.793	117.5
240.027	131.5
240.26	144.5
240.494	137.5
240.728	146.5
240.961	129.5
241.195	151.5
241.429	129.5
241.662	133.5
241.896	137.5
242.13	129.5
242.363	124.5
242.597	134.5
242.83	139.5
243.064	134.5
243.298	141.5
243.531	130.5
243.765	149.5
243.998	158.5
244.232	143.5
244.465	123.5
244.699	140.5
244.932	154.5
245.166	145.5
245.399	145.5
245.633	149.5
245.866	151.5
246.099	165.5
246.333	146.5
246.566	160.5
246.8	162.5
247.033	153.5
247.266	150.5
247.5	159.5
247.733	168.5
247.966	170.5
248.2	175.5
248.433	187.5
248.666	170.5
248.899	182.5
249.133	191.5
249.366	200.5
249.599	176.5
249.832	190.5
250.066	175.5
250.299	185.5
250.532	188.5
250.765	203.5
250.998	213.5
251.231	217.5
251.465	217.5
251.698	201.5
251.931	209.5
252.164	192.5
252.397	203.5
252.63	181.5
252.863	212.5
253.096	213.5
253.329	227.5
253.562	226.5
253.795	225.5
254.028	185.5
254.261	208.5
254.494	227.5
254.727	275.5
254.96	291.5
255.193	251.5
255.426	242.5
255.659	212.5
255.892	234.5
256.124	228.5
256.357	210.5
256.59	210.5
256.823	205.5
257.056	202.5
257.289	212.5
257.521	205.5
257.754	196.5
257.987	187.5
258.22	219.5
258.452	209.5
258.685	204.5
258.918	215.5
259.151	222.5
259.383	216.5
259.616	201.5
259.849	239.5
260.081	219.5
260.314	257.5
260.547	255.5
260.779	241.5
261.012	236.5
261.244	226.5
261.477	220.5
261.71	212.5
261.942	212.5
262.175	236.5
262.407	221.5
262.64	217.5
262.872	210.5
263.105	218.5
263.337	215.5
263.57	203.5
263.802	201.5
264.035	213.5
264.267	213.5
264.499	201.5
264.732	223.5
264.964	220.5
265.197	229.5
265.429	226.5
265.661	212.5
265.894	221.5
266.126	225.5
266.358	245.5
266.591	221.5
266.823	232.5
267.055	234.5
267.287	224.5
267.52	219.5
267.752	211.5
267.984	227.5
268.216	225.5
268.448	228.5
268.681	244.5
268.913	245.5
269.145	276.5
269.377	287.5
269.609	255.5
269.841	259.5
270.073	270.5
270.306	273.5
270.538	308.5
270.77	307.5
271.002	275.5
271.234	274.5
271.466	272.5
271.698	289.5
271.93	288.5
272.162	296.5
272.394	289.5
272.626	295.5
272.858	307.5
273.09	288.5
273.322	269.5
273.553	265.5
273.785	256.5
274.017	256.5
274.249	256.5
274.481	252.5
274.713	272.5
274.945	267.5
275.176	277.5
275.408	266.5
275.64	259.5
275.872	256.5
276.104	268.5
276.335	267.5
276.567	269.5
276.799	280.5
277.031	291.5
277.262	305.5
277.494	291.5
277.726	284.5
277.957	287.5
278.189	273.5
278.421	264.5
278.652	270.5
278.884	263.5
279.115	250.5
279.347	264.5
279.579	264.5
279.81	276.5
280.042	288.5
280.273	284.5
280.505	275.5
280.736	258.5
280.968	274.5
281.199	287.5
281.431	279.5
281.662	254.5
281.894	283.5
282.125	275.5
282.356	280.5
282.588	285.5
282.819	303.5
283.051	277.5
283.282	273.5
283.513	269.5
283.745	283.5
283.976	289.5
284.207	280.5
284.439	290.5
284.67	285.5
284.901	279.5
285.132	284.5
285.364	283.5
285.595	301.5
285.826	287.5
286.057	294.5
286.288	291.5
286.52	293.5
286.751	296.5
286.982	276.5
287.213	274.5
287.444	286.5
287.675	292.5
287.906	296.5
288.138	306.5
288.369	307.5
288.6	307.5
288.831	314.5
289.062	303.5
289.293	305.5
289.524	281.5
289.755	307.5
289.986	306.5
290.217	306.5
290.448	284.5
290.679	300.5
290.91	297.5
291.141	300.5
291.371	291.5
291.602	306.5
291.833	301.5
292.064	295.5
292.295	306.5
292.526	284.5
292.757	296.5
292.987	283.5
293.218	304.5
293.449	292.5
293.68	293.5
293.91	294.5
294.141	311.5
294.372	313.5
294.603	306.5
294.833	291.5
295.064	295.5
295.295	314.5
295.525	303.5
295.756	304.5
295.987	305.5
296.217	327.5
296.448	318.5
296.679	333.5
296.909	307.5
297.14	316.5
297.37	315.5
297.601	306.5
297.831	309.5
298.062	307.5
298.292	309.5
298.523	327.5
298.753	321.5
298.984	312.5
299.214	301.5
299.445	323.5
299.675	310.5
299.905	313.5
300.136	314.5
300.366	306.5
300.597	316.5
300.827	325.5
301.057	336.5
301.288	309.5
301.518	310.5
301.748	333.5
301.979	345.5
302.209	342.5
302.439	342.5
302.669	336.5
302.9	338.5
303.13	329.5
303.36	350.5
303.59	337.5
303.82	350.5
304.051	344.5
304.281	337.5
304.511	323.5
304.741	346.5
304.971	344.5
305.201	334.5
305.431	347.5
305.661	316.5
305.891	326.5
306.121	340.5
306.352	354.5
306.582	334.5
306.812	370.5
307.042	321.5
307.272	346.5
307.502	349.5
307.731	352.5
307.961	346.5
308.191	332.5
308.421	336.5
308.651	338.5
308.881	356.5
309.111	356.5
309.341	353.5
309.571	367.5
309.8	355.5
310.03	349.5
310.26	375.5
310.49	383.5
310.72	361.5
310.949	372.5
311.179	367.5
311.409	375.5
311.639	378.5
311.868	377.5
312.098	371.5
312.328	375.5
312.557	387.5
312.787	397.5
313.017	404.5
313.246	369.5
313.476	362.5
313.706	368.5
313.935	357.5
314.165	383.5
314.394	405.5
314.624	383.5
314.853	387.5
315.083	383.5
315.312	381.5
315.542	368.5
315.771	368.5
316.001	365.5
316.23	383.5
316.46	353.5
316.689	391.5
316.919	377.5
317.148	377.5
317.377	371.5
317.607	365.5
317.836	385.5
318.065	387.5
318.295	379.5
318.524	379.5
318.753	374.5
318.983	368.5
319.212	388.5
319.441	392.5
319.67	385.5
319.9	383.5
320.129	367.5
320.358	389.5
320.587	399.5
320.816	395.5
321.046	401.5
321.275	386.5
321.504	379.5
321.733	413.5
321.962	391.5
322.191	389.5
322.42	403.5
322.649	408.5
322.878	417.5
323.108	434.5
323.337	441.5
323.566	468.5
323.795	493.5
324.024	492.5
324.253	556.5
324.482	745.5
324.71	1123.5
324.939	1653.5
325.168	1433.5
325.397	734.5
325.626	544.5
325.855	469.5
326.084	439.5
326.313	467.5
326.542	443.5
326.77	497.5
326.999	550.5
327.228	705.5
327.457	1036.5
327.686	1265.5
327.914	885.5
328.143	600.5
328.372	526.5
328.6	533.5
328.829	495.5
329.058	491.5
329.287	510.5
329.515	511.5
329.744	463.5
329.972	460.5
330.201	475.5
330.43	503.5
330.658	514.5
330.887	549.5
331.115	549.5
331.344	510.5
331.572	478.5
331.801	465.5
332.03	448.5
332.258	451.5
332.486	454.5
332.715	473.5
332.943	471.5
333.172	467.5
333.4	468.5
333.629	481.5
333.857	501.5
334.085	509.5
334.314	511.5
334.542	527.5
334.771	547.5
334.999	503.5
335.227	467.5
335.455	451.5
335.684	471.5
335.912	455.5
336.14	476.5
336.369	449.5
336.597	451.5
336.825	471.5
337.053	444.5
337.281	463.5
337.51	434.5
337.738	461.5
337.966	454.5
338.194	436.5
338.422	432.5
338.65	452.5
338.878	431.5
339.106	446.5
339.334	450.5
339.562	440.5
339.79	425.5
340.018	449.5
340.246	411.5
340.474	428.5
340.702	452.5
340.93	421.5
341.158	435.5
341.386	450.5
341.614	455.5
341.842	441.5
342.07	419.5
342.298	427.5
342.526	443.5
342.754	415.5
342.981	429.5
343.209	443.5
343.437	437.5
343.665	454.5
343.893	472.5
344.12	434.5
344.348	470.5
344.576	463.5
344.804	480.5
345.031	441.5
345.259	458.5
345.487	463.5
345.714	426.5
345.942	452.5
346.17	434.5
346.397	418.5
346.625	423.5
346.853	418.5
347.08	422.5
347.308	428.5
347.535	433.5
347.763	434.5
347.99	422.5
348.218	441.5
348.445	445.5
348.673	430.5
348.9	431.5
349.128	412.5
349.355	405.5
349.583	412.5
349.81	396.5
350.037	407.5
350.265	418.5
350.492	456.5
350.72	424.5
350.947	425.5
351.174	428.5
351.402	431.5
351.629	433.5
351.856	400.5
352.083	423.5
352.311	428.5
352.538	428.5
352.765	432.5
352.992	428.5
353.22	427.5
353.447	403.5
353.674	422.5
353.901	423.5
354.128	410.5
354.355	412.5
354.583	411.5
354.81	406.5
355.037	417.5
355.264	420.5
355.491	408.5
355.718	394.5
355.945	396.5
356.172	425.5
356.399	392.5
356.626	393.5
356.853	409.5
357.08	404.5
357.307	420.5
357.534	433.5
357.761	394.5
357.988	403.5
358.215	407.5
358.441	419.5
358.668	400.5
358.895	433.5
359.122	426.5
359.349	411.5
359.576	425.5
359.802	439.5
360.029	448.5
360.256	453.5
360.483	466.5
360.709	438.5
360.936	432.5
361.163	434.5
361.39	438.5
361.616	431.5
361.843	429.5
362.07	439.5
362.296	422.5
362.523	433.5
362.749	421.5
362.976	425.5
363.203	417.5
363.429	391.5
363.656	411.5
363.882	426.5
364.109	426.5
364.335	424.5
364.562	411.5
364.788	411.5
365.015	433.5
365.241	401.5
365.468	413.5
365.694	409.5
365.92	438.5
366.147	405.5
366.373	406.5
366.599	423.5
366.826	389.5
367.052	402.5
367.278	416.5
367.505	405.5
367.731	423.5
367.957	424.5
368.184	437.5
368.41	423.5
368.636	429.5
368.862	424.5
369.089	424.5
369.315	422.5
369.541	407.5
369.767	441.5
369.993	431.5
370.219	423.5
370.445	408.5
370.672	411.5
370.898	428.5
371.124	424.5
371.35	427.5
371.576	444.5
371.802	426.5
372.028	445.5
372.254	413.5
372.48	431.5
372.706	428.5
372.932	433.5
373.158	423.5
373.384	431.5
373.61	446.5
373.835	446.5
374.061	427.5
374.287	457.5
374.513	448.5
374.739	453.5
374.965	456.5
375.191	480.5
375.416	445.5
375.642	464.5
375.868	445.5
376.094	451.5
376.319	427.5
376.545	422.5
376.771	432.5
376.997	405.5
377.222	433.5
377.448	438.5
377.674	416.5
377.899	422.5
378.125	410.5
378.35	446.5
378.576	427.5
378.802	433.5
379.027	432.5
379.253	441.5
379.478	431.5
379.704	432.5
379.929	439.5
380.155	446.5
380.38	405.5
380.606	441.5
380.831	437.5
381.057	448.5
381.282	448.5
381.507	427.5
381.733	465.5
381.958	435.5
382.184	450.5
382.409	431.5
382.634	458.5
382.86	452.5
383.085	424.5
383.31	445.5
383.535	461.5
383.761	452.5
383.986	465.5
384.211	468.5
384.436	467.5
384.662	483.5
384.887	465.5
385.112	471.5
385.337	467.5
385.562	501.5
385.787	473.5
386.013	478.5
386.238	471.5
386.463	482.5
386.688	488.5
386.913	481.5
387.138	498.5
387.363	498.5
387.588	483.5
387.813	488.5
388.038	459.5
388.263	478.5
388.488	484.5
388.713	484.5
388.938	500.5
389.163	496.5
389.387	491.5
389.612	487.5
389.837	480.5
390.062	492.5
390.287	480.5
390.512	483.5
390.736	469.5
390.961	456.5
391.186	488.5
391.411	492.5
391.636	509.5
391.86	524.5
392.085	493.5
392.31	510.5
392.534	487.5
392.759	509.5
392.984	499.5
393.208	485.5
393.433	490.5
393.658	497.5
393.882	501.5
394.107	481.5
394.331	499.5
394.556	498.5
394.78	492.5
395.005	469.5
395.229	487.5
395.454	513.5
395.678	502.5
395.903	539.5
396.127	529.5
396.352	536.5
396.576	527.5
396.801	521.5
397.025	509.5
397.249	522.5
397.474	526.5
397.698	537.5
397.922	555.5
398.147	549.5
398.371	555.5
398.595	513.5
398.82	537.5
399.044	568.5
399.268	610.5
399.492	629.5
399.717	689.5
399.941	708.5
400.165	708.5
400.389	718.5
400.613	635.5
400.837	563.5
401.062	589.5
401.286	569.5
401.51	567.5
401.734	568.5
401.958	573.5
402.182	576.5
402.406	597.5
402.63	584.5
402.854	602.5
403.078	552.5
403.302	576.5
403.526	612.5
403.75	609.5
403.974	611.5
404.198	593.5
404.422	603.5
404.645	612.5
404.869	608.5
405.093	636.5
405.317	668.5
405.541	698.5
405.765	655.5
405.988	627.5
406.212	619.5
406.436	629.5
406.66	643.5
406.883	621.5
407.107	632.5
407.331	703.5
407.555	765.5
407.778	781.5
408.002	708.5
408.226	651.5
408.449	631.5
408.673	645.5
408.896	663.5
409.12	696.5
409.344	659.5
409.567	611.5
409.791	589.5
410.014	601.5
410.238	589.5
410.461	585.5
410.685	591.5
410.908	603.5
411.132	626.5
411.355	671.5
411.578	657.5
411.802	616.5
412.025	573.5
412.249	594.5
412.472	636.5
412.695	663.5
412.919	643.5
413.142	596.5
413.365	580.5
413.589	566.5
413.812	591.5
414.035	565.5
414.258	568.5
414.482	568.5
414.705	550.5
414.928	562.5
415.151	577.5
415.374	556.5
415.597	569.5
415.821	567.5
416.044	546.5
416.267	548.5
416.49	563.5
416.713	579.5
416.936	546.5
417.159	584.5
417.382	545.5
417.605	561.5
417.828	570.5
418.051	584.5
418.274	558.5
418.497	571.5
418.72	553.5
418.943	559.5
419.166	590.5
419.389	619.5
419.611	603.5
419.834	598.5
420.057	592.5
420.28	587.5
420.503	609.5
420.726	565.5
420.948	594.5
421.171	630.5
421.394	653.5
421.617	608.5
421.839	563.5
422.062	586.5
422.285	619.5
422.507	652.5
422.73	710.5
422.953	689.5
423.175	606.5
423.398	609.5
423.621	594.5
423.843	618.5
424.066	637.5
424.288	595.5
424.511	629.5
424.733	665.5
424.956	756.5
425.178	727.5
425.401	733.5
425.623	751.5
425.846	645.5
426.068	605.5
426.291	614.5
426.513	595.5
426.735	626.5
426.958	642.5
427.18	705.5
427.402	842.5
427.625	949.5
427.847	791.5
428.069	706.5
428.292	647.5
428.514	598.5
428.736	591.5
428.958	550.5
429.181	547.5
429.403	564.5
429.625	579.5
429.847	603.5
430.069	651.5
430.292	637.5
430.514	583.5
430.736	567.5
430.958	565.5
431.18	540.5
431.402	546.5
431.624	544.5
431.846	521.5
432.068	536.5
432.29	544.5
432.512	528.5
432.734	518.5
432.956	545.5
433.178	550.5
433.4	569.5
433.622	540.5
433.844	558.5
434.066	533.5
434.287	545.5
434.509	547.5
434.731	561.5
434.953	576.5
435.175	575.5
435.397	614.5
435.618	623.5
435.84	650.5
436.062	716.5
436.284	804.5
436.505	672.5
436.727	617.5
436.949	570.5
437.17	553.5
437.392	575.5
437.614	559.5
437.835	609.5
438.057	660.5
438.278	771.5
438.5	751.5
438.721	887.5
438.943	833.5
439.165	655.5
439.386	596.5
439.608	607.5
439.829	598.5
440.05	633.5
440.272	671.5
440.493	616.5
440.715	595.5
440.936	580.5
441.158	586.5
441.379	569.5
441.6	600.5
441.822	596.5
442.043	645.5
442.264	727.5
442.486	797.5
442.707	629.5
442.928	629.5
443.149	645.5
443.371	647.5
443.592	695.5
443.813	792.5
444.034	852.5
444.255	713.5
444.476	646.5
444.698	633.5
444.919	641.5
445.14	748.5
445.361	692.5
445.582	653.5
445.803	726.5
446.024	815.5
446.245	796.5
446.466	762.5
446.687	642.5
446.908	617.5
447.129	607.5
447.35	536.5
447.571	552.5
447.792	543.5
448.013	532.5
448.234	565.5
448.455	629.5
448.675	717.5
448.896	831.5
449.117	707.5
449.338	640.5
449.559	773.5
449.779	898.5
450	712.5
450.221	597.5
450.442	543.5
450.662	542.5
450.883	557.5
451.104	555.5
451.324	535.5
451.545	521.5
451.766	498.5
451.986	492.5
452.207	492.5
452.428	484.5
452.648	495.5
452.869	515.5
453.089	483.5
453.31	532.5
453.53	507.5
453.751	498.5
453.971	484.5
454.192	507.5
454.412	491.5
454.633	486.5
454.853	491.5
455.073	498.5
455.294	511.5
455.514	581.5
455.734	568.5
455.955	492.5
456.175	475.5
456.395	461.5
456.616	458.5
456.836	481.5
457.056	458.5
457.276	459.5
457.497	468.5
457.717	453.5
457.937	476.5
458.157	471.5
458.377	475.5
458.598	500.5
458.818	531.5
459.038	616.5
459.258	630.5
459.478	552.5
459.698	541.5
459.918	547.5
460.138	540.5
460.358	546.5
460.578	556.5
460.798	544.5
461.018	578.5
461.238	565.5
461.458	577.5
461.678	561.5
461.898	565.5
462.118	552.5
462.338	575.5
462.558	619.5
462.777	611.5
462.997	619.5
463.217	646.5
463.437	649.5
463.657	624.5
463.876	602.5
464.096	628.5
464.316	601.5
464.536	610.5
464.755	617.5
464.975	603.5
465.195	632.5
465.414	650.5
465.634	594.5
465.854	552.5
466.073	567.5
466.293	538.5
466.512	495.5
466.732	515.5
466.951	515.5
467.171	497.5
467.391	541.5
467.61	523.5
467.829	546.5
468.049	541.5
468.268	484.5
468.488	492.5
468.707	520.5
468.927	507.5
469.146	511.5
469.365	512.5
469.585	511.5
469.804	509.5
470.023	509.5
470.243	508.5
470.462	560.5
470.681	539.5
470.901	519.5
471.12	528.5
471.339	509.5
471.558	516.5
471.777	527.5
471.997	499.5
472.216	503.5
472.435	534.5
472.654	514.5
472.873	537.5
473.092	499.5
473.311	500.5
473.53	513.5
473.749	529.5
473.968	561.5
474.187	635.5
474.406	680.5
474.625	583.5
474.844	546.5
475.063	528.5
475.282	528.5
475.501	539.5
475.72	526.5
475.939	508.5
476.158	520.5
476.377	534.5
476.596	541.5
476.814	555.5
477.033	573.5
477.252	547.5
477.471	559.5
477.69	543.5
477.908	577.5
478.127	574.5
478.346	588.5
478.564	569.5
478.783	614.5
479.002	614.5
479.22	593.5
479.439	603.5
479.658	625.5
479.876	602.5
480.095	646.5
480.313	665.5
480.532	668.5
480.751	640.5
480.969	649.5
481.188	677.5
481.406	696.5
481.624	637.5
481.843	633.5
482.061	629.5
482.28	611.5
482.498	594.5
482.717	594.5
482.935	608.5
483.153	601.5
483.372	610.5
483.59	613.5
483.808	603.5
484.027	620.5
484.245	625.5
484.463	619.5
484.681	621.5
484.9	636.5
485.118	604.5
485.336	618.5
485.554	677.5
485.772	611.5
485.99	612.5
486.209	617.5
486.427	616.5
486.645	644.5
486.863	650.5
487.081	659.5
487.299	642.5
487.517	628.5
487.735	667.5
487.953	670.5
488.171	648.5
488.389	646.5
488.607	667.5
488.825	648.5
489.043	661.5
489.261	652.5
489.479	667.5
489.696	668.5
489.914	658.5
490.132	674.5
490.35	695.5
490.568	723.5
490.786	724.5
491.003	715.5
491.221	707.5
491.439	753.5
491.657	739.5
491.874	757.5
492.092	739.5
492.31	778.5
492.527	735.5
492.745	764.5
492.963	771.5
493.18	787.5
493.398	775.5
493.615	765.5
493.833	784.5
494.05	777.5
494.268	802.5
494.485	777.5
494.703	803.5
494.92	788.5
495.138	780.5
495.355	785.5
495.573	785.5
495.79	768.5
496.008	788.5
496.225	788.5
496.442	780.5
496.66	765.5
496.877	775.5
497.094	799.5
497.312	799.5
497.529	796.5
497.746	829.5
497.963	826.5
498.181	843.5
498.398	853.5
498.615	887.5
498.832	897.5
499.049	972.5
499.267	987.5
499.484	991.5
499.701	1034.5
499.918	1084.5
500.135	1167.5
500.352	1197.5
500.569	1289.5
500.786	1268.5
501.003	1242.5
501.22	1205.5
501.437	1145.5
501.654	1069.5
501.871	1041.5
502.088	996.5
502.305	940.5
502.522	913.5
502.739	908.5
502.956	880.5
503.172	836.5
503.389	847.5
503.606	800.5
503.823	803.5
504.04	807.5
504.256	781.5
504.473	811.5
504.69	809.5
504.907	804.5
505.123	783.5
505.34	757.5
505.557	743.5
505.773	733.5
505.99	723.5
506.207	735.5
506.423	735.5
506.64	729.5
506.856	731.5
507.073	702.5
507.289	691.5
507.506	705.5
507.722	693.5
507.939	699.5
508.155	712.5
508.372	695.5
508.588	715.5
508.805	675.5
509.021	681.5
509.238	694.5
509.454	689.5
509.67	673.5
509.887	656.5
510.103	658.5
510.319	669.5
510.536	724.5
510.752	1002.5
510.968	851.5
511.184	676.5
511.401	641.5
511.617	633.5
511.833	637.5
512.049	620.5
512.265	632.5
512.481	648.5
512.698	625.5
512.914	602.5
513.13	639.5
513.346	645.5
513.562	658.5
513.778	649.5
513.994	650.5
514.21	647.5
514.426	664.5
514.642	673.5
514.858	679.5
515.074	698.5
515.29	800.5
515.506	986.5
515.721	904.5
515.937	726.5
516.153	699.5
516.369	691.5
516.585	667.5
516.801	664.5
517.016	668.5
517.232	693.5
517.448	693.5
517.664	709.5
517.879	701.5
518.095	698.5
518.311	680.5
518.527	682.5
518.742	667.5
518.958	661.5
519.173	661.5
519.389	659.5
519.605	652.5
519.82	660.5
520.036	648.5
520.251	638.5
520.467	668.5
520.682	681.5
520.898	657.5
521.113	656.5
521.329	662.5
521.544	756.5
521.76	837.5
521.975	1178.5
522.19	1192.5
522.406	776.5
522.621	659.5
522.836	641.5
523.052	635.5
523.267	603.5
523.482	597.5
523.698	545.5
523.913	589.5
524.128	591.5
524.343	600.5
524.559	564.5
524.774	557.5
524.989	553.5
525.204	567.5
525.419	577.5
525.634	570.5
525.849	545.5
526.064	570.5
526.28	527.5
526.495	531.5
526.71	548.5
526.925	532.5
527.14	517.5
527.355	532.5
527.57	529.5
527.785	542.5
527.999	529.5
528.214	545.5
528.429	538.5
528.644	543.5
528.859	530.5
529.074	538.5
529.289	539.5
529.503	580.5
529.718	574.5
529.933	548.5
530.148	538.5
530.363	533.5
530.577	544.5
530.792	533.5
531.007	532.5
531.221	541.5
531.436	530.5
531.651	533.5
531.865	523.5
532.08	532.5
532.295	513.5
532.509	496.5
532.724	523.5
532.938	515.5
533.153	530.5
533.367	514.5
533.582	515.5
533.796	525.5
534.011	516.5
534.225	500.5
534.44	500.5
534.654	532.5
534.868	524.5
535.083	498.5
535.297	510.5
535.511	522.5
535.726	521.5
535.94	505.5
536.154	520.5
536.369	513.5
536.583	482.5
536.797	501.5
537.011	499.5
537.225	513.5
537.44	496.5
537.654	489.5
537.868	505.5
538.082	490.5
538.296	499.5
538.51	499.5
538.724	489.5
538.938	497.5
539.153	510.5
539.367	491.5
539.581	499.5
539.795	488.5
540.009	485.5
540.222	497.5
540.436	531.5
540.65	498.5
540.864	513.5
541.078	519.5
541.292	501.5
541.506	490.5
541.72	490.5
541.934	489.5
542.147	488.5
542.361	509.5
542.575	483.5
542.789	500.5
543.002	479.5
543.216	490.5
543.43	517.5
543.644	503.5
543.857	507.5
544.071	504.5
544.285	511.5
544.498	511.5
544.712	488.5
544.925	490.5
545.139	505.5
545.352	490.5
545.566	491.5
545.779	487.5
545.993	484.5
546.206	477.5
546.42	486.5
546.633	489.5
546.847	502.5
547.06	482.5
547.274	479.5
547.487	472.5
547.7	484.5
547.914	503.5
548.127	496.5
548.34	500.5
548.554	493.5
548.767	509.5
548.98	485.5
549.193	489.5
549.407	518.5
549.62	496.5
549.833	488.5
550.046	484.5
550.259	467.5
550.473	467.5
550.686	493.5
550.899	497.5
551.112	475.5
551.325	503.5
551.538	476.5
551.751	481.5
551.964	477.5
552.177	482.5
552.39	482.5
552.603	472.5
552.816	488.5
553.029	522.5
553.242	505.5
553.455	515.5
553.667	483.5
553.88	515.5
554.093	524.5
554.306	484.5
554.519	476.5
554.732	502.5
554.944	481.5
555.157	465.5
555.37	469.5
555.583	455.5
555.795	461.5
556.008	444.5
556.221	458.5
556.433	433.5
556.646	458.5
556.859	447.5
557.071	466.5
557.284	451.5
557.496	446.5
557.709	436.5
557.921	445.5
558.134	434.5
558.346	428.5
558.559	430.5
558.771	447.5
558.984	423.5
559.196	435.5
559.409	426.5
559.621	423.5
559.833	420.5
560.046	428.5
560.258	444.5
560.47	428.5
560.683	435.5
560.895	433.5
561.107	443.5
561.32	398.5
561.532	439.5
561.744	441.5
561.956	440.5
562.168	441.5
562.381	442.5
562.593	426.5
562.805	433.5
563.017	437.5
563.229	431.5
563.441	438.5
563.653	453.5
563.865	436.5
564.077	428.5
564.289	449.5
564.501	459.5
564.713	457.5
564.925	441.5
565.137	454.5
565.349	481.5
565.561	479.5
565.773	486.5
565.985	488.5
566.197	521.5
566.408	524.5
566.62	533.5
566.832	552.5
567.044	583.5
567.255	561.5
567.467	583.5
567.679	619.5
567.891	599.5
568.102	603.5
568.314	608.5
568.526	566.5
568.737	539.5
568.949	513.5
569.161	470.5
569.372	459.5
569.584	461.5
569.795	452.5
570.007	439.5
570.218	463.5
570.43	456.5
570.641	441.5
570.853	443.5
571.064	419.5
571.276	407.5
571.487	408.5
571.698	424.5
571.91	405.5
572.121	407.5
572.333	400.5
572.544	396.5
572.755	394.5
572.966	389.5
573.178	394.5
573.389	380.5
573.6	398.5
573.811	367.5
574.023	368.5
574.234	392.5
574.445	380.5
574.656	362.5
574.867	383.5
575.078	386.5
575.289	381.5
575.501	367.5
575.712	395.5
575.923	342.5
576.134	380.5
576.345	348.5
576.556	371.5
576.767	371.5
576.978	363.5
577.188	373.5
577.399	371.5
577.61	333.5
577.821	367.5
578.032	343.5
578.243	362.5
578.454	475.5
578.665	415.5
578.875	348.5
579.086	345.5
579.297	353.5
579.508	315.5
579.718	364.5
579.929	338.5
580.14	337.5
580.35	334.5
580.561	329.5
580.772	340.5
580.982	341.5
581.193	343.5
581.403	348.5
581.614	327.5
581.825	321.5
582.035	356.5
582.246	338.5
582.456	333.5
582.667	323.5
582.877	326.5
583.087	313.5
583.298	326.5
583.508	333.5
583.719	313.5
583.929	346.5
584.139	315.5
584.35	328.5
584.56	323.5
584.77	316.5
584.981	329.5
585.191	343.5
585.401	331.5
585.611	333.5
585.821	315.5
586.032	322.5
586.242	345.5
586.452	317.5
586.662	322.5
586.872	320.5
587.082	309.5
587.292	322.5
587.502	327.5
587.713	321.5
587.923	296.5
588.133	332.5
588.343	323.5
588.553	312.5
588.762	314.5
588.972	331.5
589.182	329.5
589.392	322.5
589.602	316.5
589.812	336.5
590.022	334.5
590.232	325.5
590.441	317.5
590.651	320.5
590.861	324.5
591.071	320.5
591.281	315.5
591.49	331.5
591.7	338.5
591.91	328.5
592.119	324.5
592.329	359.5
592.539	344.5
592.748	320.5
592.958	341.5
593.167	348.5
593.377	358.5
593.587	377.5
593.796	364.5
594.006	356.5
594.215	369.5
594.424	344.5
594.634	358.5
594.843	356.5
595.053	347.5
595.262	323.5
595.472	337.5
595.681	331.5
595.89	327.5
596.1	326.5
596.309	296.5
596.518	319.5
596.727	311.5
596.937	311.5
597.146	285.5
597.355	310.5
597.564	303.5
597.774	298.5
597.983	258.5
598.192	284.5
598.401	321.5
598.61	301.5
598.819	288.5
599.028	304.5
599.237	297.5
599.446	298.5
599.655	296.5
599.864	289.5
600.073	298.5
600.282	282.5
600.491	298.5
600.7	283.5
600.909	281.5
601.118	300.5
601.327	290.5
601.536	282.5
601.745	281.5
601.953	283.5
602.162	276.5
602.371	279.5
602.58	300.5
602.789	269.5
602.997	271.5
603.206	283.5
603.415	265.5
603.623	293.5
603.832	282.5
604.041	281.5
604.249	281.5
604.458	283.5
604.666	280.5
604.875	278.5
605.084	287.5
605.292	272.5
605.501	276.5
605.709	273.5
605.918	276.5
606.126	262.5
606.334	273.5
606.543	267.5
606.751	269.5
606.96	261.5
607.168	262.5
607.376	255.5
607.585	264.5
607.793	263.5
608.001	267.5
608.21	261.5
608.418	266.5
608.626	265.5
608.834	268.5
609.043	263.5
609.251	266.5
609.459	262.5
609.667	263.5
609.875	269.5
610.083	257.5
610.291	267.5
610.499	279.5
610.707	251.5
610.916	271.5
611.124	288.5
611.332	273.5
611.54	292.5
611.748	272.5
611.955	268.5
612.163	261.5
612.371	260.5
612.579	265.5
612.787	243.5
612.995	259.5
613.203	261.5
613.411	257.5
613.618	277.5
613.826	268.5
614.034	259.5
614.242	247.5
614.449	255.5
614.657	265.5
614.865	255.5
615.072	253.5
615.28	268.5
615.488	252.5
615.695	262.5
615.903	272.5
616.111	260.5
616.318	277.5
616.526	250.5
616.733	264.5
616.941	272.5
617.148	251.5
617.356	273.5
617.563	249.5
617.771	273.5
617.978	262.5
618.185	258.5
618.393	271.5
618.6	265.5
618.807	257.5
619.015	260.5
619.222	253.5
619.429	263.5
619.637	264.5
619.844	256.5
620.051	260.5
620.258	249.5
620.466	235.5
620.673	245.5
620.88	255.5
621.087	259.5
621.294	240.5
621.501	252.5
621.708	256.5
621.915	249.5
622.122	237.5
622.329	256.5
622.536	239.5
622.743	244.5
622.95	232.5
623.157	224.5
623.364	231.5
623.571	237.5
623.778	265.5
623.985	258.5
624.192	229.5
624.399	248.5
624.606	219.5
624.812	233.5
625.019	226.5
625.226	220.5
625.433	242.5
625.639	233.5
625.846	229.5
626.053	227.5
626.259	228.5
626.466	239.5
626.673	225.5
626.879	221.5
627.086	231.5
627.293	217.5
627.499	216.5
627.706	219.5
627.912	219.5
628.119	225.5
628.325	220.5
628.532	219.5
628.738	226.5
628.945	233.5
629.151	216.5
629.357	216.5
629.564	216.5
629.77	212.5
629.976	211.5
630.183	214.5
630.389	236.5
630.595	211.5
630.802	211.5
631.008	193.5
631.214	192.5
631.42	215.5
631.627	217.5
631.833	216.5
632.039	187.5
632.245	212.5
632.451	224.5
632.657	212.5
632.863	204.5
633.069	203.5
633.275	208.5
633.481	198.5
633.688	199.5
633.893	198.5
634.099	204.5
634.305	212.5
634.511	204.5
634.717	192.5
634.923	210.5
635.129	197.5
635.335	192.5
635.541	197.5
635.747	198.5
635.952	189.5
636.158	180.5
636.364	201.5
636.57	222.5
636.775	205.5
636.981	203.5
637.187	200.5
637.392	186.5
637.598	201.5
637.804	212.5
638.009	209.5
638.215	199.5
638.421	199.5
638.626	187.5
638.832	200.5
639.037	181.5
639.243	181.5
639.448	179.5
639.654	176.5
639.859	199.5
640.065	186.5
640.27	194.5
640.475	194.5
640.681	172.5
640.886	205.5
641.091	190.5
641.297	211.5
641.502	196.5
641.707	184.5
641.913	187.5
642.118	183.5
642.323	178.5
642.528	197.5
642.733	179.5
642.939	184.5
643.144	180.5
643.349	182.5
643.554	178.5
643.759	183.5
643.964	172.5
644.169	179.5
644.374	204.5
644.579	183.5
644.784	177.5
644.989	169.5
645.194	171.5
645.399	178.5
645.604	167.5
645.809	179.5
646.014	187.5
646.219	178.5
646.423	179.5
646.628	182.5
646.833	176.5
647.038	182.5
647.243	181.5
647.447	187.5
647.652	177.5
647.857	187.5
648.062	178.5
648.266	180.5
648.471	182.5
648.676	187.5
648.88	180.5
649.085	195.5
649.289	177.5
649.494	183.5
649.698	200.5
649.903	187.5
650.107	200.5
650.312	177.5
650.516	180.5
650.721	169.5
650.925	167.5
651.13	163.5
651.334	171.5
651.539	153.5
651.743	154.5
651.947	163.5
652.152	165.5
652.356	157.5
652.56	153.5
652.764	150.5
652.969	142.5
653.173	153.5
653.377	133.5
653.581	145.5
653.785	149.5
653.99	152.5
654.194	146.5
654.398	141.5
654.602	144.5
654.806	136.5
655.01	132.5
655.214	148.5
655.418	137.5
655.622	129.5
655.826	125.5
656.03	147.5
656.234	142.5
656.438	144.5
656.642	134.5
656.846	149.5
657.049	143.5
657.253	128.5
657.457	117.5
657.661	119.5
657.865	111.5
658.068	118.5
658.272	130.5
658.476	116.5
658.68	116.5
658.883	105.5
659.087	103.5
659.291	111.5
659.494	99.5
659.698	86.5
659.901	92.5
660.105	92.5
660.309	89.5
660.512	92.5
660.716	96.5
660.919	103.5
661.123	87.5
661.326	96.5
661.53	86.5
661.733	102.5
661.936	94.5
662.14	84.5
662.343	84.5
662.546	82.5
662.75	91.5
662.953	106.5
663.156	98.5
663.36	85.5
663.563	92.5
663.766	86.5
663.969	81.5
664.173	95.5
664.376	92.5
664.579	84.5
664.782	80.5
664.985	73.5
665.188	79.5
665.391	80.5
665.594	64.5
665.797	81.5
666	77.5
666.203	87.5
666.406	86.5
666.609	86.5
666.812	81.5
667.015	77.5
667.218	90.5
667.421	83.5
667.624	83.5
667.827	81.5
668.03	84.5
668.232	83.5
668.435	84.5
668.638	77.5
668.841	89.5
669.043	82.5
669.246	90.5
669.449	92.5
669.651	78.5
669.854	65.5
670.057	79.5
670.259	90.5
670.462	87.5
670.665	92.5
670.867	87.5
671.07	94.5
671.272	89.5
671.475	77.5
671.677	87.5
671.88	80.5
672.082	64.5
672.284	72.5
672.487	72.5
672.689	74.5
672.892	79.5
