Data from 1974.PennyLincolnUp.Lamp.En5.5.200Scan.071719.P1.Changed Mount._HRD10591_15-54-12-857.txt Node
Date: Thu Jul 18 15:54:12 EDT 2019
User: cochatt
Spectrometer: HR+D1059
Trigger mode: 1
Integration Time (sec): 1.000000E-1
Scans to average: 1
Electric dark correction enabled: true
Nonlinearity correction enabled: false
Boxcar width: 0
XAxis mode: Wavelengths
Number of Pixels in Spectrum: 2048
>>>>>Begin Spectral Data<<<<<
223.165	-9.31
223.4	-9.31
223.635	-9.31
223.869	-22.31
224.104	-16.31
224.338	-7.31
224.573	-13.31
224.808	-11.31
225.042	-0.31
225.277	-2.31
225.511	-5.31
225.746	-6.31
225.98	7.69
226.215	-2.31
226.449	23.69
226.683	17.69
226.918	20.69
227.152	26.69
227.387	43.69
227.621	26.69
227.856	32.69
228.09	62.69
228.324	42.69
228.559	54.69
228.793	78.69
229.027	99.69
229.262	115.69
229.496	126.69
229.73	139.69
229.964	161.69
230.199	150.69
230.433	124.69
230.667	108.69
230.901	120.69
231.136	119.69
231.37	123.69
231.604	132.69
231.838	129.69
232.072	126.69
232.306	139.69
232.541	123.69
232.775	126.69
233.009	130.69
233.243	121.69
233.477	130.69
233.711	121.69
233.945	139.69
234.179	129.69
234.413	114.69
234.647	131.69
234.881	119.69
235.115	137.69
235.349	122.69
235.583	129.69
235.817	137.69
236.051	146.69
236.285	128.69
236.519	133.69
236.753	122.69
236.987	161.69
237.221	204.69
237.455	262.69
237.689	205.69
237.922	161.69
238.156	151.69
238.39	145.69
238.624	137.69
238.858	125.69
239.091	153.69
239.325	139.69
239.559	160.69
239.793	132.69
240.027	152.69
240.26	156.69
240.494	161.69
240.728	152.69
240.961	161.69
241.195	174.69
241.429	145.69
241.662	141.69
241.896	146.69
242.13	148.69
242.363	152.69
242.597	149.69
242.83	158.69
243.064	154.69
243.298	140.69
243.531	144.69
243.765	155.69
243.998	150.69
244.232	170.69
244.465	160.69
244.699	158.69
244.932	154.69
245.166	156.69
245.399	159.69
245.633	166.69
245.866	166.69
246.099	160.69
246.333	162.69
246.566	159.69
246.8	168.69
247.033	186.69
247.266	173.69
247.5	178.69
247.733	181.69
247.966	200.69
248.2	197.69
248.433	211.69
248.666	196.69
248.899	210.69
249.133	245.69
249.366	225.69
249.599	232.69
249.832	200.69
250.066	199.69
250.299	207.69
250.532	210.69
250.765	225.69
250.998	239.69
251.231	284.69
251.465	241.69
251.698	224.69
251.931	208.69
252.164	224.69
252.397	224.69
252.63	215.69
252.863	212.69
253.096	229.69
253.329	271.69
253.562	240.69
253.795	251.69
254.028	231.69
254.261	247.69
254.494	258.69
254.727	283.69
254.96	303.69
255.193	298.69
255.426	264.69
255.659	264.69
255.892	268.69
256.124	260.69
256.357	253.69
256.59	266.69
256.823	239.69
257.056	240.69
257.289	228.69
257.521	236.69
257.754	246.69
257.987	241.69
258.22	225.69
258.452	225.69
258.685	220.69
258.918	236.69
259.151	233.69
259.383	235.69
259.616	236.69
259.849	256.69
260.081	278.69
260.314	286.69
260.547	290.69
260.779	288.69
261.012	233.69
261.244	246.69
261.477	262.69
261.71	260.69
261.942	242.69
262.175	247.69
262.407	234.69
262.64	237.69
262.872	238.69
263.105	248.69
263.337	260.69
263.57	233.69
263.802	273.69
264.035	233.69
264.267	253.69
264.499	239.69
264.732	249.69
264.964	241.69
265.197	252.69
265.429	254.69
265.661	252.69
265.894	231.69
266.126	238.69
266.358	238.69
266.591	257.69
266.823	246.69
267.055	254.69
267.287	266.69
267.52	238.69
267.752	262.69
267.984	282.69
268.216	269.69
268.448	268.69
268.681	267.69
268.913	262.69
269.145	276.69
269.377	294.69
269.609	310.69
269.841	314.69
270.073	298.69
270.306	340.69
270.538	344.69
270.77	345.69
271.002	334.69
271.234	345.69
271.466	327.69
271.698	352.69
271.93	356.69
272.162	356.69
272.394	354.69
272.626	341.69
272.858	330.69
273.09	318.69
273.322	304.69
273.553	313.69
273.785	316.69
274.017	292.69
274.249	303.69
274.481	295.69
274.713	300.69
274.945	314.69
275.176	310.69
275.408	309.69
275.64	305.69
275.872	297.69
276.104	294.69
276.335	312.69
276.567	292.69
276.799	325.69
277.031	350.69
277.262	369.69
277.494	367.69
277.726	357.69
277.957	332.69
278.189	327.69
278.421	316.69
278.652	300.69
278.884	301.69
279.115	321.69
279.347	314.69
279.579	317.69
279.81	303.69
280.042	289.69
280.273	318.69
280.505	294.69
280.736	302.69
280.968	293.69
281.199	324.69
281.431	320.69
281.662	305.69
281.894	312.69
282.125	315.69
282.356	320.69
282.588	342.69
282.819	354.69
283.051	328.69
283.282	310.69
283.513	310.69
283.745	323.69
283.976	325.69
284.207	309.69
284.439	322.69
284.67	321.69
284.901	324.69
285.132	318.69
285.364	306.69
285.595	328.69
285.826	320.69
286.057	318.69
286.288	322.69
286.52	328.69
286.751	303.69
286.982	333.69
287.213	329.69
287.444	318.69
287.675	349.69
287.906	342.69
288.138	357.69
288.369	357.69
288.6	350.69
288.831	339.69
289.062	347.69
289.293	333.69
289.524	330.69
289.755	346.69
289.986	345.69
290.217	340.69
290.448	351.69
290.679	350.69
290.91	331.69
291.141	331.69
291.371	335.69
291.602	341.69
291.833	351.69
292.064	334.69
292.295	319.69
292.526	333.69
292.757	350.69
292.987	342.69
293.218	310.69
293.449	330.69
293.68	341.69
293.91	343.69
294.141	332.69
294.372	324.69
294.603	338.69
294.833	344.69
295.064	333.69
295.295	325.69
295.525	333.69
295.756	366.69
295.987	354.69
296.217	375.69
296.448	383.69
296.679	362.69
296.909	355.69
297.14	351.69
297.37	351.69
297.601	360.69
297.831	369.69
298.062	363.69
298.292	340.69
298.523	348.69
298.753	348.69
298.984	365.69
299.214	359.69
299.445	356.69
299.675	357.69
299.905	351.69
300.136	380.69
300.366	358.69
300.597	382.69
300.827	367.69
301.057	374.69
301.288	364.69
301.518	372.69
301.748	380.69
301.979	362.69
302.209	380.69
302.439	384.69
302.669	379.69
302.9	384.69
303.13	375.69
303.36	380.69
303.59	390.69
303.82	388.69
304.051	397.69
304.281	376.69
304.511	364.69
304.741	392.69
304.971	390.69
305.201	368.69
305.431	378.69
305.661	380.69
305.891	363.69
306.121	381.69
306.352	392.69
306.582	404.69
306.812	395.69
307.042	368.69
307.272	398.69
307.502	367.69
307.731	388.69
307.961	380.69
308.191	366.69
308.421	376.69
308.651	396.69
308.881	396.69
309.111	385.69
309.341	388.69
309.571	385.69
309.8	412.69
310.03	416.69
310.26	436.69
310.49	396.69
310.72	448.69
310.949	440.69
311.179	449.69
311.409	420.69
311.639	415.69
311.868	411.69
312.098	419.69
312.328	422.69
312.557	436.69
312.787	448.69
313.017	440.69
313.246	450.69
313.476	420.69
313.706	438.69
313.935	436.69
314.165	458.69
314.394	443.69
314.624	464.69
314.853	439.69
315.083	418.69
315.312	415.69
315.542	429.69
315.771	421.69
316.001	433.69
316.23	411.69
316.46	445.69
316.689	430.69
316.919	461.69
317.148	445.69
317.377	446.69
317.607	424.69
317.836	428.69
318.065	446.69
318.295	424.69
318.524	438.69
318.753	431.69
318.983	426.69
319.212	420.69
319.441	441.69
319.67	446.69
319.9	443.69
320.129	431.69
320.358	448.69
320.587	429.69
320.816	452.69
321.046	450.69
321.275	446.69
321.504	466.69
321.733	457.69
321.962	446.69
322.191	484.69
322.42	471.69
322.649	488.69
322.878	506.69
323.108	501.69
323.337	516.69
323.566	552.69
323.795	557.69
324.024	599.69
324.253	707.69
324.482	937.69
324.71	1488.69
324.939	2199.69
325.168	1961.69
325.397	951.69
325.626	679.69
325.855	587.69
326.084	559.69
326.313	544.69
326.542	532.69
326.77	592.69
326.999	682.69
327.228	900.69
327.457	1350.69
327.686	1695.69
327.914	1116.69
328.143	713.69
328.372	656.69
328.6	632.69
328.829	585.69
329.058	622.69
329.287	618.69
329.515	592.69
329.744	558.69
329.972	558.69
330.201	567.69
330.43	618.69
330.658	652.69
330.887	642.69
331.115	637.69
331.344	578.69
331.572	560.69
331.801	553.69
332.03	554.69
332.258	544.69
332.486	525.69
332.715	512.69
332.943	512.69
333.172	523.69
333.4	513.69
333.629	561.69
333.857	526.69
334.085	567.69
334.314	594.69
334.542	595.69
334.771	608.69
334.999	582.69
335.227	540.69
335.455	541.69
335.684	548.69
335.912	530.69
336.14	535.69
336.369	518.69
336.597	504.69
336.825	537.69
337.053	519.69
337.281	500.69
337.51	512.69
337.738	515.69
337.966	508.69
338.194	506.69
338.422	505.69
338.65	517.69
338.878	492.69
339.106	507.69
339.334	503.69
339.562	482.69
339.79	501.69
340.018	528.69
340.246	490.69
340.474	511.69
340.702	520.69
340.93	486.69
341.158	504.69
341.386	482.69
341.614	498.69
341.842	523.69
342.07	482.69
342.298	482.69
342.526	507.69
342.754	482.69
342.981	488.69
343.209	500.69
343.437	507.69
343.665	488.69
343.893	527.69
344.12	522.69
344.348	494.69
344.576	530.69
344.804	512.69
345.031	517.69
345.259	515.69
345.487	528.69
345.714	481.69
345.942	472.69
346.17	457.69
346.397	472.69
346.625	466.69
346.853	490.69
347.08	477.69
347.308	476.69
347.535	491.69
347.763	473.69
347.99	472.69
348.218	483.69
348.445	483.69
348.673	488.69
348.9	474.69
349.128	487.69
349.355	487.69
349.583	474.69
349.81	441.69
350.037	473.69
350.265	476.69
350.492	470.69
350.72	458.69
350.947	467.69
351.174	496.69
351.402	481.69
351.629	462.69
351.856	461.69
352.083	484.69
352.311	513.69
352.538	494.69
352.765	516.69
352.992	496.69
353.22	479.69
353.447	487.69
353.674	466.69
353.901	478.69
354.128	457.69
354.355	452.69
354.583	442.69
354.81	460.69
355.037	478.69
355.264	458.69
355.491	448.69
355.718	422.69
355.945	442.69
356.172	448.69
356.399	461.69
356.626	482.69
356.853	475.69
357.08	447.69
357.307	455.69
357.534	457.69
357.761	439.69
357.988	462.69
358.215	432.69
358.441	471.69
358.668	456.69
358.895	463.69
359.122	458.69
359.349	465.69
359.576	479.69
359.802	491.69
360.029	512.69
360.256	516.69
360.483	522.69
360.709	498.69
360.936	474.69
361.163	480.69
361.39	494.69
361.616	468.69
361.843	485.69
362.07	477.69
362.296	484.69
362.523	482.69
362.749	486.69
362.976	478.69
363.203	480.69
363.429	457.69
363.656	448.69
363.882	460.69
364.109	491.69
364.335	474.69
364.562	471.69
364.788	463.69
365.015	467.69
365.241	469.69
365.468	460.69
365.694	477.69
365.92	472.69
366.147	454.69
366.373	484.69
366.599	467.69
366.826	450.69
367.052	470.69
367.278	486.69
367.505	452.69
367.731	482.69
367.957	456.69
368.184	468.69
368.41	491.69
368.636	460.69
368.862	493.69
369.089	475.69
369.315	480.69
369.541	469.69
369.767	487.69
369.993	479.69
370.219	446.69
370.445	468.69
370.672	464.69
370.898	465.69
371.124	462.69
371.35	462.69
371.576	473.69
371.802	470.69
372.028	460.69
372.254	476.69
372.48	485.69
372.706	492.69
372.932	482.69
373.158	481.69
373.384	473.69
373.61	480.69
373.835	460.69
374.061	488.69
374.287	471.69
374.513	480.69
374.739	496.69
374.965	479.69
375.191	495.69
375.416	490.69
375.642	502.69
375.868	478.69
376.094	473.69
376.319	481.69
376.545	493.69
376.771	488.69
376.997	473.69
377.222	462.69
377.448	471.69
377.674	477.69
377.899	459.69
378.125	473.69
378.35	450.69
378.576	447.69
378.802	473.69
379.027	474.69
379.253	490.69
379.478	478.69
379.704	500.69
379.929	484.69
380.155	470.69
380.38	464.69
380.606	487.69
380.831	488.69
381.057	485.69
381.282	488.69
381.507	486.69
381.733	477.69
381.958	492.69
382.184	504.69
382.409	494.69
382.634	486.69
382.86	489.69
383.085	493.69
383.31	482.69
383.535	500.69
383.761	505.69
383.986	521.69
384.211	500.69
384.436	500.69
384.662	525.69
384.887	495.69
385.112	525.69
385.337	512.69
385.562	517.69
385.787	548.69
386.013	551.69
386.238	527.69
386.463	542.69
386.688	534.69
386.913	528.69
387.138	521.69
387.363	551.69
387.588	537.69
387.813	535.69
388.038	516.69
388.263	531.69
388.488	545.69
388.713	532.69
388.938	526.69
389.163	557.69
389.387	529.69
389.612	509.69
389.837	542.69
390.062	529.69
390.287	538.69
390.512	558.69
390.736	539.69
390.961	545.69
391.186	529.69
391.411	560.69
391.636	558.69
391.86	569.69
392.085	582.69
392.31	544.69
392.534	566.69
392.759	545.69
392.984	552.69
393.208	556.69
393.433	540.69
393.658	526.69
393.882	558.69
394.107	558.69
394.331	545.69
394.556	543.69
394.78	570.69
395.005	550.69
395.229	541.69
395.454	552.69
395.678	554.69
395.903	561.69
396.127	592.69
396.352	588.69
396.576	582.69
396.801	568.69
397.025	562.69
397.249	579.69
397.474	589.69
397.698	585.69
397.922	570.69
398.147	637.69
398.371	624.69
398.595	604.69
398.82	621.69
399.044	645.69
399.268	660.69
399.492	701.69
399.717	747.69
399.941	780.69
400.165	794.69
400.389	790.69
400.613	730.69
400.837	670.69
401.062	642.69
401.286	639.69
401.51	632.69
401.734	620.69
401.958	644.69
402.182	632.69
402.406	634.69
402.63	676.69
402.854	652.69
403.078	648.69
403.302	663.69
403.526	650.69
403.75	644.69
403.974	664.69
404.198	625.69
404.422	654.69
404.645	667.69
404.869	649.69
405.093	710.69
405.317	741.69
405.541	783.69
405.765	713.69
405.988	689.69
406.212	700.69
406.436	686.69
406.66	696.69
406.883	700.69
407.107	741.69
407.331	791.69
407.555	836.69
407.778	840.69
408.002	782.69
408.226	715.69
408.449	743.69
408.673	706.69
408.896	726.69
409.12	780.69
409.344	757.69
409.567	680.69
409.791	680.69
410.014	656.69
410.238	645.69
410.461	642.69
410.685	648.69
410.908	655.69
411.132	701.69
411.355	748.69
411.578	719.69
411.802	656.69
412.025	647.69
412.249	652.69
412.472	690.69
412.695	734.69
412.919	709.69
413.142	669.69
413.365	648.69
413.589	641.69
413.812	636.69
414.035	641.69
414.258	614.69
414.482	648.69
414.705	606.69
414.928	595.69
415.151	621.69
415.374	620.69
415.597	595.69
415.821	598.69
416.044	640.69
416.267	613.69
416.49	634.69
416.713	610.69
416.936	614.69
417.159	622.69
417.382	618.69
417.605	625.69
417.828	641.69
418.051	655.69
418.274	642.69
418.497	617.69
418.72	613.69
418.943	623.69
419.166	632.69
419.389	664.69
419.611	667.69
419.834	648.69
420.057	664.69
420.28	652.69
420.503	633.69
420.726	646.69
420.948	677.69
421.171	708.69
421.394	732.69
421.617	681.69
421.839	641.69
422.062	646.69
422.285	665.69
422.507	731.69
422.73	815.69
422.953	769.69
423.175	696.69
423.398	674.69
423.621	666.69
423.843	704.69
424.066	694.69
424.288	676.69
424.511	719.69
424.733	785.69
424.956	857.69
425.178	814.69
425.401	802.69
425.623	837.69
425.846	721.69
426.068	699.69
426.291	684.69
426.513	684.69
426.735	677.69
426.958	713.69
427.18	837.69
427.402	1002.69
427.625	1050.69
427.847	909.69
428.069	824.69
428.292	728.69
428.514	671.69
428.736	642.69
428.958	651.69
429.181	608.69
429.403	622.69
429.625	602.69
429.847	654.69
430.069	751.69
430.292	744.69
430.514	647.69
430.736	620.69
430.958	636.69
431.18	621.69
431.402	621.69
431.624	627.69
431.846	578.69
432.068	605.69
432.29	597.69
432.512	589.69
432.734	592.69
432.956	567.69
433.178	615.69
433.4	633.69
433.622	621.69
433.844	596.69
434.066	596.69
434.287	608.69
434.509	591.69
434.731	631.69
434.953	634.69
435.175	654.69
435.397	698.69
435.618	679.69
435.84	700.69
436.062	821.69
436.284	886.69
436.505	761.69
436.727	687.69
436.949	649.69
437.17	638.69
437.392	628.69
437.614	647.69
437.835	677.69
438.057	771.69
438.278	868.69
438.5	873.69
438.721	960.69
438.943	956.69
439.165	744.69
439.386	693.69
439.608	685.69
439.829	688.69
440.05	727.69
440.272	759.69
440.493	710.69
440.715	667.69
440.936	649.69
441.158	638.69
441.379	684.69
441.6	676.69
441.822	677.69
442.043	746.69
442.264	819.69
442.486	855.69
442.707	738.69
442.928	696.69
443.149	715.69
443.371	738.69
443.592	757.69
443.813	863.69
444.034	954.69
444.255	798.69
444.476	724.69
444.698	718.69
444.919	724.69
445.14	818.69
445.361	764.69
445.582	742.69
445.803	795.69
446.024	894.69
446.245	928.69
446.466	838.69
446.687	728.69
446.908	668.69
447.129	657.69
447.35	618.69
447.571	631.69
447.792	606.69
448.013	650.69
448.234	647.69
448.455	677.69
448.675	829.69
448.896	952.69
449.117	800.69
449.338	749.69
449.559	877.69
449.779	973.69
450	824.69
450.221	659.69
450.442	635.69
450.662	617.69
450.883	592.69
451.104	625.69
451.324	604.69
451.545	612.69
451.766	593.69
451.986	549.69
452.207	552.69
452.428	559.69
452.648	533.69
452.869	518.69
453.089	575.69
453.31	564.69
453.53	573.69
453.751	577.69
453.971	542.69
454.192	577.69
454.412	548.69
454.633	535.69
454.853	527.69
455.073	557.69
455.294	580.69
455.514	665.69
455.734	656.69
455.955	555.69
456.175	542.69
456.395	508.69
456.616	501.69
456.836	532.69
457.056	529.69
457.276	524.69
457.497	536.69
457.717	530.69
457.937	541.69
458.157	547.69
458.377	545.69
458.598	596.69
458.818	623.69
459.038	700.69
459.258	734.69
459.478	637.69
459.698	619.69
459.918	594.69
460.138	605.69
460.358	633.69
460.578	625.69
460.798	634.69
461.018	649.69
461.238	616.69
461.458	638.69
461.678	617.69
461.898	632.69
462.118	632.69
462.338	667.69
462.558	636.69
462.777	672.69
462.997	681.69
463.217	733.69
463.437	708.69
463.657	694.69
463.876	670.69
464.096	640.69
464.316	670.69
464.536	682.69
464.755	690.69
464.975	688.69
465.195	686.69
465.414	753.69
465.634	694.69
465.854	637.69
466.073	647.69
466.293	584.69
466.512	576.69
466.732	613.69
466.951	592.69
467.171	582.69
467.391	572.69
467.61	602.69
467.829	583.69
468.049	588.69
468.268	592.69
468.488	589.69
468.707	571.69
468.927	566.69
469.146	555.69
469.365	556.69
469.585	560.69
469.804	580.69
470.023	593.69
470.243	599.69
470.462	596.69
470.681	621.69
470.901	610.69
471.12	589.69
471.339	588.69
471.558	597.69
471.777	570.69
471.997	564.69
472.216	568.69
472.435	617.69
472.654	618.69
472.873	599.69
473.092	576.69
473.311	560.69
473.53	571.69
473.749	615.69
473.968	634.69
474.187	710.69
474.406	780.69
474.625	680.69
474.844	606.69
475.063	605.69
475.282	560.69
475.501	602.69
475.72	607.69
475.939	624.69
476.158	607.69
476.377	599.69
476.596	635.69
476.814	601.69
477.033	611.69
477.252	609.69
477.471	626.69
477.69	625.69
477.908	630.69
478.127	644.69
478.346	619.69
478.564	644.69
478.783	668.69
479.002	664.69
479.22	703.69
479.439	708.69
479.658	722.69
479.876	723.69
480.095	697.69
480.313	753.69
480.532	735.69
480.751	715.69
480.969	718.69
481.188	778.69
481.406	813.69
481.624	737.69
481.843	706.69
482.061	674.69
482.28	709.69
482.498	694.69
482.717	674.69
482.935	684.69
483.153	723.69
483.372	674.69
483.59	696.69
483.808	660.69
484.027	664.69
484.245	667.69
484.463	676.69
484.681	711.69
484.9	695.69
485.118	690.69
485.336	700.69
485.554	690.69
485.772	716.69
485.99	706.69
486.209	719.69
486.427	718.69
486.645	718.69
486.863	733.69
487.081	744.69
487.299	737.69
487.517	736.69
487.735	749.69
487.953	733.69
488.171	760.69
488.389	740.69
488.607	742.69
488.825	745.69
489.043	738.69
489.261	752.69
489.479	765.69
489.696	746.69
489.914	766.69
490.132	767.69
490.35	754.69
490.568	751.69
490.786	815.69
491.003	816.69
491.221	841.69
491.439	800.69
491.657	857.69
491.874	830.69
492.092	860.69
492.31	866.69
492.527	872.69
492.745	847.69
492.963	874.69
493.18	864.69
493.398	872.69
493.615	884.69
493.833	856.69
494.05	880.69
494.268	869.69
494.485	876.69
494.703	877.69
494.92	876.69
495.138	895.69
495.355	884.69
495.573	872.69
495.79	902.69
496.008	896.69
496.225	884.69
496.442	890.69
496.66	898.69
496.877	886.69
497.094	908.69
497.312	929.69
497.529	925.69
497.746	905.69
497.963	923.69
498.181	943.69
498.398	982.69
498.615	988.69
498.832	1006.69
499.049	1042.69
499.267	1064.69
499.484	1129.69
499.701	1204.69
499.918	1231.69
500.135	1274.69
500.352	1368.69
500.569	1398.69
500.786	1428.69
501.003	1359.69
501.22	1328.69
501.437	1283.69
501.654	1199.69
501.871	1146.69
502.088	1120.69
502.305	1097.69
502.522	1059.69
502.739	1002.69
502.956	981.69
503.172	952.69
503.389	910.69
503.606	915.69
503.823	940.69
504.04	893.69
504.256	866.69
504.473	900.69
504.69	892.69
504.907	897.69
505.123	858.69
505.34	848.69
505.557	840.69
505.773	828.69
505.99	860.69
506.207	828.69
506.423	813.69
506.64	808.69
506.856	818.69
507.073	822.69
507.289	800.69
507.506	806.69
507.722	804.69
507.939	810.69
508.155	820.69
508.372	792.69
508.588	780.69
508.805	762.69
509.021	792.69
509.238	787.69
509.454	782.69
509.67	816.69
509.887	785.69
510.103	764.69
510.319	798.69
510.536	861.69
510.752	1304.69
510.968	1096.69
511.184	776.69
511.401	742.69
511.617	750.69
511.833	719.69
512.049	728.69
512.265	730.69
512.481	738.69
512.698	708.69
512.914	694.69
513.13	728.69
513.346	741.69
513.562	712.69
513.778	717.69
513.994	698.69
514.21	727.69
514.426	756.69
514.642	782.69
514.858	829.69
515.074	848.69
515.29	969.69
515.506	1316.69
515.721	1125.69
515.937	846.69
516.153	778.69
516.369	763.69
516.585	767.69
516.801	737.69
517.016	812.69
517.232	767.69
517.448	774.69
517.664	786.69
517.879	812.69
518.095	763.69
518.311	787.69
518.527	786.69
518.742	788.69
518.958	782.69
519.173	749.69
519.389	728.69
519.605	721.69
519.82	702.69
520.036	770.69
520.251	769.69
520.467	786.69
520.682	791.69
520.898	780.69
521.113	790.69
521.329	833.69
521.544	882.69
521.76	1083.69
521.975	1676.69
522.19	1618.69
522.406	976.69
522.621	817.69
522.836	719.69
523.052	712.69
523.267	687.69
523.482	660.69
523.698	654.69
523.913	668.69
524.128	670.69
524.343	625.69
524.559	642.69
524.774	625.69
524.989	612.69
525.204	649.69
525.419	640.69
525.634	648.69
525.849	610.69
526.064	617.69
526.28	608.69
526.495	597.69
526.71	597.69
526.925	614.69
527.14	598.69
527.355	605.69
527.57	595.69
527.785	613.69
527.999	589.69
528.214	592.69
528.429	601.69
528.644	607.69
528.859	598.69
529.074	591.69
529.289	642.69
529.503	694.69
529.718	689.69
529.933	629.69
530.148	606.69
530.363	609.69
530.577	594.69
530.792	590.69
531.007	597.69
531.221	584.69
531.436	566.69
531.651	582.69
531.865	581.69
532.08	580.69
532.295	599.69
532.509	586.69
532.724	588.69
532.938	594.69
533.153	587.69
533.367	568.69
533.582	568.69
533.796	578.69
534.011	582.69
534.225	568.69
534.44	571.69
534.654	581.69
534.868	574.69
535.083	559.69
535.297	580.69
535.511	593.69
535.726	568.69
535.94	593.69
536.154	569.69
536.369	581.69
536.583	564.69
536.797	563.69
537.011	560.69
537.225	544.69
537.44	591.69
537.654	558.69
537.868	553.69
538.082	546.69
538.296	532.69
538.51	569.69
538.724	586.69
538.938	546.69
539.153	555.69
539.367	540.69
539.581	561.69
539.795	538.69
540.009	546.69
540.222	569.69
540.436	553.69
540.65	550.69
540.864	555.69
541.078	534.69
541.292	584.69
541.506	556.69
541.72	551.69
541.934	541.69
542.147	553.69
542.361	571.69
542.575	546.69
542.789	566.69
543.002	564.69
543.216	532.69
543.43	553.69
543.644	542.69
543.857	580.69
544.071	566.69
544.285	575.69
544.498	550.69
544.712	568.69
544.925	564.69
545.139	540.69
545.352	548.69
545.566	552.69
545.779	553.69
545.993	542.69
546.206	568.69
546.42	568.69
546.633	525.69
546.847	550.69
547.06	555.69
547.274	543.69
547.487	537.69
547.7	532.69
547.914	520.69
548.127	543.69
548.34	544.69
548.554	542.69
548.767	522.69
548.98	544.69
549.193	539.69
549.407	566.69
549.62	560.69
549.833	548.69
550.046	549.69
550.259	548.69
550.473	544.69
550.686	534.69
550.899	533.69
551.112	540.69
551.325	536.69
551.538	529.69
551.751	535.69
551.964	526.69
552.177	526.69
552.39	525.69
552.603	560.69
552.816	558.69
553.029	553.69
553.242	560.69
553.455	561.69
553.667	586.69
553.88	564.69
554.093	556.69
554.306	541.69
554.519	535.69
554.732	529.69
554.944	520.69
555.157	528.69
555.37	511.69
555.583	524.69
555.795	500.69
556.008	512.69
556.221	502.69
556.433	502.69
556.646	494.69
556.859	478.69
557.071	491.69
557.284	474.69
557.496	490.69
557.709	485.69
557.921	501.69
558.134	480.69
558.346	475.69
558.559	468.69
558.771	472.69
558.984	475.69
559.196	480.69
559.409	474.69
559.621	465.69
559.833	468.69
560.046	457.69
560.258	470.69
560.47	466.69
560.683	488.69
560.895	455.69
561.107	487.69
561.32	475.69
561.532	472.69
561.744	478.69
561.956	480.69
562.168	463.69
562.381	473.69
562.593	449.69
562.805	479.69
563.017	467.69
563.229	477.69
563.441	493.69
563.653	487.69
563.865	478.69
564.077	477.69
564.289	506.69
564.501	509.69
564.713	494.69
564.925	496.69
565.137	508.69
565.349	533.69
565.561	518.69
565.773	528.69
565.985	539.69
566.197	562.69
566.408	562.69
566.62	590.69
566.832	617.69
567.044	635.69
567.255	631.69
567.467	622.69
567.679	665.69
567.891	703.69
568.102	667.69
568.314	648.69
568.526	628.69
568.737	592.69
568.949	566.69
569.161	562.69
569.372	515.69
569.584	528.69
569.795	493.69
570.007	510.69
570.218	544.69
570.43	493.69
570.641	471.69
570.853	464.69
571.064	463.69
571.276	468.69
571.487	452.69
571.698	460.69
571.91	482.69
572.121	442.69
572.333	462.69
572.544	436.69
572.755	415.69
572.966	409.69
573.178	417.69
573.389	421.69
573.6	422.69
573.811	402.69
574.023	412.69
574.234	405.69
574.445	399.69
574.656	406.69
574.867	412.69
575.078	426.69
575.289	403.69
575.501	404.69
575.712	405.69
575.923	389.69
576.134	384.69
576.345	388.69
576.556	392.69
576.767	392.69
576.978	377.69
577.188	382.69
577.399	384.69
577.61	372.69
577.821	407.69
578.032	384.69
578.243	409.69
578.454	609.69
578.665	478.69
578.875	384.69
579.086	385.69
579.297	378.69
579.508	374.69
579.718	380.69
579.929	356.69
580.14	374.69
580.35	356.69
580.561	376.69
580.772	380.69
580.982	364.69
581.193	355.69
581.403	388.69
581.614	382.69
581.825	369.69
582.035	372.69
582.246	364.69
582.456	378.69
582.667	376.69
582.877	370.69
583.087	374.69
583.298	364.69
583.508	374.69
583.719	363.69
583.929	355.69
584.139	386.69
584.35	365.69
584.56	334.69
584.77	340.69
584.981	363.69
585.191	342.69
585.401	354.69
585.611	337.69
585.821	351.69
586.032	355.69
586.242	335.69
586.452	349.69
586.662	342.69
586.872	330.69
587.082	332.69
587.292	349.69
587.502	352.69
587.713	353.69
587.923	345.69
588.133	343.69
588.343	325.69
588.553	365.69
588.762	362.69
588.972	359.69
589.182	337.69
589.392	370.69
589.602	365.69
589.812	356.69
590.022	351.69
590.232	341.69
590.441	346.69
590.651	365.69
590.861	361.69
591.071	358.69
591.281	344.69
591.49	337.69
591.7	348.69
591.91	367.69
592.119	356.69
592.329	381.69
592.539	376.69
592.748	380.69
592.958	367.69
593.167	382.69
593.377	374.69
593.587	390.69
593.796	400.69
594.006	389.69
594.215	385.69
594.424	416.69
594.634	384.69
594.843	382.69
595.053	377.69
595.262	385.69
595.472	358.69
595.681	361.69
595.89	376.69
596.1	346.69
596.309	354.69
596.518	365.69
596.727	341.69
596.937	346.69
597.146	343.69
597.355	338.69
597.564	345.69
597.774	340.69
597.983	317.69
598.192	322.69
598.401	324.69
598.61	318.69
598.819	324.69
599.028	302.69
599.237	316.69
599.446	311.69
599.655	318.69
599.864	306.69
600.073	283.69
600.282	318.69
600.491	315.69
600.7	319.69
600.909	306.69
601.118	313.69
601.327	302.69
601.536	308.69
601.745	326.69
601.953	323.69
602.162	327.69
602.371	313.69
602.58	304.69
602.789	312.69
602.997	312.69
603.206	315.69
603.415	284.69
603.623	322.69
603.832	297.69
604.041	292.69
604.249	308.69
604.458	289.69
604.666	288.69
604.875	288.69
605.084	296.69
605.292	279.69
605.501	282.69
605.709	302.69
605.918	297.69
606.126	296.69
606.334	294.69
606.543	295.69
606.751	300.69
606.96	296.69
607.168	316.69
607.376	279.69
607.585	297.69
607.793	278.69
608.001	295.69
608.21	310.69
608.418	280.69
608.626	280.69
608.834	306.69
609.043	292.69
609.251	271.69
609.459	281.69
609.667	303.69
609.875	286.69
610.083	286.69
610.291	298.69
610.499	279.69
610.707	296.69
610.916	277.69
611.124	313.69
611.332	304.69
611.54	300.69
611.748	284.69
611.955	284.69
612.163	285.69
612.371	302.69
612.579	274.69
612.787	278.69
612.995	280.69
613.203	268.69
613.411	278.69
613.618	274.69
613.826	303.69
614.034	292.69
614.242	279.69
614.449	260.69
614.657	294.69
614.865	286.69
615.072	276.69
615.28	286.69
615.488	280.69
615.695	282.69
615.903	286.69
616.111	293.69
616.318	264.69
616.526	283.69
616.733	271.69
616.941	277.69
617.148	274.69
617.356	283.69
617.563	286.69
617.771	289.69
617.978	270.69
618.185	292.69
618.393	299.69
618.6	281.69
618.807	273.69
619.015	274.69
619.222	278.69
619.429	282.69
619.637	265.69
619.844	281.69
620.051	269.69
620.258	260.69
620.466	269.69
620.673	284.69
620.88	248.69
621.087	262.69
621.294	254.69
621.501	265.69
621.708	274.69
621.915	279.69
622.122	251.69
622.329	262.69
622.536	271.69
622.743	301.69
622.95	270.69
623.157	246.69
623.364	260.69
623.571	256.69
623.778	266.69
623.985	254.69
624.192	250.69
624.399	255.69
624.606	266.69
624.812	255.69
625.019	251.69
625.226	233.69
625.433	260.69
625.639	249.69
625.846	235.69
626.053	239.69
626.259	250.69
626.466	252.69
626.673	267.69
626.879	238.69
627.086	264.69
627.293	232.69
627.499	237.69
627.706	241.69
627.912	246.69
628.119	248.69
628.325	240.69
628.532	222.69
628.738	224.69
628.945	237.69
629.151	248.69
629.357	237.69
629.564	233.69
629.77	241.69
629.976	240.69
630.183	234.69
630.389	248.69
630.595	234.69
630.802	234.69
631.008	222.69
631.214	210.69
631.42	234.69
631.627	221.69
631.833	233.69
632.039	212.69
632.245	230.69
632.451	239.69
632.657	230.69
632.863	224.69
633.069	216.69
633.275	220.69
633.481	209.69
633.688	215.69
633.893	220.69
634.099	209.69
634.305	233.69
634.511	213.69
634.717	216.69
634.923	203.69
635.129	206.69
635.335	215.69
635.541	218.69
635.747	230.69
635.952	207.69
636.158	210.69
636.364	224.69
636.57	226.69
636.775	205.69
636.981	217.69
637.187	210.69
637.392	221.69
637.598	196.69
637.804	207.69
638.009	228.69
638.215	205.69
638.421	207.69
638.626	205.69
638.832	215.69
639.037	207.69
639.243	211.69
639.448	189.69
639.654	201.69
639.859	206.69
640.065	205.69
640.27	209.69
640.475	208.69
640.681	207.69
640.886	231.69
641.091	194.69
641.297	203.69
641.502	198.69
641.707	165.69
641.913	202.69
642.118	202.69
642.323	199.69
642.528	192.69
642.733	197.69
642.939	191.69
643.144	195.69
643.349	198.69
643.554	200.69
643.759	197.69
643.964	192.69
644.169	200.69
644.374	191.69
644.579	197.69
644.784	180.69
644.989	202.69
645.194	188.69
645.399	183.69
645.604	201.69
645.809	192.69
646.014	209.69
646.219	200.69
646.423	191.69
646.628	205.69
646.833	212.69
647.038	186.69
647.243	196.69
647.447	191.69
647.652	192.69
647.857	182.69
648.062	205.69
648.266	189.69
648.471	195.69
648.676	181.69
648.88	197.69
649.085	213.69
649.289	192.69
649.494	182.69
649.698	217.69
649.903	200.69
650.107	207.69
650.312	206.69
650.516	196.69
650.721	185.69
650.925	188.69
651.13	166.69
651.334	166.69
651.539	180.69
651.743	186.69
651.947	172.69
652.152	177.69
652.356	166.69
652.56	170.69
652.764	139.69
652.969	148.69
653.173	168.69
653.377	160.69
653.581	161.69
653.785	159.69
653.99	161.69
654.194	158.69
654.398	152.69
654.602	146.69
654.806	167.69
655.01	153.69
655.214	169.69
655.418	160.69
655.622	131.69
655.826	136.69
656.03	145.69
656.234	155.69
656.438	141.69
656.642	147.69
656.846	136.69
657.049	146.69
657.253	134.69
657.457	131.69
657.661	128.69
657.865	125.69
658.068	124.69
658.272	122.69
658.476	116.69
658.68	126.69
658.883	118.69
659.087	105.69
659.291	120.69
659.494	103.69
659.698	103.69
659.901	101.69
660.105	114.69
660.309	96.69
660.512	85.69
660.716	97.69
660.919	103.69
661.123	107.69
661.326	79.69
661.53	97.69
661.733	84.69
661.936	95.69
662.14	94.69
662.343	92.69
662.546	77.69
662.75	91.69
662.953	82.69
663.156	103.69
663.36	78.69
663.563	91.69
663.766	86.69
663.969	76.69
664.173	88.69
664.376	82.69
664.579	85.69
664.782	84.69
664.985	94.69
665.188	82.69
665.391	86.69
665.594	79.69
665.797	90.69
666	78.69
666.203	82.69
666.406	82.69
666.609	93.69
666.812	79.69
667.015	89.69
667.218	82.69
667.421	81.69
667.624	84.69
667.827	86.69
668.03	87.69
668.232	95.69
668.435	85.69
668.638	75.69
668.841	82.69
669.043	82.69
669.246	76.69
669.449	75.69
669.651	92.69
669.854	89.69
670.057	68.69
670.259	84.69
670.462	94.69
670.665	91.69
670.867	85.69
671.07	86.69
671.272	80.69
671.475	78.69
671.677	75.69
671.88	72.69
672.082	77.69
672.284	73.69
672.487	84.69
672.689	96.69
672.892	75.69
