Data from 1974.PennyLincolnUp.Lamp.En5.5.200Scan.071719.P1.Changed Mount._HRD10591_15-53-07-856.txt Node
Date: Thu Jul 18 15:53:07 EDT 2019
User: cochatt
Spectrometer: HR+D1059
Trigger mode: 1
Integration Time (sec): 1.000000E-1
Scans to average: 1
Electric dark correction enabled: true
Nonlinearity correction enabled: false
Boxcar width: 0
XAxis mode: Wavelengths
Number of Pixels in Spectrum: 2048
>>>>>Begin Spectral Data<<<<<
223.165	-28.75
223.4	-28.75
223.635	-28.75
223.869	-23.75
224.104	-17.75
224.338	-24.75
224.573	-8.75
224.808	-1.75
225.042	-12.75
225.277	7.25
225.511	-5.75
225.746	-4.75
225.98	7.25
226.215	12.25
226.449	23.25
226.683	29.25
226.918	21.25
227.152	28.25
227.387	33.25
227.621	42.25
227.856	54.25
228.09	43.25
228.324	43.25
228.559	46.25
228.793	80.25
229.027	100.25
229.262	107.25
229.496	128.25
229.73	142.25
229.964	155.25
230.199	123.25
230.433	123.25
230.667	128.25
230.901	141.25
231.136	117.25
231.37	124.25
231.604	117.25
231.838	103.25
232.072	123.25
232.306	125.25
232.541	132.25
232.775	120.25
233.009	134.25
233.243	125.25
233.477	110.25
233.711	121.25
233.945	120.25
234.179	122.25
234.413	124.25
234.647	125.25
234.881	144.25
235.115	123.25
235.349	120.25
235.583	139.25
235.817	129.25
236.051	136.25
236.285	142.25
236.519	128.25
236.753	135.25
236.987	145.25
237.221	181.25
237.455	240.25
237.689	186.25
237.922	157.25
238.156	146.25
238.39	146.25
238.624	132.25
238.858	140.25
239.091	145.25
239.325	130.25
239.559	136.25
239.793	146.25
240.027	145.25
240.26	135.25
240.494	157.25
240.728	156.25
240.961	155.25
241.195	150.25
241.429	140.25
241.662	139.25
241.896	147.25
242.13	145.25
242.363	144.25
242.597	149.25
242.83	140.25
243.064	164.25
243.298	152.25
243.531	147.25
243.765	155.25
243.998	148.25
244.232	148.25
244.465	149.25
244.699	165.25
244.932	164.25
245.166	158.25
245.399	144.25
245.633	167.25
245.866	159.25
246.099	150.25
246.333	153.25
246.566	165.25
246.8	168.25
247.033	165.25
247.266	181.25
247.5	176.25
247.733	187.25
247.966	186.25
248.2	191.25
248.433	185.25
248.666	174.25
248.899	199.25
249.133	230.25
249.366	233.25
249.599	195.25
249.832	197.25
250.066	186.25
250.299	194.25
250.532	197.25
250.765	216.25
250.998	252.25
251.231	234.25
251.465	228.25
251.698	214.25
251.931	224.25
252.164	227.25
252.397	213.25
252.63	222.25
252.863	233.25
253.096	232.25
253.329	247.25
253.562	252.25
253.795	225.25
254.028	241.25
254.261	241.25
254.494	225.25
254.727	288.25
254.96	302.25
255.193	302.25
255.426	270.25
255.659	255.25
255.892	246.25
256.124	252.25
256.357	241.25
256.59	235.25
256.823	239.25
257.056	237.25
257.289	221.25
257.521	231.25
257.754	217.25
257.987	217.25
258.22	233.25
258.452	221.25
258.685	231.25
258.918	231.25
259.151	229.25
259.383	250.25
259.616	233.25
259.849	233.25
260.081	253.25
260.314	273.25
260.547	268.25
260.779	277.25
261.012	254.25
261.244	246.25
261.477	233.25
261.71	238.25
261.942	233.25
262.175	254.25
262.407	249.25
262.64	257.25
262.872	236.25
263.105	238.25
263.337	230.25
263.57	232.25
263.802	233.25
264.035	248.25
264.267	250.25
264.499	241.25
264.732	227.25
264.964	232.25
265.197	260.25
265.429	225.25
265.661	257.25
265.894	215.25
266.126	237.25
266.358	225.25
266.591	265.25
266.823	264.25
267.055	246.25
267.287	263.25
267.52	270.25
267.752	256.25
267.984	250.25
268.216	244.25
268.448	248.25
268.681	253.25
268.913	259.25
269.145	273.25
269.377	295.25
269.609	295.25
269.841	291.25
270.073	281.25
270.306	311.25
270.538	330.25
270.77	335.25
271.002	311.25
271.234	306.25
271.466	333.25
271.698	332.25
271.93	334.25
272.162	356.25
272.394	343.25
272.626	350.25
272.858	326.25
273.09	307.25
273.322	303.25
273.553	282.25
273.785	296.25
274.017	297.25
274.249	288.25
274.481	296.25
274.713	283.25
274.945	293.25
275.176	293.25
275.408	279.25
275.64	282.25
275.872	319.25
276.104	283.25
276.335	282.25
276.567	275.25
276.799	304.25
277.031	342.25
277.262	332.25
277.494	347.25
277.726	317.25
277.957	315.25
278.189	318.25
278.421	303.25
278.652	292.25
278.884	293.25
279.115	293.25
279.347	311.25
279.579	311.25
279.81	284.25
280.042	307.25
280.273	295.25
280.505	299.25
280.736	308.25
280.968	289.25
281.199	300.25
281.431	296.25
281.662	274.25
281.894	311.25
282.125	283.25
282.356	325.25
282.588	344.25
282.819	329.25
283.051	313.25
283.282	293.25
283.513	302.25
283.745	329.25
283.976	311.25
284.207	313.25
284.439	316.25
284.67	302.25
284.901	308.25
285.132	301.25
285.364	329.25
285.595	313.25
285.826	319.25
286.057	318.25
286.288	314.25
286.52	310.25
286.751	315.25
286.982	320.25
287.213	307.25
287.444	317.25
287.675	315.25
287.906	327.25
288.138	345.25
288.369	322.25
288.6	342.25
288.831	326.25
289.062	349.25
289.293	337.25
289.524	336.25
289.755	320.25
289.986	341.25
290.217	318.25
290.448	312.25
290.679	337.25
290.91	320.25
291.141	302.25
291.371	301.25
291.602	323.25
291.833	324.25
292.064	316.25
292.295	327.25
292.526	321.25
292.757	335.25
292.987	343.25
293.218	327.25
293.449	321.25
293.68	328.25
293.91	336.25
294.141	325.25
294.372	341.25
294.603	318.25
294.833	321.25
295.064	324.25
295.295	327.25
295.525	339.25
295.756	339.25
295.987	345.25
296.217	363.25
296.448	357.25
296.679	345.25
296.909	363.25
297.14	349.25
297.37	344.25
297.601	321.25
297.831	330.25
298.062	336.25
298.292	334.25
298.523	336.25
298.753	362.25
298.984	347.25
299.214	353.25
299.445	336.25
299.675	363.25
299.905	342.25
300.136	356.25
300.366	373.25
300.597	361.25
300.827	363.25
301.057	374.25
301.288	345.25
301.518	369.25
301.748	380.25
301.979	367.25
302.209	371.25
302.439	362.25
302.669	361.25
302.9	368.25
303.13	344.25
303.36	389.25
303.59	367.25
303.82	389.25
304.051	393.25
304.281	361.25
304.511	386.25
304.741	366.25
304.971	359.25
305.201	379.25
305.431	381.25
305.661	380.25
305.891	363.25
306.121	371.25
306.352	377.25
306.582	381.25
306.812	366.25
307.042	386.25
307.272	365.25
307.502	367.25
307.731	381.25
307.961	377.25
308.191	382.25
308.421	373.25
308.651	389.25
308.881	374.25
309.111	389.25
309.341	387.25
309.571	380.25
309.8	394.25
310.03	396.25
310.26	413.25
310.49	410.25
310.72	393.25
310.949	404.25
311.179	411.25
311.409	438.25
311.639	405.25
311.868	416.25
312.098	419.25
312.328	423.25
312.557	427.25
312.787	430.25
313.017	440.25
313.246	421.25
313.476	420.25
313.706	404.25
313.935	417.25
314.165	415.25
314.394	437.25
314.624	429.25
314.853	414.25
315.083	405.25
315.312	386.25
315.542	407.25
315.771	415.25
316.001	395.25
316.23	399.25
316.46	420.25
316.689	441.25
316.919	429.25
317.148	419.25
317.377	419.25
317.607	407.25
317.836	428.25
318.065	422.25
318.295	401.25
318.524	393.25
318.753	415.25
318.983	416.25
319.212	425.25
319.441	443.25
319.67	437.25
319.9	421.25
320.129	430.25
320.358	423.25
320.587	407.25
320.816	445.25
321.046	433.25
321.275	443.25
321.504	435.25
321.733	419.25
321.962	446.25
322.191	444.25
322.42	465.25
322.649	469.25
322.878	465.25
323.108	480.25
323.337	495.25
323.566	500.25
323.795	515.25
324.024	561.25
324.253	658.25
324.482	881.25
324.71	1363.25
324.939	1935.25
325.168	1703.25
325.397	891.25
325.626	635.25
325.855	546.25
326.084	541.25
326.313	513.25
326.542	514.25
326.77	544.25
326.999	631.25
327.228	816.25
327.457	1191.25
327.686	1486.25
327.914	994.25
328.143	687.25
328.372	634.25
328.6	587.25
328.829	555.25
329.058	602.25
329.287	598.25
329.515	584.25
329.744	545.25
329.972	551.25
330.201	569.25
330.43	585.25
330.658	573.25
330.887	587.25
331.115	587.25
331.344	544.25
331.572	513.25
331.801	494.25
332.03	527.25
332.258	507.25
332.486	495.25
332.715	519.25
332.943	517.25
333.172	513.25
333.4	513.25
333.629	517.25
333.857	540.25
334.085	535.25
334.314	549.25
334.542	566.25
334.771	595.25
334.999	530.25
335.227	526.25
335.455	513.25
335.684	528.25
335.912	512.25
336.14	496.25
336.369	499.25
336.597	485.25
336.825	521.25
337.053	489.25
337.281	501.25
337.51	500.25
337.738	484.25
337.966	488.25
338.194	502.25
338.422	515.25
338.65	504.25
338.878	513.25
339.106	494.25
339.334	463.25
339.562	470.25
339.79	493.25
340.018	530.25
340.246	479.25
340.474	487.25
340.702	480.25
340.93	484.25
341.158	475.25
341.386	500.25
341.614	472.25
341.842	489.25
342.07	457.25
342.298	462.25
342.526	454.25
342.754	460.25
342.981	458.25
343.209	482.25
343.437	485.25
343.665	505.25
343.893	505.25
344.12	524.25
344.348	480.25
344.576	499.25
344.804	509.25
345.031	495.25
345.259	512.25
345.487	490.25
345.714	480.25
345.942	488.25
346.17	452.25
346.397	453.25
346.625	471.25
346.853	459.25
347.08	469.25
347.308	451.25
347.535	488.25
347.763	468.25
347.99	501.25
348.218	474.25
348.445	463.25
348.673	487.25
348.9	489.25
349.128	458.25
349.355	449.25
349.583	456.25
349.81	455.25
350.037	450.25
350.265	442.25
350.492	466.25
350.72	454.25
350.947	451.25
351.174	466.25
351.402	476.25
351.629	461.25
351.856	449.25
352.083	477.25
352.311	470.25
352.538	453.25
352.765	457.25
352.992	475.25
353.22	471.25
353.447	454.25
353.674	457.25
353.901	454.25
354.128	453.25
354.355	463.25
354.583	443.25
354.81	448.25
355.037	450.25
355.264	440.25
355.491	445.25
355.718	429.25
355.945	452.25
356.172	440.25
356.399	441.25
356.626	448.25
356.853	442.25
357.08	437.25
357.307	437.25
357.534	439.25
357.761	449.25
357.988	450.25
358.215	432.25
358.441	451.25
358.668	435.25
358.895	453.25
359.122	458.25
359.349	466.25
359.576	462.25
359.802	469.25
360.029	501.25
360.256	527.25
360.483	487.25
360.709	487.25
360.936	464.25
361.163	471.25
361.39	474.25
361.616	488.25
361.843	469.25
362.07	469.25
362.296	476.25
362.523	466.25
362.749	463.25
362.976	453.25
363.203	465.25
363.429	455.25
363.656	480.25
363.882	458.25
364.109	449.25
364.335	446.25
364.562	461.25
364.788	467.25
365.015	473.25
365.241	450.25
365.468	457.25
365.694	449.25
365.92	485.25
366.147	457.25
366.373	460.25
366.599	456.25
366.826	461.25
367.052	439.25
367.278	445.25
367.505	460.25
367.731	477.25
367.957	445.25
368.184	464.25
368.41	468.25
368.636	483.25
368.862	458.25
369.089	452.25
369.315	478.25
369.541	448.25
369.767	453.25
369.993	453.25
370.219	480.25
370.445	464.25
370.672	459.25
370.898	460.25
371.124	452.25
371.35	466.25
371.576	468.25
371.802	480.25
372.028	449.25
372.254	480.25
372.48	470.25
372.706	472.25
372.932	465.25
373.158	456.25
373.384	480.25
373.61	478.25
373.835	477.25
374.061	473.25
374.287	458.25
374.513	465.25
374.739	493.25
374.965	522.25
375.191	499.25
375.416	492.25
375.642	498.25
375.868	464.25
376.094	471.25
376.319	467.25
376.545	469.25
376.771	488.25
376.997	472.25
377.222	493.25
377.448	477.25
377.674	469.25
377.899	465.25
378.125	460.25
378.35	457.25
378.576	470.25
378.802	460.25
379.027	442.25
379.253	477.25
379.478	491.25
379.704	459.25
379.929	476.25
380.155	476.25
380.38	463.25
380.606	466.25
380.831	492.25
381.057	476.25
381.282	479.25
381.507	471.25
381.733	478.25
381.958	475.25
382.184	484.25
382.409	468.25
382.634	477.25
382.86	485.25
383.085	492.25
383.31	491.25
383.535	469.25
383.761	518.25
383.986	519.25
384.211	507.25
384.436	512.25
384.662	528.25
384.887	513.25
385.112	534.25
385.337	517.25
385.562	525.25
385.787	507.25
386.013	542.25
386.238	558.25
386.463	526.25
386.688	550.25
386.913	513.25
387.138	501.25
387.363	539.25
387.588	509.25
387.813	530.25
388.038	480.25
388.263	515.25
388.488	544.25
388.713	527.25
388.938	522.25
389.163	541.25
389.387	505.25
389.612	521.25
389.837	535.25
390.062	512.25
390.287	529.25
390.512	516.25
390.736	532.25
390.961	517.25
391.186	517.25
391.411	527.25
391.636	550.25
391.86	527.25
392.085	550.25
392.31	569.25
392.534	538.25
392.759	536.25
392.984	542.25
393.208	525.25
393.433	534.25
393.658	531.25
393.882	536.25
394.107	527.25
394.331	541.25
394.556	528.25
394.78	541.25
395.005	551.25
395.229	543.25
395.454	554.25
395.678	556.25
395.903	544.25
396.127	580.25
396.352	575.25
396.576	559.25
396.801	540.25
397.025	555.25
397.249	536.25
397.474	578.25
397.698	561.25
397.922	589.25
398.147	605.25
398.371	602.25
398.595	575.25
398.82	585.25
399.044	632.25
399.268	661.25
399.492	699.25
399.717	753.25
399.941	779.25
400.165	822.25
400.389	780.25
400.613	714.25
400.837	648.25
401.062	633.25
401.286	624.25
401.51	619.25
401.734	615.25
401.958	614.25
402.182	616.25
402.406	626.25
402.63	634.25
402.854	632.25
403.078	647.25
403.302	639.25
403.526	644.25
403.75	625.25
403.974	659.25
404.198	645.25
404.422	668.25
404.645	651.25
404.869	641.25
405.093	651.25
405.317	719.25
405.541	761.25
405.765	727.25
405.988	701.25
406.212	671.25
406.436	679.25
406.66	718.25
406.883	678.25
407.107	741.25
407.331	758.25
407.555	858.25
407.778	823.25
408.002	742.25
408.226	716.25
408.449	689.25
408.673	716.25
408.896	741.25
409.12	764.25
409.344	751.25
409.567	682.25
409.791	659.25
410.014	620.25
410.238	649.25
410.461	647.25
410.685	673.25
410.908	653.25
411.132	684.25
411.355	737.25
411.578	678.25
411.802	649.25
412.025	645.25
412.249	619.25
412.472	671.25
412.695	707.25
412.919	693.25
413.142	645.25
413.365	630.25
413.589	629.25
413.812	640.25
414.035	622.25
414.258	623.25
414.482	627.25
414.705	601.25
414.928	613.25
415.151	617.25
415.374	603.25
415.597	615.25
415.821	595.25
416.044	604.25
416.267	590.25
416.49	592.25
416.713	603.25
416.936	589.25
417.159	602.25
417.382	639.25
417.605	601.25
417.828	627.25
418.051	655.25
418.274	649.25
418.497	616.25
418.72	627.25
418.943	603.25
419.166	636.25
419.389	685.25
419.611	656.25
419.834	669.25
420.057	669.25
420.28	624.25
420.503	659.25
420.726	618.25
420.948	639.25
421.171	675.25
421.394	718.25
421.617	652.25
421.839	619.25
422.062	639.25
422.285	659.25
422.507	742.25
422.73	803.25
422.953	749.25
423.175	663.25
423.398	656.25
423.621	675.25
423.843	695.25
424.066	703.25
424.288	710.25
424.511	717.25
424.733	751.25
424.956	843.25
425.178	800.25
425.401	795.25
425.623	807.25
425.846	719.25
426.068	707.25
426.291	668.25
426.513	638.25
426.735	670.25
426.958	722.25
427.18	823.25
427.402	941.25
427.625	1000.25
427.847	850.25
428.069	771.25
428.292	691.25
428.514	644.25
428.736	635.25
428.958	641.25
429.181	643.25
429.403	607.25
429.625	624.25
429.847	675.25
430.069	727.25
430.292	727.25
430.514	617.25
430.736	608.25
430.958	616.25
431.18	589.25
431.402	570.25
431.624	575.25
431.846	585.25
432.068	558.25
432.29	570.25
432.512	588.25
432.734	613.25
432.956	585.25
433.178	596.25
433.4	629.25
433.622	601.25
433.844	592.25
434.066	576.25
434.287	579.25
434.509	589.25
434.731	601.25
434.953	640.25
435.175	637.25
435.397	643.25
435.618	659.25
435.84	707.25
436.062	811.25
436.284	875.25
436.505	729.25
436.727	652.25
436.949	628.25
437.17	629.25
437.392	616.25
437.614	601.25
437.835	681.25
438.057	755.25
438.278	846.25
438.5	859.25
438.721	929.25
438.943	928.25
439.165	756.25
439.386	681.25
439.608	675.25
439.829	659.25
440.05	679.25
440.272	725.25
440.493	695.25
440.715	630.25
440.936	633.25
441.158	617.25
441.379	599.25
441.6	635.25
441.822	648.25
442.043	691.25
442.264	771.25
442.486	824.25
442.707	701.25
442.928	671.25
443.149	710.25
443.371	695.25
443.592	741.25
443.813	829.25
444.034	905.25
444.255	797.25
444.476	728.25
444.698	720.25
444.919	702.25
445.14	798.25
445.361	740.25
445.582	725.25
445.803	771.25
446.024	848.25
446.245	873.25
446.466	791.25
446.687	702.25
446.908	661.25
447.129	632.25
447.35	613.25
447.571	588.25
447.792	615.25
448.013	605.25
448.234	607.25
448.455	660.25
448.675	783.25
448.896	918.25
449.117	811.25
449.338	745.25
449.559	853.25
449.779	963.25
450	759.25
450.221	657.25
450.442	607.25
450.662	596.25
450.883	602.25
451.104	619.25
451.324	604.25
451.545	572.25
451.766	546.25
451.986	551.25
452.207	540.25
452.428	538.25
452.648	555.25
452.869	552.25
453.089	540.25
453.31	569.25
453.53	560.25
453.751	541.25
453.971	558.25
454.192	573.25
454.412	538.25
454.633	515.25
454.853	546.25
455.073	528.25
455.294	574.25
455.514	616.25
455.734	628.25
455.955	541.25
456.175	522.25
456.395	525.25
456.616	501.25
456.836	495.25
457.056	523.25
457.276	490.25
457.497	509.25
457.717	512.25
457.937	539.25
458.157	514.25
458.377	499.25
458.598	541.25
458.818	639.25
459.038	697.25
459.258	704.25
459.478	656.25
459.698	590.25
459.918	593.25
460.138	597.25
460.358	613.25
460.578	613.25
460.798	630.25
461.018	606.25
461.238	615.25
461.458	595.25
461.678	595.25
461.898	593.25
462.118	599.25
462.338	624.25
462.558	654.25
462.777	661.25
462.997	677.25
463.217	717.25
463.437	721.25
463.657	688.25
463.876	661.25
464.096	673.25
464.316	684.25
464.536	687.25
464.755	658.25
464.975	656.25
465.195	643.25
465.414	729.25
465.634	671.25
465.854	621.25
466.073	578.25
466.293	578.25
466.512	588.25
466.732	578.25
466.951	554.25
467.171	556.25
467.391	577.25
467.61	583.25
467.829	575.25
468.049	579.25
468.268	571.25
468.488	555.25
468.707	563.25
468.927	542.25
469.146	553.25
469.365	555.25
469.585	553.25
469.804	549.25
470.023	549.25
470.243	573.25
470.462	570.25
470.681	607.25
470.901	585.25
471.12	600.25
471.339	578.25
471.558	575.25
471.777	592.25
471.997	571.25
472.216	560.25
472.435	605.25
472.654	591.25
472.873	579.25
473.092	565.25
473.311	574.25
473.53	563.25
473.749	592.25
473.968	639.25
474.187	705.25
474.406	727.25
474.625	635.25
474.844	593.25
475.063	585.25
475.282	580.25
475.501	580.25
475.72	599.25
475.939	583.25
476.158	598.25
476.377	585.25
476.596	599.25
476.814	594.25
477.033	615.25
477.252	608.25
477.471	605.25
477.69	624.25
477.908	646.25
478.127	634.25
478.346	623.25
478.564	631.25
478.783	658.25
479.002	679.25
479.22	678.25
479.439	663.25
479.658	698.25
479.876	685.25
480.095	687.25
480.313	742.25
480.532	732.25
480.751	699.25
480.969	695.25
481.188	760.25
481.406	745.25
481.624	716.25
481.843	659.25
482.061	675.25
482.28	651.25
482.498	654.25
482.717	650.25
482.935	672.25
483.153	652.25
483.372	693.25
483.59	677.25
483.808	685.25
484.027	664.25
484.245	684.25
484.463	671.25
484.681	701.25
484.9	692.25
485.118	685.25
485.336	685.25
485.554	674.25
485.772	731.25
485.99	677.25
486.209	679.25
486.427	687.25
486.645	701.25
486.863	726.25
487.081	699.25
487.299	699.25
487.517	692.25
487.735	689.25
487.953	715.25
488.171	736.25
488.389	727.25
488.607	709.25
488.825	725.25
489.043	719.25
489.261	718.25
489.479	747.25
489.696	725.25
489.914	760.25
490.132	742.25
490.35	782.25
490.568	771.25
490.786	748.25
491.003	756.25
491.221	787.25
491.439	796.25
491.657	808.25
491.874	830.25
492.092	832.25
492.31	815.25
492.527	810.25
492.745	829.25
492.963	823.25
493.18	848.25
493.398	847.25
493.615	875.25
493.833	829.25
494.05	832.25
494.268	862.25
494.485	852.25
494.703	862.25
494.92	849.25
495.138	829.25
495.355	830.25
495.573	874.25
495.79	848.25
496.008	858.25
496.225	854.25
496.442	867.25
496.66	888.25
496.877	877.25
497.094	866.25
497.312	887.25
497.529	921.25
497.746	900.25
497.963	919.25
498.181	927.25
498.398	929.25
498.615	957.25
498.832	1014.25
499.049	1044.25
499.267	1081.25
499.484	1128.25
499.701	1130.25
499.918	1194.25
500.135	1295.25
500.352	1379.25
500.569	1385.25
500.786	1372.25
501.003	1357.25
501.22	1281.25
501.437	1215.25
501.654	1175.25
501.871	1157.25
502.088	1079.25
502.305	1040.25
502.522	1005.25
502.739	1012.25
502.956	943.25
503.172	917.25
503.389	893.25
503.606	907.25
503.823	884.25
504.04	886.25
504.256	881.25
504.473	861.25
504.69	878.25
504.907	876.25
505.123	862.25
505.34	845.25
505.557	827.25
505.773	805.25
505.99	827.25
506.207	815.25
506.423	798.25
506.64	810.25
506.856	777.25
507.073	774.25
507.289	777.25
507.506	774.25
507.722	802.25
507.939	779.25
508.155	761.25
508.372	766.25
508.588	718.25
508.805	777.25
509.021	745.25
509.238	741.25
509.454	755.25
509.67	776.25
509.887	743.25
510.103	732.25
510.319	767.25
510.536	835.25
510.752	1157.25
510.968	1001.25
511.184	725.25
511.401	717.25
511.617	696.25
511.833	726.25
512.049	693.25
512.265	705.25
512.481	711.25
512.698	724.25
512.914	680.25
513.13	696.25
513.346	705.25
513.562	693.25
513.778	713.25
513.994	689.25
514.21	730.25
514.426	712.25
514.642	773.25
514.858	743.25
515.074	813.25
515.29	887.25
515.506	1186.25
515.721	1041.25
515.937	782.25
516.153	782.25
516.369	753.25
516.585	734.25
516.801	742.25
517.016	737.25
517.232	773.25
517.448	764.25
517.664	783.25
517.879	776.25
518.095	768.25
518.311	729.25
518.527	769.25
518.742	742.25
518.958	725.25
519.173	702.25
519.389	723.25
519.605	697.25
519.82	713.25
520.036	703.25
520.251	705.25
520.467	745.25
520.682	754.25
520.898	737.25
521.113	769.25
521.329	765.25
521.544	840.25
521.76	1002.25
521.975	1427.25
522.19	1414.25
522.406	904.25
522.621	731.25
522.836	703.25
523.052	671.25
523.267	651.25
523.482	667.25
523.698	631.25
523.913	652.25
524.128	660.25
524.343	621.25
524.559	618.25
524.774	660.25
524.989	623.25
525.204	622.25
525.419	593.25
525.634	587.25
525.849	588.25
526.064	583.25
526.28	607.25
526.495	603.25
526.71	608.25
526.925	585.25
527.14	603.25
527.355	614.25
527.57	582.25
527.785	584.25
527.999	575.25
528.214	569.25
528.429	575.25
528.644	591.25
528.859	584.25
529.074	590.25
529.289	587.25
529.503	651.25
529.718	666.25
529.933	619.25
530.148	593.25
530.363	582.25
530.577	579.25
530.792	566.25
531.007	594.25
531.221	600.25
531.436	577.25
531.651	582.25
531.865	553.25
532.08	574.25
532.295	595.25
532.509	577.25
532.724	556.25
532.938	558.25
533.153	577.25
533.367	579.25
533.582	568.25
533.796	555.25
534.011	585.25
534.225	588.25
534.44	556.25
534.654	584.25
534.868	551.25
535.083	559.25
535.297	560.25
535.511	570.25
535.726	538.25
535.94	565.25
536.154	543.25
536.369	551.25
536.583	537.25
536.797	559.25
537.011	554.25
537.225	555.25
537.44	559.25
537.654	549.25
537.868	510.25
538.082	531.25
538.296	547.25
538.51	547.25
538.724	558.25
538.938	532.25
539.153	551.25
539.367	553.25
539.581	541.25
539.795	549.25
540.009	530.25
540.222	551.25
540.436	551.25
540.65	540.25
540.864	563.25
541.078	541.25
541.292	532.25
541.506	523.25
541.72	536.25
541.934	530.25
542.147	540.25
542.361	545.25
542.575	550.25
542.789	521.25
543.002	529.25
543.216	566.25
543.43	551.25
543.644	532.25
543.857	539.25
544.071	542.25
544.285	534.25
544.498	556.25
544.712	537.25
544.925	530.25
545.139	547.25
545.352	547.25
545.566	533.25
545.779	549.25
545.993	520.25
546.206	537.25
546.42	544.25
546.633	525.25
546.847	510.25
547.06	524.25
547.274	549.25
547.487	541.25
547.7	542.25
547.914	539.25
548.127	521.25
548.34	559.25
548.554	525.25
548.767	536.25
548.98	537.25
549.193	526.25
549.407	535.25
549.62	535.25
549.833	541.25
550.046	528.25
550.259	521.25
550.473	513.25
550.686	521.25
550.899	505.25
551.112	538.25
551.325	535.25
551.538	526.25
551.751	536.25
551.964	531.25
552.177	519.25
552.39	505.25
552.603	538.25
552.816	536.25
553.029	517.25
553.242	541.25
553.455	573.25
553.667	558.25
553.88	571.25
554.093	542.25
554.306	553.25
554.519	536.25
554.732	521.25
554.944	535.25
555.157	506.25
555.37	501.25
555.583	508.25
555.795	483.25
556.008	492.25
556.221	488.25
556.433	484.25
556.646	497.25
556.859	467.25
557.071	460.25
557.284	475.25
557.496	489.25
557.709	475.25
557.921	443.25
558.134	478.25
558.346	464.25
558.559	476.25
558.771	462.25
558.984	461.25
559.196	476.25
559.409	451.25
559.621	458.25
559.833	440.25
560.046	482.25
560.258	461.25
560.47	462.25
560.683	483.25
560.895	453.25
561.107	455.25
561.32	456.25
561.532	462.25
561.744	468.25
561.956	463.25
562.168	475.25
562.381	464.25
562.593	474.25
562.805	453.25
563.017	476.25
563.229	475.25
563.441	466.25
563.653	473.25
563.865	477.25
564.077	449.25
564.289	470.25
564.501	503.25
564.713	495.25
564.925	479.25
565.137	517.25
565.349	517.25
565.561	513.25
565.773	515.25
565.985	527.25
566.197	535.25
566.408	589.25
566.62	583.25
566.832	590.25
567.044	598.25
567.255	609.25
567.467	632.25
567.679	615.25
567.891	649.25
568.102	650.25
568.314	621.25
568.526	598.25
568.737	594.25
568.949	582.25
569.161	548.25
569.372	488.25
569.584	484.25
569.795	523.25
570.007	478.25
570.218	504.25
570.43	500.25
570.641	453.25
570.853	475.25
571.064	456.25
571.276	477.25
571.487	462.25
571.698	443.25
571.91	438.25
572.121	457.25
572.333	431.25
572.544	418.25
572.755	421.25
572.966	443.25
573.178	432.25
573.389	389.25
573.6	400.25
573.811	408.25
574.023	401.25
574.234	394.25
574.445	405.25
574.656	407.25
574.867	389.25
575.078	393.25
575.289	408.25
575.501	398.25
575.712	392.25
575.923	408.25
576.134	398.25
576.345	368.25
576.556	379.25
576.767	401.25
576.978	400.25
577.188	402.25
577.399	385.25
577.61	393.25
577.821	384.25
578.032	372.25
578.243	388.25
578.454	547.25
578.665	462.25
578.875	397.25
579.086	385.25
579.297	380.25
579.508	362.25
579.718	364.25
579.929	374.25
580.14	379.25
580.35	361.25
580.561	378.25
580.772	371.25
580.982	355.25
581.193	352.25
581.403	374.25
581.614	344.25
581.825	369.25
582.035	334.25
582.246	355.25
582.456	356.25
582.667	358.25
582.877	353.25
583.087	358.25
583.298	351.25
583.508	363.25
583.719	340.25
583.929	345.25
584.139	357.25
584.35	360.25
584.56	359.25
584.77	335.25
584.981	355.25
585.191	350.25
585.401	361.25
585.611	355.25
585.821	362.25
586.032	351.25
586.242	363.25
586.452	347.25
586.662	331.25
586.872	350.25
587.082	339.25
587.292	352.25
587.502	356.25
587.713	331.25
587.923	351.25
588.133	336.25
588.343	323.25
588.553	344.25
588.762	355.25
588.972	351.25
589.182	336.25
589.392	319.25
589.602	343.25
589.812	349.25
590.022	345.25
590.232	340.25
590.441	339.25
590.651	335.25
590.861	345.25
591.071	352.25
591.281	354.25
591.49	362.25
591.7	350.25
591.91	366.25
592.119	364.25
592.329	342.25
592.539	371.25
592.748	391.25
592.958	380.25
593.167	391.25
593.377	385.25
593.587	364.25
593.796	382.25
594.006	395.25
594.215	391.25
594.424	384.25
594.634	374.25
594.843	380.25
595.053	373.25
595.262	378.25
595.472	375.25
595.681	348.25
595.89	348.25
596.1	365.25
596.309	315.25
596.518	321.25
596.727	330.25
596.937	350.25
597.146	334.25
597.355	343.25
597.564	329.25
597.774	312.25
597.983	321.25
598.192	318.25
598.401	332.25
598.61	317.25
598.819	309.25
599.028	314.25
599.237	317.25
599.446	328.25
599.655	312.25
599.864	308.25
600.073	301.25
600.282	320.25
600.491	311.25
600.7	314.25
600.909	317.25
601.118	303.25
601.327	303.25
601.536	326.25
601.745	314.25
601.953	299.25
602.162	289.25
602.371	291.25
602.58	295.25
602.789	310.25
602.997	309.25
603.206	302.25
603.415	295.25
603.623	288.25
603.832	301.25
604.041	303.25
604.249	295.25
604.458	284.25
604.666	269.25
604.875	279.25
605.084	286.25
605.292	275.25
605.501	293.25
605.709	293.25
605.918	275.25
606.126	309.25
606.334	302.25
606.543	307.25
606.751	279.25
606.96	283.25
607.168	282.25
607.376	280.25
607.585	297.25
607.793	305.25
608.001	276.25
608.21	294.25
608.418	284.25
608.626	288.25
608.834	309.25
609.043	289.25
609.251	289.25
609.459	287.25
609.667	299.25
609.875	284.25
610.083	295.25
610.291	279.25
610.499	296.25
610.707	289.25
610.916	280.25
611.124	287.25
611.332	294.25
611.54	305.25
611.748	301.25
611.955	282.25
612.163	285.25
612.371	309.25
612.579	287.25
612.787	289.25
612.995	283.25
613.203	283.25
613.411	280.25
613.618	281.25
613.826	282.25
614.034	277.25
614.242	288.25
614.449	293.25
614.657	267.25
614.865	287.25
615.072	298.25
615.28	283.25
615.488	293.25
615.695	271.25
615.903	273.25
616.111	267.25
616.318	277.25
616.526	286.25
616.733	285.25
616.941	287.25
617.148	272.25
617.356	257.25
617.563	259.25
617.771	268.25
617.978	275.25
618.185	275.25
618.393	288.25
618.6	285.25
618.807	268.25
619.015	278.25
619.222	263.25
619.429	272.25
619.637	257.25
619.844	275.25
620.051	283.25
620.258	259.25
620.466	264.25
620.673	263.25
620.88	274.25
621.087	257.25
621.294	265.25
621.501	256.25
621.708	257.25
621.915	249.25
622.122	265.25
622.329	260.25
622.536	284.25
622.743	268.25
622.95	247.25
623.157	255.25
623.364	254.25
623.571	260.25
623.778	260.25
623.985	265.25
624.192	275.25
624.399	259.25
624.606	235.25
624.812	249.25
625.019	234.25
625.226	258.25
625.433	253.25
625.639	231.25
625.846	231.25
626.053	251.25
626.259	239.25
626.466	220.25
626.673	238.25
626.879	243.25
627.086	245.25
627.293	241.25
627.499	222.25
627.706	223.25
627.912	243.25
628.119	240.25
628.325	253.25
628.532	231.25
628.738	214.25
628.945	232.25
629.151	227.25
629.357	220.25
629.564	233.25
629.77	246.25
629.976	240.25
630.183	225.25
630.389	227.25
630.595	219.25
630.802	217.25
631.008	220.25
631.214	239.25
631.42	222.25
631.627	219.25
631.833	217.25
632.039	212.25
632.245	215.25
632.451	204.25
632.657	214.25
632.863	223.25
633.069	217.25
633.275	219.25
633.481	204.25
633.688	229.25
633.893	211.25
634.099	228.25
634.305	219.25
634.511	215.25
634.717	210.25
634.923	199.25
635.129	209.25
635.335	207.25
635.541	201.25
635.747	209.25
635.952	195.25
636.158	208.25
636.364	221.25
636.57	213.25
636.775	224.25
636.981	199.25
637.187	199.25
637.392	217.25
637.598	209.25
637.804	202.25
638.009	217.25
638.215	220.25
638.421	208.25
638.626	213.25
638.832	184.25
639.037	203.25
639.243	187.25
639.448	188.25
639.654	206.25
639.859	179.25
640.065	192.25
640.27	201.25
640.475	194.25
640.681	204.25
640.886	191.25
641.091	208.25
641.297	213.25
641.502	209.25
641.707	196.25
641.913	203.25
642.118	184.25
642.323	191.25
642.528	207.25
642.733	197.25
642.939	190.25
643.144	200.25
643.349	193.25
643.554	204.25
643.759	206.25
643.964	174.25
644.169	184.25
644.374	187.25
644.579	177.25
644.784	190.25
644.989	182.25
645.194	191.25
645.399	200.25
645.604	187.25
645.809	188.25
646.014	206.25
646.219	184.25
646.423	209.25
646.628	202.25
646.833	198.25
647.038	208.25
647.243	208.25
647.447	189.25
647.652	187.25
647.857	197.25
648.062	203.25
648.266	189.25
648.471	203.25
648.676	201.25
648.88	179.25
649.085	191.25
649.289	181.25
649.494	179.25
649.698	204.25
649.903	195.25
650.107	182.25
650.312	178.25
650.516	165.25
650.721	188.25
650.925	172.25
651.13	174.25
651.334	168.25
651.539	176.25
651.743	175.25
651.947	169.25
652.152	171.25
652.356	169.25
652.56	173.25
652.764	155.25
652.969	158.25
653.173	159.25
653.377	141.25
653.581	159.25
653.785	140.25
653.99	165.25
654.194	164.25
654.398	151.25
654.602	159.25
654.806	159.25
655.01	161.25
655.214	157.25
655.418	151.25
655.622	133.25
655.826	138.25
656.03	152.25
656.234	156.25
656.438	149.25
656.642	155.25
656.846	154.25
657.049	139.25
657.253	150.25
657.457	151.25
657.661	136.25
657.865	113.25
658.068	135.25
658.272	112.25
658.476	123.25
658.68	115.25
658.883	98.25
659.087	109.25
659.291	115.25
659.494	109.25
659.698	102.25
659.901	104.25
660.105	102.25
660.309	102.25
660.512	101.25
660.716	105.25
660.919	92.25
661.123	94.25
661.326	93.25
661.53	90.25
661.733	103.25
661.936	101.25
662.14	99.25
662.343	89.25
662.546	78.25
662.75	81.25
662.953	90.25
663.156	88.25
663.36	97.25
663.563	81.25
663.766	89.25
663.969	91.25
664.173	89.25
664.376	88.25
664.579	88.25
664.782	96.25
664.985	96.25
665.188	89.25
665.391	79.25
665.594	79.25
665.797	91.25
666	91.25
666.203	78.25
666.406	83.25
666.609	87.25
666.812	100.25
667.015	75.25
667.218	92.25
667.421	76.25
667.624	80.25
667.827	84.25
668.03	74.25
668.232	90.25
668.435	92.25
668.638	80.25
668.841	75.25
669.043	79.25
669.246	110.25
669.449	73.25
669.651	85.25
669.854	82.25
670.057	73.25
670.259	73.25
670.462	93.25
670.665	73.25
670.867	92.25
671.07	88.25
671.272	85.25
671.475	78.25
671.677	95.25
671.88	82.25
672.082	81.25
672.284	93.25
672.487	86.25
672.689	96.25
672.892	97.25
