Data from 1974.PennyLincolnUp.Lamp.En5.5.200Scan.071719.P1.Changed Mount._HRD10591_15-53-40-857.txt Node
Date: Thu Jul 18 15:53:40 EDT 2019
User: cochatt
Spectrometer: HR+D1059
Trigger mode: 1
Integration Time (sec): 1.000000E-1
Scans to average: 1
Electric dark correction enabled: true
Nonlinearity correction enabled: false
Boxcar width: 0
XAxis mode: Wavelengths
Number of Pixels in Spectrum: 2048
>>>>>Begin Spectral Data<<<<<
223.165	-8.94
223.4	-8.94
223.635	-8.94
223.869	-21.94
224.104	-14.94
224.338	-19.94
224.573	-21.94
224.808	-4.94
225.042	-17.94
225.277	7.06
225.511	6.06
225.746	6.06
225.98	18.06
226.215	-7.94
226.449	1.06
226.683	26.06
226.918	18.06
227.152	36.06
227.387	37.06
227.621	36.06
227.856	53.06
228.09	48.06
228.324	39.06
228.559	67.06
228.793	66.06
229.027	112.06
229.262	120.06
229.496	123.06
229.73	128.06
229.964	163.06
230.199	141.06
230.433	113.06
230.667	117.06
230.901	108.06
231.136	108.06
231.37	127.06
231.604	113.06
231.838	110.06
232.072	112.06
232.306	124.06
232.541	129.06
232.775	123.06
233.009	123.06
233.243	123.06
233.477	125.06
233.711	133.06
233.945	125.06
234.179	123.06
234.413	136.06
234.647	119.06
234.881	127.06
235.115	138.06
235.349	135.06
235.583	135.06
235.817	120.06
236.051	145.06
236.285	137.06
236.519	140.06
236.753	126.06
236.987	139.06
237.221	189.06
237.455	248.06
237.689	192.06
237.922	150.06
238.156	147.06
238.39	138.06
238.624	131.06
238.858	152.06
239.091	140.06
239.325	139.06
239.559	154.06
239.793	127.06
240.027	143.06
240.26	143.06
240.494	170.06
240.728	168.06
240.961	160.06
241.195	158.06
241.429	146.06
241.662	148.06
241.896	135.06
242.13	143.06
242.363	158.06
242.597	142.06
242.83	147.06
243.064	152.06
243.298	153.06
243.531	166.06
243.765	162.06
243.998	159.06
244.232	151.06
244.465	158.06
244.699	160.06
244.932	149.06
245.166	150.06
245.399	159.06
245.633	157.06
245.866	160.06
246.099	163.06
246.333	156.06
246.566	149.06
246.8	179.06
247.033	165.06
247.266	171.06
247.5	177.06
247.733	197.06
247.966	168.06
248.2	195.06
248.433	199.06
248.666	195.06
248.899	192.06
249.133	206.06
249.366	215.06
249.599	207.06
249.832	183.06
250.066	192.06
250.299	201.06
250.532	201.06
250.765	223.06
250.998	240.06
251.231	243.06
251.465	230.06
251.698	226.06
251.931	219.06
252.164	223.06
252.397	221.06
252.63	209.06
252.863	222.06
253.096	228.06
253.329	250.06
253.562	236.06
253.795	236.06
254.028	227.06
254.261	239.06
254.494	222.06
254.727	267.06
254.96	285.06
255.193	298.06
255.426	271.06
255.659	256.06
255.892	247.06
256.124	245.06
256.357	270.06
256.59	239.06
256.823	223.06
257.056	229.06
257.289	224.06
257.521	229.06
257.754	220.06
257.987	243.06
258.22	242.06
258.452	227.06
258.685	227.06
258.918	223.06
259.151	239.06
259.383	261.06
259.616	253.06
259.849	250.06
260.081	249.06
260.314	263.06
260.547	283.06
260.779	253.06
261.012	272.06
261.244	253.06
261.477	236.06
261.71	250.06
261.942	255.06
262.175	271.06
262.407	274.06
262.64	226.06
262.872	236.06
263.105	247.06
263.337	246.06
263.57	233.06
263.802	239.06
264.035	244.06
264.267	226.06
264.499	234.06
264.732	236.06
264.964	237.06
265.197	264.06
265.429	239.06
265.661	256.06
265.894	239.06
266.126	239.06
266.358	237.06
266.591	241.06
266.823	250.06
267.055	261.06
267.287	255.06
267.52	256.06
267.752	261.06
267.984	243.06
268.216	249.06
268.448	259.06
268.681	263.06
268.913	279.06
269.145	301.06
269.377	280.06
269.609	296.06
269.841	284.06
270.073	291.06
270.306	305.06
270.538	314.06
270.77	316.06
271.002	322.06
271.234	321.06
271.466	335.06
271.698	342.06
271.93	341.06
272.162	335.06
272.394	355.06
272.626	319.06
272.858	307.06
273.09	304.06
273.322	293.06
273.553	291.06
273.785	288.06
274.017	289.06
274.249	310.06
274.481	282.06
274.713	300.06
274.945	284.06
275.176	293.06
275.408	287.06
275.64	311.06
275.872	287.06
276.104	291.06
276.335	288.06
276.567	291.06
276.799	316.06
277.031	329.06
277.262	338.06
277.494	353.06
277.726	343.06
277.957	332.06
278.189	291.06
278.421	291.06
278.652	302.06
278.884	296.06
279.115	285.06
279.347	307.06
279.579	305.06
279.81	297.06
280.042	301.06
280.273	315.06
280.505	283.06
280.736	302.06
280.968	281.06
281.199	289.06
281.431	301.06
281.662	289.06
281.894	288.06
282.125	307.06
282.356	332.06
282.588	329.06
282.819	331.06
283.051	307.06
283.282	310.06
283.513	316.06
283.745	317.06
283.976	311.06
284.207	324.06
284.439	318.06
284.67	322.06
284.901	304.06
285.132	294.06
285.364	328.06
285.595	317.06
285.826	321.06
286.057	304.06
286.288	305.06
286.52	316.06
286.751	331.06
286.982	321.06
287.213	337.06
287.444	336.06
287.675	326.06
287.906	328.06
288.138	347.06
288.369	346.06
288.6	336.06
288.831	319.06
289.062	332.06
289.293	341.06
289.524	331.06
289.755	313.06
289.986	330.06
290.217	327.06
290.448	327.06
290.679	343.06
290.91	337.06
291.141	319.06
291.371	326.06
291.602	336.06
291.833	338.06
292.064	341.06
292.295	315.06
292.526	336.06
292.757	335.06
292.987	327.06
293.218	337.06
293.449	328.06
293.68	326.06
293.91	332.06
294.141	318.06
294.372	342.06
294.603	345.06
294.833	321.06
295.064	329.06
295.295	336.06
295.525	342.06
295.756	333.06
295.987	338.06
296.217	363.06
296.448	358.06
296.679	356.06
296.909	346.06
297.14	341.06
297.37	356.06
297.601	334.06
297.831	347.06
298.062	353.06
298.292	366.06
298.523	356.06
298.753	353.06
298.984	347.06
299.214	352.06
299.445	360.06
299.675	329.06
299.905	350.06
300.136	347.06
300.366	366.06
300.597	364.06
300.827	369.06
301.057	349.06
301.288	360.06
301.518	365.06
301.748	380.06
301.979	384.06
302.209	356.06
302.439	357.06
302.669	375.06
302.9	355.06
303.13	361.06
303.36	375.06
303.59	377.06
303.82	379.06
304.051	368.06
304.281	393.06
304.511	373.06
304.741	372.06
304.971	352.06
305.201	360.06
305.431	372.06
305.661	366.06
305.891	367.06
306.121	389.06
306.352	383.06
306.582	386.06
306.812	383.06
307.042	379.06
307.272	385.06
307.502	364.06
307.731	383.06
307.961	365.06
308.191	379.06
308.421	391.06
308.651	368.06
308.881	361.06
309.111	383.06
309.341	379.06
309.571	399.06
309.8	405.06
310.03	403.06
310.26	411.06
310.49	423.06
310.72	429.06
310.949	417.06
311.179	418.06
311.409	413.06
311.639	400.06
311.868	420.06
312.098	415.06
312.328	424.06
312.557	441.06
312.787	442.06
313.017	428.06
313.246	430.06
313.476	412.06
313.706	437.06
313.935	413.06
314.165	432.06
314.394	457.06
314.624	451.06
314.853	425.06
315.083	419.06
315.312	436.06
315.542	402.06
315.771	402.06
316.001	429.06
316.23	421.06
316.46	432.06
316.689	414.06
316.919	439.06
317.148	428.06
317.377	407.06
317.607	417.06
317.836	433.06
318.065	414.06
318.295	409.06
318.524	418.06
318.753	421.06
318.983	423.06
319.212	425.06
319.441	413.06
319.67	409.06
319.9	438.06
320.129	421.06
320.358	413.06
320.587	418.06
320.816	414.06
321.046	449.06
321.275	435.06
321.504	438.06
321.733	450.06
321.962	448.06
322.191	457.06
322.42	481.06
322.649	477.06
322.878	464.06
323.108	490.06
323.337	496.06
323.566	502.06
323.795	539.06
324.024	567.06
324.253	671.06
324.482	868.06
324.71	1372.06
324.939	1990.06
325.168	1779.06
325.397	923.06
325.626	638.06
325.855	566.06
326.084	527.06
326.313	527.06
326.542	528.06
326.77	572.06
326.999	644.06
327.228	833.06
327.457	1223.06
327.686	1549.06
327.914	1033.06
328.143	695.06
328.372	620.06
328.6	581.06
328.829	560.06
329.058	560.06
329.287	614.06
329.515	576.06
329.744	535.06
329.972	542.06
330.201	569.06
330.43	603.06
330.658	592.06
330.887	637.06
331.115	607.06
331.344	561.06
331.572	544.06
331.801	524.06
332.03	511.06
332.258	523.06
332.486	492.06
332.715	516.06
332.943	511.06
333.172	525.06
333.4	556.06
333.629	536.06
333.857	546.06
334.085	563.06
334.314	553.06
334.542	591.06
334.771	608.06
334.999	569.06
335.227	525.06
335.455	532.06
335.684	522.06
335.912	500.06
336.14	521.06
336.369	496.06
336.597	479.06
336.825	495.06
337.053	510.06
337.281	497.06
337.51	506.06
337.738	507.06
337.966	501.06
338.194	514.06
338.422	515.06
338.65	507.06
338.878	511.06
339.106	489.06
339.334	491.06
339.562	487.06
339.79	460.06
340.018	479.06
340.246	465.06
340.474	460.06
340.702	493.06
340.93	472.06
341.158	469.06
341.386	481.06
341.614	474.06
341.842	496.06
342.07	488.06
342.298	504.06
342.526	474.06
342.754	491.06
342.981	456.06
343.209	472.06
343.437	489.06
343.665	478.06
343.893	503.06
344.12	508.06
344.348	517.06
344.576	511.06
344.804	502.06
345.031	503.06
345.259	525.06
345.487	508.06
345.714	466.06
345.942	493.06
346.17	486.06
346.397	457.06
346.625	477.06
346.853	458.06
347.08	488.06
347.308	463.06
347.535	479.06
347.763	493.06
347.99	491.06
348.218	472.06
348.445	484.06
348.673	458.06
348.9	470.06
349.128	477.06
349.355	459.06
349.583	437.06
349.81	468.06
350.037	448.06
350.265	461.06
350.492	461.06
350.72	451.06
350.947	479.06
351.174	459.06
351.402	478.06
351.629	464.06
351.856	471.06
352.083	462.06
352.311	462.06
352.538	476.06
352.765	486.06
352.992	472.06
353.22	465.06
353.447	486.06
353.674	456.06
353.901	467.06
354.128	460.06
354.355	468.06
354.583	444.06
354.81	450.06
355.037	450.06
355.264	438.06
355.491	436.06
355.718	447.06
355.945	459.06
356.172	447.06
356.399	430.06
356.626	457.06
356.853	437.06
357.08	449.06
357.307	448.06
357.534	426.06
357.761	442.06
357.988	444.06
358.215	454.06
358.441	437.06
358.668	455.06
358.895	442.06
359.122	445.06
359.349	458.06
359.576	463.06
359.802	473.06
360.029	509.06
360.256	540.06
360.483	523.06
360.709	480.06
360.936	452.06
361.163	473.06
361.39	463.06
361.616	472.06
361.843	467.06
362.07	460.06
362.296	469.06
362.523	471.06
362.749	479.06
362.976	481.06
363.203	466.06
363.429	455.06
363.656	463.06
363.882	440.06
364.109	479.06
364.335	462.06
364.562	456.06
364.788	474.06
365.015	459.06
365.241	471.06
365.468	455.06
365.694	453.06
365.92	468.06
366.147	455.06
366.373	465.06
366.599	470.06
366.826	462.06
367.052	463.06
367.278	461.06
367.505	463.06
367.731	436.06
367.957	442.06
368.184	447.06
368.41	468.06
368.636	483.06
368.862	471.06
369.089	467.06
369.315	493.06
369.541	469.06
369.767	491.06
369.993	466.06
370.219	460.06
370.445	464.06
370.672	486.06
370.898	473.06
371.124	452.06
371.35	484.06
371.576	463.06
371.802	487.06
372.028	465.06
372.254	465.06
372.48	470.06
372.706	471.06
372.932	485.06
373.158	487.06
373.384	465.06
373.61	476.06
373.835	468.06
374.061	464.06
374.287	462.06
374.513	465.06
374.739	468.06
374.965	495.06
375.191	525.06
375.416	497.06
375.642	471.06
375.868	479.06
376.094	476.06
376.319	478.06
376.545	475.06
376.771	475.06
376.997	454.06
377.222	478.06
377.448	452.06
377.674	486.06
377.899	453.06
378.125	470.06
378.35	460.06
378.576	478.06
378.802	468.06
379.027	469.06
379.253	468.06
379.478	469.06
379.704	465.06
379.929	467.06
380.155	474.06
380.38	479.06
380.606	475.06
380.831	475.06
381.057	488.06
381.282	471.06
381.507	483.06
381.733	465.06
381.958	487.06
382.184	454.06
382.409	479.06
382.634	487.06
382.86	490.06
383.085	488.06
383.31	502.06
383.535	493.06
383.761	517.06
383.986	515.06
384.211	512.06
384.436	506.06
384.662	504.06
384.887	521.06
385.112	522.06
385.337	518.06
385.562	521.06
385.787	486.06
386.013	526.06
386.238	535.06
386.463	528.06
386.688	529.06
386.913	516.06
387.138	552.06
387.363	523.06
387.588	517.06
387.813	517.06
388.038	499.06
388.263	531.06
388.488	525.06
388.713	517.06
388.938	539.06
389.163	538.06
389.387	549.06
389.612	499.06
389.837	524.06
390.062	521.06
390.287	544.06
390.512	534.06
390.736	521.06
390.961	521.06
391.186	539.06
391.411	539.06
391.636	555.06
391.86	557.06
392.085	552.06
392.31	554.06
392.534	542.06
392.759	542.06
392.984	543.06
393.208	544.06
393.433	535.06
393.658	545.06
393.882	524.06
394.107	525.06
394.331	556.06
394.556	557.06
394.78	551.06
395.005	555.06
395.229	550.06
395.454	563.06
395.678	561.06
395.903	572.06
396.127	595.06
396.352	597.06
396.576	561.06
396.801	557.06
397.025	549.06
397.249	574.06
397.474	565.06
397.698	561.06
397.922	574.06
398.147	626.06
398.371	605.06
398.595	586.06
398.82	608.06
399.044	629.06
399.268	637.06
399.492	698.06
399.717	773.06
399.941	776.06
400.165	810.06
400.389	791.06
400.613	708.06
400.837	669.06
401.062	647.06
401.286	616.06
401.51	635.06
401.734	621.06
401.958	626.06
402.182	628.06
402.406	638.06
402.63	639.06
402.854	649.06
403.078	659.06
403.302	629.06
403.526	672.06
403.75	650.06
403.974	648.06
404.198	639.06
404.422	651.06
404.645	662.06
404.869	663.06
405.093	688.06
405.317	729.06
405.541	774.06
405.765	703.06
405.988	663.06
406.212	699.06
406.436	668.06
406.66	727.06
406.883	685.06
407.107	697.06
407.331	776.06
407.555	844.06
407.778	849.06
408.002	758.06
408.226	719.06
408.449	689.06
408.673	720.06
408.896	730.06
409.12	784.06
409.344	713.06
409.567	656.06
409.791	685.06
410.014	646.06
410.238	660.06
410.461	671.06
410.685	648.06
410.908	655.06
411.132	705.06
411.355	731.06
411.578	716.06
411.802	677.06
412.025	663.06
412.249	677.06
412.472	685.06
412.695	705.06
412.919	710.06
413.142	639.06
413.365	648.06
413.589	641.06
413.812	610.06
414.035	609.06
414.258	615.06
414.482	599.06
414.705	603.06
414.928	624.06
415.151	616.06
415.374	617.06
415.597	613.06
415.821	592.06
416.044	610.06
416.267	617.06
416.49	595.06
416.713	592.06
416.936	614.06
417.159	633.06
417.382	617.06
417.605	621.06
417.828	631.06
418.051	636.06
418.274	613.06
418.497	623.06
418.72	633.06
418.943	604.06
419.166	631.06
419.389	672.06
419.611	651.06
419.834	652.06
420.057	670.06
420.28	644.06
420.503	655.06
420.726	656.06
420.948	652.06
421.171	679.06
421.394	701.06
421.617	652.06
421.839	658.06
422.062	647.06
422.285	666.06
422.507	706.06
422.73	796.06
422.953	770.06
423.175	697.06
423.398	659.06
423.621	676.06
423.843	657.06
424.066	692.06
424.288	663.06
424.511	718.06
424.733	766.06
424.956	847.06
425.178	806.06
425.401	793.06
425.623	839.06
425.846	692.06
426.068	679.06
426.291	658.06
426.513	647.06
426.735	665.06
426.958	716.06
427.18	819.06
427.402	948.06
427.625	997.06
427.847	887.06
428.069	775.06
428.292	725.06
428.514	669.06
428.736	637.06
428.958	637.06
429.181	627.06
429.403	638.06
429.625	615.06
429.847	641.06
430.069	721.06
430.292	739.06
430.514	626.06
430.736	633.06
430.958	613.06
431.18	618.06
431.402	596.06
431.624	588.06
431.846	602.06
432.068	579.06
432.29	590.06
432.512	589.06
432.734	605.06
432.956	604.06
433.178	603.06
433.4	611.06
433.622	605.06
433.844	609.06
434.066	581.06
434.287	622.06
434.509	624.06
434.731	611.06
434.953	627.06
435.175	647.06
435.397	678.06
435.618	677.06
435.84	689.06
436.062	823.06
436.284	881.06
436.505	748.06
436.727	683.06
436.949	622.06
437.17	616.06
437.392	627.06
437.614	651.06
437.835	652.06
438.057	753.06
438.278	868.06
438.5	866.06
438.721	941.06
438.943	912.06
439.165	732.06
439.386	677.06
439.608	656.06
439.829	679.06
440.05	695.06
440.272	725.06
440.493	676.06
440.715	644.06
440.936	649.06
441.158	638.06
441.379	635.06
441.6	637.06
441.822	685.06
442.043	702.06
442.264	827.06
442.486	848.06
442.707	744.06
442.928	683.06
443.149	676.06
443.371	698.06
443.592	742.06
443.813	869.06
444.034	975.06
444.255	805.06
444.476	729.06
444.698	712.06
444.919	714.06
445.14	784.06
445.361	742.06
445.582	710.06
445.803	778.06
446.024	893.06
446.245	883.06
446.466	804.06
446.687	711.06
446.908	642.06
447.129	656.06
447.35	621.06
447.571	623.06
447.792	601.06
448.013	587.06
448.234	633.06
448.455	686.06
448.675	802.06
448.896	958.06
449.117	808.06
449.338	725.06
449.559	867.06
449.779	992.06
450	787.06
450.221	661.06
450.442	598.06
450.662	585.06
450.883	610.06
451.104	621.06
451.324	598.06
451.545	589.06
451.766	551.06
451.986	536.06
452.207	532.06
452.428	553.06
452.648	551.06
452.869	542.06
453.089	532.06
453.31	563.06
453.53	544.06
453.751	535.06
453.971	549.06
454.192	563.06
454.412	550.06
454.633	550.06
454.853	553.06
455.073	529.06
455.294	553.06
455.514	639.06
455.734	637.06
455.955	589.06
456.175	521.06
456.395	535.06
456.616	532.06
456.836	516.06
457.056	525.06
457.276	508.06
457.497	533.06
457.717	523.06
457.937	515.06
458.157	531.06
458.377	550.06
458.598	560.06
458.818	604.06
459.038	674.06
459.258	729.06
459.478	623.06
459.698	589.06
459.918	589.06
460.138	606.06
460.358	604.06
460.578	625.06
460.798	646.06
461.018	634.06
461.238	634.06
461.458	587.06
461.678	607.06
461.898	633.06
462.118	637.06
462.338	622.06
462.558	649.06
462.777	651.06
462.997	670.06
463.217	699.06
463.437	708.06
463.657	706.06
463.876	677.06
464.096	677.06
464.316	659.06
464.536	663.06
464.755	651.06
464.975	678.06
465.195	686.06
465.414	729.06
465.634	663.06
465.854	605.06
466.073	608.06
466.293	598.06
466.512	560.06
466.732	549.06
466.951	559.06
467.171	580.06
467.391	567.06
467.61	574.06
467.829	578.06
468.049	559.06
468.268	568.06
468.488	560.06
468.707	560.06
468.927	575.06
469.146	525.06
469.365	547.06
469.585	589.06
469.804	574.06
470.023	563.06
470.243	566.06
470.462	602.06
470.681	619.06
470.901	608.06
471.12	576.06
471.339	583.06
471.558	569.06
471.777	591.06
471.997	569.06
472.216	595.06
472.435	605.06
472.654	576.06
472.873	597.06
473.092	571.06
473.311	591.06
473.53	571.06
473.749	574.06
473.968	597.06
474.187	708.06
474.406	755.06
474.625	641.06
474.844	599.06
475.063	572.06
475.282	548.06
475.501	587.06
475.72	583.06
475.939	575.06
476.158	571.06
476.377	586.06
476.596	579.06
476.814	596.06
477.033	608.06
477.252	628.06
477.471	620.06
477.69	617.06
477.908	645.06
478.127	639.06
478.346	651.06
478.564	662.06
478.783	661.06
479.002	661.06
479.22	671.06
479.439	681.06
479.658	670.06
479.876	681.06
480.095	691.06
480.313	707.06
480.532	729.06
480.751	715.06
480.969	742.06
481.188	760.06
481.406	765.06
481.624	738.06
481.843	705.06
482.061	694.06
482.28	687.06
482.498	663.06
482.717	656.06
482.935	681.06
483.153	684.06
483.372	668.06
483.59	666.06
483.808	675.06
484.027	661.06
484.245	675.06
484.463	689.06
484.681	672.06
484.9	696.06
485.118	691.06
485.336	664.06
485.554	680.06
485.772	715.06
485.99	677.06
486.209	681.06
486.427	688.06
486.645	695.06
486.863	726.06
487.081	713.06
487.299	712.06
487.517	720.06
487.735	711.06
487.953	723.06
488.171	715.06
488.389	713.06
488.607	720.06
488.825	734.06
489.043	726.06
489.261	754.06
489.479	721.06
489.696	740.06
489.914	728.06
490.132	749.06
490.35	760.06
490.568	760.06
490.786	785.06
491.003	761.06
491.221	781.06
491.439	817.06
491.657	795.06
491.874	824.06
492.092	805.06
492.31	827.06
492.527	843.06
492.745	856.06
492.963	847.06
493.18	873.06
493.398	863.06
493.615	865.06
493.833	884.06
494.05	883.06
494.268	859.06
494.485	903.06
494.703	863.06
494.92	887.06
495.138	861.06
495.355	847.06
495.573	851.06
495.79	851.06
496.008	881.06
496.225	870.06
496.442	863.06
496.66	876.06
496.877	878.06
497.094	890.06
497.312	887.06
497.529	904.06
497.746	913.06
497.963	925.06
498.181	954.06
498.398	963.06
498.615	977.06
498.832	1014.06
499.049	1061.06
499.267	1071.06
499.484	1110.06
499.701	1172.06
499.918	1199.06
500.135	1294.06
500.352	1351.06
500.569	1371.06
500.786	1383.06
501.003	1361.06
501.22	1277.06
501.437	1250.06
501.654	1194.06
501.871	1182.06
502.088	1102.06
502.305	1068.06
502.522	1014.06
502.739	985.06
502.956	943.06
503.172	937.06
503.389	920.06
503.606	895.06
503.823	914.06
504.04	899.06
504.256	901.06
504.473	876.06
504.69	874.06
504.907	891.06
505.123	869.06
505.34	832.06
505.557	831.06
505.773	844.06
505.99	835.06
506.207	807.06
506.423	815.06
506.64	782.06
506.856	803.06
507.073	789.06
507.289	759.06
507.506	795.06
507.722	797.06
507.939	791.06
508.155	759.06
508.372	764.06
508.588	737.06
508.805	752.06
509.021	742.06
509.238	787.06
509.454	793.06
509.67	763.06
509.887	738.06
510.103	704.06
510.319	755.06
510.536	834.06
510.752	1189.06
510.968	1029.06
511.184	772.06
511.401	715.06
511.617	717.06
511.833	724.06
512.049	723.06
512.265	704.06
512.481	693.06
512.698	674.06
512.914	675.06
513.13	696.06
513.346	719.06
513.562	702.06
513.778	702.06
513.994	713.06
514.21	713.06
514.426	714.06
514.642	760.06
514.858	787.06
515.074	785.06
515.29	903.06
515.506	1181.06
515.721	1057.06
515.937	824.06
516.153	787.06
516.369	781.06
516.585	752.06
516.801	751.06
517.016	737.06
517.232	741.06
517.448	785.06
517.664	784.06
517.879	797.06
518.095	781.06
518.311	796.06
518.527	755.06
518.742	740.06
518.958	714.06
519.173	735.06
519.389	711.06
519.605	713.06
519.82	726.06
520.036	693.06
520.251	736.06
520.467	755.06
520.682	763.06
520.898	744.06
521.113	757.06
521.329	773.06
521.544	846.06
521.76	1003.06
521.975	1473.06
522.19	1484.06
522.406	913.06
522.621	755.06
522.836	723.06
523.052	683.06
523.267	658.06
523.482	663.06
523.698	647.06
523.913	644.06
524.128	637.06
524.343	657.06
524.559	622.06
524.774	627.06
524.989	624.06
525.204	641.06
525.419	617.06
525.634	611.06
525.849	635.06
526.064	611.06
526.28	596.06
526.495	592.06
526.71	611.06
526.925	577.06
527.14	588.06
527.355	597.06
527.57	588.06
527.785	593.06
527.999	574.06
528.214	576.06
528.429	606.06
528.644	580.06
528.859	580.06
529.074	608.06
529.289	614.06
529.503	654.06
529.718	672.06
529.933	608.06
530.148	617.06
530.363	597.06
530.577	569.06
530.792	596.06
531.007	581.06
531.221	577.06
531.436	559.06
531.651	574.06
531.865	574.06
532.08	581.06
532.295	600.06
532.509	561.06
532.724	552.06
532.938	597.06
533.153	543.06
533.367	556.06
533.582	555.06
533.796	570.06
534.011	576.06
534.225	568.06
534.44	545.06
534.654	571.06
534.868	563.06
535.083	552.06
535.297	557.06
535.511	569.06
535.726	588.06
535.94	547.06
536.154	553.06
536.369	552.06
536.583	554.06
536.797	552.06
537.011	551.06
537.225	525.06
537.44	537.06
537.654	547.06
537.868	544.06
538.082	522.06
538.296	563.06
538.51	556.06
538.724	572.06
538.938	547.06
539.153	545.06
539.367	572.06
539.581	580.06
539.795	562.06
540.009	540.06
540.222	547.06
540.436	536.06
540.65	540.06
540.864	548.06
541.078	554.06
541.292	554.06
541.506	555.06
541.72	535.06
541.934	551.06
542.147	538.06
542.361	565.06
542.575	529.06
542.789	529.06
543.002	545.06
543.216	541.06
543.43	536.06
543.644	533.06
543.857	548.06
544.071	540.06
544.285	575.06
544.498	549.06
544.712	545.06
544.925	545.06
545.139	559.06
545.352	544.06
545.566	554.06
545.779	524.06
545.993	531.06
546.206	543.06
546.42	537.06
546.633	509.06
546.847	524.06
547.06	529.06
547.274	546.06
547.487	523.06
547.7	536.06
547.914	550.06
548.127	519.06
548.34	520.06
548.554	505.06
548.767	524.06
548.98	517.06
549.193	513.06
549.407	532.06
549.62	539.06
549.833	533.06
550.046	519.06
550.259	510.06
550.473	513.06
550.686	532.06
550.899	508.06
551.112	520.06
551.325	529.06
551.538	519.06
551.751	502.06
551.964	497.06
552.177	526.06
552.39	539.06
552.603	547.06
552.816	550.06
553.029	531.06
553.242	553.06
553.455	547.06
553.667	573.06
553.88	546.06
554.093	555.06
554.306	541.06
554.519	552.06
554.732	543.06
554.944	524.06
555.157	496.06
555.37	495.06
555.583	507.06
555.795	515.06
556.008	485.06
556.221	480.06
556.433	476.06
556.646	479.06
556.859	490.06
557.071	492.06
557.284	488.06
557.496	489.06
557.709	480.06
557.921	485.06
558.134	462.06
558.346	456.06
558.559	474.06
558.771	484.06
558.984	463.06
559.196	474.06
559.409	460.06
559.621	459.06
559.833	448.06
560.046	472.06
560.258	476.06
560.47	471.06
560.683	475.06
560.895	476.06
561.107	453.06
561.32	459.06
561.532	490.06
561.744	473.06
561.956	458.06
562.168	463.06
562.381	460.06
562.593	467.06
562.805	465.06
563.017	473.06
563.229	478.06
563.441	463.06
563.653	481.06
563.865	455.06
564.077	484.06
564.289	475.06
564.501	476.06
564.713	495.06
564.925	522.06
565.137	496.06
565.349	496.06
565.561	502.06
565.773	519.06
565.985	549.06
566.197	543.06
566.408	549.06
566.62	598.06
566.832	610.06
567.044	601.06
567.255	602.06
567.467	621.06
567.679	638.06
567.891	669.06
568.102	655.06
568.314	653.06
568.526	604.06
568.737	569.06
568.949	555.06
569.161	537.06
569.372	519.06
569.584	503.06
569.795	469.06
570.007	484.06
570.218	496.06
570.43	491.06
570.641	468.06
570.853	469.06
571.064	464.06
571.276	472.06
571.487	460.06
571.698	447.06
571.91	426.06
572.121	429.06
572.333	425.06
572.544	423.06
572.755	421.06
572.966	417.06
573.178	431.06
573.389	404.06
573.6	394.06
573.811	384.06
574.023	398.06
574.234	391.06
574.445	401.06
574.656	402.06
574.867	413.06
575.078	397.06
575.289	407.06
575.501	395.06
575.712	413.06
575.923	400.06
576.134	395.06
576.345	379.06
576.556	393.06
576.767	379.06
576.978	404.06
577.188	380.06
577.399	375.06
577.61	385.06
577.821	388.06
578.032	371.06
578.243	423.06
578.454	570.06
578.665	466.06
578.875	389.06
579.086	365.06
579.297	369.06
579.508	382.06
579.718	373.06
579.929	371.06
580.14	353.06
580.35	351.06
580.561	364.06
580.772	363.06
580.982	366.06
581.193	352.06
581.403	347.06
581.614	369.06
581.825	379.06
582.035	370.06
582.246	368.06
582.456	358.06
582.667	369.06
582.877	347.06
583.087	369.06
583.298	353.06
583.508	371.06
583.719	357.06
583.929	335.06
584.139	352.06
584.35	361.06
584.56	344.06
584.77	351.06
584.981	344.06
585.191	341.06
585.401	345.06
585.611	340.06
585.821	351.06
586.032	346.06
586.242	343.06
586.452	354.06
586.662	336.06
586.872	352.06
587.082	341.06
587.292	337.06
587.502	335.06
587.713	351.06
587.923	352.06
588.133	347.06
588.343	336.06
588.553	335.06
588.762	328.06
588.972	348.06
589.182	333.06
589.392	367.06
589.602	335.06
589.812	367.06
590.022	361.06
590.232	336.06
590.441	351.06
590.651	331.06
590.861	338.06
591.071	352.06
591.281	349.06
591.49	344.06
591.7	351.06
591.91	354.06
592.119	360.06
592.329	381.06
592.539	364.06
592.748	366.06
592.958	378.06
593.167	372.06
593.377	387.06
593.587	384.06
593.796	400.06
594.006	390.06
594.215	412.06
594.424	379.06
594.634	390.06
594.843	376.06
595.053	372.06
595.262	353.06
595.472	371.06
595.681	337.06
595.89	329.06
596.1	319.06
596.309	343.06
596.518	328.06
596.727	320.06
596.937	320.06
597.146	334.06
597.355	321.06
597.564	297.06
597.774	312.06
597.983	331.06
598.192	312.06
598.401	326.06
598.61	285.06
598.819	304.06
599.028	301.06
599.237	324.06
599.446	297.06
599.655	320.06
599.864	291.06
600.073	297.06
600.282	298.06
600.491	314.06
600.7	307.06
600.909	294.06
601.118	318.06
601.327	315.06
601.536	295.06
601.745	313.06
601.953	310.06
602.162	292.06
602.371	288.06
602.58	296.06
602.789	282.06
602.997	289.06
603.206	303.06
603.415	304.06
603.623	298.06
603.832	294.06
604.041	311.06
604.249	297.06
604.458	293.06
604.666	298.06
604.875	286.06
605.084	283.06
605.292	275.06
605.501	291.06
605.709	280.06
605.918	287.06
606.126	288.06
606.334	281.06
606.543	305.06
606.751	284.06
606.96	283.06
607.168	282.06
607.376	279.06
607.585	289.06
607.793	281.06
608.001	284.06
608.21	291.06
608.418	281.06
608.626	273.06
608.834	284.06
609.043	282.06
609.251	296.06
609.459	273.06
609.667	288.06
609.875	280.06
610.083	272.06
610.291	286.06
610.499	286.06
610.707	284.06
610.916	288.06
611.124	300.06
611.332	263.06
611.54	299.06
611.748	289.06
611.955	317.06
612.163	279.06
612.371	279.06
612.579	268.06
612.787	293.06
612.995	288.06
613.203	285.06
613.411	285.06
613.618	287.06
613.826	297.06
614.034	307.06
614.242	288.06
614.449	268.06
614.657	294.06
614.865	277.06
615.072	267.06
615.28	292.06
615.488	264.06
615.695	271.06
615.903	291.06
616.111	280.06
616.318	279.06
616.526	286.06
616.733	290.06
616.941	285.06
617.148	282.06
617.356	263.06
617.563	280.06
617.771	289.06
617.978	283.06
618.185	286.06
618.393	261.06
618.6	284.06
618.807	276.06
619.015	268.06
619.222	261.06
619.429	271.06
619.637	262.06
619.844	283.06
620.051	253.06
620.258	277.06
620.466	265.06
620.673	252.06
620.88	245.06
621.087	261.06
621.294	262.06
621.501	263.06
621.708	276.06
621.915	276.06
622.122	248.06
622.329	270.06
622.536	253.06
622.743	268.06
622.95	249.06
623.157	264.06
623.364	261.06
623.571	260.06
623.778	260.06
623.985	272.06
624.192	257.06
624.399	257.06
624.606	249.06
624.812	280.06
625.019	248.06
625.226	237.06
625.433	263.06
625.639	246.06
625.846	265.06
626.053	232.06
626.259	245.06
626.466	245.06
626.673	252.06
626.879	261.06
627.086	243.06
627.293	264.06
627.499	250.06
627.706	237.06
627.912	237.06
628.119	236.06
628.325	237.06
628.532	242.06
628.738	255.06
628.945	235.06
629.151	220.06
629.357	246.06
629.564	235.06
629.77	226.06
629.976	233.06
630.183	237.06
630.389	221.06
630.595	227.06
630.802	225.06
631.008	224.06
631.214	230.06
631.42	215.06
631.627	232.06
631.833	243.06
632.039	220.06
632.245	226.06
632.451	222.06
632.657	219.06
632.863	228.06
633.069	203.06
633.275	206.06
633.481	218.06
633.688	231.06
633.893	202.06
634.099	208.06
634.305	202.06
634.511	213.06
634.717	223.06
634.923	215.06
635.129	198.06
635.335	203.06
635.541	206.06
635.747	214.06
635.952	217.06
636.158	191.06
636.364	203.06
636.57	212.06
636.775	221.06
636.981	212.06
637.187	216.06
637.392	198.06
637.598	202.06
637.804	201.06
638.009	209.06
638.215	210.06
638.421	198.06
638.626	215.06
638.832	205.06
639.037	193.06
639.243	201.06
639.448	201.06
639.654	209.06
639.859	200.06
640.065	193.06
640.27	207.06
640.475	210.06
640.681	209.06
640.886	207.06
641.091	208.06
641.297	208.06
641.502	190.06
641.707	179.06
641.913	212.06
642.118	187.06
642.323	209.06
642.528	199.06
642.733	203.06
642.939	196.06
643.144	196.06
643.349	194.06
643.554	183.06
643.759	191.06
643.964	189.06
644.169	188.06
644.374	189.06
644.579	192.06
644.784	194.06
644.989	187.06
645.194	190.06
645.399	197.06
645.604	183.06
645.809	196.06
646.014	199.06
646.219	205.06
646.423	181.06
646.628	191.06
646.833	180.06
647.038	185.06
647.243	211.06
647.447	192.06
647.652	197.06
647.857	193.06
648.062	181.06
648.266	200.06
648.471	188.06
648.676	198.06
648.88	204.06
649.085	204.06
649.289	191.06
649.494	191.06
649.698	215.06
649.903	198.06
650.107	205.06
650.312	199.06
650.516	183.06
650.721	173.06
650.925	185.06
651.13	166.06
651.334	172.06
651.539	175.06
651.743	159.06
651.947	158.06
652.152	152.06
652.356	161.06
652.56	163.06
652.764	155.06
652.969	161.06
653.173	151.06
653.377	144.06
653.581	161.06
653.785	139.06
653.99	133.06
654.194	160.06
654.398	137.06
654.602	134.06
654.806	124.06
655.01	154.06
655.214	141.06
655.418	140.06
655.622	152.06
655.826	142.06
656.03	152.06
656.234	139.06
656.438	151.06
656.642	145.06
656.846	152.06
657.049	137.06
657.253	148.06
657.457	135.06
657.661	131.06
657.865	121.06
658.068	127.06
658.272	111.06
658.476	127.06
658.68	115.06
658.883	127.06
659.087	126.06
659.291	111.06
659.494	100.06
659.698	93.06
659.901	99.06
660.105	96.06
660.309	87.06
660.512	99.06
660.716	102.06
660.919	101.06
661.123	100.06
661.326	98.06
661.53	91.06
661.733	94.06
661.936	103.06
662.14	91.06
662.343	87.06
662.546	65.06
662.75	91.06
662.953	97.06
663.156	93.06
663.36	96.06
663.563	96.06
663.766	79.06
663.969	77.06
664.173	93.06
664.376	76.06
664.579	95.06
664.782	79.06
664.985	88.06
665.188	95.06
665.391	89.06
665.594	96.06
665.797	91.06
666	101.06
666.203	88.06
666.406	84.06
666.609	73.06
666.812	85.06
667.015	74.06
667.218	89.06
667.421	86.06
667.624	85.06
667.827	84.06
668.03	88.06
668.232	86.06
668.435	84.06
668.638	87.06
668.841	95.06
669.043	84.06
669.246	75.06
669.449	90.06
669.651	86.06
669.854	81.06
670.057	83.06
670.259	89.06
670.462	87.06
670.665	91.06
670.867	73.06
671.07	93.06
671.272	105.06
671.475	96.06
671.677	87.06
671.88	86.06
672.082	77.06
672.284	70.06
672.487	79.06
672.689	95.06
672.892	90.06
