Data from 1974.PennyLincolnUp.Lamp.En5.5.200Scan.071719.P1.Changed Mount._HRD10591_15-54-03-857.txt Node
Date: Thu Jul 18 15:54:03 EDT 2019
User: cochatt
Spectrometer: HR+D1059
Trigger mode: 1
Integration Time (sec): 1.000000E-1
Scans to average: 1
Electric dark correction enabled: true
Nonlinearity correction enabled: false
Boxcar width: 0
XAxis mode: Wavelengths
Number of Pixels in Spectrum: 2048
>>>>>Begin Spectral Data<<<<<
223.165	-21.25
223.4	-21.25
223.635	-21.25
223.869	-17.25
224.104	-10.25
224.338	5.75
224.573	-15.25
224.808	-22.25
225.042	-10.25
225.277	0.75
225.511	-12.25
225.746	-15.25
225.98	8.75
226.215	15.75
226.449	21.75
226.683	19.75
226.918	27.75
227.152	23.75
227.387	33.75
227.621	39.75
227.856	55.75
228.09	43.75
228.324	50.75
228.559	62.75
228.793	66.75
229.027	107.75
229.262	122.75
229.496	125.75
229.73	143.75
229.964	151.75
230.199	155.75
230.433	114.75
230.667	134.75
230.901	112.75
231.136	121.75
231.37	119.75
231.604	128.75
231.838	124.75
232.072	124.75
232.306	123.75
232.541	120.75
232.775	101.75
233.009	119.75
233.243	129.75
233.477	138.75
233.711	120.75
233.945	126.75
234.179	133.75
234.413	124.75
234.647	131.75
234.881	127.75
235.115	114.75
235.349	116.75
235.583	105.75
235.817	110.75
236.051	144.75
236.285	142.75
236.519	140.75
236.753	137.75
236.987	138.75
237.221	188.75
237.455	240.75
237.689	203.75
237.922	139.75
238.156	141.75
238.39	141.75
238.624	133.75
238.858	134.75
239.091	145.75
239.325	125.75
239.559	143.75
239.793	137.75
240.027	151.75
240.26	151.75
240.494	165.75
240.728	158.75
240.961	156.75
241.195	155.75
241.429	152.75
241.662	140.75
241.896	133.75
242.13	135.75
242.363	142.75
242.597	150.75
242.83	144.75
243.064	150.75
243.298	159.75
243.531	147.75
243.765	158.75
243.998	151.75
244.232	158.75
244.465	152.75
244.699	154.75
244.932	148.75
245.166	155.75
245.399	160.75
245.633	175.75
245.866	176.75
246.099	140.75
246.333	174.75
246.566	185.75
246.8	184.75
247.033	160.75
247.266	140.75
247.5	181.75
247.733	188.75
247.966	194.75
248.2	181.75
248.433	178.75
248.666	175.75
248.899	195.75
249.133	218.75
249.366	219.75
249.599	213.75
249.832	207.75
250.066	187.75
250.299	189.75
250.532	202.75
250.765	209.75
250.998	245.75
251.231	223.75
251.465	236.75
251.698	222.75
251.931	209.75
252.164	205.75
252.397	219.75
252.63	197.75
252.863	223.75
253.096	215.75
253.329	236.75
253.562	248.75
253.795	220.75
254.028	232.75
254.261	230.75
254.494	245.75
254.727	271.75
254.96	293.75
255.193	274.75
255.426	257.75
255.659	242.75
255.892	246.75
256.124	219.75
256.357	260.75
256.59	238.75
256.823	227.75
257.056	218.75
257.289	228.75
257.521	230.75
257.754	227.75
257.987	218.75
258.22	233.75
258.452	224.75
258.685	231.75
258.918	215.75
259.151	234.75
259.383	224.75
259.616	217.75
259.849	242.75
260.081	259.75
260.314	257.75
260.547	262.75
260.779	269.75
261.012	269.75
261.244	238.75
261.477	235.75
261.71	239.75
261.942	238.75
262.175	241.75
262.407	242.75
262.64	237.75
262.872	230.75
263.105	226.75
263.337	216.75
263.57	237.75
263.802	229.75
264.035	214.75
264.267	219.75
264.499	252.75
264.732	229.75
264.964	248.75
265.197	239.75
265.429	243.75
265.661	219.75
265.894	234.75
266.126	249.75
266.358	233.75
266.591	261.75
266.823	257.75
267.055	236.75
267.287	235.75
267.52	233.75
267.752	237.75
267.984	239.75
268.216	265.75
268.448	252.75
268.681	248.75
268.913	259.75
269.145	275.75
269.377	304.75
269.609	272.75
269.841	286.75
270.073	287.75
270.306	320.75
270.538	306.75
270.77	333.75
271.002	325.75
271.234	309.75
271.466	310.75
271.698	318.75
271.93	329.75
272.162	321.75
272.394	327.75
272.626	317.75
272.858	287.75
273.09	298.75
273.322	294.75
273.553	297.75
273.785	289.75
274.017	281.75
274.249	255.75
274.481	274.75
274.713	279.75
274.945	285.75
275.176	265.75
275.408	296.75
275.64	289.75
275.872	267.75
276.104	303.75
276.335	291.75
276.567	283.75
276.799	299.75
277.031	314.75
277.262	334.75
277.494	331.75
277.726	331.75
277.957	304.75
278.189	309.75
278.421	302.75
278.652	294.75
278.884	302.75
279.115	302.75
279.347	294.75
279.579	307.75
279.81	300.75
280.042	285.75
280.273	297.75
280.505	297.75
280.736	300.75
280.968	299.75
281.199	287.75
281.431	296.75
281.662	297.75
281.894	279.75
282.125	315.75
282.356	295.75
282.588	324.75
282.819	319.75
283.051	304.75
283.282	303.75
283.513	293.75
283.745	311.75
283.976	313.75
284.207	324.75
284.439	317.75
284.67	318.75
284.901	310.75
285.132	325.75
285.364	286.75
285.595	302.75
285.826	297.75
286.057	300.75
286.288	306.75
286.52	298.75
286.751	321.75
286.982	314.75
287.213	297.75
287.444	317.75
287.675	334.75
287.906	328.75
288.138	322.75
288.369	336.75
288.6	333.75
288.831	333.75
289.062	326.75
289.293	319.75
289.524	313.75
289.755	338.75
289.986	329.75
290.217	314.75
290.448	310.75
290.679	331.75
290.91	309.75
291.141	315.75
291.371	328.75
291.602	339.75
291.833	313.75
292.064	330.75
292.295	328.75
292.526	324.75
292.757	333.75
292.987	315.75
293.218	332.75
293.449	311.75
293.68	318.75
293.91	322.75
294.141	322.75
294.372	324.75
294.603	315.75
294.833	322.75
295.064	321.75
295.295	314.75
295.525	330.75
295.756	323.75
295.987	361.75
296.217	360.75
296.448	362.75
296.679	329.75
296.909	329.75
297.14	341.75
297.37	330.75
297.601	359.75
297.831	347.75
298.062	341.75
298.292	334.75
298.523	356.75
298.753	354.75
298.984	327.75
299.214	321.75
299.445	339.75
299.675	346.75
299.905	371.75
300.136	343.75
300.366	313.75
300.597	322.75
300.827	351.75
301.057	362.75
301.288	353.75
301.518	357.75
301.748	334.75
301.979	361.75
302.209	389.75
302.439	361.75
302.669	367.75
302.9	371.75
303.13	378.75
303.36	349.75
303.59	385.75
303.82	362.75
304.051	369.75
304.281	369.75
304.511	360.75
304.741	366.75
304.971	366.75
305.201	347.75
305.431	369.75
305.661	356.75
305.891	366.75
306.121	346.75
306.352	375.75
306.582	364.75
306.812	353.75
307.042	377.75
307.272	377.75
307.502	351.75
307.731	381.75
307.961	359.75
308.191	365.75
308.421	342.75
308.651	367.75
308.881	355.75
309.111	377.75
309.341	373.75
309.571	381.75
309.8	374.75
310.03	392.75
310.26	403.75
310.49	395.75
310.72	400.75
310.949	405.75
311.179	421.75
311.409	395.75
311.639	393.75
311.868	407.75
312.098	398.75
312.328	408.75
312.557	438.75
312.787	442.75
313.017	424.75
313.246	411.75
313.476	398.75
313.706	411.75
313.935	424.75
314.165	408.75
314.394	442.75
314.624	425.75
314.853	389.75
315.083	413.75
315.312	404.75
315.542	415.75
315.771	413.75
316.001	409.75
316.23	413.75
316.46	406.75
316.689	422.75
316.919	423.75
317.148	434.75
317.377	428.75
317.607	421.75
317.836	405.75
318.065	413.75
318.295	408.75
318.524	403.75
318.753	392.75
318.983	402.75
319.212	394.75
319.441	404.75
319.67	430.75
319.9	417.75
320.129	407.75
320.358	413.75
320.587	417.75
320.816	436.75
321.046	453.75
321.275	430.75
321.504	411.75
321.733	436.75
321.962	430.75
322.191	427.75
322.42	449.75
322.649	476.75
322.878	479.75
323.108	461.75
323.337	489.75
323.566	497.75
323.795	536.75
324.024	559.75
324.253	622.75
324.482	886.75
324.71	1269.75
324.939	1937.75
325.168	1706.75
325.397	877.75
325.626	649.75
325.855	532.75
326.084	511.75
326.313	489.75
326.542	504.75
326.77	547.75
326.999	623.75
327.228	810.75
327.457	1191.75
327.686	1463.75
327.914	1033.75
328.143	680.75
328.372	601.75
328.6	571.75
328.829	546.75
329.058	582.75
329.287	581.75
329.515	557.75
329.744	524.75
329.972	541.75
330.201	531.75
330.43	567.75
330.658	613.75
330.887	601.75
331.115	573.75
331.344	534.75
331.572	508.75
331.801	495.75
332.03	517.75
332.258	491.75
332.486	488.75
332.715	477.75
332.943	493.75
333.172	507.75
333.4	478.75
333.629	507.75
333.857	527.75
334.085	542.75
334.314	551.75
334.542	556.75
334.771	552.75
334.999	567.75
335.227	523.75
335.455	513.75
335.684	504.75
335.912	510.75
336.14	514.75
336.369	495.75
336.597	504.75
336.825	509.75
337.053	506.75
337.281	480.75
337.51	474.75
337.738	491.75
337.966	485.75
338.194	473.75
338.422	506.75
338.65	477.75
338.878	488.75
339.106	486.75
339.334	486.75
339.562	487.75
339.79	483.75
340.018	498.75
340.246	470.75
340.474	483.75
340.702	472.75
340.93	457.75
341.158	443.75
341.386	485.75
341.614	466.75
341.842	485.75
342.07	478.75
342.298	476.75
342.526	443.75
342.754	458.75
342.981	450.75
343.209	449.75
343.437	453.75
343.665	475.75
343.893	484.75
344.12	521.75
344.348	503.75
344.576	502.75
344.804	492.75
345.031	460.75
345.259	510.75
345.487	475.75
345.714	449.75
345.942	485.75
346.17	491.75
346.397	451.75
346.625	456.75
346.853	450.75
347.08	461.75
347.308	465.75
347.535	464.75
347.763	460.75
347.99	461.75
348.218	457.75
348.445	481.75
348.673	438.75
348.9	454.75
349.128	457.75
349.355	471.75
349.583	426.75
349.81	448.75
350.037	466.75
350.265	458.75
350.492	465.75
350.72	438.75
350.947	449.75
351.174	463.75
351.402	474.75
351.629	481.75
351.856	451.75
352.083	449.75
352.311	472.75
352.538	469.75
352.765	470.75
352.992	453.75
353.22	453.75
353.447	465.75
353.674	470.75
353.901	472.75
354.128	438.75
354.355	433.75
354.583	427.75
354.81	446.75
355.037	453.75
355.264	449.75
355.491	432.75
355.718	436.75
355.945	421.75
356.172	422.75
356.399	440.75
356.626	451.75
356.853	439.75
357.08	446.75
357.307	434.75
357.534	439.75
357.761	437.75
357.988	443.75
358.215	437.75
358.441	415.75
358.668	453.75
358.895	454.75
359.122	435.75
359.349	460.75
359.576	443.75
359.802	473.75
360.029	485.75
360.256	494.75
360.483	491.75
360.709	467.75
360.936	453.75
361.163	461.75
361.39	461.75
361.616	446.75
361.843	459.75
362.07	455.75
362.296	447.75
362.523	459.75
362.749	466.75
362.976	438.75
363.203	460.75
363.429	443.75
363.656	433.75
363.882	451.75
364.109	458.75
364.335	437.75
364.562	459.75
364.788	424.75
365.015	439.75
365.241	448.75
365.468	458.75
365.694	457.75
365.92	455.75
366.147	447.75
366.373	459.75
366.599	460.75
366.826	450.75
367.052	462.75
367.278	438.75
367.505	448.75
367.731	463.75
367.957	441.75
368.184	449.75
368.41	434.75
368.636	434.75
368.862	457.75
369.089	427.75
369.315	443.75
369.541	455.75
369.767	470.75
369.993	441.75
370.219	462.75
370.445	463.75
370.672	443.75
370.898	459.75
371.124	439.75
371.35	460.75
371.576	449.75
371.802	441.75
372.028	472.75
372.254	437.75
372.48	459.75
372.706	448.75
372.932	463.75
373.158	449.75
373.384	466.75
373.61	474.75
373.835	470.75
374.061	464.75
374.287	465.75
374.513	461.75
374.739	464.75
374.965	474.75
375.191	461.75
375.416	473.75
375.642	462.75
375.868	455.75
376.094	481.75
376.319	476.75
376.545	456.75
376.771	437.75
376.997	454.75
377.222	464.75
377.448	480.75
377.674	450.75
377.899	453.75
378.125	467.75
378.35	440.75
378.576	450.75
378.802	455.75
379.027	455.75
379.253	456.75
379.478	445.75
379.704	446.75
379.929	455.75
380.155	467.75
380.38	462.75
380.606	460.75
380.831	454.75
381.057	474.75
381.282	464.75
381.507	456.75
381.733	458.75
381.958	459.75
382.184	443.75
382.409	447.75
382.634	467.75
382.86	451.75
383.085	474.75
383.31	459.75
383.535	492.75
383.761	470.75
383.986	459.75
384.211	468.75
384.436	489.75
384.662	487.75
384.887	506.75
385.112	505.75
385.337	494.75
385.562	488.75
385.787	501.75
386.013	515.75
386.238	513.75
386.463	525.75
386.688	534.75
386.913	529.75
387.138	512.75
387.363	518.75
387.588	511.75
387.813	513.75
388.038	503.75
388.263	496.75
388.488	506.75
388.713	493.75
388.938	495.75
389.163	515.75
389.387	521.75
389.612	483.75
389.837	507.75
390.062	476.75
390.287	505.75
390.512	538.75
390.736	509.75
390.961	502.75
391.186	527.75
391.411	510.75
391.636	520.75
391.86	507.75
392.085	510.75
392.31	545.75
392.534	554.75
392.759	525.75
392.984	542.75
393.208	529.75
393.433	517.75
393.658	528.75
393.882	522.75
394.107	489.75
394.331	538.75
394.556	521.75
394.78	508.75
395.005	547.75
395.229	550.75
395.454	541.75
395.678	518.75
395.903	543.75
396.127	540.75
396.352	582.75
396.576	551.75
396.801	517.75
397.025	539.75
397.249	547.75
397.474	554.75
397.698	557.75
397.922	573.75
398.147	571.75
398.371	582.75
398.595	566.75
398.82	590.75
399.044	609.75
399.268	642.75
399.492	671.75
399.717	731.75
399.941	737.75
400.165	774.75
400.389	721.75
400.613	688.75
400.837	637.75
401.062	626.75
401.286	619.75
401.51	620.75
401.734	607.75
401.958	615.75
402.182	611.75
402.406	602.75
402.63	605.75
402.854	618.75
403.078	637.75
403.302	622.75
403.526	632.75
403.75	622.75
403.974	624.75
404.198	630.75
404.422	656.75
404.645	623.75
404.869	627.75
405.093	677.75
405.317	711.75
405.541	756.75
405.765	683.75
405.988	657.75
406.212	672.75
406.436	646.75
406.66	689.75
406.883	657.75
407.107	698.75
407.331	743.75
407.555	818.75
407.778	825.75
408.002	753.75
408.226	694.75
408.449	693.75
408.673	705.75
408.896	713.75
409.12	761.75
409.344	728.75
409.567	676.75
409.791	647.75
410.014	621.75
410.238	609.75
410.461	634.75
410.685	635.75
410.908	655.75
411.132	668.75
411.355	697.75
411.578	693.75
411.802	620.75
412.025	615.75
412.249	632.75
412.472	661.75
412.695	701.75
412.919	678.75
413.142	629.75
413.365	615.75
413.589	604.75
413.812	579.75
414.035	577.75
414.258	601.75
414.482	593.75
414.705	600.75
414.928	612.75
415.151	579.75
415.374	586.75
415.597	579.75
415.821	558.75
416.044	581.75
416.267	599.75
416.49	585.75
416.713	586.75
416.936	583.75
417.159	592.75
417.382	596.75
417.605	606.75
417.828	603.75
418.051	603.75
418.274	595.75
418.497	592.75
418.72	583.75
418.943	599.75
419.166	618.75
419.389	649.75
419.611	626.75
419.834	633.75
420.057	641.75
420.28	613.75
420.503	641.75
420.726	637.75
420.948	636.75
421.171	683.75
421.394	708.75
421.617	615.75
421.839	622.75
422.062	621.75
422.285	637.75
422.507	701.75
422.73	760.75
422.953	733.75
423.175	679.75
423.398	624.75
423.621	625.75
423.843	686.75
424.066	674.75
424.288	654.75
424.511	686.75
424.733	746.75
424.956	837.75
425.178	786.75
425.401	776.75
425.623	800.75
425.846	716.75
426.068	642.75
426.291	655.75
426.513	631.75
426.735	643.75
426.958	703.75
427.18	782.75
427.402	927.75
427.625	988.75
427.847	890.75
428.069	752.75
428.292	701.75
428.514	643.75
428.736	617.75
428.958	616.75
429.181	618.75
429.403	581.75
429.625	604.75
429.847	640.75
430.069	726.75
430.292	704.75
430.514	624.75
430.736	599.75
430.958	593.75
431.18	589.75
431.402	588.75
431.624	575.75
431.846	583.75
432.068	569.75
432.29	575.75
432.512	568.75
432.734	597.75
432.956	570.75
433.178	590.75
433.4	608.75
433.622	602.75
433.844	577.75
434.066	582.75
434.287	571.75
434.509	572.75
434.731	606.75
434.953	626.75
435.175	632.75
435.397	644.75
435.618	636.75
435.84	682.75
436.062	781.75
436.284	879.75
436.505	707.75
436.727	649.75
436.949	611.75
437.17	601.75
437.392	590.75
437.614	595.75
437.835	640.75
438.057	710.75
438.278	835.75
438.5	849.75
438.721	935.75
438.943	900.75
439.165	711.75
439.386	658.75
439.608	657.75
439.829	652.75
440.05	671.75
440.272	707.75
440.493	665.75
440.715	625.75
440.936	603.75
441.158	624.75
441.379	615.75
441.6	661.75
441.822	658.75
442.043	697.75
442.264	786.75
442.486	796.75
442.707	715.75
442.928	679.75
443.149	686.75
443.371	684.75
443.592	747.75
443.813	817.75
444.034	880.75
444.255	754.75
444.476	693.75
444.698	695.75
444.919	678.75
445.14	779.75
445.361	743.75
445.582	689.75
445.803	777.75
446.024	864.75
446.245	859.75
446.466	786.75
446.687	657.75
446.908	665.75
447.129	624.75
447.35	600.75
447.571	599.75
447.792	581.75
448.013	588.75
448.234	613.75
448.455	671.75
448.675	801.75
448.896	898.75
449.117	786.75
449.338	742.75
449.559	844.75
449.779	945.75
450	779.75
450.221	629.75
450.442	595.75
450.662	579.75
450.883	571.75
451.104	598.75
451.324	571.75
451.545	566.75
451.766	549.75
451.986	546.75
452.207	509.75
452.428	521.75
452.648	554.75
452.869	509.75
453.089	511.75
453.31	544.75
453.53	539.75
453.751	540.75
453.971	536.75
454.192	528.75
454.412	541.75
454.633	531.75
454.853	526.75
455.073	523.75
455.294	539.75
455.514	627.75
455.734	588.75
455.955	498.75
456.175	519.75
456.395	479.75
456.616	525.75
456.836	511.75
457.056	497.75
457.276	499.75
457.497	488.75
457.717	490.75
457.937	509.75
458.157	525.75
458.377	523.75
458.598	551.75
458.818	573.75
459.038	666.75
459.258	693.75
459.478	611.75
459.698	581.75
459.918	581.75
460.138	558.75
460.358	599.75
460.578	580.75
460.798	604.75
461.018	601.75
461.238	584.75
461.458	593.75
461.678	599.75
461.898	620.75
462.118	609.75
462.338	607.75
462.558	649.75
462.777	638.75
462.997	655.75
463.217	694.75
463.437	687.75
463.657	659.75
463.876	662.75
464.096	633.75
464.316	616.75
464.536	631.75
464.755	651.75
464.975	633.75
465.195	654.75
465.414	699.75
465.634	645.75
465.854	593.75
466.073	615.75
466.293	594.75
466.512	550.75
466.732	550.75
466.951	558.75
467.171	553.75
467.391	553.75
467.61	568.75
467.829	572.75
468.049	553.75
468.268	562.75
468.488	570.75
468.707	531.75
468.927	537.75
469.146	535.75
469.365	547.75
469.585	525.75
469.804	557.75
470.023	573.75
470.243	569.75
470.462	575.75
470.681	571.75
470.901	574.75
471.12	550.75
471.339	558.75
471.558	568.75
471.777	573.75
471.997	554.75
472.216	554.75
472.435	581.75
472.654	587.75
472.873	574.75
473.092	563.75
473.311	535.75
473.53	543.75
473.749	551.75
473.968	588.75
474.187	713.75
474.406	709.75
474.625	622.75
474.844	577.75
475.063	567.75
475.282	547.75
475.501	561.75
475.72	582.75
475.939	564.75
476.158	561.75
476.377	578.75
476.596	592.75
476.814	568.75
477.033	606.75
477.252	566.75
477.471	594.75
477.69	586.75
477.908	604.75
478.127	614.75
478.346	623.75
478.564	630.75
478.783	634.75
479.002	634.75
479.22	651.75
479.439	660.75
479.658	649.75
479.876	637.75
480.095	669.75
480.313	721.75
480.532	692.75
480.751	717.75
480.969	710.75
481.188	741.75
481.406	737.75
481.624	700.75
481.843	674.75
482.061	645.75
482.28	650.75
482.498	657.75
482.717	636.75
482.935	629.75
483.153	649.75
483.372	619.75
483.59	630.75
483.808	633.75
484.027	674.75
484.245	657.75
484.463	625.75
484.681	664.75
484.9	663.75
485.118	638.75
485.336	655.75
485.554	662.75
485.772	687.75
485.99	661.75
486.209	669.75
486.427	669.75
486.645	702.75
486.863	685.75
487.081	687.75
487.299	693.75
487.517	729.75
487.735	699.75
487.953	696.75
488.171	706.75
488.389	693.75
488.607	683.75
488.825	711.75
489.043	701.75
489.261	723.75
489.479	725.75
489.696	728.75
489.914	728.75
490.132	705.75
490.35	743.75
490.568	725.75
490.786	755.75
491.003	750.75
491.221	759.75
491.439	775.75
491.657	801.75
491.874	781.75
492.092	787.75
492.31	786.75
492.527	833.75
492.745	785.75
492.963	800.75
493.18	807.75
493.398	827.75
493.615	818.75
493.833	816.75
494.05	844.75
494.268	843.75
494.485	834.75
494.703	813.75
494.92	860.75
495.138	830.75
495.355	827.75
495.573	836.75
495.79	810.75
496.008	839.75
496.225	841.75
496.442	827.75
496.66	806.75
496.877	855.75
497.094	826.75
497.312	854.75
497.529	843.75
497.746	896.75
497.963	897.75
498.181	904.75
498.398	903.75
498.615	937.75
498.832	965.75
499.049	1015.75
499.267	1019.75
499.484	1098.75
499.701	1112.75
499.918	1145.75
500.135	1228.75
500.352	1305.75
500.569	1343.75
500.786	1323.75
501.003	1289.75
501.22	1241.75
501.437	1198.75
501.654	1132.75
501.871	1112.75
502.088	1042.75
502.305	990.75
502.522	978.75
502.739	955.75
502.956	893.75
503.172	895.75
503.389	864.75
503.606	893.75
503.823	868.75
504.04	893.75
504.256	858.75
504.473	868.75
504.69	856.75
504.907	870.75
505.123	815.75
505.34	816.75
505.557	815.75
505.773	791.75
505.99	774.75
506.207	781.75
506.423	780.75
506.64	768.75
506.856	759.75
507.073	792.75
507.289	784.75
507.506	790.75
507.722	745.75
507.939	751.75
508.155	786.75
508.372	740.75
508.588	696.75
508.805	705.75
509.021	728.75
509.238	745.75
509.454	742.75
509.67	743.75
509.887	738.75
510.103	707.75
510.319	708.75
510.536	791.75
510.752	1165.75
510.968	963.75
511.184	732.75
511.401	701.75
511.617	698.75
511.833	706.75
512.049	682.75
512.265	713.75
512.481	679.75
512.698	673.75
512.914	668.75
513.13	681.75
513.346	691.75
513.562	674.75
513.778	690.75
513.994	714.75
514.21	690.75
514.426	703.75
514.642	749.75
514.858	753.75
515.074	802.75
515.29	873.75
515.506	1164.75
515.721	979.75
515.937	778.75
516.153	747.75
516.369	750.75
516.585	727.75
516.801	713.75
517.016	715.75
517.232	724.75
517.448	750.75
517.664	738.75
517.879	745.75
518.095	762.75
518.311	734.75
518.527	717.75
518.742	705.75
518.958	700.75
519.173	693.75
519.389	694.75
519.605	679.75
519.82	688.75
520.036	680.75
520.251	709.75
520.467	725.75
520.682	724.75
520.898	716.75
521.113	729.75
521.329	769.75
521.544	831.75
521.76	959.75
521.975	1400.75
522.19	1402.75
522.406	859.75
522.621	710.75
522.836	690.75
523.052	646.75
523.267	645.75
523.482	634.75
523.698	623.75
523.913	625.75
524.128	622.75
524.343	626.75
524.559	617.75
524.774	597.75
524.989	592.75
525.204	599.75
525.419	610.75
525.634	599.75
525.849	600.75
526.064	599.75
526.28	595.75
526.495	567.75
526.71	567.75
526.925	584.75
527.14	569.75
527.355	594.75
527.57	576.75
527.785	566.75
527.999	582.75
528.214	574.75
528.429	587.75
528.644	567.75
528.859	559.75
529.074	569.75
529.289	595.75
529.503	639.75
529.718	647.75
529.933	590.75
530.148	572.75
530.363	593.75
530.577	578.75
530.792	572.75
531.007	543.75
531.221	594.75
531.436	555.75
531.651	578.75
531.865	550.75
532.08	549.75
532.295	546.75
532.509	564.75
532.724	578.75
532.938	560.75
533.153	525.75
533.367	549.75
533.582	567.75
533.796	542.75
534.011	555.75
534.225	563.75
534.44	554.75
534.654	560.75
534.868	565.75
535.083	545.75
535.297	561.75
535.511	553.75
535.726	558.75
535.94	554.75
536.154	519.75
536.369	531.75
536.583	520.75
536.797	525.75
537.011	532.75
537.225	544.75
537.44	529.75
537.654	547.75
537.868	558.75
538.082	526.75
538.296	513.75
538.51	522.75
538.724	553.75
538.938	522.75
539.153	538.75
539.367	543.75
539.581	526.75
539.795	539.75
540.009	525.75
540.222	541.75
540.436	516.75
540.65	543.75
540.864	535.75
541.078	542.75
541.292	521.75
541.506	533.75
541.72	529.75
541.934	520.75
542.147	531.75
542.361	527.75
542.575	537.75
542.789	517.75
543.002	501.75
543.216	530.75
543.43	535.75
543.644	529.75
543.857	521.75
544.071	540.75
544.285	542.75
544.498	527.75
544.712	519.75
544.925	514.75
545.139	540.75
545.352	512.75
545.566	496.75
545.779	527.75
545.993	511.75
546.206	537.75
546.42	535.75
546.633	521.75
546.847	514.75
547.06	526.75
547.274	528.75
547.487	507.75
547.7	515.75
547.914	511.75
548.127	528.75
548.34	541.75
548.554	510.75
548.767	522.75
548.98	501.75
549.193	502.75
549.407	523.75
549.62	521.75
549.833	512.75
550.046	548.75
550.259	528.75
550.473	498.75
550.686	504.75
550.899	522.75
551.112	519.75
551.325	506.75
551.538	510.75
551.751	491.75
551.964	527.75
552.177	513.75
552.39	514.75
552.603	519.75
552.816	515.75
553.029	513.75
553.242	523.75
553.455	529.75
553.667	549.75
553.88	528.75
554.093	533.75
554.306	541.75
554.519	548.75
554.732	530.75
554.944	507.75
555.157	512.75
555.37	519.75
555.583	508.75
555.795	509.75
556.008	491.75
556.221	487.75
556.433	474.75
556.646	475.75
556.859	474.75
557.071	476.75
557.284	480.75
557.496	484.75
557.709	448.75
557.921	485.75
558.134	467.75
558.346	455.75
558.559	459.75
558.771	456.75
558.984	459.75
559.196	445.75
559.409	439.75
559.621	455.75
559.833	458.75
560.046	444.75
560.258	453.75
560.47	447.75
560.683	444.75
560.895	448.75
561.107	443.75
561.32	437.75
561.532	466.75
561.744	460.75
561.956	467.75
562.168	454.75
562.381	453.75
562.593	445.75
562.805	466.75
563.017	469.75
563.229	453.75
563.441	474.75
563.653	453.75
563.865	451.75
564.077	471.75
564.289	475.75
564.501	486.75
564.713	490.75
564.925	492.75
565.137	499.75
565.349	496.75
565.561	507.75
565.773	505.75
565.985	513.75
566.197	544.75
566.408	528.75
566.62	558.75
566.832	591.75
567.044	591.75
567.255	583.75
567.467	595.75
567.679	620.75
567.891	637.75
568.102	615.75
568.314	630.75
568.526	572.75
568.737	548.75
568.949	532.75
569.161	530.75
569.372	504.75
569.584	488.75
569.795	483.75
570.007	482.75
570.218	502.75
570.43	471.75
570.641	463.75
570.853	456.75
571.064	464.75
571.276	452.75
571.487	435.75
571.698	426.75
571.91	443.75
572.121	439.75
572.333	406.75
572.544	400.75
572.755	422.75
572.966	418.75
573.178	396.75
573.389	391.75
573.6	380.75
573.811	378.75
574.023	378.75
574.234	373.75
574.445	403.75
574.656	406.75
574.867	402.75
575.078	401.75
575.289	373.75
575.501	381.75
575.712	375.75
575.923	373.75
576.134	371.75
576.345	379.75
576.556	366.75
576.767	370.75
576.978	390.75
577.188	379.75
577.399	378.75
577.61	379.75
577.821	391.75
578.032	391.75
578.243	407.75
578.454	538.75
578.665	459.75
578.875	375.75
579.086	383.75
579.297	375.75
579.508	367.75
579.718	358.75
579.929	369.75
580.14	349.75
580.35	358.75
580.561	357.75
580.772	348.75
580.982	355.75
581.193	356.75
581.403	363.75
581.614	352.75
581.825	345.75
582.035	356.75
582.246	351.75
582.456	346.75
582.667	334.75
582.877	335.75
583.087	366.75
583.298	352.75
583.508	341.75
583.719	339.75
583.929	343.75
584.139	347.75
584.35	346.75
584.56	340.75
584.77	352.75
584.981	351.75
585.191	365.75
585.401	340.75
585.611	344.75
585.821	347.75
586.032	336.75
586.242	343.75
586.452	347.75
586.662	330.75
586.872	349.75
587.082	366.75
587.292	326.75
587.502	345.75
587.713	334.75
587.923	338.75
588.133	355.75
588.343	347.75
588.553	335.75
588.762	353.75
588.972	331.75
589.182	350.75
589.392	354.75
589.602	332.75
589.812	331.75
590.022	355.75
590.232	337.75
590.441	339.75
590.651	343.75
590.861	330.75
591.071	313.75
591.281	337.75
591.49	351.75
591.7	338.75
591.91	347.75
592.119	336.75
592.329	360.75
592.539	352.75
592.748	363.75
592.958	373.75
593.167	370.75
593.377	379.75
593.587	389.75
593.796	371.75
594.006	379.75
594.215	381.75
594.424	378.75
594.634	368.75
594.843	366.75
595.053	355.75
595.262	346.75
595.472	337.75
595.681	346.75
595.89	321.75
596.1	330.75
596.309	342.75
596.518	333.75
596.727	319.75
596.937	317.75
597.146	327.75
597.355	320.75
597.564	303.75
597.774	296.75
597.983	304.75
598.192	314.75
598.401	297.75
598.61	321.75
598.819	305.75
599.028	317.75
599.237	278.75
599.446	295.75
599.655	323.75
599.864	300.75
600.073	292.75
600.282	302.75
600.491	318.75
600.7	317.75
600.909	289.75
601.118	303.75
601.327	302.75
601.536	289.75
601.745	293.75
601.953	297.75
602.162	299.75
602.371	304.75
602.58	288.75
602.789	297.75
602.997	304.75
603.206	286.75
603.415	309.75
603.623	273.75
603.832	285.75
604.041	294.75
604.249	284.75
604.458	262.75
604.666	281.75
604.875	277.75
605.084	304.75
605.292	289.75
605.501	292.75
605.709	275.75
605.918	279.75
606.126	276.75
606.334	290.75
606.543	279.75
606.751	297.75
606.96	278.75
607.168	291.75
607.376	286.75
607.585	278.75
607.793	285.75
608.001	297.75
608.21	292.75
608.418	286.75
608.626	278.75
608.834	281.75
609.043	276.75
609.251	271.75
609.459	279.75
609.667	266.75
609.875	271.75
610.083	294.75
610.291	275.75
610.499	270.75
610.707	280.75
610.916	290.75
611.124	290.75
611.332	270.75
611.54	281.75
611.748	280.75
611.955	275.75
612.163	283.75
612.371	300.75
612.579	274.75
612.787	272.75
612.995	286.75
613.203	269.75
613.411	261.75
613.618	262.75
613.826	270.75
614.034	274.75
614.242	289.75
614.449	249.75
614.657	268.75
614.865	285.75
615.072	276.75
615.28	289.75
615.488	260.75
615.695	268.75
615.903	274.75
616.111	295.75
616.318	273.75
616.526	272.75
616.733	286.75
616.941	281.75
617.148	272.75
617.356	272.75
617.563	274.75
617.771	273.75
617.978	267.75
618.185	270.75
618.393	287.75
618.6	275.75
618.807	264.75
619.015	270.75
619.222	253.75
619.429	261.75
619.637	270.75
619.844	246.75
620.051	277.75
620.258	268.75
620.466	251.75
620.673	256.75
620.88	250.75
621.087	253.75
621.294	271.75
621.501	254.75
621.708	263.75
621.915	272.75
622.122	258.75
622.329	264.75
622.536	277.75
622.743	240.75
622.95	246.75
623.157	232.75
623.364	257.75
623.571	258.75
623.778	251.75
623.985	234.75
624.192	239.75
624.399	250.75
624.606	238.75
624.812	248.75
625.019	251.75
625.226	234.75
625.433	229.75
625.639	245.75
625.846	245.75
626.053	241.75
626.259	232.75
626.466	238.75
626.673	228.75
626.879	239.75
627.086	249.75
627.293	242.75
627.499	231.75
627.706	222.75
627.912	234.75
628.119	241.75
628.325	224.75
628.532	222.75
628.738	223.75
628.945	235.75
629.151	229.75
629.357	221.75
629.564	215.75
629.77	218.75
629.976	233.75
630.183	219.75
630.389	236.75
630.595	230.75
630.802	231.75
631.008	214.75
631.214	216.75
631.42	229.75
631.627	216.75
631.833	217.75
632.039	235.75
632.245	214.75
632.451	231.75
632.657	208.75
632.863	225.75
633.069	197.75
633.275	225.75
633.481	220.75
633.688	223.75
633.893	216.75
634.099	203.75
634.305	215.75
634.511	206.75
634.717	207.75
634.923	209.75
635.129	187.75
635.335	213.75
635.541	211.75
635.747	199.75
635.952	209.75
636.158	202.75
636.364	206.75
636.57	229.75
636.775	207.75
636.981	205.75
637.187	216.75
637.392	214.75
637.598	205.75
637.804	209.75
638.009	210.75
638.215	202.75
638.421	210.75
638.626	206.75
638.832	201.75
639.037	203.75
639.243	204.75
639.448	197.75
639.654	201.75
639.859	203.75
640.065	199.75
640.27	205.75
640.475	198.75
640.681	201.75
640.886	210.75
641.091	201.75
641.297	206.75
641.502	200.75
641.707	200.75
641.913	208.75
642.118	204.75
642.323	182.75
642.528	199.75
642.733	182.75
642.939	176.75
643.144	186.75
643.349	191.75
643.554	197.75
643.759	191.75
643.964	200.75
644.169	176.75
644.374	178.75
644.579	191.75
644.784	182.75
644.989	189.75
645.194	184.75
645.399	182.75
645.604	190.75
645.809	197.75
646.014	191.75
646.219	195.75
646.423	203.75
646.628	195.75
646.833	193.75
647.038	192.75
647.243	186.75
647.447	187.75
647.652	191.75
647.857	173.75
648.062	189.75
648.266	187.75
648.471	190.75
648.676	204.75
648.88	196.75
649.085	190.75
649.289	179.75
649.494	191.75
649.698	219.75
649.903	194.75
650.107	199.75
650.312	197.75
650.516	189.75
650.721	167.75
650.925	159.75
651.13	172.75
651.334	176.75
651.539	168.75
651.743	160.75
651.947	175.75
652.152	168.75
652.356	164.75
652.56	179.75
652.764	150.75
652.969	160.75
653.173	163.75
653.377	161.75
653.581	168.75
653.785	146.75
653.99	163.75
654.194	136.75
654.398	158.75
654.602	152.75
654.806	153.75
655.01	139.75
655.214	138.75
655.418	161.75
655.622	138.75
655.826	162.75
656.03	159.75
656.234	153.75
656.438	151.75
656.642	146.75
656.846	148.75
657.049	139.75
657.253	151.75
657.457	150.75
657.661	137.75
657.865	124.75
658.068	130.75
658.272	113.75
658.476	124.75
658.68	124.75
658.883	120.75
659.087	99.75
659.291	121.75
659.494	119.75
659.698	105.75
659.901	102.75
660.105	106.75
660.309	98.75
660.512	102.75
660.716	92.75
660.919	91.75
661.123	112.75
661.326	91.75
661.53	89.75
661.733	93.75
661.936	93.75
662.14	98.75
662.343	89.75
662.546	95.75
662.75	104.75
662.953	95.75
663.156	94.75
663.36	86.75
663.563	98.75
663.766	80.75
663.969	90.75
664.173	80.75
664.376	94.75
664.579	93.75
664.782	86.75
664.985	95.75
665.188	82.75
665.391	92.75
665.594	80.75
665.797	78.75
666	86.75
666.203	85.75
666.406	69.75
666.609	72.75
666.812	93.75
667.015	93.75
667.218	88.75
667.421	88.75
667.624	81.75
667.827	97.75
668.03	78.75
668.232	75.75
668.435	96.75
668.638	92.75
668.841	93.75
669.043	83.75
669.246	87.75
669.449	88.75
669.651	86.75
669.854	90.75
670.057	84.75
670.259	91.75
670.462	72.75
670.665	97.75
670.867	89.75
671.07	81.75
671.272	92.75
671.475	96.75
671.677	88.75
671.88	94.75
672.082	83.75
672.284	81.75
672.487	79.75
672.689	98.75
672.892	93.75
