Data from 1974.PennyLincolnUp.Lamp.En5.5.200Scan.071719.P1.Changed Mount._HRD10591_15-54-19-858.txt Node
Date: Thu Jul 18 15:54:19 EDT 2019
User: cochatt
Spectrometer: HR+D1059
Trigger mode: 1
Integration Time (sec): 1.000000E-1
Scans to average: 1
Electric dark correction enabled: true
Nonlinearity correction enabled: false
Boxcar width: 0
XAxis mode: Wavelengths
Number of Pixels in Spectrum: 2048
>>>>>Begin Spectral Data<<<<<
223.165	-17.62
223.4	-17.62
223.635	-17.62
223.869	-16.62
224.104	-17.62
224.338	-13.62
224.573	-17.62
224.808	-15.62
225.042	-12.62
225.277	-1.62
225.511	0.38
225.746	6.38
225.98	6.38
226.215	5.38
226.449	15.38
226.683	20.38
226.918	26.38
227.152	32.38
227.387	32.38
227.621	37.38
227.856	36.38
228.09	47.38
228.324	49.38
228.559	51.38
228.793	64.38
229.027	103.38
229.262	109.38
229.496	104.38
229.73	138.38
229.964	150.38
230.199	132.38
230.433	118.38
230.667	119.38
230.901	112.38
231.136	121.38
231.37	127.38
231.604	127.38
231.838	132.38
232.072	127.38
232.306	131.38
232.541	112.38
232.775	121.38
233.009	105.38
233.243	128.38
233.477	109.38
233.711	117.38
233.945	127.38
234.179	104.38
234.413	132.38
234.647	106.38
234.881	110.38
235.115	118.38
235.349	107.38
235.583	118.38
235.817	120.38
236.051	123.38
236.285	126.38
236.519	142.38
236.753	139.38
236.987	150.38
237.221	196.38
237.455	239.38
237.689	208.38
237.922	152.38
238.156	142.38
238.39	142.38
238.624	124.38
238.858	130.38
239.091	128.38
239.325	127.38
239.559	137.38
239.793	131.38
240.027	138.38
240.26	154.38
240.494	161.38
240.728	167.38
240.961	152.38
241.195	157.38
241.429	146.38
241.662	130.38
241.896	139.38
242.13	139.38
242.363	153.38
242.597	138.38
242.83	131.38
243.064	153.38
243.298	144.38
243.531	143.38
243.765	144.38
243.998	153.38
244.232	153.38
244.465	153.38
244.699	151.38
244.932	156.38
245.166	159.38
245.399	169.38
245.633	177.38
245.866	165.38
246.099	159.38
246.333	160.38
246.566	147.38
246.8	172.38
247.033	194.38
247.266	158.38
247.5	159.38
247.733	182.38
247.966	171.38
248.2	198.38
248.433	192.38
248.666	185.38
248.899	190.38
249.133	200.38
249.366	203.38
249.599	184.38
249.832	189.38
250.066	191.38
250.299	206.38
250.532	195.38
250.765	225.38
250.998	250.38
251.231	234.38
251.465	231.38
251.698	233.38
251.931	211.38
252.164	227.38
252.397	216.38
252.63	196.38
252.863	221.38
253.096	224.38
253.329	233.38
253.562	242.38
253.795	224.38
254.028	238.38
254.261	229.38
254.494	227.38
254.727	272.38
254.96	295.38
255.193	287.38
255.426	281.38
255.659	244.38
255.892	252.38
256.124	238.38
256.357	243.38
256.59	242.38
256.823	222.38
257.056	228.38
257.289	222.38
257.521	220.38
257.754	228.38
257.987	208.38
258.22	218.38
258.452	229.38
258.685	221.38
258.918	225.38
259.151	230.38
259.383	225.38
259.616	242.38
259.849	234.38
260.081	257.38
260.314	280.38
260.547	269.38
260.779	275.38
261.012	251.38
261.244	225.38
261.477	261.38
261.71	228.38
261.942	252.38
262.175	246.38
262.407	259.38
262.64	251.38
262.872	252.38
263.105	230.38
263.337	230.38
263.57	231.38
263.802	220.38
264.035	233.38
264.267	229.38
264.499	223.38
264.732	227.38
264.964	231.38
265.197	224.38
265.429	244.38
265.661	222.38
265.894	235.38
266.126	234.38
266.358	227.38
266.591	234.38
266.823	239.38
267.055	236.38
267.287	256.38
267.52	264.38
267.752	251.38
267.984	256.38
268.216	254.38
268.448	247.38
268.681	259.38
268.913	254.38
269.145	266.38
269.377	297.38
269.609	292.38
269.841	284.38
270.073	307.38
270.306	305.38
270.538	336.38
270.77	336.38
271.002	312.38
271.234	322.38
271.466	331.38
271.698	342.38
271.93	342.38
272.162	339.38
272.394	347.38
272.626	340.38
272.858	313.38
273.09	310.38
273.322	305.38
273.553	284.38
273.785	293.38
274.017	274.38
274.249	283.38
274.481	262.38
274.713	280.38
274.945	309.38
275.176	304.38
275.408	280.38
275.64	287.38
275.872	280.38
276.104	278.38
276.335	271.38
276.567	296.38
276.799	304.38
277.031	329.38
277.262	337.38
277.494	335.38
277.726	321.38
277.957	310.38
278.189	312.38
278.421	295.38
278.652	307.38
278.884	314.38
279.115	296.38
279.347	284.38
279.579	282.38
279.81	280.38
280.042	290.38
280.273	300.38
280.505	297.38
280.736	302.38
280.968	317.38
281.199	289.38
281.431	289.38
281.662	311.38
281.894	294.38
282.125	316.38
282.356	310.38
282.588	342.38
282.819	330.38
283.051	307.38
283.282	298.38
283.513	298.38
283.745	303.38
283.976	319.38
284.207	319.38
284.439	314.38
284.67	295.38
284.901	322.38
285.132	314.38
285.364	301.38
285.595	315.38
285.826	324.38
286.057	311.38
286.288	294.38
286.52	316.38
286.751	323.38
286.982	316.38
287.213	309.38
287.444	314.38
287.675	322.38
287.906	313.38
288.138	333.38
288.369	322.38
288.6	338.38
288.831	335.38
289.062	330.38
289.293	333.38
289.524	322.38
289.755	329.38
289.986	331.38
290.217	314.38
290.448	311.38
290.679	338.38
290.91	307.38
291.141	318.38
291.371	323.38
291.602	333.38
291.833	304.38
292.064	329.38
292.295	343.38
292.526	316.38
292.757	321.38
292.987	303.38
293.218	302.38
293.449	324.38
293.68	311.38
293.91	297.38
294.141	319.38
294.372	332.38
294.603	330.38
294.833	330.38
295.064	329.38
295.295	335.38
295.525	326.38
295.756	319.38
295.987	330.38
296.217	353.38
296.448	358.38
296.679	325.38
296.909	323.38
297.14	309.38
297.37	329.38
297.601	333.38
297.831	336.38
298.062	336.38
298.292	352.38
298.523	337.38
298.753	337.38
298.984	335.38
299.214	334.38
299.445	343.38
299.675	332.38
299.905	342.38
300.136	337.38
300.366	346.38
300.597	359.38
300.827	348.38
301.057	371.38
301.288	371.38
301.518	354.38
301.748	368.38
301.979	371.38
302.209	354.38
302.439	355.38
302.669	368.38
302.9	377.38
303.13	355.38
303.36	368.38
303.59	359.38
303.82	377.38
304.051	363.38
304.281	362.38
304.511	370.38
304.741	352.38
304.971	363.38
305.201	370.38
305.431	326.38
305.661	366.38
305.891	350.38
306.121	366.38
306.352	350.38
306.582	342.38
306.812	357.38
307.042	369.38
307.272	368.38
307.502	360.38
307.731	361.38
307.961	383.38
308.191	376.38
308.421	342.38
308.651	378.38
308.881	366.38
309.111	375.38
309.341	372.38
309.571	396.38
309.8	379.38
310.03	407.38
310.26	398.38
310.49	394.38
310.72	412.38
310.949	406.38
311.179	416.38
311.409	410.38
311.639	406.38
311.868	412.38
312.098	394.38
312.328	406.38
312.557	414.38
312.787	434.38
313.017	406.38
313.246	389.38
313.476	408.38
313.706	405.38
313.935	432.38
314.165	430.38
314.394	417.38
314.624	402.38
314.853	424.38
315.083	414.38
315.312	431.38
315.542	405.38
315.771	400.38
316.001	389.38
316.23	399.38
316.46	400.38
316.689	409.38
316.919	415.38
317.148	403.38
317.377	440.38
317.607	415.38
317.836	414.38
318.065	399.38
318.295	411.38
318.524	406.38
318.753	403.38
318.983	414.38
319.212	406.38
319.441	402.38
319.67	406.38
319.9	418.38
320.129	404.38
320.358	427.38
320.587	436.38
320.816	436.38
321.046	434.38
321.275	431.38
321.504	420.38
321.733	410.38
321.962	426.38
322.191	440.38
322.42	444.38
322.649	457.38
322.878	461.38
323.108	483.38
323.337	491.38
323.566	483.38
323.795	524.38
324.024	560.38
324.253	656.38
324.482	909.38
324.71	1339.38
324.939	2050.38
325.168	1782.38
325.397	889.38
325.626	616.38
325.855	571.38
326.084	511.38
326.313	513.38
326.542	518.38
326.77	548.38
326.999	630.38
327.228	849.38
327.457	1268.38
327.686	1566.38
327.914	1036.38
328.143	712.38
328.372	632.38
328.6	590.38
328.829	574.38
329.058	572.38
329.287	588.38
329.515	550.38
329.744	544.38
329.972	535.38
330.201	544.38
330.43	584.38
330.658	614.38
330.887	619.38
331.115	624.38
331.344	552.38
331.572	523.38
331.801	510.38
332.03	524.38
332.258	527.38
332.486	525.38
332.715	494.38
332.943	500.38
333.172	513.38
333.4	533.38
333.629	536.38
333.857	531.38
334.085	540.38
334.314	571.38
334.542	567.38
334.771	603.38
334.999	558.38
335.227	511.38
335.455	520.38
335.684	523.38
335.912	491.38
336.14	479.38
336.369	490.38
336.597	501.38
336.825	522.38
337.053	491.38
337.281	481.38
337.51	472.38
337.738	499.38
337.966	500.38
338.194	503.38
338.422	502.38
338.65	469.38
338.878	471.38
339.106	484.38
339.334	466.38
339.562	461.38
339.79	470.38
340.018	487.38
340.246	468.38
340.474	459.38
340.702	481.38
340.93	478.38
341.158	474.38
341.386	492.38
341.614	498.38
341.842	476.38
342.07	466.38
342.298	483.38
342.526	458.38
342.754	472.38
342.981	453.38
343.209	466.38
343.437	474.38
343.665	491.38
343.893	510.38
344.12	500.38
344.348	499.38
344.576	463.38
344.804	494.38
345.031	494.38
345.259	482.38
345.487	477.38
345.714	467.38
345.942	461.38
346.17	455.38
346.397	477.38
346.625	452.38
346.853	439.38
347.08	470.38
347.308	456.38
347.535	462.38
347.763	473.38
347.99	500.38
348.218	470.38
348.445	479.38
348.673	476.38
348.9	470.38
349.128	466.38
349.355	459.38
349.583	445.38
349.81	448.38
350.037	438.38
350.265	438.38
350.492	457.38
350.72	455.38
350.947	448.38
351.174	466.38
351.402	476.38
351.629	476.38
351.856	460.38
352.083	472.38
352.311	473.38
352.538	470.38
352.765	467.38
352.992	463.38
353.22	454.38
353.447	444.38
353.674	464.38
353.901	437.38
354.128	437.38
354.355	417.38
354.583	425.38
354.81	448.38
355.037	450.38
355.264	449.38
355.491	435.38
355.718	448.38
355.945	417.38
356.172	406.38
356.399	448.38
356.626	433.38
356.853	438.38
357.08	432.38
357.307	426.38
357.534	449.38
357.761	427.38
357.988	447.38
358.215	424.38
358.441	447.38
358.668	451.38
358.895	443.38
359.122	465.38
359.349	444.38
359.576	450.38
359.802	477.38
360.029	508.38
360.256	493.38
360.483	480.38
360.709	462.38
360.936	466.38
361.163	463.38
361.39	472.38
361.616	456.38
361.843	468.38
362.07	472.38
362.296	477.38
362.523	463.38
362.749	459.38
362.976	460.38
363.203	451.38
363.429	441.38
363.656	454.38
363.882	443.38
364.109	455.38
364.335	462.38
364.562	442.38
364.788	458.38
365.015	455.38
365.241	425.38
365.468	436.38
365.694	456.38
365.92	455.38
366.147	466.38
366.373	442.38
366.599	435.38
366.826	475.38
367.052	437.38
367.278	448.38
367.505	478.38
367.731	437.38
367.957	454.38
368.184	461.38
368.41	442.38
368.636	470.38
368.862	466.38
369.089	470.38
369.315	435.38
369.541	452.38
369.767	434.38
369.993	455.38
370.219	424.38
370.445	465.38
370.672	451.38
370.898	467.38
371.124	449.38
371.35	448.38
371.576	451.38
371.802	448.38
372.028	460.38
372.254	481.38
372.48	451.38
372.706	479.38
372.932	468.38
373.158	447.38
373.384	450.38
373.61	450.38
373.835	450.38
374.061	476.38
374.287	458.38
374.513	482.38
374.739	477.38
374.965	506.38
375.191	454.38
375.416	482.38
375.642	457.38
375.868	479.38
376.094	472.38
376.319	438.38
376.545	472.38
376.771	454.38
376.997	459.38
377.222	472.38
377.448	489.38
377.674	470.38
377.899	464.38
378.125	459.38
378.35	439.38
378.576	435.38
378.802	455.38
379.027	458.38
379.253	459.38
379.478	463.38
379.704	465.38
379.929	464.38
380.155	448.38
380.38	454.38
380.606	459.38
380.831	460.38
381.057	474.38
381.282	474.38
381.507	486.38
381.733	460.38
381.958	467.38
382.184	480.38
382.409	461.38
382.634	483.38
382.86	466.38
383.085	480.38
383.31	472.38
383.535	504.38
383.761	486.38
383.986	490.38
384.211	499.38
384.436	487.38
384.662	488.38
384.887	506.38
385.112	491.38
385.337	506.38
385.562	499.38
385.787	502.38
386.013	516.38
386.238	531.38
386.463	507.38
386.688	516.38
386.913	519.38
387.138	518.38
387.363	514.38
387.588	515.38
387.813	509.38
388.038	528.38
388.263	538.38
388.488	518.38
388.713	501.38
388.938	521.38
389.163	508.38
389.387	521.38
389.612	518.38
389.837	497.38
390.062	528.38
390.287	518.38
390.512	498.38
390.736	519.38
390.961	507.38
391.186	520.38
391.411	531.38
391.636	512.38
391.86	510.38
392.085	547.38
392.31	539.38
392.534	529.38
392.759	540.38
392.984	539.38
393.208	529.38
393.433	515.38
393.658	547.38
393.882	529.38
394.107	532.38
394.331	501.38
394.556	514.38
394.78	520.38
395.005	560.38
395.229	540.38
395.454	566.38
395.678	564.38
395.903	552.38
396.127	577.38
396.352	556.38
396.576	569.38
396.801	556.38
397.025	548.38
397.249	573.38
397.474	568.38
397.698	573.38
397.922	580.38
398.147	586.38
398.371	610.38
398.595	587.38
398.82	605.38
399.044	608.38
399.268	672.38
399.492	698.38
399.717	755.38
399.941	754.38
400.165	754.38
400.389	764.38
400.613	732.38
400.837	652.38
401.062	624.38
401.286	630.38
401.51	608.38
401.734	595.38
401.958	605.38
402.182	605.38
402.406	647.38
402.63	614.38
402.854	604.38
403.078	626.38
403.302	618.38
403.526	651.38
403.75	642.38
403.974	626.38
404.198	632.38
404.422	629.38
404.645	627.38
404.869	655.38
405.093	658.38
405.317	721.38
405.541	749.38
405.765	726.38
405.988	690.38
406.212	655.38
406.436	688.38
406.66	707.38
406.883	672.38
407.107	726.38
407.331	777.38
407.555	825.38
407.778	839.38
408.002	754.38
408.226	716.38
408.449	683.38
408.673	690.38
408.896	696.38
409.12	765.38
409.344	711.38
409.567	682.38
409.791	637.38
410.014	646.38
410.238	618.38
410.461	641.38
410.685	621.38
410.908	647.38
411.132	672.38
411.355	721.38
411.578	688.38
411.802	651.38
412.025	615.38
412.249	624.38
412.472	674.38
412.695	691.38
412.919	700.38
413.142	642.38
413.365	620.38
413.589	630.38
413.812	601.38
414.035	603.38
414.258	613.38
414.482	604.38
414.705	602.38
414.928	607.38
415.151	610.38
415.374	591.38
415.597	592.38
415.821	591.38
416.044	576.38
416.267	589.38
416.49	583.38
416.713	585.38
416.936	598.38
417.159	590.38
417.382	598.38
417.605	601.38
417.828	599.38
418.051	657.38
418.274	635.38
418.497	624.38
418.72	594.38
418.943	603.38
419.166	614.38
419.389	665.38
419.611	638.38
419.834	622.38
420.057	658.38
420.28	632.38
420.503	639.38
420.726	598.38
420.948	640.38
421.171	673.38
421.394	699.38
421.617	632.38
421.839	654.38
422.062	631.38
422.285	642.38
422.507	689.38
422.73	759.38
422.953	753.38
423.175	674.38
423.398	660.38
423.621	653.38
423.843	672.38
424.066	660.38
424.288	655.38
424.511	684.38
424.733	751.38
424.956	840.38
425.178	811.38
425.401	808.38
425.623	819.38
425.846	724.38
426.068	659.38
426.291	648.38
426.513	654.38
426.735	675.38
426.958	691.38
427.18	784.38
427.402	935.38
427.625	1018.38
427.847	871.38
428.069	760.38
428.292	712.38
428.514	639.38
428.736	612.38
428.958	622.38
429.181	598.38
429.403	592.38
429.625	604.38
429.847	663.38
430.069	742.38
430.292	741.38
430.514	641.38
430.736	600.38
430.958	608.38
431.18	582.38
431.402	586.38
431.624	578.38
431.846	559.38
432.068	596.38
432.29	589.38
432.512	596.38
432.734	584.38
432.956	594.38
433.178	598.38
433.4	615.38
433.622	591.38
433.844	595.38
434.066	567.38
434.287	591.38
434.509	582.38
434.731	600.38
434.953	630.38
435.175	636.38
435.397	658.38
435.618	656.38
435.84	686.38
436.062	798.38
436.284	871.38
436.505	719.38
436.727	652.38
436.949	637.38
437.17	608.38
437.392	598.38
437.614	600.38
437.835	665.38
438.057	723.38
438.278	874.38
438.5	876.38
438.721	952.38
438.943	904.38
439.165	733.38
439.386	672.38
439.608	647.38
439.829	642.38
440.05	680.38
440.272	706.38
440.493	706.38
440.715	661.38
440.936	628.38
441.158	610.38
441.379	631.38
441.6	644.38
441.822	641.38
442.043	675.38
442.264	780.38
442.486	855.38
442.707	722.38
442.928	681.38
443.149	688.38
443.371	711.38
443.592	765.38
443.813	852.38
444.034	937.38
444.255	786.38
444.476	713.38
444.698	707.38
444.919	676.38
445.14	798.38
445.361	743.38
445.582	723.38
445.803	774.38
446.024	890.38
446.245	882.38
446.466	826.38
446.687	696.38
446.908	653.38
447.129	632.38
447.35	602.38
447.571	616.38
447.792	592.38
448.013	599.38
448.234	608.38
448.455	668.38
448.675	781.38
448.896	931.38
449.117	790.38
449.338	720.38
449.559	866.38
449.779	968.38
450	744.38
450.221	682.38
450.442	616.38
450.662	585.38
450.883	585.38
451.104	613.38
451.324	584.38
451.545	578.38
451.766	539.38
451.986	535.38
452.207	544.38
452.428	528.38
452.648	542.38
452.869	550.38
453.089	529.38
453.31	552.38
453.53	552.38
453.751	561.38
453.971	522.38
454.192	558.38
454.412	553.38
454.633	540.38
454.853	524.38
455.073	518.38
455.294	559.38
455.514	640.38
455.734	631.38
455.955	547.38
456.175	519.38
456.395	511.38
456.616	504.38
456.836	501.38
457.056	501.38
457.276	498.38
457.497	515.38
457.717	511.38
457.937	515.38
458.157	540.38
458.377	532.38
458.598	544.38
458.818	609.38
459.038	673.38
459.258	678.38
459.478	643.38
459.698	577.38
459.918	591.38
460.138	570.38
460.358	598.38
460.578	593.38
460.798	597.38
461.018	616.38
461.238	609.38
461.458	592.38
461.678	598.38
461.898	617.38
462.118	612.38
462.338	633.38
462.558	634.38
462.777	635.38
462.997	642.38
463.217	684.38
463.437	732.38
463.657	644.38
463.876	636.38
464.096	647.38
464.316	653.38
464.536	655.38
464.755	661.38
464.975	627.38
465.195	693.38
465.414	698.38
465.634	650.38
465.854	632.38
466.073	601.38
466.293	572.38
466.512	570.38
466.732	576.38
466.951	560.38
467.171	541.38
467.391	561.38
467.61	566.38
467.829	562.38
468.049	582.38
468.268	573.38
468.488	563.38
468.707	539.38
468.927	537.38
469.146	545.38
469.365	553.38
469.585	533.38
469.804	579.38
470.023	593.38
470.243	566.38
470.462	583.38
470.681	581.38
470.901	607.38
471.12	583.38
471.339	557.38
471.558	580.38
471.777	569.38
471.997	542.38
472.216	572.38
472.435	588.38
472.654	583.38
472.873	568.38
473.092	555.38
473.311	556.38
473.53	562.38
473.749	590.38
473.968	624.38
474.187	709.38
474.406	742.38
474.625	632.38
474.844	574.38
475.063	570.38
475.282	545.38
475.501	562.38
475.72	578.38
475.939	562.38
476.158	582.38
476.377	586.38
476.596	582.38
476.814	595.38
477.033	592.38
477.252	602.38
477.471	587.38
477.69	614.38
477.908	603.38
478.127	618.38
478.346	623.38
478.564	646.38
478.783	655.38
479.002	638.38
479.22	679.38
479.439	688.38
479.658	674.38
479.876	676.38
480.095	678.38
480.313	715.38
480.532	719.38
480.751	700.38
480.969	706.38
481.188	724.38
481.406	786.38
481.624	700.38
481.843	704.38
482.061	683.38
482.28	664.38
482.498	652.38
482.717	668.38
482.935	673.38
483.153	658.38
483.372	668.38
483.59	642.38
483.808	670.38
484.027	667.38
484.245	663.38
484.463	684.38
484.681	690.38
484.9	682.38
485.118	679.38
485.336	663.38
485.554	680.38
485.772	670.38
485.99	657.38
486.209	679.38
486.427	692.38
486.645	726.38
486.863	691.38
487.081	713.38
487.299	701.38
487.517	712.38
487.735	728.38
487.953	703.38
488.171	708.38
488.389	702.38
488.607	696.38
488.825	694.38
489.043	705.38
489.261	709.38
489.479	728.38
489.696	729.38
489.914	731.38
490.132	740.38
490.35	760.38
490.568	761.38
490.786	775.38
491.003	774.38
491.221	792.38
491.439	780.38
491.657	832.38
491.874	831.38
492.092	816.38
492.31	838.38
492.527	808.38
492.745	816.38
492.963	866.38
493.18	846.38
493.398	821.38
493.615	842.38
493.833	850.38
494.05	826.38
494.268	866.38
494.485	849.38
494.703	846.38
494.92	855.38
495.138	850.38
495.355	853.38
495.573	855.38
495.79	857.38
496.008	868.38
496.225	853.38
496.442	844.38
496.66	883.38
496.877	884.38
497.094	867.38
497.312	864.38
497.529	872.38
497.746	894.38
497.963	890.38
498.181	935.38
498.398	952.38
498.615	968.38
498.832	1004.38
499.049	996.38
499.267	1017.38
499.484	1086.38
499.701	1143.38
499.918	1209.38
500.135	1247.38
500.352	1351.38
500.569	1366.38
500.786	1391.38
501.003	1370.38
501.22	1325.38
501.437	1240.38
501.654	1140.38
501.871	1136.38
502.088	1086.38
502.305	1025.38
502.522	1011.38
502.739	970.38
502.956	946.38
503.172	907.38
503.389	886.38
503.606	905.38
503.823	904.38
504.04	838.38
504.256	841.38
504.473	874.38
504.69	857.38
504.907	857.38
505.123	849.38
505.34	831.38
505.557	803.38
505.773	840.38
505.99	798.38
506.207	801.38
506.423	808.38
506.64	820.38
506.856	786.38
507.073	768.38
507.289	785.38
507.506	745.38
507.722	781.38
507.939	809.38
508.155	772.38
508.372	763.38
508.588	758.38
508.805	750.38
509.021	747.38
509.238	786.38
509.454	770.38
509.67	770.38
509.887	745.38
510.103	746.38
510.319	753.38
510.536	818.38
510.752	1199.38
510.968	1010.38
511.184	746.38
511.401	719.38
511.617	716.38
511.833	696.38
512.049	683.38
512.265	705.38
512.481	715.38
512.698	691.38
512.914	696.38
513.13	682.38
513.346	696.38
513.562	708.38
513.778	722.38
513.994	706.38
514.21	728.38
514.426	741.38
514.642	778.38
514.858	779.38
515.074	804.38
515.29	891.38
515.506	1213.38
515.721	1066.38
515.937	816.38
516.153	787.38
516.369	751.38
516.585	767.38
516.801	737.38
517.016	742.38
517.232	754.38
517.448	747.38
517.664	764.38
517.879	774.38
518.095	751.38
518.311	747.38
518.527	754.38
518.742	754.38
518.958	719.38
519.173	696.38
519.389	694.38
519.605	734.38
519.82	709.38
520.036	712.38
520.251	707.38
520.467	743.38
520.682	735.38
520.898	742.38
521.113	769.38
521.329	766.38
521.544	841.38
521.76	971.38
521.975	1458.38
522.19	1499.38
522.406	904.38
522.621	741.38
522.836	681.38
523.052	649.38
523.267	629.38
523.482	636.38
523.698	657.38
523.913	632.38
524.128	634.38
524.343	632.38
524.559	606.38
524.774	615.38
524.989	633.38
525.204	609.38
525.419	601.38
525.634	629.38
525.849	596.38
526.064	592.38
526.28	592.38
526.495	567.38
526.71	581.38
526.925	602.38
527.14	567.38
527.355	566.38
527.57	581.38
527.785	552.38
527.999	566.38
528.214	588.38
528.429	593.38
528.644	586.38
528.859	575.38
529.074	583.38
529.289	612.38
529.503	672.38
529.718	641.38
529.933	635.38
530.148	582.38
530.363	578.38
530.577	580.38
530.792	583.38
531.007	548.38
531.221	569.38
531.436	575.38
531.651	563.38
531.865	552.38
532.08	568.38
532.295	572.38
532.509	551.38
532.724	576.38
532.938	572.38
533.153	541.38
533.367	554.38
533.582	564.38
533.796	576.38
534.011	563.38
534.225	570.38
534.44	553.38
534.654	547.38
534.868	554.38
535.083	565.38
535.297	556.38
535.511	582.38
535.726	576.38
535.94	568.38
536.154	547.38
536.369	543.38
536.583	533.38
536.797	524.38
537.011	536.38
537.225	538.38
537.44	527.38
537.654	535.38
537.868	555.38
538.082	503.38
538.296	534.38
538.51	546.38
538.724	540.38
538.938	522.38
539.153	541.38
539.367	542.38
539.581	560.38
539.795	532.38
540.009	538.38
540.222	525.38
540.436	541.38
540.65	528.38
540.864	538.38
541.078	538.38
541.292	544.38
541.506	530.38
541.72	544.38
541.934	549.38
542.147	550.38
542.361	549.38
542.575	536.38
542.789	488.38
543.002	549.38
543.216	556.38
543.43	519.38
543.644	538.38
543.857	520.38
544.071	567.38
544.285	547.38
544.498	523.38
544.712	525.38
544.925	547.38
545.139	537.38
545.352	532.38
545.566	505.38
545.779	528.38
545.993	533.38
546.206	522.38
546.42	560.38
546.633	518.38
546.847	522.38
547.06	511.38
547.274	542.38
547.487	543.38
547.7	546.38
547.914	525.38
548.127	521.38
548.34	530.38
548.554	507.38
548.767	551.38
548.98	520.38
549.193	530.38
549.407	524.38
549.62	508.38
549.833	539.38
550.046	515.38
550.259	520.38
550.473	515.38
550.686	510.38
550.899	495.38
551.112	510.38
551.325	525.38
551.538	507.38
551.751	511.38
551.964	522.38
552.177	498.38
552.39	497.38
552.603	503.38
552.816	536.38
553.029	527.38
553.242	524.38
553.455	542.38
553.667	551.38
553.88	534.38
554.093	514.38
554.306	522.38
554.519	507.38
554.732	512.38
554.944	504.38
555.157	523.38
555.37	513.38
555.583	491.38
555.795	497.38
556.008	490.38
556.221	489.38
556.433	472.38
556.646	473.38
556.859	476.38
557.071	453.38
557.284	444.38
557.496	493.38
557.709	467.38
557.921	465.38
558.134	470.38
558.346	459.38
558.559	479.38
558.771	457.38
558.984	480.38
559.196	454.38
559.409	452.38
559.621	460.38
559.833	460.38
560.046	431.38
560.258	465.38
560.47	465.38
560.683	458.38
560.895	462.38
561.107	441.38
561.32	459.38
561.532	474.38
561.744	475.38
561.956	442.38
562.168	464.38
562.381	483.38
562.593	453.38
562.805	474.38
563.017	450.38
563.229	468.38
563.441	465.38
563.653	457.38
563.865	475.38
564.077	458.38
564.289	464.38
564.501	463.38
564.713	494.38
564.925	506.38
565.137	507.38
565.349	500.38
565.561	508.38
565.773	513.38
565.985	533.38
566.197	547.38
566.408	549.38
566.62	556.38
566.832	588.38
567.044	611.38
567.255	623.38
567.467	633.38
567.679	628.38
567.891	638.38
568.102	632.38
568.314	622.38
568.526	603.38
568.737	582.38
568.949	567.38
569.161	528.38
569.372	481.38
569.584	510.38
569.795	475.38
570.007	472.38
570.218	509.38
570.43	508.38
570.641	478.38
570.853	456.38
571.064	459.38
571.276	462.38
571.487	430.38
571.698	445.38
571.91	441.38
572.121	425.38
572.333	430.38
572.544	418.38
572.755	405.38
572.966	406.38
573.178	399.38
573.389	413.38
573.6	394.38
573.811	382.38
574.023	404.38
574.234	392.38
574.445	395.38
574.656	404.38
574.867	378.38
575.078	372.38
575.289	384.38
575.501	396.38
575.712	378.38
575.923	388.38
576.134	396.38
576.345	379.38
576.556	372.38
576.767	380.38
576.978	400.38
577.188	400.38
577.399	394.38
577.61	370.38
577.821	370.38
578.032	377.38
578.243	414.38
578.454	561.38
578.665	450.38
578.875	373.38
579.086	370.38
579.297	367.38
579.508	369.38
579.718	357.38
579.929	365.38
580.14	334.38
580.35	349.38
580.561	385.38
580.772	343.38
580.982	349.38
581.193	350.38
581.403	345.38
581.614	345.38
581.825	358.38
582.035	332.38
582.246	342.38
582.456	344.38
582.667	342.38
582.877	362.38
583.087	336.38
583.298	343.38
583.508	331.38
583.719	346.38
583.929	355.38
584.139	340.38
584.35	356.38
584.56	361.38
584.77	346.38
584.981	339.38
585.191	335.38
585.401	344.38
585.611	349.38
585.821	354.38
586.032	340.38
586.242	328.38
586.452	361.38
586.662	345.38
586.872	336.38
587.082	347.38
587.292	332.38
587.502	326.38
587.713	319.38
587.923	331.38
588.133	342.38
588.343	334.38
588.553	341.38
588.762	331.38
588.972	343.38
589.182	327.38
589.392	348.38
589.602	350.38
589.812	311.38
590.022	334.38
590.232	344.38
590.441	362.38
590.651	339.38
590.861	350.38
591.071	337.38
591.281	343.38
591.49	322.38
591.7	328.38
591.91	346.38
592.119	356.38
592.329	361.38
592.539	368.38
592.748	358.38
592.958	390.38
593.167	385.38
593.377	374.38
593.587	374.38
593.796	369.38
594.006	356.38
594.215	398.38
594.424	379.38
594.634	376.38
594.843	361.38
595.053	367.38
595.262	368.38
595.472	347.38
595.681	350.38
595.89	353.38
596.1	339.38
596.309	335.38
596.518	351.38
596.727	306.38
596.937	318.38
597.146	324.38
597.355	310.38
597.564	304.38
597.774	270.38
597.983	296.38
598.192	303.38
598.401	308.38
598.61	296.38
598.819	297.38
599.028	307.38
599.237	302.38
599.446	298.38
599.655	296.38
599.864	302.38
600.073	303.38
600.282	297.38
600.491	304.38
600.7	298.38
600.909	288.38
601.118	272.38
601.327	302.38
601.536	291.38
601.745	296.38
601.953	288.38
602.162	286.38
602.371	284.38
602.58	281.38
602.789	295.38
602.997	300.38
603.206	281.38
603.415	292.38
603.623	276.38
603.832	287.38
604.041	282.38
604.249	262.38
604.458	266.38
604.666	258.38
604.875	269.38
605.084	303.38
605.292	275.38
605.501	279.38
605.709	278.38
605.918	282.38
606.126	288.38
606.334	294.38
606.543	292.38
606.751	275.38
606.96	278.38
607.168	305.38
607.376	273.38
607.585	258.38
607.793	266.38
608.001	299.38
608.21	284.38
608.418	283.38
608.626	280.38
608.834	273.38
609.043	281.38
609.251	282.38
609.459	280.38
609.667	274.38
609.875	267.38
610.083	263.38
610.291	282.38
610.499	267.38
610.707	266.38
610.916	267.38
611.124	287.38
611.332	295.38
611.54	278.38
611.748	267.38
611.955	268.38
612.163	266.38
612.371	279.38
612.579	270.38
612.787	269.38
612.995	268.38
613.203	274.38
613.411	256.38
613.618	284.38
613.826	267.38
614.034	266.38
614.242	267.38
614.449	258.38
614.657	268.38
614.865	272.38
615.072	274.38
615.28	266.38
615.488	286.38
615.695	257.38
615.903	259.38
616.111	266.38
616.318	260.38
616.526	277.38
616.733	265.38
616.941	266.38
617.148	279.38
617.356	271.38
617.563	261.38
617.771	269.38
617.978	267.38
618.185	262.38
618.393	263.38
618.6	250.38
618.807	269.38
619.015	254.38
619.222	239.38
619.429	262.38
619.637	262.38
619.844	265.38
620.051	259.38
620.258	258.38
620.466	270.38
620.673	245.38
620.88	240.38
621.087	239.38
621.294	247.38
621.501	266.38
621.708	260.38
621.915	233.38
622.122	234.38
622.329	265.38
622.536	265.38
622.743	256.38
622.95	217.38
623.157	278.38
623.364	245.38
623.571	263.38
623.778	252.38
623.985	241.38
624.192	254.38
624.399	234.38
624.606	232.38
624.812	239.38
625.019	246.38
625.226	229.38
625.433	250.38
625.639	260.38
625.846	244.38
626.053	226.38
626.259	230.38
626.466	225.38
626.673	224.38
626.879	217.38
627.086	245.38
627.293	231.38
627.499	216.38
627.706	230.38
627.912	233.38
628.119	232.38
628.325	212.38
628.532	246.38
628.738	235.38
628.945	238.38
629.151	240.38
629.357	223.38
629.564	219.38
629.77	214.38
629.976	220.38
630.183	209.38
630.389	231.38
630.595	219.38
630.802	208.38
631.008	206.38
631.214	232.38
631.42	224.38
631.627	215.38
631.833	215.38
632.039	229.38
632.245	208.38
632.451	227.38
632.657	218.38
632.863	223.38
633.069	224.38
633.275	213.38
633.481	201.38
633.688	215.38
633.893	211.38
634.099	201.38
634.305	201.38
634.511	201.38
634.717	212.38
634.923	204.38
635.129	188.38
635.335	192.38
635.541	215.38
635.747	214.38
635.952	191.38
636.158	197.38
636.364	220.38
636.57	211.38
636.775	206.38
636.981	187.38
637.187	219.38
637.392	194.38
637.598	206.38
637.804	203.38
638.009	196.38
638.215	201.38
638.421	209.38
638.626	196.38
638.832	203.38
639.037	190.38
639.243	181.38
639.448	199.38
639.654	198.38
639.859	198.38
640.065	194.38
640.27	191.38
640.475	198.38
640.681	194.38
640.886	194.38
641.091	174.38
641.297	192.38
641.502	192.38
641.707	173.38
641.913	183.38
642.118	194.38
642.323	199.38
642.528	191.38
642.733	188.38
642.939	189.38
643.144	203.38
643.349	185.38
643.554	182.38
643.759	180.38
643.964	198.38
644.169	179.38
644.374	188.38
644.579	204.38
644.784	182.38
644.989	178.38
645.194	178.38
645.399	184.38
645.604	187.38
645.809	175.38
646.014	163.38
646.219	178.38
646.423	194.38
646.628	188.38
646.833	199.38
647.038	169.38
647.243	190.38
647.447	189.38
647.652	171.38
647.857	174.38
648.062	184.38
648.266	194.38
648.471	194.38
648.676	196.38
648.88	183.38
649.085	175.38
649.289	164.38
649.494	184.38
649.698	191.38
649.903	199.38
650.107	186.38
650.312	178.38
650.516	195.38
650.721	178.38
650.925	160.38
651.13	175.38
651.334	183.38
651.539	157.38
651.743	145.38
651.947	160.38
652.152	161.38
652.356	153.38
652.56	161.38
652.764	153.38
652.969	150.38
653.173	154.38
653.377	165.38
653.581	161.38
653.785	139.38
653.99	146.38
654.194	151.38
654.398	153.38
654.602	158.38
654.806	149.38
655.01	151.38
655.214	154.38
655.418	141.38
655.622	138.38
655.826	144.38
656.03	154.38
656.234	148.38
656.438	149.38
656.642	148.38
656.846	127.38
657.049	129.38
657.253	119.38
657.457	120.38
657.661	128.38
657.865	115.38
658.068	120.38
658.272	121.38
658.476	105.38
658.68	111.38
658.883	112.38
659.087	110.38
659.291	96.38
659.494	103.38
659.698	116.38
659.901	94.38
660.105	96.38
660.309	105.38
660.512	92.38
660.716	95.38
660.919	87.38
661.123	85.38
661.326	75.38
661.53	91.38
661.733	92.38
661.936	83.38
662.14	75.38
662.343	84.38
662.546	74.38
662.75	78.38
662.953	93.38
663.156	82.38
663.36	72.38
663.563	84.38
663.766	84.38
663.969	78.38
664.173	80.38
664.376	82.38
664.579	80.38
664.782	73.38
664.985	70.38
665.188	77.38
665.391	76.38
665.594	65.38
665.797	88.38
666	72.38
666.203	76.38
666.406	78.38
666.609	82.38
666.812	72.38
667.015	86.38
667.218	92.38
667.421	89.38
667.624	67.38
667.827	78.38
668.03	74.38
668.232	94.38
668.435	87.38
668.638	67.38
668.841	83.38
669.043	85.38
669.246	91.38
669.449	80.38
669.651	87.38
669.854	84.38
670.057	89.38
670.259	66.38
670.462	84.38
670.665	84.38
670.867	86.38
671.07	76.38
671.272	88.38
671.475	87.38
671.677	103.38
671.88	90.38
672.082	75.38
672.284	88.38
672.487	75.38
672.689	91.38
672.892	82.38
