Data from 1974.PennyLincolnUp.Lamp.En5.5.200Scan.071719.P1.Changed Mount._HRD10591_15-51-35-855.txt Node
Date: Thu Jul 18 15:51:35 EDT 2019
User: cochatt
Spectrometer: HR+D1059
Trigger mode: 1
Integration Time (sec): 1.000000E-1
Scans to average: 1
Electric dark correction enabled: true
Nonlinearity correction enabled: false
Boxcar width: 0
XAxis mode: Wavelengths
Number of Pixels in Spectrum: 2048
>>>>>Begin Spectral Data<<<<<
223.165	-12.12
223.4	-12.12
223.635	-12.12
223.869	-25.12
224.104	-6.12
224.338	-7.12
224.573	-16.12
224.808	-17.12
225.042	-10.12
225.277	-12.12
225.511	-3.12
225.746	3.88
225.98	5.88
226.215	4.88
226.449	28.88
226.683	12.88
226.918	19.88
227.152	32.88
227.387	30.88
227.621	41.88
227.856	39.88
228.09	43.88
228.324	45.88
228.559	47.88
228.793	66.88
229.027	81.88
229.262	104.88
229.496	129.88
229.73	123.88
229.964	143.88
230.199	126.88
230.433	104.88
230.667	108.88
230.901	114.88
231.136	108.88
231.37	117.88
231.604	112.88
231.838	110.88
232.072	120.88
232.306	111.88
232.541	108.88
232.775	112.88
233.009	109.88
233.243	131.88
233.477	119.88
233.711	133.88
233.945	128.88
234.179	109.88
234.413	113.88
234.647	120.88
234.881	131.88
235.115	112.88
235.349	107.88
235.583	125.88
235.817	126.88
236.051	125.88
236.285	120.88
236.519	127.88
236.753	123.88
236.987	145.88
237.221	177.88
237.455	215.88
237.689	192.88
237.922	158.88
238.156	121.88
238.39	144.88
238.624	128.88
238.858	142.88
239.091	118.88
239.325	127.88
239.559	133.88
239.793	132.88
240.027	129.88
240.26	133.88
240.494	171.88
240.728	138.88
240.961	141.88
241.195	145.88
241.429	121.88
241.662	125.88
241.896	125.88
242.13	127.88
242.363	143.88
242.597	129.88
242.83	139.88
243.064	138.88
243.298	146.88
243.531	146.88
243.765	148.88
243.998	135.88
244.232	143.88
244.465	153.88
244.699	160.88
244.932	157.88
245.166	169.88
245.399	159.88
245.633	151.88
245.866	158.88
246.099	157.88
246.333	143.88
246.566	165.88
246.8	149.88
247.033	151.88
247.266	143.88
247.5	161.88
247.733	168.88
247.966	174.88
248.2	165.88
248.433	183.88
248.666	159.88
248.899	171.88
249.133	184.88
249.366	205.88
249.599	189.88
249.832	185.88
250.066	189.88
250.299	172.88
250.532	187.88
250.765	192.88
250.998	200.88
251.231	227.88
251.465	211.88
251.698	205.88
251.931	201.88
252.164	195.88
252.397	183.88
252.63	212.88
252.863	202.88
253.096	210.88
253.329	221.88
253.562	207.88
253.795	208.88
254.028	211.88
254.261	219.88
254.494	222.88
254.727	249.88
254.96	257.88
255.193	277.88
255.426	251.88
255.659	206.88
255.892	205.88
256.124	237.88
256.357	215.88
256.59	213.88
256.823	189.88
257.056	212.88
257.289	213.88
257.521	197.88
257.754	212.88
257.987	227.88
258.22	205.88
258.452	222.88
258.685	207.88
258.918	210.88
259.151	218.88
259.383	232.88
259.616	209.88
259.849	213.88
260.081	235.88
260.314	241.88
260.547	262.88
260.779	225.88
261.012	224.88
261.244	203.88
261.477	215.88
261.71	221.88
261.942	216.88
262.175	233.88
262.407	205.88
262.64	219.88
262.872	222.88
263.105	218.88
263.337	201.88
263.57	220.88
263.802	215.88
264.035	239.88
264.267	222.88
264.499	216.88
264.732	212.88
264.964	201.88
265.197	215.88
265.429	209.88
265.661	208.88
265.894	227.88
266.126	224.88
266.358	212.88
266.591	225.88
266.823	237.88
267.055	254.88
267.287	225.88
267.52	214.88
267.752	237.88
267.984	222.88
268.216	230.88
268.448	259.88
268.681	240.88
268.913	229.88
269.145	260.88
269.377	257.88
269.609	256.88
269.841	262.88
270.073	280.88
270.306	273.88
270.538	284.88
270.77	293.88
271.002	285.88
271.234	280.88
271.466	277.88
271.698	282.88
271.93	297.88
272.162	302.88
272.394	307.88
272.626	293.88
272.858	268.88
273.09	259.88
273.322	245.88
273.553	262.88
273.785	269.88
274.017	259.88
274.249	258.88
274.481	254.88
274.713	255.88
274.945	282.88
275.176	289.88
275.408	263.88
275.64	248.88
275.872	256.88
276.104	266.88
276.335	292.88
276.567	269.88
276.799	268.88
277.031	283.88
277.262	282.88
277.494	312.88
277.726	319.88
277.957	283.88
278.189	288.88
278.421	269.88
278.652	279.88
278.884	283.88
279.115	276.88
279.347	266.88
279.579	251.88
279.81	273.88
280.042	269.88
280.273	268.88
280.505	276.88
280.736	274.88
280.968	250.88
281.199	284.88
281.431	270.88
281.662	287.88
281.894	271.88
282.125	274.88
282.356	285.88
282.588	303.88
282.819	301.88
283.051	287.88
283.282	277.88
283.513	268.88
283.745	301.88
283.976	288.88
284.207	287.88
284.439	268.88
284.67	275.88
284.901	296.88
285.132	266.88
285.364	295.88
285.595	277.88
285.826	298.88
286.057	286.88
286.288	269.88
286.52	285.88
286.751	286.88
286.982	291.88
287.213	288.88
287.444	297.88
287.675	266.88
287.906	299.88
288.138	317.88
288.369	301.88
288.6	322.88
288.831	313.88
289.062	319.88
289.293	286.88
289.524	284.88
289.755	295.88
289.986	281.88
290.217	281.88
290.448	302.88
290.679	310.88
290.91	302.88
291.141	292.88
291.371	304.88
291.602	312.88
291.833	286.88
292.064	301.88
292.295	303.88
292.526	290.88
292.757	304.88
292.987	302.88
293.218	299.88
293.449	303.88
293.68	293.88
293.91	286.88
294.141	301.88
294.372	309.88
294.603	283.88
294.833	303.88
295.064	280.88
295.295	291.88
295.525	291.88
295.756	290.88
295.987	305.88
296.217	297.88
296.448	328.88
296.679	307.88
296.909	316.88
297.14	302.88
297.37	314.88
297.601	303.88
297.831	307.88
298.062	309.88
298.292	309.88
298.523	313.88
298.753	309.88
298.984	301.88
299.214	319.88
299.445	305.88
299.675	311.88
299.905	316.88
300.136	316.88
300.366	331.88
300.597	325.88
300.827	310.88
301.057	331.88
301.288	333.88
301.518	318.88
301.748	328.88
301.979	346.88
302.209	325.88
302.439	332.88
302.669	329.88
302.9	320.88
303.13	315.88
303.36	329.88
303.59	325.88
303.82	340.88
304.051	341.88
304.281	332.88
304.511	321.88
304.741	340.88
304.971	344.88
305.201	332.88
305.431	326.88
305.661	319.88
305.891	327.88
306.121	340.88
306.352	335.88
306.582	330.88
306.812	314.88
307.042	337.88
307.272	308.88
307.502	326.88
307.731	339.88
307.961	326.88
308.191	338.88
308.421	341.88
308.651	335.88
308.881	342.88
309.111	349.88
309.341	318.88
309.571	344.88
309.8	360.88
310.03	337.88
310.26	375.88
310.49	369.88
310.72	362.88
310.949	366.88
311.179	378.88
311.409	377.88
311.639	362.88
311.868	381.88
312.098	361.88
312.328	383.88
312.557	373.88
312.787	381.88
313.017	368.88
313.246	376.88
313.476	360.88
313.706	375.88
313.935	371.88
314.165	373.88
314.394	385.88
314.624	380.88
314.853	356.88
315.083	367.88
315.312	370.88
315.542	371.88
315.771	359.88
316.001	368.88
316.23	374.88
316.46	380.88
316.689	385.88
316.919	377.88
317.148	375.88
317.377	376.88
317.607	365.88
317.836	375.88
318.065	376.88
318.295	369.88
318.524	353.88
318.753	366.88
318.983	357.88
319.212	385.88
319.441	379.88
319.67	371.88
319.9	383.88
320.129	385.88
320.358	396.88
320.587	364.88
320.816	386.88
321.046	379.88
321.275	390.88
321.504	388.88
321.733	377.88
321.962	380.88
322.191	401.88
322.42	404.88
322.649	399.88
322.878	397.88
323.108	425.88
323.337	437.88
323.566	427.88
323.795	437.88
324.024	474.88
324.253	539.88
324.482	721.88
324.71	1112.88
324.939	1625.88
325.168	1425.88
325.397	741.88
325.626	537.88
325.855	456.88
326.084	441.88
326.313	438.88
326.542	455.88
326.77	486.88
326.999	546.88
327.228	689.88
327.457	990.88
327.686	1244.88
327.914	839.88
328.143	590.88
328.372	533.88
328.6	498.88
328.829	488.88
329.058	512.88
329.287	520.88
329.515	472.88
329.744	470.88
329.972	462.88
330.201	469.88
330.43	513.88
330.658	499.88
330.887	549.88
331.115	516.88
331.344	485.88
331.572	450.88
331.801	483.88
332.03	453.88
332.258	430.88
332.486	435.88
332.715	436.88
332.943	441.88
333.172	471.88
333.4	441.88
333.629	451.88
333.857	478.88
334.085	480.88
334.314	493.88
334.542	520.88
334.771	533.88
334.999	502.88
335.227	476.88
335.455	476.88
335.684	449.88
335.912	457.88
336.14	445.88
336.369	449.88
336.597	450.88
336.825	471.88
337.053	449.88
337.281	448.88
337.51	411.88
337.738	440.88
337.966	449.88
338.194	470.88
338.422	435.88
338.65	422.88
338.878	437.88
339.106	419.88
339.334	430.88
339.562	422.88
339.79	402.88
340.018	436.88
340.246	421.88
340.474	416.88
340.702	430.88
340.93	432.88
341.158	417.88
341.386	413.88
341.614	415.88
341.842	417.88
342.07	409.88
342.298	417.88
342.526	411.88
342.754	429.88
342.981	410.88
343.209	425.88
343.437	441.88
343.665	432.88
343.893	443.88
344.12	449.88
344.348	442.88
344.576	460.88
344.804	451.88
345.031	440.88
345.259	426.88
345.487	437.88
345.714	443.88
345.942	411.88
346.17	410.88
346.397	408.88
346.625	417.88
346.853	418.88
347.08	400.88
347.308	419.88
347.535	423.88
347.763	422.88
347.99	435.88
348.218	422.88
348.445	433.88
348.673	425.88
348.9	420.88
349.128	408.88
349.355	405.88
349.583	396.88
349.81	398.88
350.037	404.88
350.265	415.88
350.492	409.88
350.72	421.88
350.947	403.88
351.174	446.88
351.402	426.88
351.629	420.88
351.856	409.88
352.083	412.88
352.311	423.88
352.538	428.88
352.765	408.88
352.992	431.88
353.22	409.88
353.447	396.88
353.674	397.88
353.901	410.88
354.128	397.88
354.355	381.88
354.583	390.88
354.81	383.88
355.037	382.88
355.264	391.88
355.491	362.88
355.718	381.88
355.945	400.88
356.172	391.88
356.399	385.88
356.626	392.88
356.853	392.88
357.08	393.88
357.307	393.88
357.534	400.88
357.761	391.88
357.988	407.88
358.215	383.88
358.441	406.88
358.668	409.88
358.895	419.88
359.122	391.88
359.349	421.88
359.576	425.88
359.802	414.88
360.029	443.88
360.256	431.88
360.483	439.88
360.709	416.88
360.936	432.88
361.163	430.88
361.39	408.88
361.616	399.88
361.843	419.88
362.07	413.88
362.296	419.88
362.523	438.88
362.749	427.88
362.976	401.88
363.203	416.88
363.429	414.88
363.656	389.88
363.882	399.88
364.109	399.88
364.335	396.88
364.562	397.88
364.788	396.88
365.015	413.88
365.241	400.88
365.468	398.88
365.694	422.88
365.92	435.88
366.147	403.88
366.373	390.88
366.599	411.88
366.826	419.88
367.052	405.88
367.278	402.88
367.505	373.88
367.731	402.88
367.957	417.88
368.184	413.88
368.41	414.88
368.636	433.88
368.862	428.88
369.089	401.88
369.315	435.88
369.541	415.88
369.767	405.88
369.993	402.88
370.219	407.88
370.445	403.88
370.672	407.88
370.898	427.88
371.124	392.88
371.35	436.88
371.576	423.88
371.802	416.88
372.028	400.88
372.254	423.88
372.48	414.88
372.706	412.88
372.932	404.88
373.158	413.88
373.384	443.88
373.61	437.88
373.835	435.88
374.061	443.88
374.287	438.88
374.513	433.88
374.739	426.88
374.965	423.88
375.191	430.88
375.416	452.88
375.642	428.88
375.868	450.88
376.094	427.88
376.319	411.88
376.545	429.88
376.771	411.88
376.997	415.88
377.222	408.88
377.448	416.88
377.674	410.88
377.899	433.88
378.125	420.88
378.35	404.88
378.576	423.88
378.802	431.88
379.027	424.88
379.253	455.88
379.478	419.88
379.704	407.88
379.929	409.88
380.155	412.88
380.38	415.88
380.606	415.88
380.831	422.88
381.057	426.88
381.282	426.88
381.507	429.88
381.733	413.88
381.958	431.88
382.184	449.88
382.409	429.88
382.634	445.88
382.86	431.88
383.085	416.88
383.31	437.88
383.535	439.88
383.761	422.88
383.986	459.88
384.211	446.88
384.436	461.88
384.662	455.88
384.887	455.88
385.112	472.88
385.337	466.88
385.562	459.88
385.787	447.88
386.013	464.88
386.238	480.88
386.463	494.88
386.688	461.88
386.913	482.88
387.138	432.88
387.363	464.88
387.588	461.88
387.813	468.88
388.038	471.88
388.263	472.88
388.488	460.88
388.713	480.88
388.938	474.88
389.163	466.88
389.387	473.88
389.612	475.88
389.837	457.88
390.062	470.88
390.287	475.88
390.512	465.88
390.736	479.88
390.961	484.88
391.186	493.88
391.411	459.88
391.636	486.88
391.86	488.88
392.085	492.88
392.31	501.88
392.534	469.88
392.759	490.88
392.984	461.88
393.208	508.88
393.433	488.88
393.658	464.88
393.882	472.88
394.107	493.88
394.331	471.88
394.556	467.88
394.78	501.88
395.005	493.88
395.229	495.88
395.454	499.88
395.678	490.88
395.903	523.88
396.127	517.88
396.352	527.88
396.576	489.88
396.801	501.88
397.025	507.88
397.249	501.88
397.474	471.88
397.698	494.88
397.922	522.88
398.147	523.88
398.371	513.88
398.595	545.88
398.82	541.88
399.044	576.88
399.268	595.88
399.492	631.88
399.717	666.88
399.941	668.88
400.165	679.88
400.389	674.88
400.613	639.88
400.837	581.88
401.062	569.88
401.286	564.88
401.51	547.88
401.734	556.88
401.958	567.88
402.182	555.88
402.406	533.88
402.63	554.88
402.854	550.88
403.078	569.88
403.302	567.88
403.526	582.88
403.75	540.88
403.974	571.88
404.198	565.88
404.422	595.88
404.645	587.88
404.869	597.88
405.093	617.88
405.317	648.88
405.541	681.88
405.765	621.88
405.988	575.88
406.212	586.88
406.436	588.88
406.66	617.88
406.883	616.88
407.107	647.88
407.331	699.88
407.555	757.88
407.778	721.88
408.002	677.88
408.226	643.88
408.449	627.88
408.673	612.88
408.896	649.88
409.12	688.88
409.344	655.88
409.567	614.88
409.791	567.88
410.014	603.88
410.238	555.88
410.461	572.88
410.685	585.88
410.908	576.88
411.132	614.88
411.355	627.88
411.578	593.88
411.802	586.88
412.025	564.88
412.249	586.88
412.472	583.88
412.695	621.88
412.919	605.88
413.142	563.88
413.365	565.88
413.589	570.88
413.812	564.88
414.035	541.88
414.258	569.88
414.482	540.88
414.705	544.88
414.928	532.88
415.151	536.88
415.374	537.88
415.597	547.88
415.821	520.88
416.044	535.88
416.267	533.88
416.49	533.88
416.713	524.88
416.936	550.88
417.159	547.88
417.382	535.88
417.605	549.88
417.828	557.88
418.051	556.88
418.274	549.88
418.497	545.88
418.72	548.88
418.943	546.88
419.166	563.88
419.389	593.88
419.611	583.88
419.834	570.88
420.057	575.88
420.28	560.88
420.503	547.88
420.726	570.88
420.948	561.88
421.171	598.88
421.394	655.88
421.617	565.88
421.839	580.88
422.062	533.88
422.285	553.88
422.507	608.88
422.73	697.88
422.953	669.88
423.175	602.88
423.398	573.88
423.621	602.88
423.843	601.88
424.066	613.88
424.288	602.88
424.511	622.88
424.733	662.88
424.956	772.88
425.178	716.88
425.401	689.88
425.623	741.88
425.846	631.88
426.068	577.88
426.291	600.88
426.513	590.88
426.735	598.88
426.958	636.88
427.18	695.88
427.402	833.88
427.625	892.88
427.847	756.88
428.069	665.88
428.292	603.88
428.514	568.88
428.736	566.88
428.958	564.88
429.181	566.88
429.403	535.88
429.625	548.88
429.847	565.88
430.069	639.88
430.292	642.88
430.514	570.88
430.736	541.88
430.958	537.88
431.18	521.88
431.402	532.88
431.624	500.88
431.846	513.88
432.068	519.88
432.29	527.88
432.512	509.88
432.734	536.88
432.956	533.88
433.178	543.88
433.4	553.88
433.622	548.88
433.844	545.88
434.066	533.88
434.287	520.88
434.509	540.88
434.731	559.88
434.953	556.88
435.175	571.88
435.397	597.88
435.618	592.88
435.84	602.88
436.062	710.88
436.284	805.88
436.505	646.88
436.727	580.88
436.949	526.88
437.17	550.88
437.392	537.88
437.614	555.88
437.835	576.88
438.057	643.88
438.278	717.88
438.5	756.88
438.721	835.88
438.943	817.88
439.165	653.88
439.386	589.88
439.608	592.88
439.829	616.88
440.05	623.88
440.272	657.88
440.493	609.88
440.715	567.88
440.936	560.88
441.158	559.88
441.379	539.88
441.6	585.88
441.822	593.88
442.043	613.88
442.264	693.88
442.486	763.88
442.707	627.88
442.928	612.88
443.149	612.88
443.371	614.88
443.592	644.88
443.813	775.88
444.034	825.88
444.255	705.88
444.476	622.88
444.698	603.88
444.919	608.88
445.14	744.88
445.361	666.88
445.582	640.88
445.803	704.88
446.024	766.88
446.245	756.88
446.466	699.88
446.687	620.88
446.908	594.88
447.129	585.88
447.35	542.88
447.571	527.88
447.792	543.88
448.013	540.88
448.234	547.88
448.455	598.88
448.675	730.88
448.896	844.88
449.117	710.88
449.338	656.88
449.559	740.88
449.779	881.88
450	707.88
450.221	589.88
450.442	550.88
450.662	510.88
450.883	519.88
451.104	516.88
451.324	525.88
451.545	505.88
451.766	499.88
451.986	473.88
452.207	509.88
452.428	490.88
452.648	479.88
452.869	463.88
453.089	492.88
453.31	495.88
453.53	491.88
453.751	491.88
453.971	481.88
454.192	507.88
454.412	493.88
454.633	477.88
454.853	458.88
455.073	479.88
455.294	507.88
455.514	561.88
455.734	554.88
455.955	484.88
456.175	471.88
456.395	453.88
456.616	461.88
456.836	462.88
457.056	436.88
457.276	456.88
457.497	449.88
457.717	445.88
457.937	454.88
458.157	463.88
458.377	472.88
458.598	473.88
458.818	532.88
459.038	599.88
459.258	638.88
459.478	560.88
459.698	524.88
459.918	501.88
460.138	544.88
460.358	555.88
460.578	537.88
460.798	554.88
461.018	549.88
461.238	514.88
461.458	544.88
461.678	542.88
461.898	556.88
462.118	539.88
462.338	558.88
462.558	577.88
462.777	550.88
462.997	603.88
463.217	637.88
463.437	630.88
463.657	598.88
463.876	627.88
464.096	584.88
464.316	582.88
464.536	579.88
464.755	561.88
464.975	597.88
465.195	567.88
465.414	631.88
465.634	559.88
465.854	550.88
466.073	532.88
466.293	532.88
466.512	507.88
466.732	510.88
466.951	487.88
467.171	513.88
467.391	503.88
467.61	488.88
467.829	526.88
468.049	521.88
468.268	528.88
468.488	500.88
468.707	486.88
468.927	515.88
469.146	509.88
469.365	481.88
469.585	483.88
469.804	481.88
470.023	488.88
470.243	503.88
470.462	499.88
470.681	533.88
470.901	518.88
471.12	525.88
471.339	500.88
471.558	508.88
471.777	523.88
471.997	522.88
472.216	519.88
472.435	541.88
472.654	511.88
472.873	525.88
473.092	500.88
473.311	476.88
473.53	496.88
473.749	494.88
473.968	547.88
474.187	641.88
474.406	677.88
474.625	527.88
474.844	539.88
475.063	499.88
475.282	524.88
475.501	532.88
475.72	527.88
475.939	519.88
476.158	541.88
476.377	550.88
476.596	525.88
476.814	554.88
477.033	500.88
477.252	547.88
477.471	580.88
477.69	557.88
477.908	564.88
478.127	567.88
478.346	561.88
478.564	552.88
478.783	603.88
479.002	611.88
479.22	612.88
479.439	600.88
479.658	608.88
479.876	622.88
480.095	604.88
480.313	636.88
480.532	636.88
480.751	608.88
480.969	629.88
481.188	655.88
481.406	657.88
481.624	616.88
481.843	621.88
482.061	613.88
482.28	585.88
482.498	585.88
482.717	586.88
482.935	600.88
483.153	561.88
483.372	603.88
483.59	611.88
483.808	590.88
484.027	601.88
484.245	596.88
484.463	605.88
484.681	639.88
484.9	608.88
485.118	627.88
485.336	596.88
485.554	612.88
485.772	619.88
485.99	619.88
486.209	603.88
486.427	597.88
486.645	643.88
486.863	653.88
487.081	643.88
487.299	643.88
487.517	619.88
487.735	617.88
487.953	637.88
488.171	639.88
488.389	646.88
488.607	672.88
488.825	661.88
489.043	625.88
489.261	653.88
489.479	640.88
489.696	641.88
489.914	645.88
490.132	671.88
490.35	676.88
490.568	685.88
490.786	663.88
491.003	687.88
491.221	691.88
491.439	743.88
491.657	705.88
491.874	730.88
492.092	731.88
492.31	721.88
492.527	741.88
492.745	725.88
492.963	771.88
493.18	742.88
493.398	729.88
493.615	757.88
493.833	729.88
494.05	744.88
494.268	749.88
494.485	746.88
494.703	772.88
494.92	767.88
495.138	733.88
495.355	736.88
495.573	752.88
495.79	761.88
496.008	763.88
496.225	762.88
496.442	733.88
496.66	757.88
496.877	781.88
497.094	785.88
497.312	782.88
497.529	779.88
497.746	789.88
497.963	799.88
498.181	831.88
498.398	847.88
498.615	871.88
498.832	886.88
499.049	915.88
499.267	937.88
499.484	982.88
499.701	1029.88
499.918	1055.88
500.135	1121.88
500.352	1224.88
500.569	1187.88
500.786	1216.88
501.003	1183.88
501.22	1121.88
501.437	1085.88
501.654	1006.88
501.871	997.88
502.088	1005.88
502.305	932.88
502.522	897.88
502.739	891.88
502.956	859.88
503.172	849.88
503.389	793.88
503.606	799.88
503.823	783.88
504.04	777.88
504.256	770.88
504.473	785.88
504.69	779.88
504.907	769.88
505.123	761.88
505.34	760.88
505.557	724.88
505.773	719.88
505.99	717.88
506.207	683.88
506.423	710.88
506.64	714.88
506.856	686.88
507.073	688.88
507.289	701.88
507.506	685.88
507.722	699.88
507.939	715.88
508.155	702.88
508.372	657.88
508.588	652.88
508.805	658.88
509.021	653.88
509.238	691.88
509.454	667.88
509.67	676.88
509.887	651.88
510.103	637.88
510.319	675.88
510.536	701.88
510.752	972.88
510.968	857.88
511.184	657.88
511.401	648.88
511.617	609.88
511.833	604.88
512.049	610.88
512.265	647.88
512.481	606.88
512.698	617.88
512.914	614.88
513.13	632.88
513.346	623.88
513.562	624.88
513.778	630.88
513.994	639.88
514.21	621.88
514.426	631.88
514.642	663.88
514.858	688.88
515.074	690.88
515.29	737.88
515.506	981.88
515.721	873.88
515.937	696.88
516.153	676.88
516.369	631.88
516.585	643.88
516.801	650.88
517.016	660.88
517.232	656.88
517.448	664.88
517.664	670.88
517.879	675.88
518.095	676.88
518.311	676.88
518.527	661.88
518.742	653.88
518.958	649.88
519.173	631.88
519.389	640.88
519.605	646.88
519.82	631.88
520.036	616.88
520.251	637.88
520.467	685.88
520.682	629.88
520.898	637.88
521.113	650.88
521.329	669.88
521.544	724.88
521.76	847.88
521.975	1171.88
522.19	1189.88
522.406	751.88
522.621	633.88
522.836	632.88
523.052	587.88
523.267	582.88
523.482	551.88
523.698	548.88
523.913	559.88
524.128	576.88
524.343	555.88
524.559	554.88
524.774	524.88
524.989	549.88
525.204	528.88
525.419	536.88
525.634	538.88
525.849	524.88
526.064	522.88
526.28	544.88
526.495	532.88
526.71	556.88
526.925	505.88
527.14	534.88
527.355	535.88
527.57	501.88
527.785	520.88
527.999	513.88
528.214	500.88
528.429	539.88
528.644	527.88
528.859	533.88
529.074	536.88
529.289	528.88
529.503	583.88
529.718	557.88
529.933	559.88
530.148	532.88
530.363	528.88
530.577	513.88
530.792	500.88
531.007	519.88
531.221	524.88
531.436	520.88
531.651	510.88
531.865	510.88
532.08	506.88
532.295	491.88
532.509	497.88
532.724	493.88
532.938	523.88
533.153	511.88
533.367	525.88
533.582	508.88
533.796	502.88
534.011	514.88
534.225	503.88
534.44	475.88
534.654	473.88
534.868	503.88
535.083	505.88
535.297	505.88
535.511	492.88
535.726	499.88
535.94	498.88
536.154	501.88
536.369	483.88
536.583	478.88
536.797	491.88
537.011	480.88
537.225	478.88
537.44	485.88
537.654	496.88
537.868	501.88
538.082	457.88
538.296	472.88
538.51	497.88
538.724	507.88
538.938	477.88
539.153	475.88
539.367	503.88
539.581	511.88
539.795	477.88
540.009	481.88
540.222	487.88
540.436	449.88
540.65	479.88
540.864	494.88
541.078	474.88
541.292	490.88
541.506	483.88
541.72	485.88
541.934	469.88
542.147	494.88
542.361	478.88
542.575	468.88
542.789	489.88
543.002	490.88
543.216	500.88
543.43	475.88
543.644	503.88
543.857	481.88
544.071	467.88
544.285	464.88
544.498	480.88
544.712	484.88
544.925	474.88
545.139	497.88
545.352	480.88
545.566	471.88
545.779	497.88
545.993	494.88
546.206	498.88
546.42	503.88
546.633	462.88
546.847	485.88
547.06	467.88
547.274	454.88
547.487	483.88
547.7	476.88
547.914	507.88
548.127	469.88
548.34	495.88
548.554	496.88
548.767	486.88
548.98	472.88
549.193	472.88
549.407	486.88
549.62	477.88
549.833	467.88
550.046	479.88
550.259	457.88
550.473	468.88
550.686	468.88
550.899	471.88
551.112	483.88
551.325	464.88
551.538	485.88
551.751	469.88
551.964	455.88
552.177	489.88
552.39	460.88
552.603	475.88
552.816	484.88
553.029	464.88
553.242	489.88
553.455	506.88
553.667	498.88
553.88	516.88
554.093	504.88
554.306	471.88
554.519	471.88
554.732	486.88
554.944	465.88
555.157	458.88
555.37	447.88
555.583	455.88
555.795	452.88
556.008	465.88
556.221	421.88
556.433	449.88
556.646	444.88
556.859	453.88
557.071	448.88
557.284	437.88
557.496	421.88
557.709	452.88
557.921	411.88
558.134	417.88
558.346	413.88
558.559	451.88
558.771	429.88
558.984	419.88
559.196	399.88
559.409	440.88
559.621	424.88
559.833	434.88
560.046	427.88
560.258	431.88
560.47	425.88
560.683	416.88
560.895	420.88
561.107	413.88
561.32	423.88
561.532	414.88
561.744	430.88
561.956	421.88
562.168	413.88
562.381	431.88
562.593	415.88
562.805	417.88
563.017	431.88
563.229	411.88
563.441	423.88
563.653	421.88
563.865	429.88
564.077	426.88
564.289	425.88
564.501	448.88
564.713	443.88
564.925	419.88
565.137	458.88
565.349	449.88
565.561	481.88
565.773	452.88
565.985	473.88
566.197	511.88
566.408	494.88
566.62	522.88
566.832	534.88
567.044	566.88
567.255	534.88
567.467	576.88
567.679	561.88
567.891	587.88
568.102	580.88
568.314	567.88
568.526	547.88
568.737	524.88
568.949	503.88
569.161	467.88
569.372	476.88
569.584	452.88
569.795	427.88
570.007	444.88
570.218	446.88
570.43	440.88
570.641	438.88
570.853	414.88
571.064	419.88
571.276	427.88
571.487	424.88
571.698	399.88
571.91	404.88
572.121	388.88
572.333	397.88
572.544	365.88
572.755	399.88
572.966	401.88
573.178	364.88
573.389	377.88
573.6	374.88
573.811	381.88
574.023	345.88
574.234	364.88
574.445	369.88
574.656	381.88
574.867	378.88
575.078	373.88
575.289	378.88
575.501	358.88
575.712	348.88
575.923	367.88
576.134	359.88
576.345	335.88
576.556	366.88
576.767	337.88
576.978	352.88
577.188	364.88
577.399	336.88
577.61	352.88
577.821	335.88
578.032	351.88
578.243	353.88
578.454	461.88
578.665	391.88
578.875	333.88
579.086	358.88
579.297	325.88
579.508	360.88
579.718	331.88
579.929	330.88
580.14	337.88
580.35	325.88
580.561	344.88
580.772	327.88
580.982	322.88
581.193	352.88
581.403	327.88
581.614	324.88
581.825	330.88
582.035	340.88
582.246	352.88
582.456	334.88
582.667	306.88
582.877	316.88
583.087	333.88
583.298	325.88
583.508	325.88
583.719	339.88
583.929	312.88
584.139	316.88
584.35	317.88
584.56	337.88
584.77	311.88
584.981	296.88
585.191	333.88
585.401	328.88
585.611	309.88
585.821	327.88
586.032	332.88
586.242	307.88
586.452	329.88
586.662	299.88
586.872	324.88
587.082	304.88
587.292	316.88
587.502	311.88
587.713	330.88
587.923	315.88
588.133	318.88
588.343	323.88
588.553	316.88
588.762	309.88
588.972	319.88
589.182	317.88
589.392	316.88
589.602	323.88
589.812	316.88
590.022	326.88
590.232	311.88
590.441	323.88
590.651	305.88
590.861	315.88
591.071	325.88
591.281	330.88
591.49	328.88
591.7	330.88
591.91	336.88
592.119	347.88
592.329	355.88
592.539	337.88
592.748	348.88
592.958	343.88
593.167	350.88
593.377	361.88
593.587	373.88
593.796	358.88
594.006	357.88
594.215	337.88
594.424	372.88
594.634	357.88
594.843	344.88
595.053	344.88
595.262	343.88
595.472	325.88
595.681	323.88
595.89	317.88
596.1	307.88
596.309	316.88
596.518	309.88
596.727	316.88
596.937	293.88
597.146	294.88
597.355	290.88
597.564	311.88
597.774	290.88
597.983	292.88
598.192	295.88
598.401	287.88
598.61	285.88
598.819	305.88
599.028	269.88
599.237	278.88
599.446	269.88
599.655	281.88
599.864	290.88
600.073	291.88
600.282	288.88
600.491	284.88
600.7	290.88
600.909	264.88
601.118	287.88
601.327	297.88
601.536	287.88
601.745	277.88
601.953	280.88
602.162	286.88
602.371	267.88
602.58	269.88
602.789	284.88
602.997	274.88
603.206	248.88
603.415	271.88
603.623	278.88
603.832	273.88
604.041	267.88
604.249	269.88
604.458	286.88
604.666	277.88
604.875	302.88
605.084	272.88
605.292	250.88
605.501	283.88
605.709	260.88
605.918	263.88
606.126	276.88
606.334	257.88
606.543	288.88
606.751	259.88
606.96	252.88
607.168	259.88
607.376	257.88
607.585	271.88
607.793	257.88
608.001	285.88
608.21	265.88
608.418	265.88
608.626	244.88
608.834	276.88
609.043	277.88
609.251	260.88
609.459	260.88
609.667	261.88
609.875	260.88
610.083	262.88
610.291	260.88
610.499	255.88
610.707	251.88
610.916	251.88
611.124	269.88
611.332	268.88
611.54	298.88
611.748	268.88
611.955	249.88
612.163	266.88
612.371	263.88
612.579	272.88
612.787	250.88
612.995	248.88
613.203	272.88
613.411	254.88
613.618	271.88
613.826	263.88
614.034	270.88
614.242	268.88
614.449	264.88
614.657	247.88
614.865	249.88
615.072	285.88
615.28	266.88
615.488	252.88
615.695	260.88
615.903	269.88
616.111	265.88
616.318	262.88
616.526	264.88
616.733	264.88
616.941	262.88
617.148	253.88
617.356	241.88
617.563	255.88
617.771	269.88
617.978	267.88
618.185	271.88
618.393	249.88
618.6	249.88
618.807	280.88
619.015	238.88
619.222	230.88
619.429	271.88
619.637	256.88
619.844	238.88
620.051	253.88
620.258	242.88
620.466	258.88
620.673	246.88
620.88	249.88
621.087	232.88
621.294	231.88
621.501	237.88
621.708	249.88
621.915	244.88
622.122	246.88
622.329	239.88
622.536	233.88
622.743	242.88
622.95	244.88
623.157	235.88
623.364	241.88
623.571	235.88
623.778	228.88
623.985	217.88
624.192	244.88
624.399	250.88
624.606	230.88
624.812	238.88
625.019	224.88
625.226	238.88
625.433	222.88
625.639	224.88
625.846	213.88
626.053	232.88
626.259	220.88
626.466	224.88
626.673	227.88
626.879	214.88
627.086	221.88
627.293	212.88
627.499	224.88
627.706	222.88
627.912	228.88
628.119	227.88
628.325	226.88
628.532	222.88
628.738	217.88
628.945	229.88
629.151	214.88
629.357	221.88
629.564	222.88
629.77	230.88
629.976	228.88
630.183	204.88
630.389	202.88
630.595	207.88
630.802	215.88
631.008	197.88
631.214	210.88
631.42	206.88
631.627	212.88
631.833	207.88
632.039	214.88
632.245	215.88
632.451	220.88
632.657	201.88
632.863	197.88
633.069	218.88
633.275	199.88
633.481	201.88
633.688	200.88
633.893	200.88
634.099	200.88
634.305	203.88
634.511	215.88
634.717	205.88
634.923	190.88
635.129	209.88
635.335	190.88
635.541	184.88
635.747	199.88
635.952	197.88
636.158	194.88
636.364	189.88
636.57	202.88
636.775	202.88
636.981	189.88
637.187	199.88
637.392	186.88
637.598	184.88
637.804	183.88
638.009	188.88
638.215	195.88
638.421	190.88
638.626	204.88
638.832	201.88
639.037	207.88
639.243	196.88
639.448	195.88
639.654	167.88
639.859	204.88
640.065	180.88
640.27	195.88
640.475	200.88
640.681	191.88
640.886	185.88
641.091	198.88
641.297	189.88
641.502	179.88
641.707	192.88
641.913	183.88
642.118	184.88
642.323	184.88
642.528	184.88
642.733	185.88
642.939	177.88
643.144	172.88
643.349	182.88
643.554	189.88
643.759	178.88
643.964	187.88
644.169	181.88
644.374	180.88
644.579	175.88
644.784	186.88
644.989	181.88
645.194	184.88
645.399	179.88
645.604	182.88
645.809	180.88
646.014	190.88
646.219	180.88
646.423	181.88
646.628	181.88
646.833	184.88
647.038	180.88
647.243	196.88
647.447	193.88
647.652	163.88
647.857	182.88
648.062	180.88
648.266	172.88
648.471	186.88
648.676	171.88
648.88	197.88
649.085	180.88
649.289	186.88
649.494	188.88
649.698	196.88
649.903	186.88
650.107	179.88
650.312	185.88
650.516	181.88
650.721	167.88
650.925	177.88
651.13	155.88
651.334	156.88
651.539	171.88
651.743	153.88
651.947	161.88
652.152	149.88
652.356	153.88
652.56	147.88
652.764	152.88
652.969	163.88
653.173	142.88
653.377	152.88
653.581	151.88
653.785	149.88
653.99	144.88
654.194	124.88
654.398	141.88
654.602	161.88
654.806	144.88
655.01	142.88
655.214	140.88
655.418	150.88
655.622	141.88
655.826	156.88
656.03	163.88
656.234	141.88
656.438	143.88
656.642	152.88
656.846	149.88
657.049	132.88
657.253	136.88
657.457	126.88
657.661	118.88
657.865	131.88
658.068	126.88
658.272	121.88
658.476	107.88
658.68	97.88
658.883	109.88
659.087	119.88
659.291	92.88
659.494	117.88
659.698	110.88
659.901	97.88
660.105	103.88
660.309	100.88
660.512	94.88
660.716	88.88
660.919	100.88
661.123	102.88
661.326	100.88
661.53	89.88
661.733	92.88
661.936	97.88
662.14	95.88
662.343	94.88
662.546	101.88
662.75	84.88
662.953	95.88
663.156	85.88
663.36	91.88
663.563	83.88
663.766	104.88
663.969	89.88
664.173	70.88
664.376	83.88
664.579	71.88
664.782	92.88
664.985	82.88
665.188	79.88
665.391	92.88
665.594	84.88
665.797	85.88
666	75.88
666.203	76.88
666.406	74.88
666.609	92.88
666.812	83.88
667.015	84.88
667.218	82.88
667.421	92.88
667.624	91.88
667.827	87.88
668.03	77.88
668.232	83.88
668.435	90.88
668.638	94.88
668.841	82.88
669.043	85.88
669.246	84.88
669.449	84.88
669.651	83.88
669.854	95.88
670.057	77.88
670.259	87.88
670.462	64.88
670.665	85.88
670.867	77.88
671.07	74.88
671.272	85.88
671.475	90.88
671.677	78.88
671.88	98.88
672.082	94.88
672.284	77.88
672.487	80.88
672.689	84.88
672.892	75.88
