Data from 1974.PennyLincolnUp.Lamp.En5.5.200Scan.071719.P1.Changed Mount._HRD10591_15-51-40-856.txt Node
Date: Thu Jul 18 15:51:40 EDT 2019
User: cochatt
Spectrometer: HR+D1059
Trigger mode: 1
Integration Time (sec): 1.000000E-1
Scans to average: 1
Electric dark correction enabled: true
Nonlinearity correction enabled: false
Boxcar width: 0
XAxis mode: Wavelengths
Number of Pixels in Spectrum: 2048
>>>>>Begin Spectral Data<<<<<
223.165	-4.19
223.4	-4.19
223.635	-4.19
223.869	-21.19
224.104	-27.19
224.338	-5.19
224.573	-12.19
224.808	-15.19
225.042	-18.19
225.277	-10.19
225.511	-11.19
225.746	8.81
225.98	19.81
226.215	7.81
226.449	16.81
226.683	30.81
226.918	14.81
227.152	25.81
227.387	33.81
227.621	39.81
227.856	40.81
228.09	37.81
228.324	52.81
228.559	65.81
228.793	55.81
229.027	95.81
229.262	107.81
229.496	104.81
229.73	112.81
229.964	152.81
230.199	121.81
230.433	109.81
230.667	114.81
230.901	112.81
231.136	125.81
231.37	114.81
231.604	117.81
231.838	117.81
232.072	116.81
232.306	117.81
232.541	119.81
232.775	108.81
233.009	122.81
233.243	129.81
233.477	113.81
233.711	124.81
233.945	125.81
234.179	119.81
234.413	115.81
234.647	107.81
234.881	123.81
235.115	127.81
235.349	119.81
235.583	113.81
235.817	118.81
236.051	130.81
236.285	127.81
236.519	126.81
236.753	132.81
236.987	133.81
237.221	162.81
237.455	217.81
237.689	177.81
237.922	133.81
238.156	131.81
238.39	134.81
238.624	119.81
238.858	134.81
239.091	123.81
239.325	122.81
239.559	135.81
239.793	121.81
240.027	127.81
240.26	142.81
240.494	159.81
240.728	151.81
240.961	142.81
241.195	157.81
241.429	137.81
241.662	145.81
241.896	120.81
242.13	120.81
242.363	139.81
242.597	136.81
242.83	124.81
243.064	125.81
243.298	144.81
243.531	147.81
243.765	160.81
243.998	152.81
244.232	138.81
244.465	141.81
244.699	141.81
244.932	149.81
245.166	145.81
245.399	158.81
245.633	142.81
245.866	139.81
246.099	138.81
246.333	159.81
246.566	161.81
246.8	143.81
247.033	141.81
247.266	164.81
247.5	164.81
247.733	156.81
247.966	162.81
248.2	164.81
248.433	183.81
248.666	197.81
248.899	189.81
249.133	204.81
249.366	197.81
249.599	172.81
249.832	175.81
250.066	186.81
250.299	193.81
250.532	183.81
250.765	202.81
250.998	218.81
251.231	217.81
251.465	224.81
251.698	207.81
251.931	189.81
252.164	202.81
252.397	202.81
252.63	210.81
252.863	213.81
253.096	214.81
253.329	225.81
253.562	199.81
253.795	222.81
254.028	220.81
254.261	209.81
254.494	235.81
254.727	250.81
254.96	277.81
255.193	259.81
255.426	251.81
255.659	242.81
255.892	232.81
256.124	221.81
256.357	221.81
256.59	221.81
256.823	214.81
257.056	218.81
257.289	204.81
257.521	215.81
257.754	206.81
257.987	205.81
258.22	208.81
258.452	192.81
258.685	212.81
258.918	192.81
259.151	202.81
259.383	223.81
259.616	200.81
259.849	229.81
260.081	211.81
260.314	230.81
260.547	264.81
260.779	245.81
261.012	234.81
261.244	217.81
261.477	233.81
261.71	221.81
261.942	216.81
262.175	239.81
262.407	230.81
262.64	224.81
262.872	213.81
263.105	210.81
263.337	225.81
263.57	212.81
263.802	216.81
264.035	200.81
264.267	201.81
264.499	208.81
264.732	186.81
264.964	208.81
265.197	206.81
265.429	207.81
265.661	203.81
265.894	216.81
266.126	222.81
266.358	220.81
266.591	224.81
266.823	227.81
267.055	239.81
267.287	241.81
267.52	224.81
267.752	226.81
267.984	242.81
268.216	220.81
268.448	235.81
268.681	220.81
268.913	243.81
269.145	249.81
269.377	277.81
269.609	279.81
269.841	249.81
270.073	257.81
270.306	264.81
270.538	304.81
270.77	315.81
271.002	300.81
271.234	264.81
271.466	292.81
271.698	283.81
271.93	296.81
272.162	312.81
272.394	301.81
272.626	277.81
272.858	265.81
273.09	269.81
273.322	261.81
273.553	262.81
273.785	255.81
274.017	266.81
274.249	252.81
274.481	268.81
274.713	262.81
274.945	266.81
275.176	263.81
275.408	276.81
275.64	263.81
275.872	270.81
276.104	282.81
276.335	273.81
276.567	282.81
276.799	286.81
277.031	301.81
277.262	315.81
277.494	313.81
277.726	299.81
277.957	276.81
278.189	274.81
278.421	265.81
278.652	268.81
278.884	272.81
279.115	275.81
279.347	285.81
279.579	270.81
279.81	290.81
280.042	287.81
280.273	261.81
280.505	270.81
280.736	273.81
280.968	273.81
281.199	288.81
281.431	277.81
281.662	278.81
281.894	267.81
282.125	268.81
282.356	287.81
282.588	298.81
282.819	280.81
283.051	266.81
283.282	280.81
283.513	293.81
283.745	298.81
283.976	299.81
284.207	294.81
284.439	287.81
284.67	274.81
284.901	287.81
285.132	297.81
285.364	285.81
285.595	293.81
285.826	284.81
286.057	288.81
286.288	268.81
286.52	296.81
286.751	278.81
286.982	278.81
287.213	287.81
287.444	300.81
287.675	291.81
287.906	307.81
288.138	310.81
288.369	312.81
288.6	293.81
288.831	299.81
289.062	309.81
289.293	303.81
289.524	296.81
289.755	297.81
289.986	300.81
290.217	303.81
290.448	298.81
290.679	319.81
290.91	291.81
291.141	296.81
291.371	288.81
291.602	293.81
291.833	299.81
292.064	306.81
292.295	313.81
292.526	315.81
292.757	285.81
292.987	308.81
293.218	301.81
293.449	290.81
293.68	294.81
293.91	299.81
294.141	279.81
294.372	284.81
294.603	305.81
294.833	310.81
295.064	291.81
295.295	304.81
295.525	294.81
295.756	315.81
295.987	304.81
296.217	313.81
296.448	330.81
296.679	321.81
296.909	307.81
297.14	323.81
297.37	317.81
297.601	315.81
297.831	314.81
298.062	300.81
298.292	317.81
298.523	317.81
298.753	306.81
298.984	309.81
299.214	308.81
299.445	314.81
299.675	318.81
299.905	312.81
300.136	285.81
300.366	322.81
300.597	322.81
300.827	341.81
301.057	330.81
301.288	344.81
301.518	324.81
301.748	339.81
301.979	329.81
302.209	339.81
302.439	345.81
302.669	345.81
302.9	334.81
303.13	336.81
303.36	331.81
303.59	335.81
303.82	365.81
304.051	346.81
304.281	325.81
304.511	322.81
304.741	343.81
304.971	345.81
305.201	329.81
305.431	349.81
305.661	330.81
305.891	334.81
306.121	325.81
306.352	343.81
306.582	340.81
306.812	329.81
307.042	332.81
307.272	355.81
307.502	337.81
307.731	339.81
307.961	332.81
308.191	328.81
308.421	353.81
308.651	344.81
308.881	350.81
309.111	349.81
309.341	354.81
309.571	362.81
309.8	351.81
310.03	363.81
310.26	373.81
310.49	367.81
310.72	386.81
310.949	369.81
311.179	374.81
311.409	371.81
311.639	373.81
311.868	370.81
312.098	376.81
312.328	371.81
312.557	380.81
312.787	399.81
313.017	393.81
313.246	378.81
313.476	385.81
313.706	381.81
313.935	378.81
314.165	387.81
314.394	399.81
314.624	377.81
314.853	389.81
315.083	367.81
315.312	371.81
315.542	380.81
315.771	387.81
316.001	356.81
316.23	364.81
316.46	356.81
316.689	367.81
316.919	384.81
317.148	362.81
317.377	377.81
317.607	391.81
317.836	388.81
318.065	375.81
318.295	378.81
318.524	391.81
318.753	380.81
318.983	377.81
319.212	362.81
319.441	371.81
319.67	365.81
319.9	367.81
320.129	354.81
320.358	383.81
320.587	381.81
320.816	370.81
321.046	391.81
321.275	376.81
321.504	382.81
321.733	389.81
321.962	384.81
322.191	408.81
322.42	424.81
322.649	408.81
322.878	422.81
323.108	418.81
323.337	441.81
323.566	423.81
323.795	470.81
324.024	497.81
324.253	568.81
324.482	755.81
324.71	1097.81
324.939	1627.81
325.168	1427.81
325.397	737.81
325.626	534.81
325.855	471.81
326.084	458.81
326.313	440.81
326.542	467.81
326.77	467.81
326.999	541.81
327.228	684.81
327.457	1009.81
327.686	1249.81
327.914	843.81
328.143	599.81
328.372	546.81
328.6	507.81
328.829	497.81
329.058	491.81
329.287	475.81
329.515	497.81
329.744	447.81
329.972	463.81
330.201	483.81
330.43	505.81
330.658	519.81
330.887	533.81
331.115	518.81
331.344	499.81
331.572	488.81
331.801	449.81
332.03	463.81
332.258	468.81
332.486	453.81
332.715	443.81
332.943	460.81
333.172	447.81
333.4	469.81
333.629	472.81
333.857	491.81
334.085	497.81
334.314	495.81
334.542	518.81
334.771	531.81
334.999	498.81
335.227	498.81
335.455	461.81
335.684	472.81
335.912	486.81
336.14	458.81
336.369	458.81
336.597	462.81
336.825	465.81
337.053	461.81
337.281	460.81
337.51	437.81
337.738	432.81
337.966	433.81
338.194	442.81
338.422	439.81
338.65	438.81
338.878	442.81
339.106	441.81
339.334	443.81
339.562	439.81
339.79	431.81
340.018	441.81
340.246	445.81
340.474	447.81
340.702	433.81
340.93	442.81
341.158	425.81
341.386	422.81
341.614	419.81
341.842	433.81
342.07	435.81
342.298	419.81
342.526	453.81
342.754	433.81
342.981	431.81
343.209	439.81
343.437	431.81
343.665	467.81
343.893	441.81
344.12	487.81
344.348	441.81
344.576	455.81
344.804	448.81
345.031	460.81
345.259	438.81
345.487	447.81
345.714	444.81
345.942	435.81
346.17	435.81
346.397	411.81
346.625	415.81
346.853	427.81
347.08	424.81
347.308	447.81
347.535	436.81
347.763	420.81
347.99	424.81
348.218	439.81
348.445	439.81
348.673	424.81
348.9	442.81
349.128	425.81
349.355	421.81
349.583	420.81
349.81	429.81
350.037	425.81
350.265	396.81
350.492	410.81
350.72	394.81
350.947	435.81
351.174	430.81
351.402	416.81
351.629	405.81
351.856	414.81
352.083	428.81
352.311	423.81
352.538	422.81
352.765	426.81
352.992	419.81
353.22	413.81
353.447	413.81
353.674	416.81
353.901	409.81
354.128	375.81
354.355	398.81
354.583	407.81
354.81	415.81
355.037	426.81
355.264	416.81
355.491	407.81
355.718	409.81
355.945	415.81
356.172	416.81
356.399	386.81
356.626	395.81
356.853	404.81
357.08	405.81
357.307	407.81
357.534	423.81
357.761	420.81
357.988	398.81
358.215	391.81
358.441	407.81
358.668	424.81
358.895	407.81
359.122	410.81
359.349	418.81
359.576	431.81
359.802	436.81
360.029	437.81
360.256	443.81
360.483	442.81
360.709	432.81
360.936	429.81
361.163	435.81
361.39	428.81
361.616	426.81
361.843	432.81
362.07	410.81
362.296	424.81
362.523	418.81
362.749	403.81
362.976	428.81
363.203	418.81
363.429	412.81
363.656	412.81
363.882	433.81
364.109	395.81
364.335	420.81
364.562	418.81
364.788	410.81
365.015	416.81
365.241	420.81
365.468	423.81
365.694	402.81
365.92	424.81
366.147	413.81
366.373	411.81
366.599	409.81
366.826	415.81
367.052	420.81
367.278	426.81
367.505	415.81
367.731	429.81
367.957	415.81
368.184	423.81
368.41	413.81
368.636	436.81
368.862	449.81
369.089	429.81
369.315	419.81
369.541	426.81
369.767	414.81
369.993	427.81
370.219	428.81
370.445	428.81
370.672	414.81
370.898	427.81
371.124	415.81
371.35	423.81
371.576	409.81
371.802	433.81
372.028	427.81
372.254	418.81
372.48	407.81
372.706	418.81
372.932	420.81
373.158	418.81
373.384	425.81
373.61	405.81
373.835	429.81
374.061	427.81
374.287	427.81
374.513	440.81
374.739	435.81
374.965	444.81
375.191	456.81
375.416	440.81
375.642	413.81
375.868	445.81
376.094	448.81
376.319	452.81
376.545	418.81
376.771	433.81
376.997	445.81
377.222	448.81
377.448	426.81
377.674	441.81
377.899	421.81
378.125	412.81
378.35	419.81
378.576	437.81
378.802	410.81
379.027	431.81
379.253	433.81
379.478	425.81
379.704	453.81
379.929	439.81
380.155	433.81
380.38	448.81
380.606	437.81
380.831	425.81
381.057	430.81
381.282	420.81
381.507	442.81
381.733	439.81
381.958	434.81
382.184	451.81
382.409	449.81
382.634	442.81
382.86	450.81
383.085	451.81
383.31	444.81
383.535	447.81
383.761	456.81
383.986	460.81
384.211	447.81
384.436	453.81
384.662	469.81
384.887	473.81
385.112	455.81
385.337	477.81
385.562	482.81
385.787	479.81
386.013	488.81
386.238	489.81
386.463	485.81
386.688	485.81
386.913	496.81
387.138	476.81
387.363	491.81
387.588	480.81
387.813	480.81
388.038	479.81
388.263	486.81
388.488	472.81
388.713	483.81
388.938	482.81
389.163	468.81
389.387	474.81
389.612	496.81
389.837	475.81
390.062	483.81
390.287	451.81
390.512	481.81
390.736	477.81
390.961	488.81
391.186	501.81
391.411	486.81
391.636	482.81
391.86	476.81
392.085	523.81
392.31	523.81
392.534	499.81
392.759	492.81
392.984	495.81
393.208	496.81
393.433	493.81
393.658	484.81
393.882	494.81
394.107	464.81
394.331	492.81
394.556	499.81
394.78	514.81
395.005	515.81
395.229	511.81
395.454	498.81
395.678	519.81
395.903	544.81
396.127	563.81
396.352	543.81
396.576	518.81
396.801	499.81
397.025	513.81
397.249	522.81
397.474	523.81
397.698	512.81
397.922	525.81
398.147	548.81
398.371	577.81
398.595	564.81
398.82	581.81
399.044	581.81
399.268	615.81
399.492	634.81
399.717	683.81
399.941	715.81
400.165	705.81
400.389	700.81
400.613	656.81
400.837	599.81
401.062	584.81
401.286	564.81
401.51	546.81
401.734	537.81
401.958	570.81
402.182	580.81
402.406	576.81
402.63	588.81
402.854	575.81
403.078	584.81
403.302	594.81
403.526	584.81
403.75	610.81
403.974	606.81
404.198	573.81
404.422	609.81
404.645	587.81
404.869	607.81
405.093	620.81
405.317	669.81
405.541	717.81
405.765	644.81
405.988	609.81
406.212	620.81
406.436	634.81
406.66	633.81
406.883	634.81
407.107	670.81
407.331	723.81
407.555	765.81
407.778	768.81
408.002	693.81
408.226	685.81
408.449	649.81
408.673	651.81
408.896	681.81
409.12	706.81
409.344	662.81
409.567	608.81
409.791	616.81
410.014	561.81
410.238	568.81
410.461	575.81
410.685	583.81
410.908	596.81
411.132	623.81
411.355	671.81
411.578	629.81
411.802	598.81
412.025	599.81
412.249	603.81
412.472	620.81
412.695	627.81
412.919	655.81
413.142	612.81
413.365	602.81
413.589	583.81
413.812	575.81
414.035	549.81
414.258	576.81
414.482	548.81
414.705	555.81
414.928	552.81
415.151	550.81
415.374	555.81
415.597	556.81
415.821	550.81
416.044	541.81
416.267	561.81
416.49	540.81
416.713	533.81
416.936	552.81
417.159	565.81
417.382	555.81
417.605	567.81
417.828	564.81
418.051	573.81
418.274	590.81
418.497	573.81
418.72	557.81
418.943	572.81
419.166	571.81
419.389	611.81
419.611	612.81
419.834	596.81
420.057	582.81
420.28	563.81
420.503	577.81
420.726	575.81
420.948	595.81
421.171	619.81
421.394	657.81
421.617	577.81
421.839	571.81
422.062	580.81
422.285	585.81
422.507	640.81
422.73	722.81
422.953	683.81
423.175	630.81
423.398	605.81
423.621	601.81
423.843	627.81
424.066	652.81
424.288	611.81
424.511	632.81
424.733	681.81
424.956	739.81
425.178	737.81
425.401	699.81
425.623	774.81
425.846	666.81
426.068	614.81
426.291	585.81
426.513	601.81
426.735	628.81
426.958	635.81
427.18	695.81
427.402	837.81
427.625	927.81
427.847	776.81
428.069	689.81
428.292	637.81
428.514	593.81
428.736	593.81
428.958	560.81
429.181	563.81
429.403	553.81
429.625	561.81
429.847	599.81
430.069	643.81
430.292	644.81
430.514	556.81
430.736	562.81
430.958	570.81
431.18	564.81
431.402	517.81
431.624	550.81
431.846	548.81
432.068	507.81
432.29	555.81
432.512	521.81
432.734	569.81
432.956	534.81
433.178	529.81
433.4	559.81
433.622	539.81
433.844	542.81
434.066	543.81
434.287	529.81
434.509	549.81
434.731	561.81
434.953	572.81
435.175	583.81
435.397	610.81
435.618	586.81
435.84	618.81
436.062	719.81
436.284	778.81
436.505	659.81
436.727	602.81
436.949	572.81
437.17	545.81
437.392	533.81
437.614	581.81
437.835	586.81
438.057	692.81
438.278	783.81
438.5	761.81
438.721	842.81
438.943	817.81
439.165	676.81
439.386	605.81
439.608	593.81
439.829	594.81
440.05	607.81
440.272	649.81
440.493	620.81
440.715	584.81
440.936	560.81
441.158	572.81
441.379	569.81
441.6	578.81
441.822	613.81
442.043	636.81
442.264	725.81
442.486	752.81
442.707	645.81
442.928	624.81
443.149	667.81
443.371	653.81
443.592	691.81
443.813	751.81
444.034	870.81
444.255	717.81
444.476	635.81
444.698	617.81
444.919	624.81
445.14	734.81
445.361	695.81
445.582	652.81
445.803	710.81
446.024	796.81
446.245	801.81
446.466	732.81
446.687	621.81
446.908	614.81
447.129	574.81
447.35	557.81
447.571	539.81
447.792	549.81
448.013	549.81
448.234	577.81
448.455	606.81
448.675	727.81
448.896	838.81
449.117	717.81
449.338	664.81
449.559	769.81
449.779	886.81
450	685.81
450.221	592.81
450.442	554.81
450.662	541.81
450.883	548.81
451.104	562.81
451.324	534.81
451.545	525.81
451.766	490.81
451.986	501.81
452.207	476.81
452.428	491.81
452.648	487.81
452.869	497.81
453.089	499.81
453.31	513.81
453.53	483.81
453.751	492.81
453.971	490.81
454.192	480.81
454.412	483.81
454.633	492.81
454.853	472.81
455.073	487.81
455.294	525.81
455.514	549.81
455.734	572.81
455.955	492.81
456.175	486.81
456.395	472.81
456.616	467.81
456.836	466.81
457.056	471.81
457.276	459.81
457.497	460.81
457.717	477.81
457.937	498.81
458.157	479.81
458.377	479.81
458.598	512.81
458.818	555.81
459.038	591.81
459.258	666.81
459.478	579.81
459.698	548.81
459.918	544.81
460.138	534.81
460.358	535.81
460.578	554.81
460.798	543.81
461.018	553.81
461.238	550.81
461.458	554.81
461.678	553.81
461.898	572.81
462.118	573.81
462.338	581.81
462.558	584.81
462.777	599.81
462.997	631.81
463.217	636.81
463.437	669.81
463.657	639.81
463.876	608.81
464.096	627.81
464.316	595.81
464.536	632.81
464.755	608.81
464.975	612.81
465.195	634.81
465.414	654.81
465.634	595.81
465.854	583.81
466.073	571.81
466.293	534.81
466.512	533.81
466.732	533.81
466.951	500.81
467.171	523.81
467.391	529.81
467.61	526.81
467.829	514.81
468.049	526.81
468.268	531.81
468.488	503.81
468.707	526.81
468.927	502.81
469.146	503.81
469.365	500.81
469.585	487.81
469.804	507.81
470.023	509.81
470.243	524.81
470.462	550.81
470.681	539.81
470.901	539.81
471.12	517.81
471.339	496.81
471.558	520.81
471.777	517.81
471.997	513.81
472.216	541.81
472.435	523.81
472.654	529.81
472.873	492.81
473.092	504.81
473.311	541.81
473.53	507.81
473.749	533.81
473.968	569.81
474.187	632.81
474.406	634.81
474.625	572.81
474.844	533.81
475.063	512.81
475.282	523.81
475.501	515.81
475.72	545.81
475.939	530.81
476.158	550.81
476.377	543.81
476.596	533.81
476.814	539.81
477.033	545.81
477.252	547.81
477.471	542.81
477.69	562.81
477.908	570.81
478.127	584.81
478.346	604.81
478.564	549.81
478.783	584.81
479.002	605.81
479.22	605.81
479.439	615.81
479.658	638.81
479.876	632.81
480.095	619.81
480.313	643.81
480.532	655.81
480.751	641.81
480.969	624.81
481.188	677.81
481.406	723.81
481.624	643.81
481.843	610.81
482.061	612.81
482.28	625.81
482.498	634.81
482.717	584.81
482.935	600.81
483.153	620.81
483.372	611.81
483.59	619.81
483.808	593.81
484.027	589.81
484.245	599.81
484.463	611.81
484.681	623.81
484.9	593.81
485.118	617.81
485.336	624.81
485.554	637.81
485.772	629.81
485.99	618.81
486.209	636.81
486.427	633.81
486.645	647.81
486.863	651.81
487.081	657.81
487.299	638.81
487.517	633.81
487.735	649.81
487.953	641.81
488.171	662.81
488.389	643.81
488.607	655.81
488.825	664.81
489.043	664.81
489.261	647.81
489.479	656.81
489.696	669.81
489.914	689.81
490.132	669.81
490.35	653.81
490.568	688.81
490.786	681.81
491.003	709.81
491.221	728.81
491.439	716.81
491.657	745.81
491.874	744.81
492.092	723.81
492.31	775.81
492.527	771.81
492.745	746.81
492.963	773.81
493.18	747.81
493.398	789.81
493.615	759.81
493.833	783.81
494.05	793.81
494.268	779.81
494.485	775.81
494.703	765.81
494.92	760.81
495.138	776.81
495.355	780.81
495.573	747.81
495.79	774.81
496.008	789.81
496.225	789.81
496.442	788.81
496.66	788.81
496.877	786.81
497.094	807.81
497.312	800.81
497.529	838.81
497.746	815.81
497.963	845.81
498.181	854.81
498.398	869.81
498.615	918.81
498.832	919.81
499.049	937.81
499.267	956.81
499.484	1012.81
499.701	1056.81
499.918	1094.81
500.135	1183.81
500.352	1234.81
500.569	1256.81
500.786	1282.81
501.003	1237.81
501.22	1177.81
501.437	1132.81
501.654	1065.81
501.871	1055.81
502.088	999.81
502.305	957.81
502.522	914.81
502.739	889.81
502.956	885.81
503.172	837.81
503.389	833.81
503.606	822.81
503.823	815.81
504.04	805.81
504.256	787.81
504.473	812.81
504.69	818.81
504.907	787.81
505.123	764.81
505.34	770.81
505.557	753.81
505.773	726.81
505.99	748.81
506.207	744.81
506.423	726.81
506.64	724.81
506.856	711.81
507.073	702.81
507.289	723.81
507.506	702.81
507.722	721.81
507.939	704.81
508.155	700.81
508.372	700.81
508.588	692.81
508.805	673.81
509.021	670.81
509.238	678.81
509.454	670.81
509.67	695.81
509.887	696.81
510.103	642.81
510.319	677.81
510.536	732.81
510.752	1014.81
510.968	876.81
511.184	695.81
511.401	652.81
511.617	653.81
511.833	635.81
512.049	645.81
512.265	639.81
512.481	649.81
512.698	633.81
512.914	631.81
513.13	645.81
513.346	593.81
513.562	625.81
513.778	640.81
513.994	647.81
514.21	640.81
514.426	660.81
514.642	681.81
514.858	700.81
515.074	712.81
515.29	751.81
515.506	987.81
515.721	915.81
515.937	713.81
516.153	706.81
516.369	691.81
516.585	673.81
516.801	669.81
517.016	699.81
517.232	683.81
517.448	696.81
517.664	697.81
517.879	711.81
518.095	680.81
518.311	675.81
518.527	671.81
518.742	687.81
518.958	661.81
519.173	649.81
519.389	649.81
519.605	631.81
519.82	631.81
520.036	636.81
520.251	656.81
520.467	657.81
520.682	672.81
520.898	650.81
521.113	659.81
521.329	694.81
521.544	723.81
521.76	821.81
521.975	1215.81
522.19	1225.81
522.406	776.81
522.621	658.81
522.836	633.81
523.052	584.81
523.267	599.81
523.482	586.81
523.698	568.81
523.913	567.81
524.128	580.81
524.343	565.81
524.559	566.81
524.774	568.81
524.989	538.81
525.204	549.81
525.419	548.81
525.634	559.81
525.849	544.81
526.064	535.81
526.28	563.81
526.495	554.81
526.71	539.81
526.925	546.81
527.14	537.81
527.355	529.81
527.57	539.81
527.785	547.81
527.999	524.81
528.214	523.81
528.429	544.81
528.644	531.81
528.859	547.81
529.074	541.81
529.289	552.81
529.503	585.81
529.718	609.81
529.933	574.81
530.148	549.81
530.363	548.81
530.577	514.81
530.792	519.81
531.007	524.81
531.221	510.81
531.436	513.81
531.651	516.81
531.865	526.81
532.08	508.81
532.295	514.81
532.509	514.81
532.724	501.81
532.938	517.81
533.153	533.81
533.367	524.81
533.582	515.81
533.796	504.81
534.011	510.81
534.225	516.81
534.44	511.81
534.654	500.81
534.868	510.81
535.083	492.81
535.297	487.81
535.511	501.81
535.726	535.81
535.94	511.81
536.154	510.81
536.369	492.81
536.583	519.81
536.797	511.81
537.011	504.81
537.225	504.81
537.44	499.81
537.654	477.81
537.868	479.81
538.082	518.81
538.296	484.81
538.51	498.81
538.724	507.81
538.938	486.81
539.153	511.81
539.367	499.81
539.581	488.81
539.795	489.81
540.009	485.81
540.222	483.81
540.436	499.81
540.65	498.81
540.864	480.81
541.078	504.81
541.292	513.81
541.506	514.81
541.72	519.81
541.934	514.81
542.147	504.81
542.361	510.81
542.575	495.81
542.789	487.81
543.002	491.81
543.216	500.81
543.43	484.81
543.644	507.81
543.857	490.81
544.071	497.81
544.285	509.81
544.498	502.81
544.712	503.81
544.925	488.81
545.139	511.81
545.352	496.81
545.566	482.81
545.779	504.81
545.993	478.81
546.206	502.81
546.42	492.81
546.633	480.81
546.847	485.81
547.06	491.81
547.274	483.81
547.487	505.81
547.7	492.81
547.914	501.81
548.127	469.81
548.34	487.81
548.554	513.81
548.767	496.81
548.98	479.81
549.193	487.81
549.407	486.81
549.62	491.81
549.833	517.81
550.046	484.81
550.259	482.81
550.473	486.81
550.686	489.81
550.899	480.81
551.112	480.81
551.325	495.81
551.538	476.81
551.751	489.81
551.964	476.81
552.177	482.81
552.39	469.81
552.603	465.81
552.816	497.81
553.029	485.81
553.242	505.81
553.455	517.81
553.667	521.81
553.88	521.81
554.093	488.81
554.306	472.81
554.519	502.81
554.732	499.81
554.944	474.81
555.157	470.81
555.37	469.81
555.583	449.81
555.795	476.81
556.008	454.81
556.221	444.81
556.433	451.81
556.646	458.81
556.859	458.81
557.071	450.81
557.284	422.81
557.496	436.81
557.709	429.81
557.921	439.81
558.134	443.81
558.346	423.81
558.559	450.81
558.771	426.81
558.984	436.81
559.196	428.81
559.409	421.81
559.621	420.81
559.833	441.81
560.046	414.81
560.258	424.81
560.47	421.81
560.683	405.81
560.895	420.81
561.107	414.81
561.32	418.81
561.532	407.81
561.744	439.81
561.956	431.81
562.168	431.81
562.381	425.81
562.593	420.81
562.805	437.81
563.017	433.81
563.229	420.81
563.441	442.81
563.653	435.81
563.865	454.81
564.077	443.81
564.289	461.81
564.501	454.81
564.713	470.81
564.925	475.81
565.137	470.81
565.349	468.81
565.561	473.81
565.773	492.81
565.985	507.81
566.197	516.81
566.408	509.81
566.62	538.81
566.832	555.81
567.044	585.81
567.255	574.81
567.467	567.81
567.679	585.81
567.891	615.81
568.102	610.81
568.314	591.81
568.526	556.81
568.737	532.81
568.949	512.81
569.161	497.81
569.372	490.81
569.584	453.81
569.795	455.81
570.007	455.81
570.218	472.81
570.43	464.81
570.641	452.81
570.853	450.81
571.064	433.81
571.276	438.81
571.487	418.81
571.698	407.81
571.91	419.81
572.121	403.81
572.333	384.81
572.544	404.81
572.755	379.81
572.966	380.81
573.178	404.81
573.389	389.81
573.6	373.81
573.811	389.81
574.023	382.81
574.234	382.81
574.445	361.81
574.656	383.81
574.867	371.81
575.078	367.81
575.289	369.81
575.501	367.81
575.712	370.81
575.923	364.81
576.134	371.81
576.345	361.81
576.556	362.81
576.767	358.81
576.978	361.81
577.188	373.81
577.399	339.81
577.61	352.81
577.821	363.81
578.032	369.81
578.243	373.81
578.454	483.81
578.665	383.81
578.875	340.81
579.086	363.81
579.297	334.81
579.508	352.81
579.718	352.81
579.929	345.81
580.14	334.81
580.35	335.81
580.561	331.81
580.772	343.81
580.982	343.81
581.193	333.81
581.403	335.81
581.614	333.81
581.825	329.81
582.035	325.81
582.246	331.81
582.456	325.81
582.667	325.81
582.877	323.81
583.087	339.81
583.298	354.81
583.508	333.81
583.719	316.81
583.929	341.81
584.139	317.81
584.35	330.81
584.56	329.81
584.77	333.81
584.981	326.81
585.191	324.81
585.401	324.81
585.611	319.81
585.821	342.81
586.032	330.81
586.242	332.81
586.452	311.81
586.662	330.81
586.872	310.81
587.082	317.81
587.292	333.81
587.502	324.81
587.713	306.81
587.923	341.81
588.133	336.81
588.343	327.81
588.553	316.81
588.762	299.81
588.972	328.81
589.182	320.81
589.392	314.81
589.602	319.81
589.812	335.81
590.022	335.81
590.232	318.81
590.441	331.81
590.651	317.81
590.861	320.81
591.071	320.81
591.281	328.81
591.49	325.81
591.7	328.81
591.91	347.81
592.119	328.81
592.329	323.81
592.539	337.81
592.748	353.81
592.958	363.81
593.167	353.81
593.377	352.81
593.587	362.81
593.796	352.81
594.006	373.81
594.215	354.81
594.424	354.81
594.634	352.81
594.843	344.81
595.053	351.81
595.262	353.81
595.472	326.81
595.681	322.81
595.89	337.81
596.1	318.81
596.309	323.81
596.518	323.81
596.727	307.81
596.937	300.81
597.146	289.81
597.355	294.81
597.564	310.81
597.774	299.81
597.983	296.81
598.192	293.81
598.401	296.81
598.61	262.81
598.819	283.81
599.028	279.81
599.237	280.81
599.446	294.81
599.655	289.81
599.864	280.81
600.073	303.81
600.282	297.81
600.491	284.81
600.7	277.81
600.909	279.81
601.118	285.81
601.327	264.81
601.536	280.81
601.745	275.81
601.953	291.81
602.162	275.81
602.371	288.81
602.58	285.81
602.789	275.81
602.997	297.81
603.206	313.81
603.415	292.81
603.623	270.81
603.832	284.81
604.041	302.81
604.249	275.81
604.458	261.81
604.666	250.81
604.875	275.81
605.084	265.81
605.292	268.81
605.501	287.81
605.709	282.81
605.918	268.81
606.126	266.81
606.334	269.81
606.543	276.81
606.751	272.81
606.96	274.81
607.168	289.81
607.376	264.81
607.585	274.81
607.793	262.81
608.001	260.81
608.21	257.81
608.418	264.81
608.626	273.81
608.834	256.81
609.043	274.81
609.251	257.81
609.459	265.81
609.667	264.81
609.875	265.81
610.083	252.81
610.291	258.81
610.499	280.81
610.707	255.81
610.916	267.81
611.124	279.81
611.332	277.81
611.54	258.81
611.748	261.81
611.955	268.81
612.163	264.81
612.371	262.81
612.579	256.81
612.787	263.81
612.995	242.81
613.203	268.81
613.411	271.81
613.618	256.81
613.826	275.81
614.034	247.81
614.242	265.81
614.449	256.81
614.657	261.81
614.865	250.81
615.072	255.81
615.28	259.81
615.488	249.81
615.695	249.81
615.903	253.81
616.111	276.81
616.318	277.81
616.526	262.81
616.733	257.81
616.941	256.81
617.148	267.81
617.356	273.81
617.563	275.81
617.771	272.81
617.978	277.81
618.185	272.81
618.393	259.81
618.6	258.81
618.807	247.81
619.015	268.81
619.222	255.81
619.429	255.81
619.637	230.81
619.844	259.81
620.051	261.81
620.258	248.81
620.466	251.81
620.673	263.81
620.88	237.81
621.087	232.81
621.294	249.81
621.501	249.81
621.708	254.81
621.915	251.81
622.122	227.81
622.329	233.81
622.536	233.81
622.743	258.81
622.95	240.81
623.157	226.81
623.364	240.81
623.571	225.81
623.778	241.81
623.985	223.81
624.192	226.81
624.399	249.81
624.606	234.81
624.812	242.81
625.019	227.81
625.226	245.81
625.433	228.81
625.639	226.81
625.846	234.81
626.053	214.81
626.259	217.81
626.466	221.81
626.673	237.81
626.879	217.81
627.086	203.81
627.293	221.81
627.499	240.81
627.706	233.81
627.912	222.81
628.119	229.81
628.325	222.81
628.532	211.81
628.738	201.81
628.945	226.81
629.151	204.81
629.357	229.81
629.564	225.81
629.77	213.81
629.976	209.81
630.183	230.81
630.389	223.81
630.595	240.81
630.802	197.81
631.008	210.81
631.214	211.81
631.42	214.81
631.627	223.81
631.833	200.81
632.039	192.81
632.245	205.81
632.451	214.81
632.657	221.81
632.863	215.81
633.069	197.81
633.275	215.81
633.481	195.81
633.688	202.81
633.893	214.81
634.099	183.81
634.305	197.81
634.511	203.81
634.717	209.81
634.923	202.81
635.129	185.81
635.335	199.81
635.541	196.81
635.747	184.81
635.952	196.81
636.158	194.81
636.364	190.81
636.57	213.81
636.775	184.81
636.981	208.81
637.187	198.81
637.392	195.81
637.598	205.81
637.804	194.81
638.009	199.81
638.215	196.81
638.421	194.81
638.626	192.81
638.832	203.81
639.037	192.81
639.243	174.81
639.448	210.81
639.654	200.81
639.859	180.81
640.065	193.81
640.27	191.81
640.475	183.81
640.681	196.81
640.886	194.81
641.091	194.81
641.297	188.81
641.502	190.81
641.707	181.81
641.913	187.81
642.118	171.81
642.323	175.81
642.528	175.81
642.733	193.81
642.939	179.81
643.144	186.81
643.349	177.81
643.554	189.81
643.759	178.81
643.964	164.81
644.169	176.81
644.374	177.81
644.579	181.81
644.784	183.81
644.989	163.81
645.194	166.81
645.399	178.81
645.604	171.81
645.809	177.81
646.014	187.81
646.219	181.81
646.423	200.81
646.628	194.81
646.833	169.81
647.038	191.81
647.243	179.81
647.447	178.81
647.652	180.81
647.857	191.81
648.062	191.81
648.266	179.81
648.471	176.81
648.676	158.81
648.88	179.81
649.085	187.81
649.289	180.81
649.494	180.81
649.698	184.81
649.903	190.81
650.107	189.81
650.312	176.81
650.516	179.81
650.721	178.81
650.925	168.81
651.13	162.81
651.334	168.81
651.539	159.81
651.743	156.81
651.947	159.81
652.152	159.81
652.356	170.81
652.56	166.81
652.764	159.81
652.969	155.81
653.173	139.81
653.377	151.81
653.581	153.81
653.785	149.81
653.99	147.81
654.194	150.81
654.398	149.81
654.602	138.81
654.806	141.81
655.01	139.81
655.214	148.81
655.418	131.81
655.622	141.81
655.826	148.81
656.03	126.81
656.234	149.81
656.438	135.81
656.642	150.81
656.846	142.81
657.049	132.81
657.253	131.81
657.457	137.81
657.661	142.81
657.865	124.81
658.068	112.81
658.272	109.81
658.476	120.81
658.68	110.81
658.883	103.81
659.087	99.81
659.291	108.81
659.494	104.81
659.698	98.81
659.901	112.81
660.105	91.81
660.309	84.81
660.512	99.81
660.716	88.81
660.919	88.81
661.123	95.81
661.326	92.81
661.53	87.81
661.733	95.81
661.936	84.81
662.14	83.81
662.343	96.81
662.546	88.81
662.75	82.81
662.953	78.81
663.156	80.81
663.36	92.81
663.563	82.81
663.766	75.81
663.969	88.81
664.173	82.81
664.376	85.81
664.579	89.81
664.782	81.81
664.985	82.81
665.188	68.81
665.391	85.81
665.594	87.81
665.797	77.81
666	76.81
666.203	87.81
666.406	74.81
666.609	93.81
666.812	96.81
667.015	76.81
667.218	91.81
667.421	72.81
667.624	89.81
667.827	86.81
668.03	96.81
668.232	80.81
668.435	90.81
668.638	78.81
668.841	89.81
669.043	86.81
669.246	70.81
669.449	87.81
669.651	69.81
669.854	76.81
670.057	81.81
670.259	80.81
670.462	79.81
670.665	76.81
670.867	76.81
671.07	87.81
671.272	84.81
671.475	79.81
671.677	80.81
671.88	76.81
672.082	87.81
672.284	85.81
672.487	91.81
672.689	82.81
672.892	92.81
