Data from 1974.PennyLincolnUp.Lamp.En5.5.200Scan.071719.P1.Changed Mount._HRD10591_15-53-51-858.txt Node
Date: Thu Jul 18 15:53:51 EDT 2019
User: cochatt
Spectrometer: HR+D1059
Trigger mode: 1
Integration Time (sec): 1.000000E-1
Scans to average: 1
Electric dark correction enabled: true
Nonlinearity correction enabled: false
Boxcar width: 0
XAxis mode: Wavelengths
Number of Pixels in Spectrum: 2048
>>>>>Begin Spectral Data<<<<<
223.165	-14.62
223.4	-14.62
223.635	-14.62
223.869	-12.62
224.104	-11.62
224.338	-14.62
224.573	-21.62
224.808	-18.62
225.042	-18.62
225.277	-13.62
225.511	1.38
225.746	-5.62
225.98	5.38
226.215	12.38
226.449	21.38
226.683	21.38
226.918	34.38
227.152	35.38
227.387	21.38
227.621	39.38
227.856	47.38
228.09	45.38
228.324	57.38
228.559	61.38
228.793	56.38
229.027	100.38
229.262	105.38
229.496	120.38
229.73	142.38
229.964	157.38
230.199	149.38
230.433	118.38
230.667	117.38
230.901	114.38
231.136	126.38
231.37	109.38
231.604	113.38
231.838	110.38
232.072	116.38
232.306	121.38
232.541	104.38
232.775	106.38
233.009	119.38
233.243	121.38
233.477	113.38
233.711	111.38
233.945	123.38
234.179	120.38
234.413	109.38
234.647	120.38
234.881	123.38
235.115	123.38
235.349	124.38
235.583	118.38
235.817	132.38
236.051	108.38
236.285	131.38
236.519	135.38
236.753	129.38
236.987	143.38
237.221	174.38
237.455	238.38
237.689	197.38
237.922	142.38
238.156	145.38
238.39	136.38
238.624	138.38
238.858	143.38
239.091	135.38
239.325	132.38
239.559	127.38
239.793	128.38
240.027	137.38
240.26	133.38
240.494	156.38
240.728	161.38
240.961	161.38
241.195	159.38
241.429	144.38
241.662	157.38
241.896	130.38
242.13	139.38
242.363	134.38
242.597	131.38
242.83	154.38
243.064	163.38
243.298	156.38
243.531	143.38
243.765	154.38
243.998	153.38
244.232	157.38
244.465	168.38
244.699	143.38
244.932	160.38
245.166	149.38
245.399	163.38
245.633	159.38
245.866	150.38
246.099	163.38
246.333	169.38
246.566	170.38
246.8	161.38
247.033	164.38
247.266	179.38
247.5	175.38
247.733	166.38
247.966	180.38
248.2	157.38
248.433	193.38
248.666	195.38
248.899	187.38
249.133	221.38
249.366	202.38
249.599	225.38
249.832	196.38
250.066	185.38
250.299	204.38
250.532	212.38
250.765	207.38
250.998	218.38
251.231	257.38
251.465	253.38
251.698	220.38
251.931	216.38
252.164	201.38
252.397	213.38
252.63	202.38
252.863	227.38
253.096	226.38
253.329	237.38
253.562	223.38
253.795	233.38
254.028	222.38
254.261	233.38
254.494	237.38
254.727	277.38
254.96	306.38
255.193	287.38
255.426	256.38
255.659	246.38
255.892	238.38
256.124	226.38
256.357	238.38
256.59	235.38
256.823	223.38
257.056	218.38
257.289	228.38
257.521	227.38
257.754	222.38
257.987	211.38
258.22	216.38
258.452	234.38
258.685	223.38
258.918	217.38
259.151	226.38
259.383	226.38
259.616	225.38
259.849	233.38
260.081	246.38
260.314	278.38
260.547	266.38
260.779	274.38
261.012	242.38
261.244	238.38
261.477	239.38
261.71	238.38
261.942	236.38
262.175	229.38
262.407	244.38
262.64	237.38
262.872	233.38
263.105	223.38
263.337	209.38
263.57	220.38
263.802	228.38
264.035	217.38
264.267	229.38
264.499	227.38
264.732	235.38
264.964	232.38
265.197	230.38
265.429	241.38
265.661	241.38
265.894	233.38
266.126	247.38
266.358	255.38
266.591	214.38
266.823	223.38
267.055	231.38
267.287	249.38
267.52	243.38
267.752	254.38
267.984	238.38
268.216	249.38
268.448	257.38
268.681	263.38
268.913	273.38
269.145	295.38
269.377	314.38
269.609	295.38
269.841	293.38
270.073	301.38
270.306	305.38
270.538	350.38
270.77	328.38
271.002	329.38
271.234	306.38
271.466	295.38
271.698	323.38
271.93	349.38
272.162	330.38
272.394	319.38
272.626	318.38
272.858	308.38
273.09	290.38
273.322	309.38
273.553	279.38
273.785	295.38
274.017	279.38
274.249	281.38
274.481	285.38
274.713	310.38
274.945	285.38
275.176	277.38
275.408	263.38
275.64	288.38
275.872	298.38
276.104	281.38
276.335	292.38
276.567	296.38
276.799	281.38
277.031	287.38
277.262	325.38
277.494	357.38
277.726	328.38
277.957	313.38
278.189	296.38
278.421	299.38
278.652	290.38
278.884	286.38
279.115	292.38
279.347	281.38
279.579	292.38
279.81	280.38
280.042	292.38
280.273	296.38
280.505	295.38
280.736	263.38
280.968	279.38
281.199	286.38
281.431	293.38
281.662	311.38
281.894	303.38
282.125	299.38
282.356	327.38
282.588	323.38
282.819	342.38
283.051	300.38
283.282	286.38
283.513	312.38
283.745	305.38
283.976	299.38
284.207	296.38
284.439	320.38
284.67	309.38
284.901	307.38
285.132	302.38
285.364	297.38
285.595	305.38
285.826	296.38
286.057	286.38
286.288	290.38
286.52	311.38
286.751	311.38
286.982	314.38
287.213	303.38
287.444	316.38
287.675	302.38
287.906	315.38
288.138	322.38
288.369	331.38
288.6	330.38
288.831	324.38
289.062	323.38
289.293	309.38
289.524	317.38
289.755	319.38
289.986	309.38
290.217	305.38
290.448	301.38
290.679	322.38
290.91	326.38
291.141	291.38
291.371	320.38
291.602	317.38
291.833	324.38
292.064	318.38
292.295	315.38
292.526	298.38
292.757	311.38
292.987	321.38
293.218	316.38
293.449	312.38
293.68	336.38
293.91	323.38
294.141	304.38
294.372	317.38
294.603	329.38
294.833	336.38
295.064	335.38
295.295	319.38
295.525	341.38
295.756	347.38
295.987	327.38
296.217	353.38
296.448	353.38
296.679	326.38
296.909	331.38
297.14	333.38
297.37	325.38
297.601	326.38
297.831	326.38
298.062	314.38
298.292	329.38
298.523	329.38
298.753	328.38
298.984	347.38
299.214	335.38
299.445	323.38
299.675	346.38
299.905	343.38
300.136	343.38
300.366	336.38
300.597	344.38
300.827	348.38
301.057	351.38
301.288	352.38
301.518	362.38
301.748	363.38
301.979	346.38
302.209	344.38
302.439	353.38
302.669	358.38
302.9	366.38
303.13	350.38
303.36	369.38
303.59	376.38
303.82	377.38
304.051	374.38
304.281	350.38
304.511	357.38
304.741	373.38
304.971	345.38
305.201	350.38
305.431	354.38
305.661	362.38
305.891	356.38
306.121	355.38
306.352	363.38
306.582	353.38
306.812	354.38
307.042	361.38
307.272	365.38
307.502	373.38
307.731	367.38
307.961	356.38
308.191	360.38
308.421	374.38
308.651	366.38
308.881	370.38
309.111	371.38
309.341	376.38
309.571	374.38
309.8	381.38
310.03	382.38
310.26	397.38
310.49	400.38
310.72	383.38
310.949	411.38
311.179	411.38
311.409	412.38
311.639	405.38
311.868	393.38
312.098	396.38
312.328	414.38
312.557	437.38
312.787	433.38
313.017	415.38
313.246	414.38
313.476	390.38
313.706	408.38
313.935	409.38
314.165	426.38
314.394	440.38
314.624	425.38
314.853	422.38
315.083	411.38
315.312	407.38
315.542	400.38
315.771	419.38
316.001	399.38
316.23	412.38
316.46	396.38
316.689	419.38
316.919	416.38
317.148	430.38
317.377	411.38
317.607	401.38
317.836	399.38
318.065	422.38
318.295	390.38
318.524	398.38
318.753	414.38
318.983	420.38
319.212	411.38
319.441	399.38
319.67	407.38
319.9	389.38
320.129	419.38
320.358	415.38
320.587	405.38
320.816	413.38
321.046	421.38
321.275	430.38
321.504	438.38
321.733	435.38
321.962	420.38
322.191	444.38
322.42	457.38
322.649	453.38
322.878	462.38
323.108	462.38
323.337	488.38
323.566	501.38
323.795	533.38
324.024	568.38
324.253	681.38
324.482	904.38
324.71	1374.38
324.939	1998.38
325.168	1755.38
325.397	914.38
325.626	637.38
325.855	561.38
326.084	513.38
326.313	519.38
326.542	514.38
326.77	551.38
326.999	584.38
327.228	825.38
327.457	1238.38
327.686	1541.38
327.914	1017.38
328.143	687.38
328.372	603.38
328.6	581.38
328.829	537.38
329.058	567.38
329.287	591.38
329.515	558.38
329.744	535.38
329.972	514.38
330.201	563.38
330.43	579.38
330.658	578.38
330.887	617.38
331.115	619.38
331.344	576.38
331.572	503.38
331.801	522.38
332.03	536.38
332.258	500.38
332.486	483.38
332.715	488.38
332.943	513.38
333.172	499.38
333.4	519.38
333.629	503.38
333.857	502.38
334.085	539.38
334.314	547.38
334.542	571.38
334.771	588.38
334.999	547.38
335.227	538.38
335.455	497.38
335.684	493.38
335.912	487.38
336.14	483.38
336.369	493.38
336.597	481.38
336.825	530.38
337.053	486.38
337.281	472.38
337.51	469.38
337.738	477.38
337.966	482.38
338.194	487.38
338.422	483.38
338.65	485.38
338.878	470.38
339.106	473.38
339.334	470.38
339.562	469.38
339.79	478.38
340.018	469.38
340.246	452.38
340.474	485.38
340.702	464.38
340.93	459.38
341.158	442.38
341.386	465.38
341.614	485.38
341.842	490.38
342.07	473.38
342.298	452.38
342.526	447.38
342.754	454.38
342.981	444.38
343.209	479.38
343.437	441.38
343.665	468.38
343.893	473.38
344.12	503.38
344.348	493.38
344.576	474.38
344.804	473.38
345.031	472.38
345.259	480.38
345.487	506.38
345.714	470.38
345.942	461.38
346.17	459.38
346.397	453.38
346.625	463.38
346.853	452.38
347.08	438.38
347.308	444.38
347.535	446.38
347.763	457.38
347.99	464.38
348.218	464.38
348.445	468.38
348.673	465.38
348.9	452.38
349.128	453.38
349.355	425.38
349.583	445.38
349.81	453.38
350.037	442.38
350.265	453.38
350.492	437.38
350.72	440.38
350.947	437.38
351.174	460.38
351.402	456.38
351.629	432.38
351.856	449.38
352.083	458.38
352.311	455.38
352.538	471.38
352.765	459.38
352.992	449.38
353.22	476.38
353.447	448.38
353.674	439.38
353.901	447.38
354.128	427.38
354.355	421.38
354.583	435.38
354.81	430.38
355.037	433.38
355.264	445.38
355.491	415.38
355.718	413.38
355.945	439.38
356.172	437.38
356.399	429.38
356.626	418.38
356.853	425.38
357.08	413.38
357.307	416.38
357.534	419.38
357.761	426.38
357.988	420.38
358.215	422.38
358.441	447.38
358.668	429.38
358.895	428.38
359.122	443.38
359.349	470.38
359.576	458.38
359.802	449.38
360.029	486.38
360.256	483.38
360.483	475.38
360.709	460.38
360.936	462.38
361.163	469.38
361.39	441.38
361.616	466.38
361.843	461.38
362.07	452.38
362.296	456.38
362.523	462.38
362.749	443.38
362.976	428.38
363.203	433.38
363.429	455.38
363.656	455.38
363.882	450.38
364.109	455.38
364.335	444.38
364.562	445.38
364.788	447.38
365.015	459.38
365.241	447.38
365.468	458.38
365.694	445.38
365.92	433.38
366.147	430.38
366.373	458.38
366.599	431.38
366.826	425.38
367.052	439.38
367.278	441.38
367.505	425.38
367.731	443.38
367.957	440.38
368.184	439.38
368.41	445.38
368.636	441.38
368.862	449.38
369.089	447.38
369.315	447.38
369.541	474.38
369.767	468.38
369.993	426.38
370.219	445.38
370.445	459.38
370.672	458.38
370.898	449.38
371.124	461.38
371.35	450.38
371.576	441.38
371.802	449.38
372.028	451.38
372.254	454.38
372.48	478.38
372.706	469.38
372.932	447.38
373.158	457.38
373.384	458.38
373.61	447.38
373.835	453.38
374.061	425.38
374.287	462.38
374.513	469.38
374.739	456.38
374.965	459.38
375.191	457.38
375.416	449.38
375.642	463.38
375.868	457.38
376.094	447.38
376.319	463.38
376.545	457.38
376.771	446.38
376.997	451.38
377.222	458.38
377.448	453.38
377.674	462.38
377.899	449.38
378.125	453.38
378.35	457.38
378.576	458.38
378.802	460.38
379.027	443.38
379.253	433.38
379.478	439.38
379.704	455.38
379.929	446.38
380.155	442.38
380.38	478.38
380.606	477.38
380.831	461.38
381.057	458.38
381.282	474.38
381.507	468.38
381.733	463.38
381.958	457.38
382.184	453.38
382.409	445.38
382.634	451.38
382.86	445.38
383.085	480.38
383.31	464.38
383.535	483.38
383.761	478.38
383.986	472.38
384.211	493.38
384.436	477.38
384.662	467.38
384.887	485.38
385.112	486.38
385.337	507.38
385.562	508.38
385.787	501.38
386.013	510.38
386.238	520.38
386.463	494.38
386.688	518.38
386.913	501.38
387.138	497.38
387.363	488.38
387.588	489.38
387.813	524.38
388.038	486.38
388.263	521.38
388.488	512.38
388.713	517.38
388.938	493.38
389.163	512.38
389.387	513.38
389.612	494.38
389.837	511.38
390.062	489.38
390.287	512.38
390.512	502.38
390.736	499.38
390.961	515.38
391.186	527.38
391.411	531.38
391.636	523.38
391.86	516.38
392.085	497.38
392.31	509.38
392.534	531.38
392.759	537.38
392.984	528.38
393.208	526.38
393.433	506.38
393.658	505.38
393.882	531.38
394.107	514.38
394.331	502.38
394.556	520.38
394.78	527.38
395.005	525.38
395.229	530.38
395.454	543.38
395.678	533.38
395.903	559.38
396.127	561.38
396.352	554.38
396.576	538.38
396.801	538.38
397.025	542.38
397.249	540.38
397.474	543.38
397.698	546.38
397.922	560.38
398.147	583.38
398.371	571.38
398.595	566.38
398.82	598.38
399.044	595.38
399.268	629.38
399.492	682.38
399.717	719.38
399.941	745.38
400.165	745.38
400.389	735.38
400.613	685.38
400.837	631.38
401.062	602.38
401.286	589.38
401.51	587.38
401.734	585.38
401.958	582.38
402.182	596.38
402.406	604.38
402.63	609.38
402.854	607.38
403.078	604.38
403.302	621.38
403.526	637.38
403.75	623.38
403.974	637.38
404.198	626.38
404.422	627.38
404.645	639.38
404.869	642.38
405.093	630.38
405.317	700.38
405.541	739.38
405.765	655.38
405.988	643.38
406.212	638.38
406.436	667.38
406.66	686.38
406.883	675.38
407.107	707.38
407.331	731.38
407.555	828.38
407.778	817.38
408.002	749.38
408.226	704.38
408.449	678.38
408.673	656.38
408.896	721.38
409.12	760.38
409.344	725.38
409.567	653.38
409.791	615.38
410.014	650.38
410.238	634.38
410.461	609.38
410.685	623.38
410.908	631.38
411.132	669.38
411.355	701.38
411.578	671.38
411.802	627.38
412.025	612.38
412.249	636.38
412.472	650.38
412.695	700.38
412.919	666.38
413.142	619.38
413.365	591.38
413.589	603.38
413.812	591.38
414.035	582.38
414.258	570.38
414.482	602.38
414.705	583.38
414.928	585.38
415.151	551.38
415.374	583.38
415.597	570.38
415.821	565.38
416.044	571.38
416.267	591.38
416.49	607.38
416.713	599.38
416.936	584.38
417.159	602.38
417.382	596.38
417.605	601.38
417.828	597.38
418.051	606.38
418.274	609.38
418.497	572.38
418.72	589.38
418.943	575.38
419.166	604.38
419.389	653.38
419.611	646.38
419.834	613.38
420.057	636.38
420.28	617.38
420.503	617.38
420.726	606.38
420.948	639.38
421.171	651.38
421.394	705.38
421.617	645.38
421.839	619.38
422.062	619.38
422.285	615.38
422.507	673.38
422.73	731.38
422.953	739.38
423.175	661.38
423.398	633.38
423.621	624.38
423.843	672.38
424.066	662.38
424.288	674.38
424.511	682.38
424.733	739.38
424.956	815.38
425.178	776.38
425.401	760.38
425.623	795.38
425.846	699.38
426.068	645.38
426.291	647.38
426.513	639.38
426.735	661.38
426.958	706.38
427.18	769.38
427.402	893.38
427.625	998.38
427.847	842.38
428.069	744.38
428.292	685.38
428.514	618.38
428.736	613.38
428.958	606.38
429.181	583.38
429.403	589.38
429.625	597.38
429.847	630.38
430.069	731.38
430.292	723.38
430.514	614.38
430.736	594.38
430.958	612.38
431.18	597.38
431.402	590.38
431.624	549.38
431.846	558.38
432.068	583.38
432.29	582.38
432.512	557.38
432.734	561.38
432.956	561.38
433.178	574.38
433.4	589.38
433.622	579.38
433.844	573.38
434.066	578.38
434.287	586.38
434.509	582.38
434.731	611.38
434.953	601.38
435.175	612.38
435.397	648.38
435.618	645.38
435.84	691.38
436.062	779.38
436.284	865.38
436.505	730.38
436.727	640.38
436.949	612.38
437.17	610.38
437.392	601.38
437.614	599.38
437.835	622.38
438.057	734.38
438.278	851.38
438.5	840.38
438.721	917.38
438.943	894.38
439.165	730.38
439.386	653.38
439.608	635.38
439.829	638.38
440.05	671.38
440.272	725.38
440.493	668.38
440.715	620.38
440.936	601.38
441.158	585.38
441.379	599.38
441.6	631.38
441.822	635.38
442.043	694.38
442.264	771.38
442.486	827.38
442.707	733.38
442.928	659.38
443.149	683.38
443.371	684.38
443.592	743.38
443.813	833.38
444.034	895.38
444.255	759.38
444.476	686.38
444.698	675.38
444.919	692.38
445.14	773.38
445.361	723.38
445.582	705.38
445.803	741.38
446.024	875.38
446.245	852.38
446.466	789.38
446.687	699.38
446.908	658.38
447.129	638.38
447.35	594.38
447.571	602.38
447.792	574.38
448.013	569.38
448.234	599.38
448.455	666.38
448.675	807.38
448.896	897.38
449.117	768.38
449.338	737.38
449.559	832.38
449.779	933.38
450	773.38
450.221	629.38
450.442	609.38
450.662	569.38
450.883	566.38
451.104	594.38
451.324	586.38
451.545	563.38
451.766	549.38
451.986	537.38
452.207	537.38
452.428	528.38
452.648	550.38
452.869	530.38
453.089	542.38
453.31	554.38
453.53	520.38
453.751	511.38
453.971	537.38
454.192	545.38
454.412	518.38
454.633	522.38
454.853	509.38
455.073	531.38
455.294	539.38
455.514	633.38
455.734	591.38
455.955	526.38
456.175	513.38
456.395	499.38
456.616	489.38
456.836	492.38
457.056	487.38
457.276	499.38
457.497	502.38
457.717	488.38
457.937	510.38
458.157	498.38
458.377	526.38
458.598	533.38
458.818	571.38
459.038	645.38
459.258	685.38
459.478	608.38
459.698	574.38
459.918	577.38
460.138	578.38
460.358	593.38
460.578	578.38
460.798	558.38
461.018	580.38
461.238	621.38
461.458	585.38
461.678	594.38
461.898	590.38
462.118	594.38
462.338	600.38
462.558	621.38
462.777	629.38
462.997	666.38
463.217	687.38
463.437	678.38
463.657	674.38
463.876	669.38
464.096	636.38
464.316	627.38
464.536	635.38
464.755	623.38
464.975	623.38
465.195	667.38
465.414	721.38
465.634	643.38
465.854	626.38
466.073	593.38
466.293	600.38
466.512	567.38
466.732	555.38
466.951	535.38
467.171	550.38
467.391	575.38
467.61	555.38
467.829	563.38
468.049	572.38
468.268	579.38
468.488	549.38
468.707	527.38
468.927	541.38
469.146	531.38
469.365	555.38
469.585	557.38
469.804	532.38
470.023	556.38
470.243	557.38
470.462	567.38
470.681	583.38
470.901	577.38
471.12	542.38
471.339	571.38
471.558	558.38
471.777	558.38
471.997	563.38
472.216	556.38
472.435	582.38
472.654	557.38
472.873	536.38
473.092	521.38
473.311	544.38
473.53	562.38
473.749	551.38
473.968	573.38
474.187	677.38
474.406	732.38
474.625	611.38
474.844	545.38
475.063	568.38
475.282	554.38
475.501	568.38
475.72	533.38
475.939	575.38
476.158	562.38
476.377	595.38
476.596	580.38
476.814	583.38
477.033	578.38
477.252	578.38
477.471	585.38
477.69	595.38
477.908	590.38
478.127	603.38
478.346	584.38
478.564	620.38
478.783	625.38
479.002	617.38
479.22	652.38
479.439	651.38
479.658	663.38
479.876	664.38
480.095	662.38
480.313	651.38
480.532	718.38
480.751	693.38
480.969	700.38
481.188	738.38
481.406	762.38
481.624	695.38
481.843	653.38
482.061	652.38
482.28	630.38
482.498	653.38
482.717	643.38
482.935	638.38
483.153	657.38
483.372	667.38
483.59	650.38
483.808	659.38
484.027	647.38
484.245	677.38
484.463	638.38
484.681	689.38
484.9	662.38
485.118	665.38
485.336	669.38
485.554	675.38
485.772	666.38
485.99	667.38
486.209	661.38
486.427	670.38
486.645	671.38
486.863	696.38
487.081	698.38
487.299	659.38
487.517	699.38
487.735	665.38
487.953	681.38
488.171	676.38
488.389	708.38
488.607	703.38
488.825	698.38
489.043	670.38
489.261	707.38
489.479	715.38
489.696	724.38
489.914	698.38
490.132	717.38
490.35	743.38
490.568	725.38
490.786	745.38
491.003	740.38
491.221	784.38
491.439	792.38
491.657	799.38
491.874	809.38
492.092	783.38
492.31	797.38
492.527	825.38
492.745	797.38
492.963	798.38
493.18	835.38
493.398	825.38
493.615	818.38
493.833	827.38
494.05	837.38
494.268	846.38
494.485	838.38
494.703	835.38
494.92	823.38
495.138	826.38
495.355	828.38
495.573	836.38
495.79	809.38
496.008	872.38
496.225	821.38
496.442	841.38
496.66	858.38
496.877	827.38
497.094	839.38
497.312	844.38
497.529	863.38
497.746	892.38
497.963	878.38
498.181	899.38
498.398	909.38
498.615	906.38
498.832	965.38
499.049	1007.38
499.267	1034.38
499.484	1088.38
499.701	1089.38
499.918	1141.38
500.135	1227.38
500.352	1305.38
500.569	1293.38
500.786	1340.38
501.003	1295.38
501.22	1214.38
501.437	1189.38
501.654	1126.38
501.871	1069.38
502.088	1057.38
502.305	1026.38
502.522	972.38
502.739	970.38
502.956	947.38
503.172	890.38
503.389	898.38
503.606	845.38
503.823	843.38
504.04	853.38
504.256	861.38
504.473	847.38
504.69	858.38
504.907	841.38
505.123	829.38
505.34	823.38
505.557	811.38
505.773	817.38
505.99	803.38
506.207	778.38
506.423	777.38
506.64	763.38
506.856	763.38
507.073	747.38
507.289	748.38
507.506	742.38
507.722	743.38
507.939	787.38
508.155	755.38
508.372	731.38
508.588	732.38
508.805	730.38
509.021	740.38
509.238	761.38
509.454	746.38
509.67	735.38
509.887	738.38
510.103	733.38
510.319	744.38
510.536	809.38
510.752	1228.38
510.968	979.38
511.184	705.38
511.401	673.38
511.617	700.38
511.833	691.38
512.049	683.38
512.265	690.38
512.481	686.38
512.698	666.38
512.914	686.38
513.13	711.38
513.346	699.38
513.562	695.38
513.778	702.38
513.994	704.38
514.21	707.38
514.426	715.38
514.642	763.38
514.858	789.38
515.074	783.38
515.29	897.38
515.506	1213.38
515.721	1044.38
515.937	791.38
516.153	727.38
516.369	725.38
516.585	718.38
516.801	724.38
517.016	740.38
517.232	764.38
517.448	757.38
517.664	744.38
517.879	762.38
518.095	729.38
518.311	744.38
518.527	699.38
518.742	718.38
518.958	708.38
519.173	703.38
519.389	717.38
519.605	678.38
519.82	695.38
520.036	727.38
520.251	703.38
520.467	733.38
520.682	739.38
520.898	742.38
521.113	736.38
521.329	754.38
521.544	851.38
521.76	973.38
521.975	1506.38
522.19	1489.38
522.406	916.38
522.621	733.38
522.836	665.38
523.052	675.38
523.267	655.38
523.482	629.38
523.698	629.38
523.913	617.38
524.128	629.38
524.343	633.38
524.559	597.38
524.774	597.38
524.989	596.38
525.204	611.38
525.419	577.38
525.634	582.38
525.849	597.38
526.064	587.38
526.28	597.38
526.495	537.38
526.71	579.38
526.925	585.38
527.14	566.38
527.355	584.38
527.57	580.38
527.785	555.38
527.999	570.38
528.214	550.38
528.429	551.38
528.644	569.38
528.859	567.38
529.074	584.38
529.289	588.38
529.503	639.38
529.718	630.38
529.933	611.38
530.148	589.38
530.363	565.38
530.577	574.38
530.792	565.38
531.007	582.38
531.221	555.38
531.436	551.38
531.651	545.38
531.865	550.38
532.08	548.38
532.295	531.38
532.509	520.38
532.724	543.38
532.938	569.38
533.153	554.38
533.367	549.38
533.582	549.38
533.796	542.38
534.011	554.38
534.225	563.38
534.44	542.38
534.654	534.38
534.868	507.38
535.083	554.38
535.297	539.38
535.511	557.38
535.726	548.38
535.94	542.38
536.154	567.38
536.369	534.38
536.583	541.38
536.797	528.38
537.011	525.38
537.225	515.38
537.44	494.38
537.654	533.38
537.868	523.38
538.082	523.38
538.296	527.38
538.51	518.38
538.724	530.38
538.938	532.38
539.153	524.38
539.367	533.38
539.581	517.38
539.795	517.38
540.009	507.38
540.222	495.38
540.436	517.38
540.65	532.38
540.864	513.38
541.078	560.38
541.292	543.38
541.506	535.38
541.72	517.38
541.934	510.38
542.147	541.38
542.361	527.38
542.575	543.38
542.789	524.38
543.002	517.38
543.216	519.38
543.43	531.38
543.644	507.38
543.857	540.38
544.071	537.38
544.285	534.38
544.498	533.38
544.712	528.38
544.925	531.38
545.139	527.38
545.352	540.38
545.566	526.38
545.779	511.38
545.993	510.38
546.206	522.38
546.42	546.38
546.633	521.38
546.847	548.38
547.06	515.38
547.274	513.38
547.487	526.38
547.7	501.38
547.914	517.38
548.127	518.38
548.34	514.38
548.554	531.38
548.767	510.38
548.98	519.38
549.193	529.38
549.407	520.38
549.62	516.38
549.833	532.38
550.046	505.38
550.259	505.38
550.473	523.38
550.686	454.38
550.899	504.38
551.112	497.38
551.325	502.38
551.538	489.38
551.751	505.38
551.964	478.38
552.177	528.38
552.39	513.38
552.603	519.38
552.816	526.38
553.029	513.38
553.242	530.38
553.455	519.38
553.667	531.38
553.88	538.38
554.093	538.38
554.306	529.38
554.519	499.38
554.732	499.38
554.944	483.38
555.157	497.38
555.37	479.38
555.583	487.38
555.795	484.38
556.008	497.38
556.221	464.38
556.433	465.38
556.646	467.38
556.859	458.38
557.071	463.38
557.284	474.38
557.496	455.38
557.709	462.38
557.921	460.38
558.134	450.38
558.346	454.38
558.559	449.38
558.771	450.38
558.984	443.38
559.196	444.38
559.409	445.38
559.621	453.38
559.833	445.38
560.046	457.38
560.258	434.38
560.47	440.38
560.683	440.38
560.895	442.38
561.107	454.38
561.32	459.38
561.532	447.38
561.744	441.38
561.956	451.38
562.168	455.38
562.381	454.38
562.593	459.38
562.805	435.38
563.017	451.38
563.229	450.38
563.441	447.38
563.653	464.38
563.865	449.38
564.077	454.38
564.289	463.38
564.501	490.38
564.713	472.38
564.925	460.38
565.137	503.38
565.349	513.38
565.561	487.38
565.773	519.38
565.985	482.38
566.197	535.38
566.408	565.38
566.62	568.38
566.832	593.38
567.044	578.38
567.255	581.38
567.467	599.38
567.679	605.38
567.891	627.38
568.102	639.38
568.314	605.38
568.526	568.38
568.737	571.38
568.949	536.38
569.161	532.38
569.372	510.38
569.584	476.38
569.795	463.38
570.007	468.38
570.218	501.38
570.43	489.38
570.641	463.38
570.853	470.38
571.064	419.38
571.276	449.38
571.487	436.38
571.698	425.38
571.91	411.38
572.121	408.38
572.333	407.38
572.544	410.38
572.755	399.38
572.966	393.38
573.178	404.38
573.389	396.38
573.6	388.38
573.811	389.38
574.023	365.38
574.234	399.38
574.445	383.38
574.656	395.38
574.867	389.38
575.078	392.38
575.289	401.38
575.501	373.38
575.712	386.38
575.923	358.38
576.134	351.38
576.345	383.38
576.556	390.38
576.767	378.38
576.978	373.38
577.188	360.38
577.399	372.38
577.61	377.38
577.821	351.38
578.032	401.38
578.243	393.38
578.454	556.38
578.665	446.38
578.875	362.38
579.086	365.38
579.297	352.38
579.508	353.38
579.718	345.38
579.929	360.38
580.14	359.38
580.35	354.38
580.561	343.38
580.772	356.38
580.982	390.38
581.193	351.38
581.403	360.38
581.614	363.38
581.825	342.38
582.035	340.38
582.246	340.38
582.456	344.38
582.667	350.38
582.877	348.38
583.087	334.38
583.298	327.38
583.508	335.38
583.719	329.38
583.929	353.38
584.139	350.38
584.35	328.38
584.56	330.38
584.77	327.38
584.981	359.38
585.191	330.38
585.401	330.38
585.611	337.38
585.821	329.38
586.032	327.38
586.242	340.38
586.452	340.38
586.662	355.38
586.872	341.38
587.082	342.38
587.292	332.38
587.502	329.38
587.713	322.38
587.923	343.38
588.133	335.38
588.343	321.38
588.553	329.38
588.762	324.38
588.972	326.38
589.182	337.38
589.392	337.38
589.602	327.38
589.812	355.38
590.022	337.38
590.232	328.38
590.441	340.38
590.651	343.38
590.861	328.38
591.071	341.38
591.281	331.38
591.49	332.38
591.7	329.38
591.91	358.38
592.119	356.38
592.329	333.38
592.539	339.38
592.748	356.38
592.958	358.38
593.167	367.38
593.377	371.38
593.587	376.38
593.796	378.38
594.006	371.38
594.215	365.38
594.424	369.38
594.634	367.38
594.843	348.38
595.053	341.38
595.262	370.38
595.472	329.38
595.681	339.38
595.89	335.38
596.1	341.38
596.309	328.38
596.518	327.38
596.727	315.38
596.937	318.38
597.146	327.38
597.355	324.38
597.564	326.38
597.774	307.38
597.983	308.38
598.192	309.38
598.401	302.38
598.61	300.38
598.819	294.38
599.028	312.38
599.237	287.38
599.446	314.38
599.655	295.38
599.864	320.38
600.073	291.38
600.282	283.38
600.491	304.38
600.7	298.38
600.909	284.38
601.118	269.38
601.327	292.38
601.536	287.38
601.745	279.38
601.953	299.38
602.162	290.38
602.371	310.38
602.58	301.38
602.789	294.38
602.997	298.38
603.206	311.38
603.415	283.38
603.623	253.38
603.832	291.38
604.041	267.38
604.249	297.38
604.458	293.38
604.666	271.38
604.875	269.38
605.084	272.38
605.292	286.38
605.501	288.38
605.709	276.38
605.918	273.38
606.126	275.38
606.334	302.38
606.543	286.38
606.751	284.38
606.96	291.38
607.168	273.38
607.376	303.38
607.585	277.38
607.793	279.38
608.001	283.38
608.21	285.38
608.418	282.38
608.626	268.38
608.834	279.38
609.043	283.38
609.251	265.38
609.459	269.38
609.667	284.38
609.875	281.38
610.083	269.38
610.291	267.38
610.499	285.38
610.707	264.38
610.916	293.38
611.124	290.38
611.332	298.38
611.54	278.38
611.748	290.38
611.955	270.38
612.163	261.38
612.371	289.38
612.579	273.38
612.787	278.38
612.995	291.38
613.203	280.38
613.411	279.38
613.618	263.38
613.826	271.38
614.034	268.38
614.242	264.38
614.449	274.38
614.657	257.38
614.865	268.38
615.072	251.38
615.28	273.38
615.488	276.38
615.695	298.38
615.903	257.38
616.111	283.38
616.318	257.38
616.526	277.38
616.733	277.38
616.941	272.38
617.148	274.38
617.356	279.38
617.563	261.38
617.771	281.38
617.978	267.38
618.185	257.38
618.393	269.38
618.6	246.38
618.807	245.38
619.015	262.38
619.222	271.38
619.429	261.38
619.637	264.38
619.844	262.38
620.051	261.38
620.258	236.38
620.466	250.38
620.673	247.38
620.88	237.38
621.087	236.38
621.294	269.38
621.501	237.38
621.708	231.38
621.915	244.38
622.122	268.38
622.329	245.38
622.536	253.38
622.743	248.38
622.95	238.38
623.157	238.38
623.364	255.38
623.571	246.38
623.778	235.38
623.985	239.38
624.192	233.38
624.399	241.38
624.606	258.38
624.812	236.38
625.019	239.38
625.226	237.38
625.433	254.38
625.639	236.38
625.846	228.38
626.053	256.38
626.259	233.38
626.466	229.38
626.673	222.38
626.879	226.38
627.086	236.38
627.293	229.38
627.499	233.38
627.706	233.38
627.912	234.38
628.119	232.38
628.325	233.38
628.532	217.38
628.738	219.38
628.945	226.38
629.151	230.38
629.357	222.38
629.564	230.38
629.77	230.38
629.976	229.38
630.183	219.38
630.389	227.38
630.595	218.38
630.802	229.38
631.008	229.38
631.214	208.38
631.42	234.38
631.627	228.38
631.833	226.38
632.039	223.38
632.245	220.38
632.451	204.38
632.657	203.38
632.863	220.38
633.069	231.38
633.275	216.38
633.481	209.38
633.688	224.38
633.893	213.38
634.099	207.38
634.305	217.38
634.511	215.38
634.717	207.38
634.923	205.38
635.129	204.38
635.335	206.38
635.541	194.38
635.747	196.38
635.952	203.38
636.158	216.38
636.364	198.38
636.57	220.38
636.775	204.38
636.981	210.38
637.187	203.38
637.392	200.38
637.598	207.38
637.804	216.38
638.009	195.38
638.215	204.38
638.421	199.38
638.626	198.38
638.832	212.38
639.037	190.38
639.243	195.38
639.448	205.38
639.654	198.38
639.859	200.38
640.065	190.38
640.27	207.38
640.475	205.38
640.681	207.38
640.886	201.38
641.091	203.38
641.297	203.38
641.502	205.38
641.707	189.38
641.913	210.38
642.118	209.38
642.323	190.38
642.528	207.38
642.733	192.38
642.939	189.38
643.144	177.38
643.349	202.38
643.554	197.38
643.759	185.38
643.964	175.38
644.169	180.38
644.374	169.38
644.579	195.38
644.784	172.38
644.989	178.38
645.194	180.38
645.399	170.38
645.604	187.38
645.809	180.38
646.014	186.38
646.219	177.38
646.423	182.38
646.628	187.38
646.833	174.38
647.038	185.38
647.243	186.38
647.447	197.38
647.652	177.38
647.857	181.38
648.062	196.38
648.266	171.38
648.471	185.38
648.676	205.38
648.88	185.38
649.085	189.38
649.289	186.38
649.494	183.38
649.698	195.38
649.903	206.38
650.107	180.38
650.312	190.38
650.516	165.38
650.721	172.38
650.925	163.38
651.13	165.38
651.334	172.38
651.539	173.38
651.743	167.38
651.947	156.38
652.152	167.38
652.356	158.38
652.56	157.38
652.764	149.38
652.969	162.38
653.173	171.38
653.377	162.38
653.581	137.38
653.785	149.38
653.99	135.38
654.194	141.38
654.398	147.38
654.602	155.38
654.806	147.38
655.01	138.38
655.214	160.38
655.418	146.38
655.622	149.38
655.826	138.38
656.03	142.38
656.234	143.38
656.438	141.38
656.642	149.38
656.846	156.38
657.049	130.38
657.253	131.38
657.457	120.38
657.661	129.38
657.865	127.38
658.068	125.38
658.272	110.38
658.476	101.38
658.68	117.38
658.883	103.38
659.087	113.38
659.291	101.38
659.494	94.38
659.698	100.38
659.901	105.38
660.105	101.38
660.309	104.38
660.512	95.38
660.716	97.38
660.919	99.38
661.123	99.38
661.326	94.38
661.53	99.38
661.733	91.38
661.936	85.38
662.14	95.38
662.343	83.38
662.546	109.38
662.75	92.38
662.953	85.38
663.156	84.38
663.36	93.38
663.563	93.38
663.766	80.38
663.969	82.38
664.173	71.38
664.376	90.38
664.579	93.38
664.782	83.38
664.985	83.38
665.188	88.38
665.391	83.38
665.594	77.38
665.797	69.38
666	93.38
666.203	76.38
666.406	84.38
666.609	81.38
666.812	79.38
667.015	89.38
667.218	74.38
667.421	85.38
667.624	73.38
667.827	82.38
668.03	76.38
668.232	88.38
668.435	90.38
668.638	74.38
668.841	93.38
669.043	79.38
669.246	61.38
669.449	79.38
669.651	91.38
669.854	87.38
670.057	89.38
670.259	98.38
670.462	83.38
670.665	88.38
670.867	92.38
671.07	70.38
671.272	78.38
671.475	91.38
671.677	78.38
671.88	89.38
672.082	79.38
672.284	85.38
672.487	73.38
672.689	72.38
672.892	77.38
