Data from 1974.PennyLincolnUp.Lamp.En5.5.200Scan.071719.P1.Changed Mount._HRD10591_15-53-32-857.txt Node
Date: Thu Jul 18 15:53:32 EDT 2019
User: cochatt
Spectrometer: HR+D1059
Trigger mode: 1
Integration Time (sec): 1.000000E-1
Scans to average: 1
Electric dark correction enabled: true
Nonlinearity correction enabled: false
Boxcar width: 0
XAxis mode: Wavelengths
Number of Pixels in Spectrum: 2048
>>>>>Begin Spectral Data<<<<<
223.165	-12.12
223.4	-12.12
223.635	-12.12
223.869	-18.12
224.104	-7.12
224.338	-27.12
224.573	-12.12
224.808	-8.12
225.042	-0.12
225.277	-13.12
225.511	-0.12
225.746	11.88
225.98	3.88
226.215	6.88
226.449	3.88
226.683	19.88
226.918	29.88
227.152	21.88
227.387	34.88
227.621	41.88
227.856	36.88
228.09	36.88
228.324	60.88
228.559	47.88
228.793	48.88
229.027	88.88
229.262	100.88
229.496	124.88
229.73	125.88
229.964	141.88
230.199	135.88
230.433	104.88
230.667	113.88
230.901	107.88
231.136	115.88
231.37	111.88
231.604	119.88
231.838	118.88
232.072	115.88
232.306	126.88
232.541	124.88
232.775	105.88
233.009	111.88
233.243	107.88
233.477	113.88
233.711	99.88
233.945	117.88
234.179	113.88
234.413	132.88
234.647	124.88
234.881	121.88
235.115	125.88
235.349	129.88
235.583	131.88
235.817	130.88
236.051	131.88
236.285	136.88
236.519	141.88
236.753	128.88
236.987	141.88
237.221	172.88
237.455	225.88
237.689	182.88
237.922	139.88
238.156	127.88
238.39	130.88
238.624	116.88
238.858	115.88
239.091	126.88
239.325	129.88
239.559	128.88
239.793	126.88
240.027	144.88
240.26	137.88
240.494	165.88
240.728	160.88
240.961	158.88
241.195	152.88
241.429	151.88
241.662	146.88
241.896	126.88
242.13	130.88
242.363	139.88
242.597	127.88
242.83	139.88
243.064	125.88
243.298	145.88
243.531	150.88
243.765	150.88
243.998	152.88
244.232	158.88
244.465	159.88
244.699	152.88
244.932	163.88
245.166	149.88
245.399	168.88
245.633	153.88
245.866	144.88
246.099	154.88
246.333	160.88
246.566	161.88
246.8	176.88
247.033	165.88
247.266	153.88
247.5	159.88
247.733	177.88
247.966	191.88
248.2	191.88
248.433	186.88
248.666	180.88
248.899	200.88
249.133	215.88
249.366	213.88
249.599	218.88
249.832	187.88
250.066	195.88
250.299	207.88
250.532	218.88
250.765	206.88
250.998	229.88
251.231	235.88
251.465	228.88
251.698	210.88
251.931	200.88
252.164	205.88
252.397	219.88
252.63	205.88
252.863	224.88
253.096	225.88
253.329	229.88
253.562	242.88
253.795	234.88
254.028	245.88
254.261	223.88
254.494	231.88
254.727	276.88
254.96	289.88
255.193	276.88
255.426	262.88
255.659	235.88
255.892	247.88
256.124	242.88
256.357	239.88
256.59	237.88
256.823	220.88
257.056	228.88
257.289	211.88
257.521	226.88
257.754	233.88
257.987	229.88
258.22	220.88
258.452	205.88
258.685	221.88
258.918	197.88
259.151	226.88
259.383	212.88
259.616	228.88
259.849	229.88
260.081	253.88
260.314	269.88
260.547	266.88
260.779	246.88
261.012	246.88
261.244	256.88
261.477	232.88
261.71	234.88
261.942	239.88
262.175	234.88
262.407	255.88
262.64	229.88
262.872	215.88
263.105	236.88
263.337	223.88
263.57	238.88
263.802	215.88
264.035	221.88
264.267	218.88
264.499	230.88
264.732	227.88
264.964	230.88
265.197	233.88
265.429	224.88
265.661	229.88
265.894	231.88
266.126	243.88
266.358	241.88
266.591	224.88
266.823	230.88
267.055	235.88
267.287	241.88
267.52	230.88
267.752	249.88
267.984	249.88
268.216	249.88
268.448	256.88
268.681	247.88
268.913	259.88
269.145	273.88
269.377	300.88
269.609	299.88
269.841	296.88
270.073	290.88
270.306	302.88
270.538	309.88
270.77	338.88
271.002	325.88
271.234	312.88
271.466	316.88
271.698	333.88
271.93	329.88
272.162	317.88
272.394	338.88
272.626	322.88
272.858	316.88
273.09	287.88
273.322	291.88
273.553	280.88
273.785	283.88
274.017	266.88
274.249	288.88
274.481	298.88
274.713	283.88
274.945	280.88
275.176	274.88
275.408	267.88
275.64	275.88
275.872	275.88
276.104	279.88
276.335	309.88
276.567	277.88
276.799	299.88
277.031	332.88
277.262	336.88
277.494	345.88
277.726	334.88
277.957	316.88
278.189	304.88
278.421	292.88
278.652	298.88
278.884	299.88
279.115	283.88
279.347	289.88
279.579	283.88
279.81	263.88
280.042	275.88
280.273	267.88
280.505	273.88
280.736	284.88
280.968	305.88
281.199	315.88
281.431	305.88
281.662	284.88
281.894	285.88
282.125	286.88
282.356	307.88
282.588	316.88
282.819	320.88
283.051	298.88
283.282	315.88
283.513	290.88
283.745	288.88
283.976	307.88
284.207	301.88
284.439	295.88
284.67	324.88
284.901	293.88
285.132	323.88
285.364	317.88
285.595	301.88
285.826	312.88
286.057	298.88
286.288	310.88
286.52	317.88
286.751	300.88
286.982	322.88
287.213	328.88
287.444	306.88
287.675	300.88
287.906	326.88
288.138	321.88
288.369	322.88
288.6	336.88
288.831	329.88
289.062	313.88
289.293	317.88
289.524	327.88
289.755	320.88
289.986	305.88
290.217	311.88
290.448	313.88
290.679	325.88
290.91	314.88
291.141	318.88
291.371	316.88
291.602	320.88
291.833	307.88
292.064	320.88
292.295	315.88
292.526	327.88
292.757	316.88
292.987	315.88
293.218	292.88
293.449	328.88
293.68	331.88
293.91	297.88
294.141	316.88
294.372	299.88
294.603	321.88
294.833	331.88
295.064	329.88
295.295	314.88
295.525	318.88
295.756	330.88
295.987	329.88
296.217	342.88
296.448	363.88
296.679	329.88
296.909	307.88
297.14	340.88
297.37	337.88
297.601	332.88
297.831	315.88
298.062	325.88
298.292	339.88
298.523	329.88
298.753	343.88
298.984	334.88
299.214	338.88
299.445	318.88
299.675	329.88
299.905	310.88
300.136	330.88
300.366	329.88
300.597	344.88
300.827	350.88
301.057	342.88
301.288	354.88
301.518	353.88
301.748	347.88
301.979	349.88
302.209	365.88
302.439	363.88
302.669	359.88
302.9	356.88
303.13	362.88
303.36	382.88
303.59	367.88
303.82	371.88
304.051	359.88
304.281	368.88
304.511	342.88
304.741	363.88
304.971	335.88
305.201	370.88
305.431	369.88
305.661	332.88
305.891	344.88
306.121	356.88
306.352	364.88
306.582	377.88
306.812	352.88
307.042	337.88
307.272	364.88
307.502	372.88
307.731	369.88
307.961	357.88
308.191	373.88
308.421	371.88
308.651	367.88
308.881	378.88
309.111	362.88
309.341	376.88
309.571	393.88
309.8	386.88
310.03	377.88
310.26	383.88
310.49	389.88
310.72	393.88
310.949	402.88
311.179	401.88
311.409	401.88
311.639	383.88
311.868	390.88
312.098	407.88
312.328	411.88
312.557	381.88
312.787	428.88
313.017	418.88
313.246	412.88
313.476	388.88
313.706	411.88
313.935	419.88
314.165	419.88
314.394	420.88
314.624	426.88
314.853	418.88
315.083	408.88
315.312	418.88
315.542	407.88
315.771	393.88
316.001	384.88
316.23	395.88
316.46	408.88
316.689	400.88
316.919	389.88
317.148	407.88
317.377	397.88
317.607	419.88
317.836	379.88
318.065	390.88
318.295	417.88
318.524	418.88
318.753	397.88
318.983	387.88
319.212	395.88
319.441	435.88
319.67	409.88
319.9	394.88
320.129	380.88
320.358	416.88
320.587	400.88
320.816	419.88
321.046	423.88
321.275	432.88
321.504	409.88
321.733	429.88
321.962	429.88
322.191	455.88
322.42	430.88
322.649	450.88
322.878	463.88
323.108	455.88
323.337	490.88
323.566	468.88
323.795	503.88
324.024	548.88
324.253	621.88
324.482	871.88
324.71	1295.88
324.939	1900.88
325.168	1693.88
325.397	886.88
325.626	620.88
325.855	533.88
326.084	513.88
326.313	489.88
326.542	489.88
326.77	544.88
326.999	604.88
327.228	802.88
327.457	1159.88
327.686	1473.88
327.914	999.88
328.143	673.88
328.372	587.88
328.6	567.88
328.829	559.88
329.058	572.88
329.287	585.88
329.515	546.88
329.744	531.88
329.972	540.88
330.201	519.88
330.43	571.88
330.658	571.88
330.887	572.88
331.115	575.88
331.344	553.88
331.572	505.88
331.801	507.88
332.03	516.88
332.258	510.88
332.486	480.88
332.715	486.88
332.943	502.88
333.172	497.88
333.4	511.88
333.629	525.88
333.857	520.88
334.085	535.88
334.314	539.88
334.542	554.88
334.771	586.88
334.999	537.88
335.227	541.88
335.455	501.88
335.684	503.88
335.912	509.88
336.14	475.88
336.369	491.88
336.597	492.88
336.825	506.88
337.053	473.88
337.281	483.88
337.51	491.88
337.738	496.88
337.966	473.88
338.194	472.88
338.422	484.88
338.65	484.88
338.878	474.88
339.106	477.88
339.334	491.88
339.562	474.88
339.79	476.88
340.018	458.88
340.246	476.88
340.474	484.88
340.702	463.88
340.93	472.88
341.158	466.88
341.386	483.88
341.614	460.88
341.842	469.88
342.07	474.88
342.298	467.88
342.526	457.88
342.754	462.88
342.981	454.88
343.209	458.88
343.437	441.88
343.665	466.88
343.893	476.88
344.12	499.88
344.348	492.88
344.576	477.88
344.804	506.88
345.031	515.88
345.259	497.88
345.487	472.88
345.714	464.88
345.942	452.88
346.17	442.88
346.397	457.88
346.625	460.88
346.853	460.88
347.08	448.88
347.308	469.88
347.535	458.88
347.763	455.88
347.99	458.88
348.218	470.88
348.445	473.88
348.673	457.88
348.9	461.88
349.128	453.88
349.355	441.88
349.583	437.88
349.81	434.88
350.037	441.88
350.265	441.88
350.492	429.88
350.72	431.88
350.947	447.88
351.174	446.88
351.402	476.88
351.629	464.88
351.856	456.88
352.083	467.88
352.311	466.88
352.538	437.88
352.765	472.88
352.992	463.88
353.22	451.88
353.447	454.88
353.674	456.88
353.901	441.88
354.128	445.88
354.355	439.88
354.583	412.88
354.81	419.88
355.037	435.88
355.264	436.88
355.491	429.88
355.718	423.88
355.945	431.88
356.172	448.88
356.399	417.88
356.626	441.88
356.853	412.88
357.08	441.88
357.307	434.88
357.534	434.88
357.761	429.88
357.988	436.88
358.215	465.88
358.441	444.88
358.668	434.88
358.895	417.88
359.122	446.88
359.349	446.88
359.576	443.88
359.802	451.88
360.029	488.88
360.256	488.88
360.483	484.88
360.709	456.88
360.936	455.88
361.163	455.88
361.39	449.88
361.616	485.88
361.843	451.88
362.07	474.88
362.296	476.88
362.523	452.88
362.749	451.88
362.976	450.88
363.203	446.88
363.429	436.88
363.656	423.88
363.882	426.88
364.109	439.88
364.335	436.88
364.562	453.88
364.788	460.88
365.015	431.88
365.241	452.88
365.468	434.88
365.694	451.88
365.92	471.88
366.147	447.88
366.373	439.88
366.599	440.88
366.826	438.88
367.052	452.88
367.278	432.88
367.505	433.88
367.731	457.88
367.957	424.88
368.184	445.88
368.41	439.88
368.636	453.88
368.862	458.88
369.089	441.88
369.315	423.88
369.541	455.88
369.767	454.88
369.993	433.88
370.219	447.88
370.445	441.88
370.672	423.88
370.898	443.88
371.124	446.88
371.35	443.88
371.576	462.88
371.802	458.88
372.028	456.88
372.254	425.88
372.48	476.88
372.706	426.88
372.932	468.88
373.158	471.88
373.384	455.88
373.61	448.88
373.835	445.88
374.061	455.88
374.287	444.88
374.513	465.88
374.739	466.88
374.965	455.88
375.191	441.88
375.416	473.88
375.642	478.88
375.868	481.88
376.094	440.88
376.319	456.88
376.545	445.88
376.771	447.88
376.997	440.88
377.222	437.88
377.448	471.88
377.674	446.88
377.899	453.88
378.125	436.88
378.35	448.88
378.576	440.88
378.802	467.88
379.027	458.88
379.253	452.88
379.478	453.88
379.704	437.88
379.929	454.88
380.155	450.88
380.38	460.88
380.606	445.88
380.831	469.88
381.057	460.88
381.282	467.88
381.507	457.88
381.733	456.88
381.958	450.88
382.184	460.88
382.409	444.88
382.634	472.88
382.86	447.88
383.085	459.88
383.31	459.88
383.535	479.88
383.761	488.88
383.986	478.88
384.211	499.88
384.436	489.88
384.662	481.88
384.887	477.88
385.112	507.88
385.337	496.88
385.562	493.88
385.787	531.88
386.013	535.88
386.238	512.88
386.463	521.88
386.688	507.88
386.913	514.88
387.138	494.88
387.363	482.88
387.588	517.88
387.813	532.88
388.038	509.88
388.263	490.88
388.488	517.88
388.713	498.88
388.938	488.88
389.163	508.88
389.387	512.88
389.612	522.88
389.837	495.88
390.062	492.88
390.287	500.88
390.512	507.88
390.736	505.88
390.961	513.88
391.186	521.88
391.411	511.88
391.636	495.88
391.86	539.88
392.085	544.88
392.31	523.88
392.534	500.88
392.759	530.88
392.984	536.88
393.208	529.88
393.433	508.88
393.658	526.88
393.882	506.88
394.107	534.88
394.331	521.88
394.556	533.88
394.78	515.88
395.005	523.88
395.229	525.88
395.454	523.88
395.678	547.88
395.903	551.88
396.127	556.88
396.352	563.88
396.576	541.88
396.801	520.88
397.025	530.88
397.249	537.88
397.474	552.88
397.698	550.88
397.922	585.88
398.147	602.88
398.371	566.88
398.595	588.88
398.82	609.88
399.044	602.88
399.268	621.88
399.492	687.88
399.717	710.88
399.941	770.88
400.165	753.88
400.389	752.88
400.613	695.88
400.837	634.88
401.062	586.88
401.286	584.88
401.51	614.88
401.734	595.88
401.958	599.88
402.182	609.88
402.406	589.88
402.63	607.88
402.854	602.88
403.078	595.88
403.302	619.88
403.526	631.88
403.75	609.88
403.974	646.88
404.198	608.88
404.422	647.88
404.645	647.88
404.869	625.88
405.093	661.88
405.317	702.88
405.541	755.88
405.765	679.88
405.988	644.88
406.212	651.88
406.436	673.88
406.66	684.88
406.883	676.88
407.107	696.88
407.331	731.88
407.555	815.88
407.778	817.88
408.002	766.88
408.226	720.88
408.449	685.88
408.673	689.88
408.896	676.88
409.12	738.88
409.344	712.88
409.567	650.88
409.791	637.88
410.014	620.88
410.238	617.88
410.461	629.88
410.685	624.88
410.908	636.88
411.132	663.88
411.355	705.88
411.578	669.88
411.802	617.88
412.025	603.88
412.249	636.88
412.472	673.88
412.695	680.88
412.919	668.88
413.142	624.88
413.365	610.88
413.589	611.88
413.812	608.88
414.035	605.88
414.258	600.88
414.482	553.88
414.705	595.88
414.928	593.88
415.151	593.88
415.374	579.88
415.597	595.88
415.821	589.88
416.044	595.88
416.267	582.88
416.49	575.88
416.713	579.88
416.936	575.88
417.159	574.88
417.382	594.88
417.605	585.88
417.828	573.88
418.051	613.88
418.274	624.88
418.497	604.88
418.72	596.88
418.943	595.88
419.166	604.88
419.389	643.88
419.611	635.88
419.834	635.88
420.057	602.88
420.28	617.88
420.503	600.88
420.726	596.88
420.948	633.88
421.171	665.88
421.394	721.88
421.617	645.88
421.839	633.88
422.062	603.88
422.285	629.88
422.507	681.88
422.73	769.88
422.953	727.88
423.175	681.88
423.398	660.88
423.621	629.88
423.843	657.88
424.066	663.88
424.288	616.88
424.511	661.88
424.733	735.88
424.956	773.88
425.178	787.88
425.401	753.88
425.623	803.88
425.846	674.88
426.068	653.88
426.291	633.88
426.513	631.88
426.735	659.88
426.958	693.88
427.18	764.88
427.402	883.88
427.625	987.88
427.847	859.88
428.069	751.88
428.292	679.88
428.514	620.88
428.736	616.88
428.958	604.88
429.181	575.88
429.403	598.88
429.625	592.88
429.847	646.88
430.069	697.88
430.292	677.88
430.514	625.88
430.736	598.88
430.958	606.88
431.18	588.88
431.402	589.88
431.624	566.88
431.846	583.88
432.068	576.88
432.29	551.88
432.512	576.88
432.734	561.88
432.956	582.88
433.178	574.88
433.4	575.88
433.622	592.88
433.844	566.88
434.066	573.88
434.287	570.88
434.509	571.88
434.731	582.88
434.953	592.88
435.175	620.88
435.397	659.88
435.618	635.88
435.84	697.88
436.062	762.88
436.284	840.88
436.505	725.88
436.727	645.88
436.949	621.88
437.17	610.88
437.392	588.88
437.614	592.88
437.835	620.88
438.057	729.88
438.278	849.88
438.5	817.88
438.721	923.88
438.943	885.88
439.165	712.88
439.386	639.88
439.608	662.88
439.829	650.88
440.05	666.88
440.272	704.88
440.493	678.88
440.715	637.88
440.936	627.88
441.158	612.88
441.379	625.88
441.6	628.88
441.822	651.88
442.043	692.88
442.264	811.88
442.486	817.88
442.707	727.88
442.928	673.88
443.149	668.88
443.371	684.88
443.592	743.88
443.813	826.88
444.034	893.88
444.255	755.88
444.476	669.88
444.698	679.88
444.919	670.88
445.14	763.88
445.361	711.88
445.582	697.88
445.803	760.88
446.024	873.88
446.245	878.88
446.466	783.88
446.687	703.88
446.908	639.88
447.129	624.88
447.35	615.88
447.571	600.88
447.792	553.88
448.013	600.88
448.234	589.88
448.455	648.88
448.675	808.88
448.896	880.88
449.117	753.88
449.338	733.88
449.559	834.88
449.779	945.88
450	763.88
450.221	632.88
450.442	589.88
450.662	567.88
450.883	572.88
451.104	576.88
451.324	555.88
451.545	577.88
451.766	547.88
451.986	538.88
452.207	554.88
452.428	537.88
452.648	534.88
452.869	523.88
453.089	536.88
453.31	557.88
453.53	525.88
453.751	536.88
453.971	516.88
454.192	535.88
454.412	551.88
454.633	519.88
454.853	530.88
455.073	512.88
455.294	561.88
455.514	602.88
455.734	603.88
455.955	521.88
456.175	505.88
456.395	519.88
456.616	506.88
456.836	495.88
457.056	489.88
457.276	483.88
457.497	512.88
457.717	499.88
457.937	520.88
458.157	501.88
458.377	527.88
458.598	552.88
458.818	561.88
459.038	653.88
459.258	689.88
459.478	599.88
459.698	553.88
459.918	587.88
460.138	561.88
460.358	571.88
460.578	603.88
460.798	577.88
461.018	618.88
461.238	608.88
461.458	596.88
461.678	572.88
461.898	607.88
462.118	601.88
462.338	609.88
462.558	615.88
462.777	628.88
462.997	665.88
463.217	669.88
463.437	694.88
463.657	633.88
463.876	638.88
464.096	632.88
464.316	631.88
464.536	631.88
464.755	629.88
464.975	636.88
465.195	657.88
465.414	693.88
465.634	633.88
465.854	609.88
466.073	557.88
466.293	567.88
466.512	539.88
466.732	518.88
466.951	554.88
467.171	543.88
467.391	569.88
467.61	522.88
467.829	584.88
468.049	565.88
468.268	557.88
468.488	543.88
468.707	528.88
468.927	555.88
469.146	530.88
469.365	565.88
469.585	556.88
469.804	529.88
470.023	565.88
470.243	546.88
470.462	551.88
470.681	587.88
470.901	571.88
471.12	549.88
471.339	583.88
471.558	566.88
471.777	532.88
471.997	559.88
472.216	538.88
472.435	576.88
472.654	550.88
472.873	537.88
473.092	532.88
473.311	552.88
473.53	541.88
473.749	545.88
473.968	592.88
474.187	682.88
474.406	689.88
474.625	588.88
474.844	569.88
475.063	563.88
475.282	547.88
475.501	531.88
475.72	547.88
475.939	570.88
476.158	569.88
476.377	573.88
476.596	578.88
476.814	576.88
477.033	574.88
477.252	584.88
477.471	572.88
477.69	581.88
477.908	607.88
478.127	609.88
478.346	632.88
478.564	633.88
478.783	628.88
479.002	617.88
479.22	639.88
479.439	668.88
479.658	666.88
479.876	665.88
480.095	677.88
480.313	694.88
480.532	705.88
480.751	687.88
480.969	682.88
481.188	729.88
481.406	748.88
481.624	683.88
481.843	658.88
482.061	643.88
482.28	656.88
482.498	667.88
482.717	652.88
482.935	625.88
483.153	660.88
483.372	643.88
483.59	667.88
483.808	650.88
484.027	625.88
484.245	630.88
484.463	664.88
484.681	663.88
484.9	641.88
485.118	658.88
485.336	657.88
485.554	658.88
485.772	668.88
485.99	658.88
486.209	645.88
486.427	671.88
486.645	659.88
486.863	692.88
487.081	686.88
487.299	690.88
487.517	673.88
487.735	701.88
487.953	700.88
488.171	697.88
488.389	701.88
488.607	697.88
488.825	684.88
489.043	717.88
489.261	702.88
489.479	690.88
489.696	714.88
489.914	723.88
490.132	719.88
490.35	713.88
490.568	735.88
490.786	738.88
491.003	766.88
491.221	770.88
491.439	781.88
491.657	787.88
491.874	805.88
492.092	785.88
492.31	810.88
492.527	809.88
492.745	806.88
492.963	816.88
493.18	807.88
493.398	831.88
493.615	828.88
493.833	838.88
494.05	840.88
494.268	848.88
494.485	829.88
494.703	820.88
494.92	815.88
495.138	811.88
495.355	826.88
495.573	794.88
495.79	832.88
496.008	830.88
496.225	844.88
496.442	824.88
496.66	836.88
496.877	839.88
497.094	845.88
497.312	872.88
497.529	856.88
497.746	887.88
497.963	893.88
498.181	905.88
498.398	920.88
498.615	931.88
498.832	989.88
499.049	1016.88
499.267	1039.88
499.484	1075.88
499.701	1135.88
499.918	1186.88
500.135	1253.88
500.352	1297.88
500.569	1366.88
500.786	1331.88
501.003	1327.88
501.22	1232.88
501.437	1173.88
501.654	1136.88
501.871	1125.88
502.088	1052.88
502.305	1009.88
502.522	954.88
502.739	957.88
502.956	889.88
503.172	908.88
503.389	876.88
503.606	883.88
503.823	855.88
504.04	821.88
504.256	861.88
504.473	853.88
504.69	840.88
504.907	854.88
505.123	841.88
505.34	805.88
505.557	805.88
505.773	789.88
505.99	787.88
506.207	788.88
506.423	783.88
506.64	767.88
506.856	765.88
507.073	783.88
507.289	779.88
507.506	760.88
507.722	759.88
507.939	793.88
508.155	745.88
508.372	736.88
508.588	753.88
508.805	738.88
509.021	708.88
509.238	729.88
509.454	739.88
509.67	742.88
509.887	720.88
510.103	716.88
510.319	713.88
510.536	767.88
510.752	1157.88
510.968	958.88
511.184	715.88
511.401	692.88
511.617	695.88
511.833	693.88
512.049	679.88
512.265	679.88
512.481	668.88
512.698	679.88
512.914	690.88
513.13	673.88
513.346	672.88
513.562	660.88
513.778	679.88
513.994	694.88
514.21	698.88
514.426	701.88
514.642	728.88
514.858	756.88
515.074	745.88
515.29	858.88
515.506	1143.88
515.721	987.88
515.937	781.88
516.153	722.88
516.369	734.88
516.585	721.88
516.801	701.88
517.016	703.88
517.232	738.88
517.448	754.88
517.664	740.88
517.879	755.88
518.095	760.88
518.311	742.88
518.527	725.88
518.742	713.88
518.958	699.88
519.173	694.88
519.389	689.88
519.605	689.88
519.82	697.88
520.036	669.88
520.251	708.88
520.467	725.88
520.682	695.88
520.898	728.88
521.113	717.88
521.329	751.88
521.544	812.88
521.76	949.88
521.975	1417.88
522.19	1381.88
522.406	853.88
522.621	714.88
522.836	655.88
523.052	655.88
523.267	641.88
523.482	624.88
523.698	644.88
523.913	599.88
524.128	627.88
524.343	592.88
524.559	605.88
524.774	593.88
524.989	579.88
525.204	588.88
525.419	597.88
525.634	583.88
525.849	585.88
526.064	580.88
526.28	571.88
526.495	589.88
526.71	565.88
526.925	547.88
527.14	566.88
527.355	546.88
527.57	556.88
527.785	566.88
527.999	559.88
528.214	561.88
528.429	576.88
528.644	562.88
528.859	586.88
529.074	578.88
529.289	589.88
529.503	634.88
529.718	637.88
529.933	600.88
530.148	587.88
530.363	575.88
530.577	567.88
530.792	553.88
531.007	556.88
531.221	580.88
531.436	565.88
531.651	552.88
531.865	557.88
532.08	556.88
532.295	556.88
532.509	550.88
532.724	534.88
532.938	567.88
533.153	545.88
533.367	552.88
533.582	555.88
533.796	549.88
534.011	559.88
534.225	536.88
534.44	565.88
534.654	545.88
534.868	533.88
535.083	526.88
535.297	525.88
535.511	537.88
535.726	558.88
535.94	543.88
536.154	547.88
536.369	524.88
536.583	537.88
536.797	527.88
537.011	506.88
537.225	509.88
537.44	531.88
537.654	519.88
537.868	537.88
538.082	520.88
538.296	537.88
538.51	542.88
538.724	517.88
538.938	557.88
539.153	523.88
539.367	561.88
539.581	539.88
539.795	521.88
540.009	517.88
540.222	502.88
540.436	506.88
540.65	516.88
540.864	527.88
541.078	527.88
541.292	524.88
541.506	522.88
541.72	522.88
541.934	533.88
542.147	540.88
542.361	521.88
542.575	523.88
542.789	528.88
543.002	535.88
543.216	486.88
543.43	538.88
543.644	510.88
543.857	535.88
544.071	517.88
544.285	513.88
544.498	505.88
544.712	515.88
544.925	529.88
545.139	524.88
545.352	531.88
545.566	523.88
545.779	502.88
545.993	511.88
546.206	521.88
546.42	524.88
546.633	499.88
546.847	517.88
547.06	513.88
547.274	517.88
547.487	486.88
547.7	517.88
547.914	511.88
548.127	512.88
548.34	556.88
548.554	520.88
548.767	529.88
548.98	505.88
549.193	523.88
549.407	513.88
549.62	530.88
549.833	505.88
550.046	503.88
550.259	507.88
550.473	521.88
550.686	502.88
550.899	521.88
551.112	511.88
551.325	502.88
551.538	477.88
551.751	466.88
551.964	517.88
552.177	509.88
552.39	510.88
552.603	513.88
552.816	498.88
553.029	536.88
553.242	515.88
553.455	541.88
553.667	533.88
553.88	540.88
554.093	516.88
554.306	519.88
554.519	513.88
554.732	488.88
554.944	512.88
555.157	505.88
555.37	489.88
555.583	480.88
555.795	479.88
556.008	488.88
556.221	467.88
556.433	448.88
556.646	455.88
556.859	471.88
557.071	474.88
557.284	463.88
557.496	459.88
557.709	454.88
557.921	467.88
558.134	458.88
558.346	436.88
558.559	465.88
558.771	467.88
558.984	471.88
559.196	460.88
559.409	465.88
559.621	460.88
559.833	445.88
560.046	427.88
560.258	440.88
560.47	461.88
560.683	449.88
560.895	443.88
561.107	442.88
561.32	448.88
561.532	443.88
561.744	456.88
561.956	436.88
562.168	443.88
562.381	449.88
562.593	436.88
562.805	461.88
563.017	432.88
563.229	436.88
563.441	461.88
563.653	443.88
563.865	484.88
564.077	460.88
564.289	458.88
564.501	483.88
564.713	468.88
564.925	453.88
565.137	458.88
565.349	466.88
565.561	485.88
565.773	493.88
565.985	522.88
566.197	531.88
566.408	543.88
566.62	577.88
566.832	585.88
567.044	599.88
567.255	595.88
567.467	582.88
567.679	616.88
567.891	615.88
568.102	588.88
568.314	612.88
568.526	581.88
568.737	558.88
568.949	549.88
569.161	519.88
569.372	524.88
569.584	480.88
569.795	489.88
570.007	488.88
570.218	466.88
570.43	469.88
570.641	457.88
570.853	453.88
571.064	461.88
571.276	428.88
571.487	428.88
571.698	411.88
571.91	428.88
572.121	433.88
572.333	420.88
572.544	410.88
572.755	410.88
572.966	384.88
573.178	405.88
573.389	385.88
573.6	369.88
573.811	396.88
574.023	395.88
574.234	396.88
574.445	383.88
574.656	389.88
574.867	391.88
575.078	379.88
575.289	372.88
575.501	381.88
575.712	381.88
575.923	379.88
576.134	394.88
576.345	360.88
576.556	367.88
576.767	367.88
576.978	351.88
577.188	367.88
577.399	377.88
577.61	359.88
577.821	394.88
578.032	364.88
578.243	378.88
578.454	531.88
578.665	443.88
578.875	367.88
579.086	351.88
579.297	357.88
579.508	376.88
579.718	348.88
579.929	345.88
580.14	351.88
580.35	348.88
580.561	345.88
580.772	350.88
580.982	364.88
581.193	367.88
581.403	344.88
581.614	331.88
581.825	336.88
582.035	330.88
582.246	349.88
582.456	344.88
582.667	344.88
582.877	339.88
583.087	336.88
583.298	340.88
583.508	342.88
583.719	338.88
583.929	339.88
584.139	348.88
584.35	332.88
584.56	339.88
584.77	337.88
584.981	333.88
585.191	336.88
585.401	336.88
585.611	338.88
585.821	320.88
586.032	337.88
586.242	336.88
586.452	322.88
586.662	331.88
586.872	328.88
587.082	337.88
587.292	338.88
587.502	336.88
587.713	344.88
587.923	323.88
588.133	321.88
588.343	339.88
588.553	319.88
588.762	313.88
588.972	331.88
589.182	329.88
589.392	315.88
589.602	332.88
589.812	354.88
590.022	349.88
590.232	335.88
590.441	307.88
590.651	318.88
590.861	313.88
591.071	329.88
591.281	350.88
591.49	333.88
591.7	339.88
591.91	351.88
592.119	340.88
592.329	352.88
592.539	360.88
592.748	360.88
592.958	355.88
593.167	369.88
593.377	377.88
593.587	383.88
593.796	379.88
594.006	356.88
594.215	375.88
594.424	356.88
594.634	369.88
594.843	361.88
595.053	344.88
595.262	348.88
595.472	344.88
595.681	338.88
595.89	324.88
596.1	312.88
596.309	331.88
596.518	325.88
596.727	330.88
596.937	327.88
597.146	316.88
597.355	316.88
597.564	324.88
597.774	305.88
597.983	314.88
598.192	305.88
598.401	313.88
598.61	284.88
598.819	307.88
599.028	309.88
599.237	301.88
599.446	293.88
599.655	319.88
599.864	303.88
600.073	279.88
600.282	305.88
600.491	297.88
600.7	295.88
600.909	297.88
601.118	285.88
601.327	283.88
601.536	296.88
601.745	288.88
601.953	292.88
602.162	314.88
602.371	288.88
602.58	278.88
602.789	282.88
602.997	275.88
603.206	279.88
603.415	298.88
603.623	293.88
603.832	275.88
604.041	276.88
604.249	275.88
604.458	277.88
604.666	275.88
604.875	279.88
605.084	272.88
605.292	273.88
605.501	282.88
605.709	284.88
605.918	264.88
606.126	287.88
606.334	276.88
606.543	274.88
606.751	274.88
606.96	289.88
607.168	284.88
607.376	272.88
607.585	288.88
607.793	282.88
608.001	275.88
608.21	281.88
608.418	275.88
608.626	269.88
608.834	267.88
609.043	277.88
609.251	272.88
609.459	261.88
609.667	267.88
609.875	268.88
610.083	253.88
610.291	273.88
610.499	290.88
610.707	264.88
610.916	271.88
611.124	267.88
611.332	281.88
611.54	286.88
611.748	293.88
611.955	274.88
612.163	281.88
612.371	274.88
612.579	274.88
612.787	265.88
612.995	281.88
613.203	286.88
613.411	265.88
613.618	263.88
613.826	270.88
614.034	265.88
614.242	270.88
614.449	261.88
614.657	271.88
614.865	264.88
615.072	266.88
615.28	264.88
615.488	259.88
615.695	270.88
615.903	256.88
616.111	267.88
616.318	265.88
616.526	269.88
616.733	284.88
616.941	281.88
617.148	244.88
617.356	265.88
617.563	264.88
617.771	279.88
617.978	259.88
618.185	266.88
618.393	277.88
618.6	283.88
618.807	275.88
619.015	267.88
619.222	277.88
619.429	248.88
619.637	268.88
619.844	251.88
620.051	261.88
620.258	261.88
620.466	252.88
620.673	257.88
620.88	235.88
621.087	228.88
621.294	259.88
621.501	243.88
621.708	267.88
621.915	250.88
622.122	250.88
622.329	246.88
622.536	245.88
622.743	258.88
622.95	253.88
623.157	238.88
623.364	270.88
623.571	240.88
623.778	240.88
623.985	247.88
624.192	241.88
624.399	243.88
624.606	253.88
624.812	228.88
625.019	247.88
625.226	235.88
625.433	235.88
625.639	235.88
625.846	230.88
626.053	254.88
626.259	224.88
626.466	224.88
626.673	231.88
626.879	224.88
627.086	221.88
627.293	224.88
627.499	218.88
627.706	246.88
627.912	241.88
628.119	233.88
628.325	228.88
628.532	218.88
628.738	204.88
628.945	218.88
629.151	227.88
629.357	223.88
629.564	236.88
629.77	221.88
629.976	226.88
630.183	229.88
630.389	219.88
630.595	208.88
630.802	218.88
631.008	200.88
631.214	209.88
631.42	210.88
631.627	200.88
631.833	206.88
632.039	222.88
632.245	224.88
632.451	209.88
632.657	225.88
632.863	222.88
633.069	202.88
633.275	213.88
633.481	187.88
633.688	206.88
633.893	204.88
634.099	203.88
634.305	193.88
634.511	213.88
634.717	193.88
634.923	190.88
635.129	197.88
635.335	197.88
635.541	203.88
635.747	197.88
635.952	201.88
636.158	205.88
636.364	203.88
636.57	206.88
636.775	203.88
636.981	215.88
637.187	220.88
637.392	225.88
637.598	195.88
637.804	198.88
638.009	205.88
638.215	203.88
638.421	198.88
638.626	196.88
638.832	211.88
639.037	192.88
639.243	191.88
639.448	179.88
639.654	198.88
639.859	202.88
640.065	190.88
640.27	188.88
640.475	170.88
640.681	185.88
640.886	183.88
641.091	186.88
641.297	179.88
641.502	190.88
641.707	180.88
641.913	196.88
642.118	175.88
642.323	179.88
642.528	186.88
642.733	188.88
642.939	184.88
643.144	194.88
643.349	187.88
643.554	183.88
643.759	187.88
643.964	177.88
644.169	175.88
644.374	191.88
644.579	186.88
644.784	203.88
644.989	195.88
645.194	179.88
645.399	181.88
645.604	167.88
645.809	189.88
646.014	193.88
646.219	177.88
646.423	187.88
646.628	175.88
646.833	172.88
647.038	177.88
647.243	189.88
647.447	194.88
647.652	177.88
647.857	186.88
648.062	189.88
648.266	179.88
648.471	204.88
648.676	185.88
648.88	196.88
649.085	186.88
649.289	195.88
649.494	187.88
649.698	189.88
649.903	177.88
650.107	190.88
650.312	179.88
650.516	184.88
650.721	178.88
650.925	177.88
651.13	173.88
651.334	169.88
651.539	170.88
651.743	165.88
651.947	161.88
652.152	153.88
652.356	164.88
652.56	145.88
652.764	138.88
652.969	152.88
653.173	146.88
653.377	149.88
653.581	154.88
653.785	153.88
653.99	149.88
654.194	160.88
654.398	138.88
654.602	137.88
654.806	143.88
655.01	151.88
655.214	138.88
655.418	136.88
655.622	134.88
655.826	143.88
656.03	144.88
656.234	147.88
656.438	129.88
656.642	156.88
656.846	140.88
657.049	134.88
657.253	126.88
657.457	137.88
657.661	104.88
657.865	125.88
658.068	111.88
658.272	114.88
658.476	112.88
658.68	111.88
658.883	108.88
659.087	117.88
659.291	99.88
659.494	89.88
659.698	99.88
659.901	97.88
660.105	106.88
660.309	102.88
660.512	94.88
660.716	93.88
660.919	108.88
661.123	91.88
661.326	87.88
661.53	81.88
661.733	90.88
661.936	94.88
662.14	93.88
662.343	79.88
662.546	95.88
662.75	91.88
662.953	95.88
663.156	80.88
663.36	77.88
663.563	106.88
663.766	83.88
663.969	61.88
664.173	67.88
664.376	82.88
664.579	87.88
664.782	88.88
664.985	88.88
665.188	83.88
665.391	86.88
665.594	87.88
665.797	80.88
666	97.88
666.203	76.88
666.406	73.88
666.609	69.88
666.812	81.88
667.015	89.88
667.218	91.88
667.421	77.88
667.624	85.88
667.827	76.88
668.03	82.88
668.232	75.88
668.435	84.88
668.638	73.88
668.841	79.88
669.043	63.88
669.246	76.88
669.449	83.88
669.651	89.88
669.854	87.88
670.057	81.88
670.259	79.88
670.462	86.88
670.665	83.88
670.867	81.88
671.07	72.88
671.272	86.88
671.475	79.88
671.677	81.88
671.88	78.88
672.082	60.88
672.284	66.88
672.487	72.88
672.689	73.88
672.892	84.88
