Data from 1974.PennyLincolnUp.Lamp.En5.5.200Scan.071719.P1.Changed Mount._HRD10591_15-53-45-858.txt Node
Date: Thu Jul 18 15:53:45 EDT 2019
User: cochatt
Spectrometer: HR+D1059
Trigger mode: 1
Integration Time (sec): 1.000000E-1
Scans to average: 1
Electric dark correction enabled: true
Nonlinearity correction enabled: false
Boxcar width: 0
XAxis mode: Wavelengths
Number of Pixels in Spectrum: 2048
>>>>>Begin Spectral Data<<<<<
223.165	-18.06
223.4	-18.06
223.635	-18.06
223.869	-2.06
224.104	-17.06
224.338	-15.06
224.573	-22.06
224.808	-20.06
225.042	1.94
225.277	-4.06
225.511	-5.06
225.746	5.94
225.98	6.94
226.215	17.94
226.449	8.94
226.683	10.94
226.918	29.94
227.152	20.94
227.387	8.94
227.621	34.94
227.856	38.94
228.09	38.94
228.324	44.94
228.559	52.94
228.793	60.94
229.027	107.94
229.262	102.94
229.496	109.94
229.73	139.94
229.964	142.94
230.199	136.94
230.433	103.94
230.667	122.94
230.901	110.94
231.136	97.94
231.37	103.94
231.604	119.94
231.838	119.94
232.072	123.94
232.306	121.94
232.541	126.94
232.775	132.94
233.009	101.94
233.243	116.94
233.477	133.94
233.711	121.94
233.945	124.94
234.179	124.94
234.413	116.94
234.647	116.94
234.881	130.94
235.115	133.94
235.349	123.94
235.583	113.94
235.817	111.94
236.051	125.94
236.285	144.94
236.519	107.94
236.753	122.94
236.987	155.94
237.221	176.94
237.455	237.94
237.689	186.94
237.922	153.94
238.156	146.94
238.39	148.94
238.624	121.94
238.858	133.94
239.091	125.94
239.325	132.94
239.559	130.94
239.793	130.94
240.027	152.94
240.26	136.94
240.494	160.94
240.728	142.94
240.961	161.94
241.195	150.94
241.429	155.94
241.662	153.94
241.896	142.94
242.13	140.94
242.363	127.94
242.597	141.94
242.83	141.94
243.064	132.94
243.298	143.94
243.531	133.94
243.765	148.94
243.998	161.94
244.232	160.94
244.465	149.94
244.699	142.94
244.932	148.94
245.166	156.94
245.399	151.94
245.633	164.94
245.866	155.94
246.099	150.94
246.333	153.94
246.566	148.94
246.8	166.94
247.033	163.94
247.266	164.94
247.5	186.94
247.733	198.94
247.966	179.94
248.2	196.94
248.433	184.94
248.666	167.94
248.899	180.94
249.133	208.94
249.366	214.94
249.599	213.94
249.832	203.94
250.066	189.94
250.299	196.94
250.532	188.94
250.765	219.94
250.998	235.94
251.231	238.94
251.465	215.94
251.698	218.94
251.931	204.94
252.164	218.94
252.397	199.94
252.63	200.94
252.863	206.94
253.096	222.94
253.329	219.94
253.562	234.94
253.795	226.94
254.028	225.94
254.261	244.94
254.494	231.94
254.727	260.94
254.96	288.94
255.193	278.94
255.426	269.94
255.659	254.94
255.892	243.94
256.124	238.94
256.357	262.94
256.59	254.94
256.823	230.94
257.056	228.94
257.289	221.94
257.521	222.94
257.754	241.94
257.987	230.94
258.22	213.94
258.452	224.94
258.685	205.94
258.918	220.94
259.151	240.94
259.383	242.94
259.616	222.94
259.849	237.94
260.081	260.94
260.314	270.94
260.547	273.94
260.779	267.94
261.012	249.94
261.244	256.94
261.477	240.94
261.71	245.94
261.942	243.94
262.175	241.94
262.407	254.94
262.64	226.94
262.872	217.94
263.105	243.94
263.337	244.94
263.57	221.94
263.802	238.94
264.035	236.94
264.267	220.94
264.499	226.94
264.732	238.94
264.964	256.94
265.197	233.94
265.429	228.94
265.661	238.94
265.894	219.94
266.126	233.94
266.358	222.94
266.591	237.94
266.823	217.94
267.055	237.94
267.287	240.94
267.52	242.94
267.752	251.94
267.984	241.94
268.216	256.94
268.448	251.94
268.681	246.94
268.913	258.94
269.145	263.94
269.377	316.94
269.609	286.94
269.841	275.94
270.073	281.94
270.306	306.94
270.538	343.94
270.77	338.94
271.002	315.94
271.234	308.94
271.466	310.94
271.698	337.94
271.93	343.94
272.162	327.94
272.394	356.94
272.626	317.94
272.858	295.94
273.09	306.94
273.322	286.94
273.553	285.94
273.785	291.94
274.017	285.94
274.249	283.94
274.481	282.94
274.713	284.94
274.945	291.94
275.176	286.94
275.408	285.94
275.64	270.94
275.872	286.94
276.104	288.94
276.335	302.94
276.567	290.94
276.799	302.94
277.031	312.94
277.262	319.94
277.494	338.94
277.726	325.94
277.957	316.94
278.189	308.94
278.421	294.94
278.652	283.94
278.884	284.94
279.115	298.94
279.347	288.94
279.579	298.94
279.81	291.94
280.042	308.94
280.273	298.94
280.505	281.94
280.736	287.94
280.968	274.94
281.199	298.94
281.431	307.94
281.662	296.94
281.894	290.94
282.125	269.94
282.356	308.94
282.588	336.94
282.819	334.94
283.051	326.94
283.282	289.94
283.513	292.94
283.745	299.94
283.976	295.94
284.207	308.94
284.439	305.94
284.67	316.94
284.901	285.94
285.132	304.94
285.364	315.94
285.595	289.94
285.826	302.94
286.057	299.94
286.288	309.94
286.52	316.94
286.751	308.94
286.982	299.94
287.213	293.94
287.444	314.94
287.675	330.94
287.906	334.94
288.138	334.94
288.369	322.94
288.6	328.94
288.831	313.94
289.062	309.94
289.293	326.94
289.524	309.94
289.755	313.94
289.986	303.94
290.217	319.94
290.448	314.94
290.679	313.94
290.91	321.94
291.141	323.94
291.371	323.94
291.602	302.94
291.833	301.94
292.064	305.94
292.295	330.94
292.526	331.94
292.757	332.94
292.987	301.94
293.218	317.94
293.449	324.94
293.68	329.94
293.91	312.94
294.141	336.94
294.372	321.94
294.603	320.94
294.833	330.94
295.064	324.94
295.295	338.94
295.525	334.94
295.756	326.94
295.987	314.94
296.217	367.94
296.448	352.94
296.679	342.94
296.909	296.94
297.14	322.94
297.37	318.94
297.601	328.94
297.831	326.94
298.062	325.94
298.292	339.94
298.523	336.94
298.753	328.94
298.984	322.94
299.214	353.94
299.445	317.94
299.675	349.94
299.905	344.94
300.136	331.94
300.366	339.94
300.597	349.94
300.827	362.94
301.057	365.94
301.288	356.94
301.518	340.94
301.748	360.94
301.979	364.94
302.209	354.94
302.439	322.94
302.669	365.94
302.9	357.94
303.13	356.94
303.36	343.94
303.59	374.94
303.82	351.94
304.051	357.94
304.281	368.94
304.511	355.94
304.741	370.94
304.971	356.94
305.201	352.94
305.431	354.94
305.661	355.94
305.891	349.94
306.121	336.94
306.352	353.94
306.582	372.94
306.812	362.94
307.042	350.94
307.272	371.94
307.502	360.94
307.731	361.94
307.961	368.94
308.191	349.94
308.421	376.94
308.651	363.94
308.881	361.94
309.111	370.94
309.341	357.94
309.571	380.94
309.8	386.94
310.03	405.94
310.26	380.94
310.49	376.94
310.72	399.94
310.949	407.94
311.179	424.94
311.409	420.94
311.639	376.94
311.868	386.94
312.098	393.94
312.328	395.94
312.557	387.94
312.787	424.94
313.017	418.94
313.246	404.94
313.476	406.94
313.706	398.94
313.935	414.94
314.165	420.94
314.394	412.94
314.624	421.94
314.853	415.94
315.083	423.94
315.312	402.94
315.542	395.94
315.771	396.94
316.001	420.94
316.23	386.94
316.46	398.94
316.689	417.94
316.919	402.94
317.148	414.94
317.377	411.94
317.607	414.94
317.836	412.94
318.065	416.94
318.295	374.94
318.524	411.94
318.753	400.94
318.983	389.94
319.212	419.94
319.441	396.94
319.67	414.94
319.9	409.94
320.129	408.94
320.358	416.94
320.587	414.94
320.816	409.94
321.046	419.94
321.275	434.94
321.504	409.94
321.733	413.94
321.962	407.94
322.191	430.94
322.42	449.94
322.649	453.94
322.878	478.94
323.108	486.94
323.337	493.94
323.566	500.94
323.795	536.94
324.024	578.94
324.253	641.94
324.482	864.94
324.71	1350.94
324.939	2029.94
325.168	1753.94
325.397	890.94
325.626	640.94
325.855	546.94
326.084	500.94
326.313	511.94
326.542	526.94
326.77	569.94
326.999	612.94
327.228	830.94
327.457	1246.94
327.686	1501.94
327.914	1008.94
328.143	706.94
328.372	618.94
328.6	589.94
328.829	545.94
329.058	586.94
329.287	579.94
329.515	562.94
329.744	533.94
329.972	516.94
330.201	546.94
330.43	588.94
330.658	600.94
330.887	615.94
331.115	603.94
331.344	539.94
331.572	528.94
331.801	509.94
332.03	504.94
332.258	509.94
332.486	476.94
332.715	495.94
332.943	461.94
333.172	488.94
333.4	507.94
333.629	519.94
333.857	527.94
334.085	514.94
334.314	535.94
334.542	571.94
334.771	586.94
334.999	563.94
335.227	530.94
335.455	507.94
335.684	489.94
335.912	474.94
336.14	501.94
336.369	484.94
336.597	496.94
336.825	498.94
337.053	515.94
337.281	473.94
337.51	480.94
337.738	494.94
337.966	464.94
338.194	493.94
338.422	481.94
338.65	481.94
338.878	490.94
339.106	464.94
339.334	471.94
339.562	474.94
339.79	474.94
340.018	463.94
340.246	481.94
340.474	464.94
340.702	473.94
340.93	466.94
341.158	467.94
341.386	482.94
341.614	475.94
341.842	471.94
342.07	465.94
342.298	490.94
342.526	466.94
342.754	470.94
342.981	463.94
343.209	467.94
343.437	467.94
343.665	468.94
343.893	476.94
344.12	504.94
344.348	516.94
344.576	512.94
344.804	498.94
345.031	484.94
345.259	496.94
345.487	485.94
345.714	476.94
345.942	463.94
346.17	467.94
346.397	468.94
346.625	457.94
346.853	463.94
347.08	461.94
347.308	454.94
347.535	450.94
347.763	449.94
347.99	463.94
348.218	444.94
348.445	478.94
348.673	454.94
348.9	422.94
349.128	443.94
349.355	441.94
349.583	440.94
349.81	444.94
350.037	450.94
350.265	437.94
350.492	424.94
350.72	457.94
350.947	444.94
351.174	458.94
351.402	443.94
351.629	445.94
351.856	437.94
352.083	458.94
352.311	461.94
352.538	467.94
352.765	469.94
352.992	439.94
353.22	448.94
353.447	448.94
353.674	453.94
353.901	442.94
354.128	447.94
354.355	423.94
354.583	423.94
354.81	434.94
355.037	441.94
355.264	425.94
355.491	432.94
355.718	427.94
355.945	411.94
356.172	418.94
356.399	414.94
356.626	444.94
356.853	441.94
357.08	429.94
357.307	421.94
357.534	437.94
357.761	425.94
357.988	433.94
358.215	433.94
358.441	442.94
358.668	457.94
358.895	449.94
359.122	435.94
359.349	428.94
359.576	445.94
359.802	462.94
360.029	500.94
360.256	507.94
360.483	499.94
360.709	483.94
360.936	452.94
361.163	453.94
361.39	445.94
361.616	462.94
361.843	447.94
362.07	454.94
362.296	460.94
362.523	462.94
362.749	435.94
362.976	452.94
363.203	444.94
363.429	434.94
363.656	428.94
363.882	428.94
364.109	447.94
364.335	454.94
364.562	454.94
364.788	443.94
365.015	429.94
365.241	436.94
365.468	459.94
365.694	468.94
365.92	436.94
366.147	453.94
366.373	458.94
366.599	454.94
366.826	439.94
367.052	440.94
367.278	463.94
367.505	448.94
367.731	444.94
367.957	440.94
368.184	436.94
368.41	450.94
368.636	428.94
368.862	482.94
369.089	447.94
369.315	453.94
369.541	457.94
369.767	451.94
369.993	444.94
370.219	432.94
370.445	464.94
370.672	449.94
370.898	440.94
371.124	438.94
371.35	445.94
371.576	453.94
371.802	453.94
372.028	462.94
372.254	453.94
372.48	436.94
372.706	450.94
372.932	452.94
373.158	435.94
373.384	444.94
373.61	447.94
373.835	470.94
374.061	452.94
374.287	457.94
374.513	444.94
374.739	478.94
374.965	464.94
375.191	457.94
375.416	459.94
375.642	456.94
375.868	468.94
376.094	455.94
376.319	460.94
376.545	466.94
376.771	459.94
376.997	437.94
377.222	463.94
377.448	434.94
377.674	450.94
377.899	456.94
378.125	448.94
378.35	433.94
378.576	458.94
378.802	456.94
379.027	443.94
379.253	433.94
379.478	466.94
379.704	458.94
379.929	455.94
380.155	453.94
380.38	460.94
380.606	457.94
380.831	454.94
381.057	445.94
381.282	443.94
381.507	468.94
381.733	456.94
381.958	449.94
382.184	468.94
382.409	452.94
382.634	463.94
382.86	480.94
383.085	453.94
383.31	465.94
383.535	493.94
383.761	492.94
383.986	457.94
384.211	470.94
384.436	482.94
384.662	509.94
384.887	501.94
385.112	488.94
385.337	462.94
385.562	491.94
385.787	478.94
386.013	485.94
386.238	515.94
386.463	514.94
386.688	499.94
386.913	484.94
387.138	500.94
387.363	492.94
387.588	493.94
387.813	517.94
388.038	497.94
388.263	505.94
388.488	496.94
388.713	508.94
388.938	513.94
389.163	519.94
389.387	513.94
389.612	514.94
389.837	509.94
390.062	503.94
390.287	505.94
390.512	500.94
390.736	491.94
390.961	520.94
391.186	511.94
391.411	509.94
391.636	518.94
391.86	521.94
392.085	537.94
392.31	556.94
392.534	512.94
392.759	531.94
392.984	503.94
393.208	520.94
393.433	518.94
393.658	517.94
393.882	507.94
394.107	537.94
394.331	540.94
394.556	504.94
394.78	526.94
395.005	506.94
395.229	502.94
395.454	533.94
395.678	535.94
395.903	549.94
396.127	554.94
396.352	570.94
396.576	558.94
396.801	542.94
397.025	525.94
397.249	505.94
397.474	548.94
397.698	569.94
397.922	557.94
398.147	596.94
398.371	589.94
398.595	595.94
398.82	626.94
399.044	608.94
399.268	633.94
399.492	684.94
399.717	692.94
399.941	735.94
400.165	757.94
400.389	754.94
400.613	689.94
400.837	632.94
401.062	631.94
401.286	630.94
401.51	604.94
401.734	586.94
401.958	591.94
402.182	578.94
402.406	610.94
402.63	581.94
402.854	585.94
403.078	610.94
403.302	598.94
403.526	595.94
403.75	619.94
403.974	631.94
404.198	619.94
404.422	650.94
404.645	626.94
404.869	615.94
405.093	660.94
405.317	701.94
405.541	762.94
405.765	698.94
405.988	660.94
406.212	646.94
406.436	678.94
406.66	675.94
406.883	647.94
407.107	701.94
407.331	719.94
407.555	822.94
407.778	840.94
408.002	756.94
408.226	701.94
408.449	684.94
408.673	674.94
408.896	675.94
409.12	715.94
409.344	728.94
409.567	644.94
409.791	650.94
410.014	608.94
410.238	630.94
410.461	609.94
410.685	639.94
410.908	633.94
411.132	677.94
411.355	695.94
411.578	683.94
411.802	616.94
412.025	632.94
412.249	613.94
412.472	666.94
412.695	710.94
412.919	660.94
413.142	638.94
413.365	634.94
413.589	618.94
413.812	564.94
414.035	589.94
414.258	592.94
414.482	578.94
414.705	592.94
414.928	595.94
415.151	586.94
415.374	578.94
415.597	577.94
415.821	585.94
416.044	574.94
416.267	567.94
416.49	589.94
416.713	570.94
416.936	573.94
417.159	582.94
417.382	584.94
417.605	586.94
417.828	600.94
418.051	634.94
418.274	630.94
418.497	589.94
418.72	583.94
418.943	582.94
419.166	584.94
419.389	642.94
419.611	628.94
419.834	594.94
420.057	635.94
420.28	636.94
420.503	627.94
420.726	605.94
420.948	636.94
421.171	672.94
421.394	690.94
421.617	633.94
421.839	619.94
422.062	627.94
422.285	633.94
422.507	683.94
422.73	772.94
422.953	714.94
423.175	660.94
423.398	628.94
423.621	628.94
423.843	647.94
424.066	649.94
424.288	661.94
424.511	681.94
424.733	738.94
424.956	812.94
425.178	806.94
425.401	803.94
425.623	814.94
425.846	691.94
426.068	666.94
426.291	668.94
426.513	650.94
426.735	642.94
426.958	665.94
427.18	790.94
427.402	934.94
427.625	1012.94
427.847	861.94
428.069	751.94
428.292	684.94
428.514	641.94
428.736	618.94
428.958	601.94
429.181	585.94
429.403	589.94
429.625	595.94
429.847	620.94
430.069	719.94
430.292	724.94
430.514	597.94
430.736	600.94
430.958	598.94
431.18	567.94
431.402	579.94
431.624	572.94
431.846	585.94
432.068	557.94
432.29	591.94
432.512	575.94
432.734	602.94
432.956	560.94
433.178	599.94
433.4	606.94
433.622	586.94
433.844	564.94
434.066	545.94
434.287	556.94
434.509	601.94
434.731	579.94
434.953	599.94
435.175	616.94
435.397	646.94
435.618	643.94
435.84	693.94
436.062	766.94
436.284	859.94
436.505	700.94
436.727	658.94
436.949	618.94
437.17	595.94
437.392	577.94
437.614	580.94
437.835	645.94
438.057	724.94
438.278	848.94
438.5	845.94
438.721	905.94
438.943	893.94
439.165	722.94
439.386	639.94
439.608	656.94
439.829	646.94
440.05	660.94
440.272	700.94
440.493	676.94
440.715	625.94
440.936	615.94
441.158	598.94
441.379	604.94
441.6	627.94
441.822	636.94
442.043	688.94
442.264	780.94
442.486	821.94
442.707	729.94
442.928	668.94
443.149	660.94
443.371	678.94
443.592	720.94
443.813	828.94
444.034	878.94
444.255	770.94
444.476	685.94
444.698	700.94
444.919	669.94
445.14	764.94
445.361	729.94
445.582	700.94
445.803	758.94
446.024	875.94
446.245	862.94
446.466	794.94
446.687	693.94
446.908	621.94
447.129	603.94
447.35	586.94
447.571	607.94
447.792	588.94
448.013	580.94
448.234	597.94
448.455	654.94
448.675	762.94
448.896	896.94
449.117	756.94
449.338	720.94
449.559	836.94
449.779	954.94
450	754.94
450.221	646.94
450.442	594.94
450.662	568.94
450.883	571.94
451.104	600.94
451.324	589.94
451.545	544.94
451.766	552.94
451.986	543.94
452.207	547.94
452.428	523.94
452.648	513.94
452.869	523.94
453.089	532.94
453.31	545.94
453.53	532.94
453.751	557.94
453.971	552.94
454.192	537.94
454.412	539.94
454.633	510.94
454.853	530.94
455.073	514.94
455.294	562.94
455.514	627.94
455.734	617.94
455.955	524.94
456.175	492.94
456.395	512.94
456.616	500.94
456.836	501.94
457.056	497.94
457.276	488.94
457.497	504.94
457.717	527.94
457.937	507.94
458.157	499.94
458.377	529.94
458.598	533.94
458.818	606.94
459.038	628.94
459.258	684.94
459.478	604.94
459.698	579.94
459.918	585.94
460.138	583.94
460.358	585.94
460.578	563.94
460.798	579.94
461.018	599.94
461.238	581.94
461.458	582.94
461.678	584.94
461.898	602.94
462.118	580.94
462.338	598.94
462.558	624.94
462.777	625.94
462.997	634.94
463.217	684.94
463.437	672.94
463.657	653.94
463.876	637.94
464.096	666.94
464.316	619.94
464.536	634.94
464.755	643.94
464.975	669.94
465.195	664.94
465.414	716.94
465.634	634.94
465.854	619.94
466.073	573.94
466.293	581.94
466.512	556.94
466.732	528.94
466.951	540.94
467.171	550.94
467.391	532.94
467.61	548.94
467.829	572.94
468.049	561.94
468.268	558.94
468.488	549.94
468.707	542.94
468.927	530.94
469.146	534.94
469.365	544.94
469.585	524.94
469.804	543.94
470.023	564.94
470.243	568.94
470.462	568.94
470.681	594.94
470.901	540.94
471.12	545.94
471.339	545.94
471.558	561.94
471.777	556.94
471.997	547.94
472.216	558.94
472.435	578.94
472.654	586.94
472.873	557.94
473.092	545.94
473.311	506.94
473.53	553.94
473.749	565.94
473.968	600.94
474.187	704.94
474.406	710.94
474.625	604.94
474.844	556.94
475.063	555.94
475.282	552.94
475.501	533.94
475.72	568.94
475.939	572.94
476.158	569.94
476.377	574.94
476.596	563.94
476.814	568.94
477.033	599.94
477.252	586.94
477.471	600.94
477.69	580.94
477.908	593.94
478.127	596.94
478.346	612.94
478.564	618.94
478.783	630.94
479.002	627.94
479.22	640.94
479.439	642.94
479.658	672.94
479.876	658.94
480.095	668.94
480.313	680.94
480.532	706.94
480.751	696.94
480.969	678.94
481.188	739.94
481.406	771.94
481.624	688.94
481.843	666.94
482.061	649.94
482.28	655.94
482.498	650.94
482.717	634.94
482.935	642.94
483.153	653.94
483.372	642.94
483.59	650.94
483.808	649.94
484.027	645.94
484.245	659.94
484.463	666.94
484.681	662.94
484.9	661.94
485.118	645.94
485.336	671.94
485.554	678.94
485.772	678.94
485.99	686.94
486.209	655.94
486.427	675.94
486.645	683.94
486.863	700.94
487.081	703.94
487.299	676.94
487.517	695.94
487.735	662.94
487.953	697.94
488.171	704.94
488.389	705.94
488.607	691.94
488.825	704.94
489.043	708.94
489.261	697.94
489.479	718.94
489.696	704.94
489.914	691.94
490.132	699.94
490.35	704.94
490.568	715.94
490.786	746.94
491.003	744.94
491.221	781.94
491.439	771.94
491.657	772.94
491.874	800.94
492.092	780.94
492.31	832.94
492.527	815.94
492.745	807.94
492.963	821.94
493.18	816.94
493.398	844.94
493.615	844.94
493.833	823.94
494.05	811.94
494.268	835.94
494.485	837.94
494.703	841.94
494.92	819.94
495.138	813.94
495.355	834.94
495.573	832.94
495.79	816.94
496.008	845.94
496.225	835.94
496.442	856.94
496.66	831.94
496.877	843.94
497.094	846.94
497.312	866.94
497.529	856.94
497.746	886.94
497.963	892.94
498.181	923.94
498.398	928.94
498.615	966.94
498.832	949.94
499.049	978.94
499.267	1023.94
499.484	1048.94
499.701	1110.94
499.918	1141.94
500.135	1220.94
500.352	1295.94
500.569	1305.94
500.786	1348.94
501.003	1301.94
501.22	1253.94
501.437	1195.94
501.654	1103.94
501.871	1107.94
502.088	1061.94
502.305	1023.94
502.522	971.94
502.739	948.94
502.956	912.94
503.172	900.94
503.389	882.94
503.606	888.94
503.823	862.94
504.04	876.94
504.256	842.94
504.473	848.94
504.69	827.94
504.907	845.94
505.123	846.94
505.34	823.94
505.557	809.94
505.773	790.94
505.99	784.94
506.207	820.94
506.423	770.94
506.64	773.94
506.856	768.94
507.073	774.94
507.289	760.94
507.506	775.94
507.722	795.94
507.939	769.94
508.155	757.94
508.372	761.94
508.588	715.94
508.805	738.94
509.021	728.94
509.238	744.94
509.454	770.94
509.67	749.94
509.887	715.94
510.103	725.94
510.319	718.94
510.536	802.94
510.752	1157.94
510.968	976.94
511.184	720.94
511.401	684.94
511.617	716.94
511.833	692.94
512.049	698.94
512.265	678.94
512.481	695.94
512.698	690.94
512.914	698.94
513.13	681.94
513.346	698.94
513.562	674.94
513.778	692.94
513.994	685.94
514.21	728.94
514.426	707.94
514.642	758.94
514.858	776.94
515.074	782.94
515.29	888.94
515.506	1223.94
515.721	1048.94
515.937	806.94
516.153	746.94
516.369	726.94
516.585	732.94
516.801	726.94
517.016	732.94
517.232	731.94
517.448	746.94
517.664	721.94
517.879	731.94
518.095	755.94
518.311	732.94
518.527	706.94
518.742	736.94
518.958	711.94
519.173	685.94
519.389	705.94
519.605	684.94
519.82	672.94
520.036	688.94
520.251	708.94
520.467	718.94
520.682	718.94
520.898	714.94
521.113	718.94
521.329	742.94
521.544	844.94
521.76	992.94
521.975	1495.94
522.19	1477.94
522.406	899.94
522.621	744.94
522.836	680.94
523.052	670.94
523.267	642.94
523.482	638.94
523.698	635.94
523.913	616.94
524.128	638.94
524.343	626.94
524.559	593.94
524.774	611.94
524.989	598.94
525.204	594.94
525.419	593.94
525.634	611.94
525.849	608.94
526.064	578.94
526.28	572.94
526.495	554.94
526.71	577.94
526.925	576.94
527.14	581.94
527.355	582.94
527.57	562.94
527.785	563.94
527.999	579.94
528.214	578.94
528.429	579.94
528.644	596.94
528.859	570.94
529.074	542.94
529.289	582.94
529.503	644.94
529.718	652.94
529.933	597.94
530.148	572.94
530.363	554.94
530.577	557.94
530.792	564.94
531.007	549.94
531.221	537.94
531.436	552.94
531.651	557.94
531.865	539.94
532.08	530.94
532.295	546.94
532.509	545.94
532.724	533.94
532.938	543.94
533.153	554.94
533.367	536.94
533.582	544.94
533.796	565.94
534.011	530.94
534.225	557.94
534.44	513.94
534.654	544.94
534.868	555.94
535.083	541.94
535.297	542.94
535.511	539.94
535.726	554.94
535.94	558.94
536.154	557.94
536.369	532.94
536.583	520.94
536.797	538.94
537.011	540.94
537.225	527.94
537.44	520.94
537.654	507.94
537.868	512.94
538.082	536.94
538.296	548.94
538.51	508.94
538.724	529.94
538.938	520.94
539.153	526.94
539.367	543.94
539.581	523.94
539.795	501.94
540.009	529.94
540.222	516.94
540.436	535.94
540.65	518.94
540.864	534.94
541.078	526.94
541.292	524.94
541.506	534.94
541.72	527.94
541.934	530.94
542.147	573.94
542.361	525.94
542.575	505.94
542.789	513.94
543.002	499.94
543.216	544.94
543.43	534.94
543.644	531.94
543.857	506.94
544.071	534.94
544.285	535.94
544.498	512.94
544.712	507.94
544.925	523.94
545.139	517.94
545.352	509.94
545.566	488.94
545.779	500.94
545.993	521.94
546.206	534.94
546.42	526.94
546.633	502.94
546.847	511.94
547.06	517.94
547.274	515.94
547.487	529.94
547.7	513.94
547.914	533.94
548.127	520.94
548.34	516.94
548.554	519.94
548.767	523.94
548.98	500.94
549.193	519.94
549.407	525.94
549.62	525.94
549.833	509.94
550.046	513.94
550.259	521.94
550.473	521.94
550.686	506.94
550.899	491.94
551.112	508.94
551.325	485.94
551.538	516.94
551.751	501.94
551.964	489.94
552.177	513.94
552.39	496.94
552.603	520.94
552.816	516.94
553.029	500.94
553.242	531.94
553.455	530.94
553.667	560.94
553.88	512.94
554.093	513.94
554.306	514.94
554.519	513.94
554.732	498.94
554.944	502.94
555.157	498.94
555.37	466.94
555.583	464.94
555.795	470.94
556.008	469.94
556.221	457.94
556.433	475.94
556.646	466.94
556.859	476.94
557.071	459.94
557.284	464.94
557.496	468.94
557.709	455.94
557.921	465.94
558.134	449.94
558.346	453.94
558.559	438.94
558.771	466.94
558.984	424.94
559.196	432.94
559.409	429.94
559.621	474.94
559.833	461.94
560.046	430.94
560.258	444.94
560.47	456.94
560.683	461.94
560.895	445.94
561.107	443.94
561.32	439.94
561.532	449.94
561.744	441.94
561.956	455.94
562.168	485.94
562.381	477.94
562.593	452.94
562.805	456.94
563.017	428.94
563.229	451.94
563.441	434.94
563.653	442.94
563.865	445.94
564.077	446.94
564.289	461.94
564.501	454.94
564.713	485.94
564.925	484.94
565.137	504.94
565.349	488.94
565.561	494.94
565.773	484.94
565.985	539.94
566.197	534.94
566.408	567.94
566.62	564.94
566.832	569.94
567.044	580.94
567.255	583.94
567.467	584.94
567.679	610.94
567.891	617.94
568.102	617.94
568.314	610.94
568.526	560.94
568.737	558.94
568.949	538.94
569.161	521.94
569.372	489.94
569.584	483.94
569.795	476.94
570.007	452.94
570.218	485.94
570.43	462.94
570.641	463.94
570.853	454.94
571.064	436.94
571.276	436.94
571.487	428.94
571.698	423.94
571.91	426.94
572.121	414.94
572.333	406.94
572.544	416.94
572.755	408.94
572.966	408.94
573.178	391.94
573.389	393.94
573.6	390.94
573.811	396.94
574.023	390.94
574.234	385.94
574.445	375.94
574.656	387.94
574.867	381.94
575.078	401.94
575.289	401.94
575.501	390.94
575.712	360.94
575.923	378.94
576.134	364.94
576.345	382.94
576.556	385.94
576.767	380.94
576.978	390.94
577.188	392.94
577.399	386.94
577.61	369.94
577.821	367.94
578.032	373.94
578.243	389.94
578.454	569.94
578.665	436.94
578.875	376.94
579.086	372.94
579.297	353.94
579.508	360.94
579.718	360.94
579.929	345.94
580.14	358.94
580.35	356.94
580.561	350.94
580.772	342.94
580.982	361.94
581.193	340.94
581.403	350.94
581.614	350.94
581.825	357.94
582.035	363.94
582.246	338.94
582.456	344.94
582.667	358.94
582.877	349.94
583.087	330.94
583.298	339.94
583.508	338.94
583.719	332.94
583.929	338.94
584.139	332.94
584.35	335.94
584.56	333.94
584.77	335.94
584.981	326.94
585.191	344.94
585.401	342.94
585.611	354.94
585.821	340.94
586.032	319.94
586.242	350.94
586.452	339.94
586.662	327.94
586.872	316.94
587.082	339.94
587.292	330.94
587.502	334.94
587.713	339.94
587.923	322.94
588.133	329.94
588.343	322.94
588.553	326.94
588.762	332.94
588.972	332.94
589.182	337.94
589.392	320.94
589.602	345.94
589.812	345.94
590.022	343.94
590.232	347.94
590.441	330.94
590.651	339.94
590.861	318.94
591.071	359.94
591.281	323.94
591.49	322.94
591.7	333.94
591.91	354.94
592.119	337.94
592.329	357.94
592.539	376.94
592.748	364.94
592.958	352.94
593.167	349.94
593.377	372.94
593.587	386.94
593.796	367.94
594.006	361.94
594.215	342.94
594.424	378.94
594.634	362.94
594.843	372.94
595.053	356.94
595.262	341.94
595.472	320.94
595.681	322.94
595.89	352.94
596.1	336.94
596.309	342.94
596.518	339.94
596.727	333.94
596.937	316.94
597.146	320.94
597.355	310.94
597.564	305.94
597.774	313.94
597.983	300.94
598.192	295.94
598.401	286.94
598.61	287.94
598.819	288.94
599.028	292.94
599.237	298.94
599.446	297.94
599.655	299.94
599.864	291.94
600.073	284.94
600.282	306.94
600.491	317.94
600.7	306.94
600.909	305.94
601.118	286.94
601.327	290.94
601.536	294.94
601.745	294.94
601.953	290.94
602.162	280.94
602.371	288.94
602.58	288.94
602.789	298.94
602.997	294.94
603.206	291.94
603.415	282.94
603.623	280.94
603.832	270.94
604.041	260.94
604.249	267.94
604.458	289.94
604.666	280.94
604.875	284.94
605.084	278.94
605.292	286.94
605.501	289.94
605.709	304.94
605.918	282.94
606.126	292.94
606.334	289.94
606.543	283.94
606.751	271.94
606.96	276.94
607.168	267.94
607.376	276.94
607.585	268.94
607.793	266.94
608.001	278.94
608.21	286.94
608.418	274.94
608.626	290.94
608.834	268.94
609.043	270.94
609.251	266.94
609.459	261.94
609.667	266.94
609.875	270.94
610.083	282.94
610.291	282.94
610.499	250.94
610.707	288.94
610.916	289.94
611.124	276.94
611.332	279.94
611.54	285.94
611.748	295.94
611.955	288.94
612.163	277.94
612.371	290.94
612.579	279.94
612.787	266.94
612.995	266.94
613.203	271.94
613.411	262.94
613.618	263.94
613.826	263.94
614.034	274.94
614.242	279.94
614.449	271.94
614.657	251.94
614.865	269.94
615.072	280.94
615.28	281.94
615.488	260.94
615.695	270.94
615.903	271.94
616.111	262.94
616.318	265.94
616.526	276.94
616.733	267.94
616.941	252.94
617.148	271.94
617.356	251.94
617.563	266.94
617.771	286.94
617.978	256.94
618.185	250.94
618.393	249.94
618.6	249.94
618.807	251.94
619.015	251.94
619.222	259.94
619.429	264.94
619.637	252.94
619.844	257.94
620.051	244.94
620.258	259.94
620.466	258.94
620.673	259.94
620.88	244.94
621.087	237.94
621.294	250.94
621.501	270.94
621.708	229.94
621.915	258.94
622.122	250.94
622.329	230.94
622.536	252.94
622.743	233.94
622.95	245.94
623.157	240.94
623.364	257.94
623.571	253.94
623.778	244.94
623.985	236.94
624.192	254.94
624.399	265.94
624.606	256.94
624.812	252.94
625.019	236.94
625.226	236.94
625.433	256.94
625.639	260.94
625.846	248.94
626.053	241.94
626.259	235.94
626.466	237.94
626.673	245.94
626.879	224.94
627.086	232.94
627.293	220.94
627.499	238.94
627.706	233.94
627.912	215.94
628.119	226.94
628.325	229.94
628.532	240.94
628.738	224.94
628.945	228.94
629.151	245.94
629.357	216.94
629.564	220.94
629.77	210.94
629.976	216.94
630.183	218.94
630.389	221.94
630.595	228.94
630.802	214.94
631.008	215.94
631.214	228.94
631.42	229.94
631.627	219.94
631.833	203.94
632.039	213.94
632.245	197.94
632.451	204.94
632.657	216.94
632.863	197.94
633.069	201.94
633.275	221.94
633.481	203.94
633.688	213.94
633.893	210.94
634.099	182.94
634.305	194.94
634.511	202.94
634.717	205.94
634.923	201.94
635.129	226.94
635.335	209.94
635.541	197.94
635.747	201.94
635.952	196.94
636.158	206.94
636.364	210.94
636.57	195.94
636.775	186.94
636.981	205.94
637.187	195.94
637.392	207.94
637.598	208.94
637.804	189.94
638.009	198.94
638.215	200.94
638.421	181.94
638.626	190.94
638.832	173.94
639.037	198.94
639.243	214.94
639.448	197.94
639.654	195.94
639.859	207.94
640.065	187.94
640.27	185.94
640.475	196.94
640.681	192.94
640.886	184.94
641.091	203.94
641.297	171.94
641.502	181.94
641.707	188.94
641.913	187.94
642.118	192.94
642.323	193.94
642.528	194.94
642.733	189.94
642.939	178.94
643.144	171.94
643.349	171.94
643.554	184.94
643.759	177.94
643.964	179.94
644.169	182.94
644.374	179.94
644.579	188.94
644.784	189.94
644.989	185.94
645.194	177.94
645.399	182.94
645.604	201.94
645.809	177.94
646.014	185.94
646.219	181.94
646.423	169.94
646.628	182.94
646.833	184.94
647.038	180.94
647.243	185.94
647.447	191.94
647.652	194.94
647.857	189.94
648.062	198.94
648.266	173.94
648.471	189.94
648.676	197.94
648.88	196.94
649.085	178.94
649.289	188.94
649.494	188.94
649.698	209.94
649.903	195.94
650.107	170.94
650.312	164.94
650.516	164.94
650.721	173.94
650.925	154.94
651.13	157.94
651.334	161.94
651.539	160.94
651.743	176.94
651.947	162.94
652.152	152.94
652.356	142.94
652.56	159.94
652.764	153.94
652.969	154.94
653.173	166.94
653.377	157.94
653.581	145.94
653.785	153.94
653.99	157.94
654.194	143.94
654.398	135.94
654.602	139.94
654.806	138.94
655.01	142.94
655.214	157.94
655.418	147.94
655.622	157.94
655.826	136.94
656.03	150.94
656.234	144.94
656.438	145.94
656.642	152.94
656.846	151.94
657.049	144.94
657.253	130.94
657.457	134.94
657.661	126.94
657.865	110.94
658.068	120.94
658.272	122.94
658.476	112.94
658.68	119.94
658.883	108.94
659.087	95.94
659.291	113.94
659.494	100.94
659.698	102.94
659.901	90.94
660.105	104.94
660.309	90.94
660.512	83.94
660.716	97.94
660.919	104.94
661.123	87.94
661.326	83.94
661.53	97.94
661.733	91.94
661.936	73.94
662.14	89.94
662.343	88.94
662.546	88.94
662.75	77.94
662.953	77.94
663.156	77.94
663.36	86.94
663.563	90.94
663.766	85.94
663.969	77.94
664.173	71.94
664.376	88.94
664.579	88.94
664.782	84.94
664.985	81.94
665.188	81.94
665.391	97.94
665.594	83.94
665.797	72.94
666	86.94
666.203	70.94
666.406	93.94
666.609	78.94
666.812	87.94
667.015	83.94
667.218	73.94
667.421	84.94
667.624	88.94
667.827	69.94
668.03	87.94
668.232	80.94
668.435	74.94
668.638	68.94
668.841	76.94
669.043	77.94
669.246	98.94
669.449	96.94
669.651	77.94
669.854	98.94
670.057	78.94
670.259	92.94
670.462	79.94
670.665	75.94
670.867	87.94
671.07	84.94
671.272	75.94
671.475	80.94
671.677	74.94
671.88	85.94
672.082	82.94
672.284	82.94
672.487	89.94
672.689	81.94
672.892	77.94
