Data from 1974.PennyLincolnUp.Lamp.En5.5.200Scan.071719.P1.Changed Mount._HRD10591_15-52-23-856.txt Node
Date: Thu Jul 18 15:52:23 EDT 2019
User: cochatt
Spectrometer: HR+D1059
Trigger mode: 1
Integration Time (sec): 1.000000E-1
Scans to average: 1
Electric dark correction enabled: true
Nonlinearity correction enabled: false
Boxcar width: 0
XAxis mode: Wavelengths
Number of Pixels in Spectrum: 2048
>>>>>Begin Spectral Data<<<<<
223.165	-11.19
223.4	-11.19
223.635	-11.19
223.869	-10.19
224.104	-24.19
224.338	-18.19
224.573	-20.19
224.808	1.81
225.042	-11.19
225.277	-11.19
225.511	-1.19
225.746	10.81
225.98	-3.19
226.215	11.81
226.449	17.81
226.683	15.81
226.918	14.81
227.152	37.81
227.387	33.81
227.621	32.81
227.856	37.81
228.09	47.81
228.324	43.81
228.559	62.81
228.793	72.81
229.027	110.81
229.262	110.81
229.496	100.81
229.73	129.81
229.964	154.81
230.199	133.81
230.433	120.81
230.667	103.81
230.901	123.81
231.136	110.81
231.37	117.81
231.604	124.81
231.838	117.81
232.072	114.81
232.306	130.81
232.541	119.81
232.775	138.81
233.009	126.81
233.243	134.81
233.477	131.81
233.711	128.81
233.945	128.81
234.179	112.81
234.413	124.81
234.647	119.81
234.881	130.81
235.115	133.81
235.349	133.81
235.583	132.81
235.817	134.81
236.051	122.81
236.285	117.81
236.519	125.81
236.753	138.81
236.987	155.81
237.221	172.81
237.455	229.81
237.689	182.81
237.922	145.81
238.156	152.81
238.39	132.81
238.624	131.81
238.858	135.81
239.091	131.81
239.325	127.81
239.559	119.81
239.793	133.81
240.027	129.81
240.26	147.81
240.494	181.81
240.728	157.81
240.961	171.81
241.195	153.81
241.429	138.81
241.662	132.81
241.896	134.81
242.13	147.81
242.363	149.81
242.597	142.81
242.83	149.81
243.064	151.81
243.298	148.81
243.531	140.81
243.765	151.81
243.998	153.81
244.232	137.81
244.465	149.81
244.699	149.81
244.932	137.81
245.166	153.81
245.399	146.81
245.633	156.81
245.866	159.81
246.099	153.81
246.333	161.81
246.566	144.81
246.8	166.81
247.033	159.81
247.266	154.81
247.5	164.81
247.733	185.81
247.966	185.81
248.2	177.81
248.433	177.81
248.666	185.81
248.899	196.81
249.133	189.81
249.366	211.81
249.599	208.81
249.832	197.81
250.066	215.81
250.299	187.81
250.532	196.81
250.765	196.81
250.998	239.81
251.231	228.81
251.465	230.81
251.698	235.81
251.931	198.81
252.164	210.81
252.397	228.81
252.63	215.81
252.863	209.81
253.096	220.81
253.329	238.81
253.562	233.81
253.795	227.81
254.028	227.81
254.261	213.81
254.494	216.81
254.727	265.81
254.96	277.81
255.193	287.81
255.426	260.81
255.659	238.81
255.892	248.81
256.124	236.81
256.357	253.81
256.59	256.81
256.823	228.81
257.056	234.81
257.289	228.81
257.521	207.81
257.754	211.81
257.987	212.81
258.22	214.81
258.452	215.81
258.685	198.81
258.918	215.81
259.151	225.81
259.383	223.81
259.616	228.81
259.849	252.81
260.081	252.81
260.314	255.81
260.547	245.81
260.779	256.81
261.012	256.81
261.244	232.81
261.477	240.81
261.71	228.81
261.942	237.81
262.175	223.81
262.407	237.81
262.64	234.81
262.872	223.81
263.105	223.81
263.337	245.81
263.57	244.81
263.802	231.81
264.035	238.81
264.267	225.81
264.499	205.81
264.732	236.81
264.964	236.81
265.197	240.81
265.429	214.81
265.661	240.81
265.894	235.81
266.126	234.81
266.358	236.81
266.591	224.81
266.823	238.81
267.055	248.81
267.287	247.81
267.52	247.81
267.752	277.81
267.984	244.81
268.216	249.81
268.448	256.81
268.681	235.81
268.913	260.81
269.145	281.81
269.377	293.81
269.609	281.81
269.841	279.81
270.073	279.81
270.306	302.81
270.538	324.81
270.77	321.81
271.002	318.81
271.234	299.81
271.466	306.81
271.698	332.81
271.93	329.81
272.162	333.81
272.394	321.81
272.626	323.81
272.858	303.81
273.09	288.81
273.322	280.81
273.553	264.81
273.785	278.81
274.017	276.81
274.249	293.81
274.481	278.81
274.713	288.81
274.945	304.81
275.176	274.81
275.408	292.81
275.64	278.81
275.872	276.81
276.104	285.81
276.335	294.81
276.567	303.81
276.799	305.81
277.031	322.81
277.262	322.81
277.494	333.81
277.726	307.81
277.957	300.81
278.189	293.81
278.421	281.81
278.652	286.81
278.884	287.81
279.115	278.81
279.347	277.81
279.579	321.81
279.81	307.81
280.042	301.81
280.273	300.81
280.505	280.81
280.736	301.81
280.968	297.81
281.199	287.81
281.431	292.81
281.662	303.81
281.894	289.81
282.125	296.81
282.356	321.81
282.588	342.81
282.819	312.81
283.051	308.81
283.282	295.81
283.513	304.81
283.745	322.81
283.976	310.81
284.207	308.81
284.439	329.81
284.67	306.81
284.901	302.81
285.132	284.81
285.364	296.81
285.595	288.81
285.826	316.81
286.057	309.81
286.288	292.81
286.52	303.81
286.751	304.81
286.982	318.81
287.213	287.81
287.444	309.81
287.675	301.81
287.906	305.81
288.138	326.81
288.369	339.81
288.6	342.81
288.831	335.81
289.062	308.81
289.293	313.81
289.524	308.81
289.755	326.81
289.986	329.81
290.217	318.81
290.448	318.81
290.679	321.81
290.91	317.81
291.141	325.81
291.371	322.81
291.602	325.81
291.833	305.81
292.064	298.81
292.295	310.81
292.526	320.81
292.757	301.81
292.987	300.81
293.218	317.81
293.449	322.81
293.68	334.81
293.91	334.81
294.141	312.81
294.372	335.81
294.603	324.81
294.833	314.81
295.064	322.81
295.295	317.81
295.525	328.81
295.756	320.81
295.987	325.81
296.217	340.81
296.448	346.81
296.679	313.81
296.909	340.81
297.14	331.81
297.37	316.81
297.601	345.81
297.831	332.81
298.062	333.81
298.292	350.81
298.523	335.81
298.753	334.81
298.984	332.81
299.214	335.81
299.445	342.81
299.675	350.81
299.905	362.81
300.136	356.81
300.366	359.81
300.597	337.81
300.827	360.81
301.057	362.81
301.288	367.81
301.518	361.81
301.748	366.81
301.979	357.81
302.209	369.81
302.439	369.81
302.669	341.81
302.9	342.81
303.13	350.81
303.36	360.81
303.59	372.81
303.82	375.81
304.051	372.81
304.281	360.81
304.511	356.81
304.741	328.81
304.971	351.81
305.201	352.81
305.431	364.81
305.661	340.81
305.891	357.81
306.121	329.81
306.352	368.81
306.582	367.81
306.812	374.81
307.042	340.81
307.272	358.81
307.502	356.81
307.731	381.81
307.961	346.81
308.191	350.81
308.421	370.81
308.651	349.81
308.881	345.81
309.111	372.81
309.341	341.81
309.571	366.81
309.8	381.81
310.03	372.81
310.26	401.81
310.49	373.81
310.72	394.81
310.949	395.81
311.179	412.81
311.409	384.81
311.639	368.81
311.868	406.81
312.098	384.81
312.328	402.81
312.557	396.81
312.787	440.81
313.017	416.81
313.246	396.81
313.476	408.81
313.706	390.81
313.935	397.81
314.165	408.81
314.394	413.81
314.624	421.81
314.853	406.81
315.083	409.81
315.312	389.81
315.542	405.81
315.771	377.81
316.001	388.81
316.23	390.81
316.46	397.81
316.689	398.81
316.919	395.81
317.148	412.81
317.377	409.81
317.607	420.81
317.836	395.81
318.065	403.81
318.295	411.81
318.524	383.81
318.753	399.81
318.983	410.81
319.212	396.81
319.441	409.81
319.67	428.81
319.9	415.81
320.129	407.81
320.358	412.81
320.587	403.81
320.816	415.81
321.046	414.81
321.275	390.81
321.504	401.81
321.733	436.81
321.962	421.81
322.191	435.81
322.42	449.81
322.649	450.81
322.878	442.81
323.108	432.81
323.337	466.81
323.566	458.81
323.795	502.81
324.024	535.81
324.253	604.81
324.482	819.81
324.71	1178.81
324.939	1769.81
325.168	1596.81
325.397	830.81
325.626	591.81
325.855	538.81
326.084	490.81
326.313	488.81
326.542	492.81
326.77	536.81
326.999	593.81
327.228	750.81
327.457	1120.81
327.686	1346.81
327.914	945.81
328.143	634.81
328.372	574.81
328.6	558.81
328.829	509.81
329.058	567.81
329.287	553.81
329.515	549.81
329.744	527.81
329.972	509.81
330.201	531.81
330.43	541.81
330.658	592.81
330.887	590.81
331.115	575.81
331.344	526.81
331.572	532.81
331.801	501.81
332.03	514.81
332.258	506.81
332.486	492.81
332.715	492.81
332.943	473.81
333.172	488.81
333.4	491.81
333.629	494.81
333.857	526.81
334.085	540.81
334.314	534.81
334.542	568.81
334.771	556.81
334.999	553.81
335.227	545.81
335.455	482.81
335.684	491.81
335.912	493.81
336.14	490.81
336.369	486.81
336.597	485.81
336.825	468.81
337.053	473.81
337.281	489.81
337.51	470.81
337.738	491.81
337.966	472.81
338.194	475.81
338.422	480.81
338.65	474.81
338.878	480.81
339.106	471.81
339.334	460.81
339.562	457.81
339.79	474.81
340.018	483.81
340.246	452.81
340.474	453.81
340.702	448.81
340.93	469.81
341.158	455.81
341.386	471.81
341.614	483.81
341.842	472.81
342.07	461.81
342.298	458.81
342.526	452.81
342.754	444.81
342.981	451.81
343.209	455.81
343.437	452.81
343.665	485.81
343.893	484.81
344.12	488.81
344.348	478.81
344.576	482.81
344.804	488.81
345.031	482.81
345.259	505.81
345.487	479.81
345.714	460.81
345.942	462.81
346.17	465.81
346.397	442.81
346.625	452.81
346.853	459.81
347.08	444.81
347.308	446.81
347.535	460.81
347.763	469.81
347.99	435.81
348.218	437.81
348.445	440.81
348.673	458.81
348.9	473.81
349.128	441.81
349.355	455.81
349.583	441.81
349.81	432.81
350.037	432.81
350.265	438.81
350.492	437.81
350.72	419.81
350.947	432.81
351.174	457.81
351.402	442.81
351.629	449.81
351.856	465.81
352.083	450.81
352.311	466.81
352.538	453.81
352.765	456.81
352.992	464.81
353.22	437.81
353.447	446.81
353.674	455.81
353.901	434.81
354.128	442.81
354.355	437.81
354.583	449.81
354.81	422.81
355.037	417.81
355.264	455.81
355.491	444.81
355.718	406.81
355.945	438.81
356.172	417.81
356.399	422.81
356.626	423.81
356.853	421.81
357.08	437.81
357.307	413.81
357.534	424.81
357.761	440.81
357.988	460.81
358.215	461.81
358.441	426.81
358.668	438.81
358.895	423.81
359.122	417.81
359.349	418.81
359.576	441.81
359.802	465.81
360.029	449.81
360.256	485.81
360.483	467.81
360.709	469.81
360.936	443.81
361.163	426.81
361.39	456.81
361.616	458.81
361.843	465.81
362.07	431.81
362.296	450.81
362.523	449.81
362.749	458.81
362.976	410.81
363.203	433.81
363.429	434.81
363.656	460.81
363.882	426.81
364.109	424.81
364.335	421.81
364.562	443.81
364.788	423.81
365.015	466.81
365.241	452.81
365.468	460.81
365.694	441.81
365.92	428.81
366.147	437.81
366.373	426.81
366.599	433.81
366.826	434.81
367.052	417.81
367.278	440.81
367.505	430.81
367.731	430.81
367.957	437.81
368.184	450.81
368.41	451.81
368.636	464.81
368.862	451.81
369.089	453.81
369.315	448.81
369.541	437.81
369.767	460.81
369.993	445.81
370.219	447.81
370.445	451.81
370.672	448.81
370.898	444.81
371.124	446.81
371.35	445.81
371.576	457.81
371.802	444.81
372.028	444.81
372.254	460.81
372.48	440.81
372.706	461.81
372.932	444.81
373.158	458.81
373.384	457.81
373.61	471.81
373.835	449.81
374.061	450.81
374.287	470.81
374.513	458.81
374.739	460.81
374.965	457.81
375.191	464.81
375.416	473.81
375.642	451.81
375.868	455.81
376.094	446.81
376.319	472.81
376.545	457.81
376.771	453.81
376.997	463.81
377.222	476.81
377.448	444.81
377.674	442.81
377.899	459.81
378.125	463.81
378.35	455.81
378.576	463.81
378.802	426.81
379.027	441.81
379.253	454.81
379.478	463.81
379.704	456.81
379.929	451.81
380.155	446.81
380.38	455.81
380.606	456.81
380.831	459.81
381.057	464.81
381.282	459.81
381.507	460.81
381.733	477.81
381.958	460.81
382.184	460.81
382.409	464.81
382.634	465.81
382.86	470.81
383.085	469.81
383.31	485.81
383.535	461.81
383.761	485.81
383.986	495.81
384.211	505.81
384.436	476.81
384.662	479.81
384.887	495.81
385.112	492.81
385.337	499.81
385.562	492.81
385.787	501.81
386.013	519.81
386.238	516.81
386.463	474.81
386.688	510.81
386.913	519.81
387.138	504.81
387.363	520.81
387.588	495.81
387.813	518.81
388.038	500.81
388.263	519.81
388.488	508.81
388.713	505.81
388.938	512.81
389.163	529.81
389.387	502.81
389.612	514.81
389.837	509.81
390.062	530.81
390.287	506.81
390.512	484.81
390.736	508.81
390.961	506.81
391.186	509.81
391.411	526.81
391.636	504.81
391.86	535.81
392.085	552.81
392.31	540.81
392.534	541.81
392.759	510.81
392.984	514.81
393.208	502.81
393.433	530.81
393.658	528.81
393.882	488.81
394.107	516.81
394.331	505.81
394.556	523.81
394.78	510.81
395.005	503.81
395.229	526.81
395.454	530.81
395.678	529.81
395.903	556.81
396.127	555.81
396.352	578.81
396.576	518.81
396.801	537.81
397.025	527.81
397.249	551.81
397.474	572.81
397.698	532.81
397.922	554.81
398.147	578.81
398.371	590.81
398.595	577.81
398.82	614.81
399.044	604.81
399.268	645.81
399.492	657.81
399.717	698.81
399.941	726.81
400.165	774.81
400.389	729.81
400.613	672.81
400.837	650.81
401.062	606.81
401.286	629.81
401.51	592.81
401.734	582.81
401.958	625.81
402.182	597.81
402.406	614.81
402.63	608.81
402.854	604.81
403.078	602.81
403.302	606.81
403.526	623.81
403.75	641.81
403.974	614.81
404.198	618.81
404.422	619.81
404.645	639.81
404.869	642.81
405.093	676.81
405.317	698.81
405.541	721.81
405.765	676.81
405.988	641.81
406.212	660.81
406.436	654.81
406.66	678.81
406.883	674.81
407.107	680.81
407.331	747.81
407.555	784.81
407.778	815.81
408.002	736.81
408.226	708.81
408.449	689.81
408.673	654.81
408.896	667.81
409.12	752.81
409.344	689.81
409.567	648.81
409.791	623.81
410.014	612.81
410.238	636.81
410.461	646.81
410.685	617.81
410.908	621.81
411.132	667.81
411.355	678.81
411.578	660.81
411.802	616.81
412.025	625.81
412.249	610.81
412.472	646.81
412.695	686.81
412.919	679.81
413.142	636.81
413.365	596.81
413.589	595.81
413.812	592.81
414.035	594.81
414.258	594.81
414.482	623.81
414.705	591.81
414.928	619.81
415.151	593.81
415.374	608.81
415.597	574.81
415.821	568.81
416.044	585.81
416.267	574.81
416.49	583.81
416.713	602.81
416.936	596.81
417.159	556.81
417.382	571.81
417.605	572.81
417.828	575.81
418.051	609.81
418.274	606.81
418.497	597.81
418.72	602.81
418.943	585.81
419.166	629.81
419.389	654.81
419.611	651.81
419.834	613.81
420.057	644.81
420.28	634.81
420.503	615.81
420.726	627.81
420.948	614.81
421.171	670.81
421.394	673.81
421.617	619.81
421.839	613.81
422.062	618.81
422.285	612.81
422.507	662.81
422.73	733.81
422.953	724.81
423.175	664.81
423.398	650.81
423.621	642.81
423.843	653.81
424.066	678.81
424.288	629.81
424.511	656.81
424.733	731.81
424.956	778.81
425.178	746.81
425.401	749.81
425.623	801.81
425.846	702.81
426.068	636.81
426.291	626.81
426.513	634.81
426.735	634.81
426.958	652.81
427.18	716.81
427.402	912.81
427.625	959.81
427.847	849.81
428.069	736.81
428.292	686.81
428.514	643.81
428.736	624.81
428.958	614.81
429.181	594.81
429.403	582.81
429.625	610.81
429.847	636.81
430.069	705.81
430.292	682.81
430.514	615.81
430.736	604.81
430.958	584.81
431.18	586.81
431.402	554.81
431.624	584.81
431.846	573.81
432.068	564.81
432.29	576.81
432.512	569.81
432.734	597.81
432.956	557.81
433.178	570.81
433.4	568.81
433.622	580.81
433.844	574.81
434.066	577.81
434.287	552.81
434.509	576.81
434.731	600.81
434.953	604.81
435.175	616.81
435.397	624.81
435.618	644.81
435.84	667.81
436.062	774.81
436.284	821.81
436.505	684.81
436.727	659.81
436.949	625.81
437.17	577.81
437.392	583.81
437.614	599.81
437.835	646.81
438.057	704.81
438.278	828.81
438.5	792.81
438.721	896.81
438.943	842.81
439.165	687.81
439.386	640.81
439.608	646.81
439.829	640.81
440.05	642.81
440.272	690.81
440.493	667.81
440.715	634.81
440.936	607.81
441.158	608.81
441.379	604.81
441.6	620.81
441.822	634.81
442.043	689.81
442.264	780.81
442.486	822.81
442.707	719.81
442.928	672.81
443.149	653.81
443.371	662.81
443.592	724.81
443.813	802.81
444.034	878.81
444.255	761.81
444.476	684.81
444.698	670.81
444.919	670.81
445.14	775.81
445.361	708.81
445.582	702.81
445.803	743.81
446.024	832.81
446.245	832.81
446.466	777.81
446.687	674.81
446.908	627.81
447.129	608.81
447.35	584.81
447.571	605.81
447.792	580.81
448.013	595.81
448.234	586.81
448.455	649.81
448.675	760.81
448.896	882.81
449.117	768.81
449.338	719.81
449.559	829.81
449.779	910.81
450	758.81
450.221	628.81
450.442	590.81
450.662	574.81
450.883	584.81
451.104	584.81
451.324	582.81
451.545	536.81
451.766	544.81
451.986	520.81
452.207	535.81
452.428	525.81
452.648	536.81
452.869	511.81
453.089	522.81
453.31	545.81
453.53	549.81
453.751	529.81
453.971	529.81
454.192	530.81
454.412	526.81
454.633	506.81
454.853	531.81
455.073	536.81
455.294	542.81
455.514	598.81
455.734	598.81
455.955	530.81
456.175	492.81
456.395	469.81
456.616	494.81
456.836	487.81
457.056	497.81
457.276	479.81
457.497	505.81
457.717	524.81
457.937	483.81
458.157	489.81
458.377	517.81
458.598	516.81
458.818	586.81
459.038	658.81
459.258	674.81
459.478	614.81
459.698	583.81
459.918	568.81
460.138	584.81
460.358	582.81
460.578	598.81
460.798	617.81
461.018	612.81
461.238	582.81
461.458	582.81
461.678	576.81
461.898	587.81
462.118	592.81
462.338	608.81
462.558	611.81
462.777	618.81
462.997	629.81
463.217	674.81
463.437	687.81
463.657	664.81
463.876	650.81
464.096	639.81
464.316	638.81
464.536	645.81
464.755	649.81
464.975	613.81
465.195	644.81
465.414	718.81
465.634	618.81
465.854	605.81
466.073	571.81
466.293	558.81
466.512	550.81
466.732	527.81
466.951	526.81
467.171	560.81
467.391	554.81
467.61	570.81
467.829	570.81
468.049	559.81
468.268	528.81
468.488	523.81
468.707	548.81
468.927	549.81
469.146	542.81
469.365	530.81
469.585	541.81
469.804	552.81
470.023	579.81
470.243	558.81
470.462	547.81
470.681	568.81
470.901	566.81
471.12	534.81
471.339	556.81
471.558	576.81
471.777	558.81
471.997	551.81
472.216	566.81
472.435	598.81
472.654	582.81
472.873	554.81
473.092	550.81
473.311	528.81
473.53	562.81
473.749	561.81
473.968	574.81
474.187	681.81
474.406	712.81
474.625	606.81
474.844	550.81
475.063	552.81
475.282	570.81
475.501	567.81
475.72	558.81
475.939	582.81
476.158	545.81
476.377	569.81
476.596	564.81
476.814	580.81
477.033	579.81
477.252	591.81
477.471	599.81
477.69	592.81
477.908	595.81
478.127	621.81
478.346	623.81
478.564	644.81
478.783	632.81
479.002	658.81
479.22	649.81
479.439	659.81
479.658	664.81
479.876	647.81
480.095	661.81
480.313	716.81
480.532	682.81
480.751	671.81
480.969	668.81
481.188	738.81
481.406	741.81
481.624	699.81
481.843	629.81
482.061	654.81
482.28	635.81
482.498	629.81
482.717	630.81
482.935	655.81
483.153	626.81
483.372	662.81
483.59	662.81
483.808	642.81
484.027	622.81
484.245	629.81
484.463	644.81
484.681	685.81
484.9	659.81
485.118	652.81
485.336	646.81
485.554	628.81
485.772	663.81
485.99	663.81
486.209	672.81
486.427	649.81
486.645	687.81
486.863	680.81
487.081	685.81
487.299	674.81
487.517	671.81
487.735	682.81
487.953	694.81
488.171	703.81
488.389	680.81
488.607	711.81
488.825	692.81
489.043	703.81
489.261	701.81
489.479	690.81
489.696	708.81
489.914	726.81
490.132	701.81
490.35	734.81
490.568	737.81
490.786	737.81
491.003	762.81
491.221	753.81
491.439	772.81
491.657	802.81
491.874	779.81
492.092	790.81
492.31	790.81
492.527	796.81
492.745	789.81
492.963	790.81
493.18	823.81
493.398	828.81
493.615	810.81
493.833	835.81
494.05	812.81
494.268	817.81
494.485	813.81
494.703	812.81
494.92	802.81
495.138	807.81
495.355	808.81
495.573	812.81
495.79	807.81
496.008	831.81
496.225	798.81
496.442	810.81
496.66	835.81
496.877	837.81
497.094	831.81
497.312	867.81
497.529	859.81
497.746	858.81
497.963	890.81
498.181	915.81
498.398	920.81
498.615	953.81
498.832	954.81
499.049	984.81
499.267	1018.81
499.484	1068.81
499.701	1092.81
499.918	1169.81
500.135	1229.81
500.352	1322.81
500.569	1320.81
500.786	1311.81
501.003	1304.81
501.22	1244.81
501.437	1210.81
501.654	1149.81
501.871	1084.81
502.088	1057.81
502.305	1001.81
502.522	992.81
502.739	955.81
502.956	920.81
503.172	898.81
503.389	867.81
503.606	855.81
503.823	852.81
504.04	865.81
504.256	838.81
504.473	828.81
504.69	842.81
504.907	823.81
505.123	809.81
505.34	797.81
505.557	776.81
505.773	765.81
505.99	762.81
506.207	779.81
506.423	766.81
506.64	757.81
506.856	742.81
507.073	748.81
507.289	771.81
507.506	735.81
507.722	722.81
507.939	767.81
508.155	743.81
508.372	721.81
508.588	733.81
508.805	741.81
509.021	714.81
509.238	715.81
509.454	720.81
509.67	723.81
509.887	718.81
510.103	703.81
510.319	722.81
510.536	772.81
510.752	1115.81
510.968	966.81
511.184	704.81
511.401	678.81
511.617	690.81
511.833	703.81
512.049	673.81
512.265	674.81
512.481	662.81
512.698	667.81
512.914	682.81
513.13	648.81
513.346	697.81
513.562	661.81
513.778	681.81
513.994	719.81
514.21	679.81
514.426	692.81
514.642	728.81
514.858	730.81
515.074	768.81
515.29	866.81
515.506	1134.81
515.721	995.81
515.937	785.81
516.153	735.81
516.369	692.81
516.585	701.81
516.801	713.81
517.016	712.81
517.232	714.81
517.448	728.81
517.664	742.81
517.879	734.81
518.095	747.81
518.311	726.81
518.527	729.81
518.742	722.81
518.958	731.81
519.173	683.81
519.389	674.81
519.605	670.81
519.82	670.81
520.036	685.81
520.251	725.81
520.467	713.81
520.682	718.81
520.898	721.81
521.113	725.81
521.329	757.81
521.544	778.81
521.76	936.81
521.975	1380.81
522.19	1358.81
522.406	857.81
522.621	710.81
522.836	649.81
523.052	634.81
523.267	642.81
523.482	600.81
523.698	596.81
523.913	601.81
524.128	594.81
524.343	597.81
524.559	596.81
524.774	595.81
524.989	582.81
525.204	599.81
525.419	601.81
525.634	593.81
525.849	564.81
526.064	568.81
526.28	571.81
526.495	552.81
526.71	576.81
526.925	576.81
527.14	572.81
527.355	602.81
527.57	559.81
527.785	579.81
527.999	559.81
528.214	562.81
528.429	553.81
528.644	566.81
528.859	552.81
529.074	578.81
529.289	572.81
529.503	646.81
529.718	648.81
529.933	580.81
530.148	583.81
530.363	556.81
530.577	553.81
530.792	558.81
531.007	551.81
531.221	544.81
531.436	544.81
531.651	566.81
531.865	558.81
532.08	549.81
532.295	553.81
532.509	550.81
532.724	530.81
532.938	556.81
533.153	549.81
533.367	548.81
533.582	553.81
533.796	565.81
534.011	540.81
534.225	540.81
534.44	567.81
534.654	559.81
534.868	562.81
535.083	548.81
535.297	539.81
535.511	560.81
535.726	550.81
535.94	541.81
536.154	534.81
536.369	542.81
536.583	527.81
536.797	519.81
537.011	501.81
537.225	527.81
537.44	546.81
537.654	516.81
537.868	497.81
538.082	534.81
538.296	530.81
538.51	539.81
538.724	512.81
538.938	529.81
539.153	525.81
539.367	559.81
539.581	521.81
539.795	491.81
540.009	517.81
540.222	515.81
540.436	515.81
540.65	518.81
540.864	524.81
541.078	548.81
541.292	537.81
541.506	511.81
541.72	510.81
541.934	513.81
542.147	537.81
542.361	535.81
542.575	527.81
542.789	506.81
543.002	510.81
543.216	539.81
543.43	537.81
543.644	500.81
543.857	513.81
544.071	519.81
544.285	530.81
544.498	531.81
544.712	526.81
544.925	527.81
545.139	521.81
545.352	527.81
545.566	522.81
545.779	506.81
545.993	514.81
546.206	496.81
546.42	528.81
546.633	531.81
546.847	518.81
547.06	504.81
547.274	513.81
547.487	488.81
547.7	495.81
547.914	489.81
548.127	492.81
548.34	525.81
548.554	493.81
548.767	514.81
548.98	516.81
549.193	516.81
549.407	497.81
549.62	532.81
549.833	525.81
550.046	505.81
550.259	505.81
550.473	503.81
550.686	501.81
550.899	519.81
551.112	497.81
551.325	516.81
551.538	483.81
551.751	484.81
551.964	510.81
552.177	507.81
552.39	513.81
552.603	524.81
552.816	520.81
553.029	525.81
553.242	514.81
553.455	528.81
553.667	549.81
553.88	551.81
554.093	530.81
554.306	549.81
554.519	517.81
554.732	531.81
554.944	516.81
555.157	522.81
555.37	524.81
555.583	485.81
555.795	481.81
556.008	460.81
556.221	483.81
556.433	455.81
556.646	459.81
556.859	468.81
557.071	461.81
557.284	448.81
557.496	449.81
557.709	453.81
557.921	454.81
558.134	451.81
558.346	453.81
558.559	448.81
558.771	458.81
558.984	468.81
559.196	452.81
559.409	450.81
559.621	443.81
559.833	428.81
560.046	441.81
560.258	464.81
560.47	446.81
560.683	437.81
560.895	445.81
561.107	461.81
561.32	458.81
561.532	451.81
561.744	474.81
561.956	462.81
562.168	458.81
562.381	444.81
562.593	453.81
562.805	457.81
563.017	461.81
563.229	459.81
563.441	466.81
563.653	456.81
563.865	445.81
564.077	443.81
564.289	465.81
564.501	478.81
564.713	480.81
564.925	480.81
565.137	487.81
565.349	503.81
565.561	520.81
565.773	502.81
565.985	509.81
566.197	510.81
566.408	528.81
566.62	581.81
566.832	580.81
567.044	582.81
567.255	616.81
567.467	620.81
567.679	615.81
567.891	652.81
568.102	634.81
568.314	620.81
568.526	622.81
568.737	560.81
568.949	540.81
569.161	516.81
569.372	481.81
569.584	503.81
569.795	460.81
570.007	465.81
570.218	491.81
570.43	507.81
570.641	438.81
570.853	431.81
571.064	452.81
571.276	433.81
571.487	452.81
571.698	442.81
571.91	416.81
572.121	428.81
572.333	429.81
572.544	401.81
572.755	397.81
572.966	402.81
573.178	398.81
573.389	405.81
573.6	392.81
573.811	382.81
574.023	392.81
574.234	390.81
574.445	382.81
574.656	396.81
574.867	376.81
575.078	392.81
575.289	390.81
575.501	381.81
575.712	365.81
575.923	376.81
576.134	380.81
576.345	400.81
576.556	374.81
576.767	386.81
576.978	368.81
577.188	392.81
577.399	381.81
577.61	380.81
577.821	371.81
578.032	365.81
578.243	400.81
578.454	541.81
578.665	465.81
578.875	357.81
579.086	377.81
579.297	360.81
579.508	333.81
579.718	351.81
579.929	355.81
580.14	350.81
580.35	377.81
580.561	369.81
580.772	355.81
580.982	335.81
581.193	363.81
581.403	359.81
581.614	354.81
581.825	342.81
582.035	373.81
582.246	340.81
582.456	351.81
582.667	357.81
582.877	324.81
583.087	352.81
583.298	340.81
583.508	330.81
583.719	342.81
583.929	343.81
584.139	346.81
584.35	361.81
584.56	344.81
584.77	363.81
584.981	341.81
585.191	350.81
585.401	341.81
585.611	321.81
585.821	324.81
586.032	339.81
586.242	337.81
586.452	350.81
586.662	361.81
586.872	357.81
587.082	337.81
587.292	324.81
587.502	318.81
587.713	346.81
587.923	324.81
588.133	349.81
588.343	327.81
588.553	335.81
588.762	349.81
588.972	332.81
589.182	328.81
589.392	330.81
589.602	334.81
589.812	331.81
590.022	337.81
590.232	333.81
590.441	332.81
590.651	337.81
590.861	341.81
591.071	335.81
591.281	356.81
591.49	328.81
591.7	339.81
591.91	336.81
592.119	352.81
592.329	345.81
592.539	356.81
592.748	370.81
592.958	357.81
593.167	335.81
593.377	382.81
593.587	374.81
593.796	372.81
594.006	388.81
594.215	389.81
594.424	367.81
594.634	383.81
594.843	381.81
595.053	358.81
595.262	344.81
595.472	350.81
595.681	335.81
595.89	338.81
596.1	345.81
596.309	318.81
596.518	337.81
596.727	318.81
596.937	336.81
597.146	322.81
597.355	312.81
597.564	301.81
597.774	316.81
597.983	310.81
598.192	315.81
598.401	308.81
598.61	310.81
598.819	301.81
599.028	329.81
599.237	294.81
599.446	304.81
599.655	328.81
599.864	300.81
600.073	281.81
600.282	296.81
600.491	287.81
600.7	293.81
600.909	301.81
601.118	289.81
601.327	301.81
601.536	292.81
601.745	298.81
601.953	303.81
602.162	279.81
602.371	294.81
602.58	287.81
602.789	302.81
602.997	294.81
603.206	285.81
603.415	287.81
603.623	301.81
603.832	279.81
604.041	289.81
604.249	303.81
604.458	289.81
604.666	272.81
604.875	273.81
605.084	272.81
605.292	287.81
605.501	285.81
605.709	280.81
605.918	280.81
606.126	284.81
606.334	286.81
606.543	272.81
606.751	303.81
606.96	279.81
607.168	287.81
607.376	286.81
607.585	282.81
607.793	282.81
608.001	289.81
608.21	270.81
608.418	286.81
608.626	290.81
608.834	278.81
609.043	283.81
609.251	275.81
609.459	282.81
609.667	287.81
609.875	258.81
610.083	288.81
610.291	280.81
610.499	273.81
610.707	279.81
610.916	286.81
611.124	279.81
611.332	287.81
611.54	281.81
611.748	289.81
611.955	284.81
612.163	302.81
612.371	292.81
612.579	274.81
612.787	283.81
612.995	288.81
613.203	272.81
613.411	266.81
613.618	272.81
613.826	269.81
614.034	277.81
614.242	278.81
614.449	288.81
614.657	277.81
614.865	254.81
615.072	288.81
615.28	251.81
615.488	274.81
615.695	271.81
615.903	257.81
616.111	275.81
616.318	268.81
616.526	290.81
616.733	296.81
616.941	250.81
617.148	258.81
617.356	264.81
617.563	268.81
617.771	266.81
617.978	252.81
618.185	271.81
618.393	272.81
618.6	264.81
618.807	256.81
619.015	272.81
619.222	261.81
619.429	246.81
619.637	261.81
619.844	267.81
620.051	249.81
620.258	263.81
620.466	263.81
620.673	251.81
620.88	252.81
621.087	253.81
621.294	268.81
621.501	241.81
621.708	247.81
621.915	268.81
622.122	254.81
622.329	271.81
622.536	260.81
622.743	251.81
622.95	248.81
623.157	246.81
623.364	251.81
623.571	244.81
623.778	237.81
623.985	244.81
624.192	232.81
624.399	250.81
624.606	253.81
624.812	249.81
625.019	246.81
625.226	247.81
625.433	240.81
625.639	249.81
625.846	246.81
626.053	250.81
626.259	230.81
626.466	232.81
626.673	236.81
626.879	239.81
627.086	241.81
627.293	220.81
627.499	244.81
627.706	244.81
627.912	235.81
628.119	236.81
628.325	241.81
628.532	230.81
628.738	243.81
628.945	224.81
629.151	226.81
629.357	222.81
629.564	228.81
629.77	215.81
629.976	222.81
630.183	222.81
630.389	214.81
630.595	237.81
630.802	229.81
631.008	218.81
631.214	212.81
631.42	229.81
631.627	231.81
631.833	229.81
632.039	219.81
632.245	223.81
632.451	220.81
632.657	212.81
632.863	216.81
633.069	226.81
633.275	218.81
633.481	209.81
633.688	207.81
633.893	223.81
634.099	204.81
634.305	200.81
634.511	204.81
634.717	197.81
634.923	190.81
635.129	200.81
635.335	211.81
635.541	214.81
635.747	198.81
635.952	204.81
636.158	210.81
636.364	208.81
636.57	220.81
636.775	208.81
636.981	222.81
637.187	214.81
637.392	225.81
637.598	208.81
637.804	199.81
638.009	207.81
638.215	201.81
638.421	203.81
638.626	196.81
638.832	191.81
639.037	208.81
639.243	178.81
639.448	197.81
639.654	188.81
639.859	210.81
640.065	180.81
640.27	202.81
640.475	193.81
640.681	191.81
640.886	205.81
641.091	190.81
641.297	197.81
641.502	205.81
641.707	195.81
641.913	201.81
642.118	210.81
642.323	189.81
642.528	185.81
642.733	183.81
642.939	199.81
643.144	196.81
643.349	185.81
643.554	188.81
643.759	182.81
643.964	179.81
644.169	192.81
644.374	200.81
644.579	201.81
644.784	192.81
644.989	180.81
645.194	185.81
645.399	188.81
645.604	196.81
645.809	188.81
646.014	185.81
646.219	176.81
646.423	192.81
646.628	176.81
646.833	193.81
647.038	197.81
647.243	199.81
647.447	188.81
647.652	188.81
647.857	188.81
648.062	205.81
648.266	193.81
648.471	203.81
648.676	194.81
648.88	201.81
649.085	197.81
649.289	210.81
649.494	221.81
649.698	221.81
649.903	200.81
650.107	184.81
650.312	172.81
650.516	196.81
650.721	178.81
650.925	174.81
651.13	177.81
651.334	161.81
651.539	174.81
651.743	156.81
651.947	159.81
652.152	160.81
652.356	162.81
652.56	153.81
652.764	160.81
652.969	153.81
653.173	162.81
653.377	158.81
653.581	161.81
653.785	144.81
653.99	156.81
654.194	151.81
654.398	154.81
654.602	155.81
654.806	156.81
655.01	147.81
655.214	144.81
655.418	148.81
655.622	142.81
655.826	169.81
656.03	146.81
656.234	140.81
656.438	156.81
656.642	141.81
656.846	147.81
657.049	145.81
657.253	137.81
657.457	127.81
657.661	129.81
657.865	108.81
658.068	122.81
658.272	127.81
658.476	119.81
658.68	120.81
658.883	108.81
659.087	122.81
659.291	110.81
659.494	111.81
659.698	103.81
659.901	106.81
660.105	96.81
660.309	113.81
660.512	117.81
660.716	109.81
660.919	98.81
661.123	94.81
661.326	93.81
661.53	91.81
661.733	91.81
661.936	97.81
662.14	94.81
662.343	88.81
662.546	87.81
662.75	80.81
662.953	87.81
663.156	82.81
663.36	94.81
663.563	71.81
663.766	87.81
663.969	95.81
664.173	82.81
664.376	89.81
664.579	79.81
664.782	98.81
664.985	86.81
665.188	84.81
665.391	97.81
665.594	94.81
665.797	77.81
666	88.81
666.203	89.81
666.406	93.81
666.609	83.81
666.812	89.81
667.015	90.81
667.218	81.81
667.421	92.81
667.624	88.81
667.827	97.81
668.03	94.81
668.232	95.81
668.435	92.81
668.638	86.81
668.841	94.81
669.043	79.81
669.246	85.81
669.449	72.81
669.651	78.81
669.854	89.81
670.057	83.81
670.259	87.81
670.462	92.81
670.665	76.81
670.867	89.81
671.07	75.81
671.272	97.81
671.475	82.81
671.677	87.81
671.88	101.81
672.082	94.81
672.284	90.81
672.487	105.81
672.689	85.81
672.892	83.81
