Data from 1974.PennyLincolnUp.Lamp.En5.5.200Scan.071719.P1.Changed Mount._HRD10591_15-51-26-856.txt Node
Date: Thu Jul 18 15:51:26 EDT 2019
User: cochatt
Spectrometer: HR+D1059
Trigger mode: 1
Integration Time (sec): 1.000000E-1
Scans to average: 1
Electric dark correction enabled: true
Nonlinearity correction enabled: false
Boxcar width: 0
XAxis mode: Wavelengths
Number of Pixels in Spectrum: 2048
>>>>>Begin Spectral Data<<<<<
223.165	-22.12
223.4	-22.12
223.635	-22.12
223.869	-25.12
224.104	-26.12
224.338	-16.12
224.573	-14.12
224.808	-4.12
225.042	-6.12
225.277	4.88
225.511	-1.12
225.746	-0.12
225.98	9.88
226.215	16.88
226.449	14.88
226.683	19.88
226.918	18.88
227.152	29.88
227.387	54.88
227.621	41.88
227.856	37.88
228.09	47.88
228.324	57.88
228.559	49.88
228.793	75.88
229.027	88.88
229.262	100.88
229.496	109.88
229.73	127.88
229.964	137.88
230.199	118.88
230.433	118.88
230.667	116.88
230.901	116.88
231.136	100.88
231.37	119.88
231.604	104.88
231.838	113.88
232.072	106.88
232.306	117.88
232.541	128.88
232.775	131.88
233.009	117.88
233.243	124.88
233.477	124.88
233.711	107.88
233.945	119.88
234.179	127.88
234.413	133.88
234.647	126.88
234.881	135.88
235.115	134.88
235.349	122.88
235.583	130.88
235.817	136.88
236.051	131.88
236.285	121.88
236.519	119.88
236.753	122.88
236.987	135.88
237.221	171.88
237.455	222.88
237.689	172.88
237.922	136.88
238.156	125.88
238.39	127.88
238.624	157.88
238.858	117.88
239.091	131.88
239.325	111.88
239.559	133.88
239.793	129.88
240.027	135.88
240.26	145.88
240.494	155.88
240.728	136.88
240.961	142.88
241.195	145.88
241.429	159.88
241.662	155.88
241.896	137.88
242.13	145.88
242.363	133.88
242.597	137.88
242.83	140.88
243.064	149.88
243.298	143.88
243.531	127.88
243.765	150.88
243.998	151.88
244.232	148.88
244.465	156.88
244.699	158.88
244.932	150.88
245.166	156.88
245.399	156.88
245.633	151.88
245.866	149.88
246.099	159.88
246.333	159.88
246.566	159.88
246.8	156.88
247.033	167.88
247.266	160.88
247.5	167.88
247.733	173.88
247.966	183.88
248.2	176.88
248.433	163.88
248.666	166.88
248.899	181.88
249.133	190.88
249.366	209.88
249.599	196.88
249.832	199.88
250.066	176.88
250.299	184.88
250.532	191.88
250.765	199.88
250.998	222.88
251.231	217.88
251.465	211.88
251.698	202.88
251.931	219.88
252.164	185.88
252.397	195.88
252.63	208.88
252.863	212.88
253.096	214.88
253.329	214.88
253.562	223.88
253.795	224.88
254.028	211.88
254.261	215.88
254.494	217.88
254.727	230.88
254.96	268.88
255.193	247.88
255.426	231.88
255.659	229.88
255.892	223.88
256.124	221.88
256.357	218.88
256.59	218.88
256.823	204.88
257.056	215.88
257.289	220.88
257.521	205.88
257.754	201.88
257.987	212.88
258.22	223.88
258.452	200.88
258.685	213.88
258.918	216.88
259.151	202.88
259.383	221.88
259.616	211.88
259.849	231.88
260.081	248.88
260.314	233.88
260.547	241.88
260.779	226.88
261.012	223.88
261.244	217.88
261.477	207.88
261.71	226.88
261.942	215.88
262.175	224.88
262.407	229.88
262.64	209.88
262.872	205.88
263.105	225.88
263.337	213.88
263.57	211.88
263.802	203.88
264.035	218.88
264.267	217.88
264.499	209.88
264.732	220.88
264.964	209.88
265.197	217.88
265.429	216.88
265.661	212.88
265.894	231.88
266.126	219.88
266.358	205.88
266.591	208.88
266.823	216.88
267.055	215.88
267.287	231.88
267.52	227.88
267.752	231.88
267.984	248.88
268.216	233.88
268.448	232.88
268.681	236.88
268.913	238.88
269.145	267.88
269.377	264.88
269.609	266.88
269.841	240.88
270.073	256.88
270.306	279.88
270.538	309.88
270.77	301.88
271.002	287.88
271.234	278.88
271.466	301.88
271.698	277.88
271.93	303.88
272.162	313.88
272.394	309.88
272.626	276.88
272.858	286.88
273.09	271.88
273.322	260.88
273.553	239.88
273.785	265.88
274.017	261.88
274.249	248.88
274.481	251.88
274.713	251.88
274.945	262.88
275.176	254.88
275.408	283.88
275.64	269.88
275.872	251.88
276.104	273.88
276.335	259.88
276.567	273.88
276.799	275.88
277.031	270.88
277.262	321.88
277.494	309.88
277.726	275.88
277.957	282.88
278.189	271.88
278.421	272.88
278.652	264.88
278.884	284.88
279.115	288.88
279.347	278.88
279.579	273.88
279.81	270.88
280.042	254.88
280.273	253.88
280.505	264.88
280.736	275.88
280.968	243.88
281.199	262.88
281.431	275.88
281.662	268.88
281.894	238.88
282.125	261.88
282.356	283.88
282.588	279.88
282.819	284.88
283.051	284.88
283.282	269.88
283.513	298.88
283.745	270.88
283.976	280.88
284.207	278.88
284.439	282.88
284.67	288.88
284.901	286.88
285.132	273.88
285.364	262.88
285.595	286.88
285.826	279.88
286.057	276.88
286.288	278.88
286.52	285.88
286.751	291.88
286.982	288.88
287.213	287.88
287.444	277.88
287.675	281.88
287.906	286.88
288.138	307.88
288.369	289.88
288.6	293.88
288.831	292.88
289.062	302.88
289.293	295.88
289.524	285.88
289.755	279.88
289.986	285.88
290.217	287.88
290.448	308.88
290.679	319.88
290.91	301.88
291.141	310.88
291.371	291.88
291.602	309.88
291.833	303.88
292.064	277.88
292.295	314.88
292.526	304.88
292.757	309.88
292.987	287.88
293.218	307.88
293.449	324.88
293.68	292.88
293.91	317.88
294.141	293.88
294.372	289.88
294.603	295.88
294.833	302.88
295.064	295.88
295.295	295.88
295.525	303.88
295.756	308.88
295.987	301.88
296.217	316.88
296.448	334.88
296.679	320.88
296.909	299.88
297.14	316.88
297.37	321.88
297.601	287.88
297.831	307.88
298.062	294.88
298.292	302.88
298.523	313.88
298.753	312.88
298.984	315.88
299.214	321.88
299.445	310.88
299.675	314.88
299.905	322.88
300.136	323.88
300.366	334.88
300.597	317.88
300.827	336.88
301.057	324.88
301.288	323.88
301.518	334.88
301.748	320.88
301.979	322.88
302.209	347.88
302.439	324.88
302.669	326.88
302.9	339.88
303.13	333.88
303.36	327.88
303.59	346.88
303.82	321.88
304.051	349.88
304.281	344.88
304.511	346.88
304.741	328.88
304.971	340.88
305.201	328.88
305.431	318.88
305.661	342.88
305.891	340.88
306.121	330.88
306.352	309.88
306.582	316.88
306.812	334.88
307.042	337.88
307.272	327.88
307.502	328.88
307.731	352.88
307.961	321.88
308.191	327.88
308.421	327.88
308.651	352.88
308.881	335.88
309.111	348.88
309.341	341.88
309.571	343.88
309.8	371.88
310.03	353.88
310.26	366.88
310.49	376.88
310.72	363.88
310.949	361.88
311.179	375.88
311.409	371.88
311.639	360.88
311.868	361.88
312.098	365.88
312.328	355.88
312.557	379.88
312.787	372.88
313.017	387.88
313.246	380.88
313.476	352.88
313.706	359.88
313.935	372.88
314.165	367.88
314.394	377.88
314.624	380.88
314.853	366.88
315.083	363.88
315.312	352.88
315.542	375.88
315.771	379.88
316.001	375.88
316.23	367.88
316.46	372.88
316.689	379.88
316.919	360.88
317.148	379.88
317.377	364.88
317.607	393.88
317.836	378.88
318.065	379.88
318.295	382.88
318.524	343.88
318.753	359.88
318.983	390.88
319.212	378.88
319.441	371.88
319.67	363.88
319.9	357.88
320.129	374.88
320.358	364.88
320.587	375.88
320.816	395.88
321.046	390.88
321.275	392.88
321.504	353.88
321.733	373.88
321.962	384.88
322.191	409.88
322.42	405.88
322.649	409.88
322.878	430.88
323.108	445.88
323.337	422.88
323.566	455.88
323.795	455.88
324.024	463.88
324.253	544.88
324.482	715.88
324.71	1054.88
324.939	1527.88
325.168	1369.88
325.397	714.88
325.626	529.88
325.855	457.88
326.084	463.88
326.313	444.88
326.542	455.88
326.77	457.88
326.999	520.88
327.228	667.88
327.457	957.88
327.686	1165.88
327.914	829.88
328.143	574.88
328.372	499.88
328.6	507.88
328.829	484.88
329.058	451.88
329.287	508.88
329.515	456.88
329.744	437.88
329.972	449.88
330.201	464.88
330.43	476.88
330.658	493.88
330.887	504.88
331.115	492.88
331.344	474.88
331.572	456.88
331.801	449.88
332.03	457.88
332.258	449.88
332.486	455.88
332.715	451.88
332.943	461.88
333.172	473.88
333.4	447.88
333.629	469.88
333.857	471.88
334.085	466.88
334.314	497.88
334.542	517.88
334.771	524.88
334.999	477.88
335.227	497.88
335.455	472.88
335.684	479.88
335.912	432.88
336.14	456.88
336.369	446.88
336.597	447.88
336.825	460.88
337.053	433.88
337.281	422.88
337.51	436.88
337.738	443.88
337.966	427.88
338.194	426.88
338.422	440.88
338.65	454.88
338.878	445.88
339.106	423.88
339.334	425.88
339.562	429.88
339.79	429.88
340.018	418.88
340.246	409.88
340.474	430.88
340.702	432.88
340.93	425.88
341.158	429.88
341.386	430.88
341.614	429.88
341.842	417.88
342.07	420.88
342.298	399.88
342.526	431.88
342.754	412.88
342.981	422.88
343.209	431.88
343.437	437.88
343.665	445.88
343.893	455.88
344.12	457.88
344.348	456.88
344.576	449.88
344.804	443.88
345.031	461.88
345.259	454.88
345.487	442.88
345.714	441.88
345.942	414.88
346.17	425.88
346.397	417.88
346.625	422.88
346.853	398.88
347.08	401.88
347.308	401.88
347.535	439.88
347.763	435.88
347.99	415.88
348.218	426.88
348.445	419.88
348.673	409.88
348.9	415.88
349.128	405.88
349.355	416.88
349.583	404.88
349.81	408.88
350.037	390.88
350.265	404.88
350.492	408.88
350.72	398.88
350.947	407.88
351.174	421.88
351.402	400.88
351.629	404.88
351.856	409.88
352.083	425.88
352.311	420.88
352.538	425.88
352.765	397.88
352.992	415.88
353.22	393.88
353.447	407.88
353.674	425.88
353.901	421.88
354.128	412.88
354.355	400.88
354.583	400.88
354.81	408.88
355.037	394.88
355.264	400.88
355.491	399.88
355.718	386.88
355.945	385.88
356.172	382.88
356.399	388.88
356.626	400.88
356.853	408.88
357.08	408.88
357.307	402.88
357.534	426.88
357.761	409.88
357.988	389.88
358.215	396.88
358.441	387.88
358.668	411.88
358.895	417.88
359.122	384.88
359.349	406.88
359.576	423.88
359.802	408.88
360.029	457.88
360.256	456.88
360.483	430.88
360.709	427.88
360.936	408.88
361.163	416.88
361.39	422.88
361.616	415.88
361.843	420.88
362.07	413.88
362.296	424.88
362.523	389.88
362.749	416.88
362.976	428.88
363.203	415.88
363.429	427.88
363.656	415.88
363.882	420.88
364.109	413.88
364.335	402.88
364.562	404.88
364.788	398.88
365.015	409.88
365.241	401.88
365.468	423.88
365.694	417.88
365.92	421.88
366.147	394.88
366.373	429.88
366.599	396.88
366.826	441.88
367.052	419.88
367.278	415.88
367.505	407.88
367.731	401.88
367.957	381.88
368.184	428.88
368.41	439.88
368.636	422.88
368.862	429.88
369.089	422.88
369.315	396.88
369.541	406.88
369.767	424.88
369.993	411.88
370.219	415.88
370.445	422.88
370.672	420.88
370.898	424.88
371.124	420.88
371.35	422.88
371.576	414.88
371.802	422.88
372.028	427.88
372.254	421.88
372.48	411.88
372.706	423.88
372.932	415.88
373.158	436.88
373.384	417.88
373.61	433.88
373.835	448.88
374.061	436.88
374.287	417.88
374.513	433.88
374.739	439.88
374.965	431.88
375.191	445.88
375.416	449.88
375.642	404.88
375.868	418.88
376.094	416.88
376.319	441.88
376.545	421.88
376.771	441.88
376.997	432.88
377.222	428.88
377.448	413.88
377.674	442.88
377.899	432.88
378.125	423.88
378.35	416.88
378.576	438.88
378.802	422.88
379.027	425.88
379.253	429.88
379.478	421.88
379.704	428.88
379.929	432.88
380.155	406.88
380.38	422.88
380.606	437.88
380.831	439.88
381.057	443.88
381.282	432.88
381.507	423.88
381.733	421.88
381.958	435.88
382.184	438.88
382.409	432.88
382.634	442.88
382.86	453.88
383.085	462.88
383.31	452.88
383.535	452.88
383.761	460.88
383.986	446.88
384.211	457.88
384.436	452.88
384.662	466.88
384.887	466.88
385.112	466.88
385.337	471.88
385.562	480.88
385.787	475.88
386.013	475.88
386.238	479.88
386.463	488.88
386.688	496.88
386.913	479.88
387.138	459.88
387.363	477.88
387.588	479.88
387.813	465.88
388.038	474.88
388.263	463.88
388.488	475.88
388.713	483.88
388.938	473.88
389.163	470.88
389.387	461.88
389.612	472.88
389.837	475.88
390.062	472.88
390.287	476.88
390.512	471.88
390.736	489.88
390.961	467.88
391.186	493.88
391.411	476.88
391.636	480.88
391.86	505.88
392.085	498.88
392.31	494.88
392.534	528.88
392.759	495.88
392.984	476.88
393.208	504.88
393.433	490.88
393.658	508.88
393.882	499.88
394.107	503.88
394.331	479.88
394.556	503.88
394.78	488.88
395.005	479.88
395.229	494.88
395.454	486.88
395.678	515.88
395.903	499.88
396.127	502.88
396.352	526.88
396.576	506.88
396.801	515.88
397.025	508.88
397.249	504.88
397.474	502.88
397.698	518.88
397.922	534.88
398.147	553.88
398.371	567.88
398.595	539.88
398.82	542.88
399.044	584.88
399.268	555.88
399.492	636.88
399.717	679.88
399.941	697.88
400.165	726.88
400.389	695.88
400.613	633.88
400.837	586.88
401.062	587.88
401.286	540.88
401.51	567.88
401.734	565.88
401.958	579.88
402.182	582.88
402.406	593.88
402.63	550.88
402.854	545.88
403.078	569.88
403.302	572.88
403.526	584.88
403.75	615.88
403.974	594.88
404.198	595.88
404.422	605.88
404.645	574.88
404.869	601.88
405.093	628.88
405.317	665.88
405.541	683.88
405.765	623.88
405.988	599.88
406.212	602.88
406.436	610.88
406.66	624.88
406.883	606.88
407.107	650.88
407.331	664.88
407.555	759.88
407.778	773.88
408.002	684.88
408.226	659.88
408.449	637.88
408.673	647.88
408.896	648.88
409.12	695.88
409.344	655.88
409.567	615.88
409.791	585.88
410.014	575.88
410.238	581.88
410.461	576.88
410.685	585.88
410.908	610.88
411.132	641.88
411.355	671.88
411.578	643.88
411.802	586.88
412.025	567.88
412.249	602.88
412.472	591.88
412.695	635.88
412.919	617.88
413.142	594.88
413.365	571.88
413.589	573.88
413.812	570.88
414.035	569.88
414.258	563.88
414.482	561.88
414.705	560.88
414.928	552.88
415.151	577.88
415.374	543.88
415.597	573.88
415.821	563.88
416.044	547.88
416.267	565.88
416.49	539.88
416.713	549.88
416.936	564.88
417.159	537.88
417.382	574.88
417.605	576.88
417.828	557.88
418.051	567.88
418.274	560.88
418.497	542.88
418.72	533.88
418.943	576.88
419.166	559.88
419.389	597.88
419.611	571.88
419.834	616.88
420.057	606.88
420.28	585.88
420.503	578.88
420.726	590.88
420.948	585.88
421.171	596.88
421.394	653.88
421.617	599.88
421.839	583.88
422.062	557.88
422.285	568.88
422.507	612.88
422.73	685.88
422.953	687.88
423.175	606.88
423.398	591.88
423.621	597.88
423.843	612.88
424.066	604.88
424.288	588.88
424.511	622.88
424.733	657.88
424.956	759.88
425.178	710.88
425.401	720.88
425.623	721.88
425.846	619.88
426.068	597.88
426.291	587.88
426.513	589.88
426.735	600.88
426.958	612.88
427.18	704.88
427.402	813.88
427.625	910.88
427.847	771.88
428.069	674.88
428.292	620.88
428.514	584.88
428.736	561.88
428.958	573.88
429.181	563.88
429.403	566.88
429.625	552.88
429.847	578.88
430.069	643.88
430.292	633.88
430.514	579.88
430.736	565.88
430.958	548.88
431.18	550.88
431.402	519.88
431.624	501.88
431.846	531.88
432.068	531.88
432.29	532.88
432.512	534.88
432.734	527.88
432.956	560.88
433.178	544.88
433.4	548.88
433.622	537.88
433.844	548.88
434.066	557.88
434.287	536.88
434.509	533.88
434.731	559.88
434.953	523.88
435.175	558.88
435.397	616.88
435.618	614.88
435.84	587.88
436.062	710.88
436.284	781.88
436.505	667.88
436.727	621.88
436.949	560.88
437.17	553.88
437.392	555.88
437.614	576.88
437.835	567.88
438.057	656.88
438.278	738.88
438.5	769.88
438.721	851.88
438.943	812.88
439.165	634.88
439.386	610.88
439.608	591.88
439.829	588.88
440.05	596.88
440.272	639.88
440.493	602.88
440.715	586.88
440.936	542.88
441.158	573.88
441.379	563.88
441.6	589.88
441.822	593.88
442.043	636.88
442.264	705.88
442.486	721.88
442.707	627.88
442.928	614.88
443.149	606.88
443.371	648.88
443.592	650.88
443.813	769.88
444.034	816.88
444.255	728.88
444.476	639.88
444.698	616.88
444.919	623.88
445.14	755.88
445.361	669.88
445.582	641.88
445.803	678.88
446.024	783.88
446.245	804.88
446.466	698.88
446.687	624.88
446.908	580.88
447.129	544.88
447.35	556.88
447.571	535.88
447.792	528.88
448.013	538.88
448.234	551.88
448.455	589.88
448.675	689.88
448.896	805.88
449.117	675.88
449.338	644.88
449.559	748.88
449.779	863.88
450	688.88
450.221	596.88
450.442	562.88
450.662	525.88
450.883	512.88
451.104	504.88
451.324	517.88
451.545	502.88
451.766	507.88
451.986	511.88
452.207	508.88
452.428	466.88
452.648	496.88
452.869	484.88
453.089	512.88
453.31	496.88
453.53	487.88
453.751	490.88
453.971	496.88
454.192	485.88
454.412	478.88
454.633	488.88
454.853	485.88
455.073	482.88
455.294	493.88
455.514	544.88
455.734	569.88
455.955	504.88
456.175	474.88
456.395	445.88
456.616	459.88
456.836	448.88
457.056	456.88
457.276	456.88
457.497	459.88
457.717	476.88
457.937	469.88
458.157	484.88
458.377	468.88
458.598	518.88
458.818	525.88
459.038	567.88
459.258	621.88
459.478	558.88
459.698	534.88
459.918	515.88
460.138	537.88
460.358	549.88
460.578	549.88
460.798	569.88
461.018	545.88
461.238	565.88
461.458	564.88
461.678	540.88
461.898	571.88
462.118	569.88
462.338	553.88
462.558	582.88
462.777	585.88
462.997	613.88
463.217	627.88
463.437	647.88
463.657	615.88
463.876	611.88
464.096	598.88
464.316	589.88
464.536	601.88
464.755	598.88
464.975	600.88
465.195	595.88
465.414	635.88
465.634	589.88
465.854	530.88
466.073	526.88
466.293	525.88
466.512	517.88
466.732	523.88
466.951	489.88
467.171	512.88
467.391	515.88
467.61	519.88
467.829	519.88
468.049	519.88
468.268	516.88
468.488	511.88
468.707	499.88
468.927	488.88
469.146	504.88
469.365	520.88
469.585	507.88
469.804	517.88
470.023	510.88
470.243	526.88
470.462	518.88
470.681	534.88
470.901	523.88
471.12	540.88
471.339	530.88
471.558	526.88
471.777	517.88
471.997	511.88
472.216	517.88
472.435	506.88
472.654	503.88
472.873	497.88
473.092	511.88
473.311	492.88
473.53	494.88
473.749	506.88
473.968	543.88
474.187	643.88
474.406	679.88
474.625	563.88
474.844	500.88
475.063	500.88
475.282	525.88
475.501	521.88
475.72	529.88
475.939	516.88
476.158	547.88
476.377	533.88
476.596	502.88
476.814	530.88
477.033	514.88
477.252	559.88
477.471	577.88
477.69	566.88
477.908	573.88
478.127	582.88
478.346	585.88
478.564	593.88
478.783	583.88
479.002	584.88
479.22	605.88
479.439	616.88
479.658	640.88
479.876	611.88
480.095	611.88
480.313	640.88
480.532	662.88
480.751	647.88
480.969	641.88
481.188	668.88
481.406	657.88
481.624	628.88
481.843	622.88
482.061	623.88
482.28	601.88
482.498	612.88
482.717	589.88
482.935	592.88
483.153	605.88
483.372	590.88
483.59	592.88
483.808	594.88
484.027	592.88
484.245	627.88
484.463	599.88
484.681	617.88
484.9	606.88
485.118	596.88
485.336	617.88
485.554	598.88
485.772	599.88
485.99	640.88
486.209	627.88
486.427	625.88
486.645	619.88
486.863	640.88
487.081	639.88
487.299	648.88
487.517	635.88
487.735	631.88
487.953	671.88
488.171	644.88
488.389	655.88
488.607	650.88
488.825	649.88
489.043	633.88
489.261	637.88
489.479	648.88
489.696	653.88
489.914	675.88
490.132	647.88
490.35	673.88
490.568	653.88
490.786	672.88
491.003	658.88
491.221	710.88
491.439	707.88
491.657	724.88
491.874	735.88
492.092	738.88
492.31	762.88
492.527	742.88
492.745	741.88
492.963	751.88
493.18	735.88
493.398	772.88
493.615	774.88
493.833	765.88
494.05	760.88
494.268	748.88
494.485	740.88
494.703	723.88
494.92	771.88
495.138	740.88
495.355	750.88
495.573	782.88
495.79	755.88
496.008	777.88
496.225	775.88
496.442	799.88
496.66	789.88
496.877	787.88
497.094	765.88
497.312	792.88
497.529	782.88
497.746	803.88
497.963	806.88
498.181	841.88
498.398	837.88
498.615	880.88
498.832	878.88
499.049	931.88
499.267	942.88
499.484	986.88
499.701	1007.88
499.918	1098.88
500.135	1144.88
500.352	1196.88
500.569	1244.88
500.786	1239.88
501.003	1169.88
501.22	1141.88
501.437	1109.88
501.654	1079.88
501.871	1017.88
502.088	1014.88
502.305	971.88
502.522	907.88
502.739	868.88
502.956	838.88
503.172	833.88
503.389	823.88
503.606	811.88
503.823	782.88
504.04	805.88
504.256	780.88
504.473	757.88
504.69	770.88
504.907	769.88
505.123	763.88
505.34	740.88
505.557	733.88
505.773	741.88
505.99	732.88
506.207	721.88
506.423	701.88
506.64	713.88
506.856	691.88
507.073	685.88
507.289	700.88
507.506	687.88
507.722	700.88
507.939	685.88
508.155	685.88
508.372	677.88
508.588	667.88
508.805	652.88
509.021	662.88
509.238	674.88
509.454	693.88
509.67	689.88
509.887	652.88
510.103	649.88
510.319	638.88
510.536	671.88
510.752	937.88
510.968	838.88
511.184	661.88
511.401	636.88
511.617	612.88
511.833	613.88
512.049	622.88
512.265	637.88
512.481	629.88
512.698	632.88
512.914	623.88
513.13	619.88
513.346	604.88
513.562	614.88
513.778	599.88
513.994	621.88
514.21	639.88
514.426	647.88
514.642	655.88
514.858	676.88
515.074	682.88
515.29	751.88
515.506	916.88
515.721	855.88
515.937	679.88
516.153	647.88
516.369	636.88
516.585	664.88
516.801	657.88
517.016	651.88
517.232	667.88
517.448	684.88
517.664	691.88
517.879	672.88
518.095	677.88
518.311	684.88
518.527	675.88
518.742	669.88
518.958	649.88
519.173	623.88
519.389	629.88
519.605	635.88
519.82	614.88
520.036	627.88
520.251	633.88
520.467	657.88
520.682	656.88
520.898	643.88
521.113	667.88
521.329	670.88
521.544	689.88
521.76	790.88
521.975	1105.88
522.19	1110.88
522.406	735.88
522.621	643.88
522.836	610.88
523.052	577.88
523.267	589.88
523.482	556.88
523.698	571.88
523.913	573.88
524.128	554.88
524.343	553.88
524.559	552.88
524.774	553.88
524.989	559.88
525.204	540.88
525.419	549.88
525.634	544.88
525.849	563.88
526.064	541.88
526.28	514.88
526.495	527.88
526.71	517.88
526.925	531.88
527.14	534.88
527.355	533.88
527.57	492.88
527.785	537.88
527.999	521.88
528.214	522.88
528.429	535.88
528.644	529.88
528.859	544.88
529.074	538.88
529.289	535.88
529.503	576.88
529.718	555.88
529.933	535.88
530.148	539.88
530.363	528.88
530.577	529.88
530.792	526.88
531.007	506.88
531.221	509.88
531.436	527.88
531.651	531.88
531.865	548.88
532.08	518.88
532.295	484.88
532.509	482.88
532.724	504.88
532.938	506.88
533.153	525.88
533.367	517.88
533.582	532.88
533.796	526.88
534.011	519.88
534.225	496.88
534.44	503.88
534.654	506.88
534.868	488.88
535.083	517.88
535.297	500.88
535.511	504.88
535.726	494.88
535.94	527.88
536.154	528.88
536.369	515.88
536.583	509.88
536.797	482.88
537.011	502.88
537.225	491.88
537.44	484.88
537.654	487.88
537.868	475.88
538.082	479.88
538.296	482.88
538.51	488.88
538.724	481.88
538.938	501.88
539.153	511.88
539.367	497.88
539.581	496.88
539.795	496.88
540.009	485.88
540.222	484.88
540.436	484.88
540.65	482.88
540.864	492.88
541.078	471.88
541.292	501.88
541.506	500.88
541.72	496.88
541.934	496.88
542.147	476.88
542.361	476.88
542.575	489.88
542.789	480.88
543.002	486.88
543.216	515.88
543.43	487.88
543.644	496.88
543.857	488.88
544.071	492.88
544.285	481.88
544.498	498.88
544.712	472.88
544.925	475.88
545.139	517.88
545.352	488.88
545.566	479.88
545.779	474.88
545.993	512.88
546.206	504.88
546.42	481.88
546.633	497.88
546.847	505.88
547.06	505.88
547.274	480.88
547.487	480.88
547.7	481.88
547.914	469.88
548.127	490.88
548.34	473.88
548.554	481.88
548.767	483.88
548.98	481.88
549.193	451.88
549.407	491.88
549.62	481.88
549.833	468.88
550.046	486.88
550.259	482.88
550.473	472.88
550.686	474.88
550.899	467.88
551.112	473.88
551.325	472.88
551.538	459.88
551.751	477.88
551.964	465.88
552.177	469.88
552.39	490.88
552.603	476.88
552.816	493.88
553.029	514.88
553.242	474.88
553.455	519.88
553.667	503.88
553.88	511.88
554.093	482.88
554.306	487.88
554.519	487.88
554.732	469.88
554.944	474.88
555.157	470.88
555.37	490.88
555.583	463.88
555.795	445.88
556.008	439.88
556.221	453.88
556.433	429.88
556.646	459.88
556.859	438.88
557.071	430.88
557.284	452.88
557.496	423.88
557.709	446.88
557.921	449.88
558.134	432.88
558.346	440.88
558.559	446.88
558.771	431.88
558.984	406.88
559.196	435.88
559.409	412.88
559.621	429.88
559.833	433.88
560.046	424.88
560.258	424.88
560.47	414.88
560.683	437.88
560.895	419.88
561.107	434.88
561.32	425.88
561.532	430.88
561.744	440.88
561.956	416.88
562.168	432.88
562.381	431.88
562.593	425.88
562.805	413.88
563.017	424.88
563.229	419.88
563.441	444.88
563.653	429.88
563.865	439.88
564.077	439.88
564.289	459.88
564.501	451.88
564.713	452.88
564.925	464.88
565.137	448.88
565.349	472.88
565.561	442.88
565.773	481.88
565.985	492.88
566.197	495.88
566.408	513.88
566.62	540.88
566.832	531.88
567.044	554.88
567.255	572.88
567.467	573.88
567.679	616.88
567.891	582.88
568.102	582.88
568.314	573.88
568.526	565.88
568.737	539.88
568.949	515.88
569.161	508.88
569.372	476.88
569.584	465.88
569.795	456.88
570.007	442.88
570.218	464.88
570.43	447.88
570.641	425.88
570.853	414.88
571.064	446.88
571.276	424.88
571.487	407.88
571.698	411.88
571.91	394.88
572.121	403.88
572.333	391.88
572.544	389.88
572.755	385.88
572.966	375.88
573.178	378.88
573.389	365.88
573.6	391.88
573.811	366.88
574.023	362.88
574.234	380.88
574.445	383.88
574.656	377.88
574.867	370.88
575.078	381.88
575.289	375.88
575.501	364.88
575.712	355.88
575.923	359.88
576.134	385.88
576.345	355.88
576.556	357.88
576.767	343.88
576.978	346.88
577.188	357.88
577.399	365.88
577.61	346.88
577.821	352.88
578.032	359.88
578.243	381.88
578.454	490.88
578.665	399.88
578.875	343.88
579.086	350.88
579.297	343.88
579.508	352.88
579.718	320.88
579.929	343.88
580.14	336.88
580.35	337.88
580.561	340.88
580.772	331.88
580.982	341.88
581.193	335.88
581.403	335.88
581.614	333.88
581.825	333.88
582.035	336.88
582.246	330.88
582.456	332.88
582.667	323.88
582.877	334.88
583.087	295.88
583.298	340.88
583.508	320.88
583.719	318.88
583.929	328.88
584.139	312.88
584.35	313.88
584.56	315.88
584.77	325.88
584.981	312.88
585.191	315.88
585.401	325.88
585.611	329.88
585.821	341.88
586.032	340.88
586.242	323.88
586.452	318.88
586.662	317.88
586.872	324.88
587.082	313.88
587.292	323.88
587.502	325.88
587.713	331.88
587.923	325.88
588.133	326.88
588.343	324.88
588.553	332.88
588.762	322.88
588.972	323.88
589.182	318.88
589.392	323.88
589.602	308.88
589.812	309.88
590.022	319.88
590.232	324.88
590.441	326.88
590.651	351.88
590.861	310.88
591.071	310.88
591.281	319.88
591.49	310.88
591.7	341.88
591.91	321.88
592.119	341.88
592.329	312.88
592.539	335.88
592.748	354.88
592.958	341.88
593.167	342.88
593.377	337.88
593.587	363.88
593.796	376.88
594.006	369.88
594.215	365.88
594.424	342.88
594.634	355.88
594.843	347.88
595.053	335.88
595.262	332.88
595.472	351.88
595.681	325.88
595.89	317.88
596.1	317.88
596.309	321.88
596.518	329.88
596.727	327.88
596.937	319.88
597.146	320.88
597.355	308.88
597.564	287.88
597.774	286.88
597.983	296.88
598.192	286.88
598.401	286.88
598.61	297.88
598.819	291.88
599.028	298.88
599.237	286.88
599.446	277.88
599.655	286.88
599.864	281.88
600.073	296.88
600.282	299.88
600.491	300.88
600.7	281.88
600.909	280.88
601.118	284.88
601.327	267.88
601.536	268.88
601.745	278.88
601.953	269.88
602.162	282.88
602.371	277.88
602.58	271.88
602.789	289.88
602.997	274.88
603.206	286.88
603.415	270.88
603.623	259.88
603.832	283.88
604.041	272.88
604.249	274.88
604.458	273.88
604.666	261.88
604.875	263.88
605.084	253.88
605.292	279.88
605.501	268.88
605.709	284.88
605.918	273.88
606.126	280.88
606.334	278.88
606.543	260.88
606.751	263.88
606.96	272.88
607.168	279.88
607.376	249.88
607.585	272.88
607.793	277.88
608.001	266.88
608.21	271.88
608.418	253.88
608.626	262.88
608.834	263.88
609.043	271.88
609.251	263.88
609.459	255.88
609.667	274.88
609.875	275.88
610.083	281.88
610.291	259.88
610.499	255.88
610.707	294.88
610.916	260.88
611.124	279.88
611.332	270.88
611.54	277.88
611.748	269.88
611.955	255.88
612.163	280.88
612.371	261.88
612.579	271.88
612.787	278.88
612.995	273.88
613.203	274.88
613.411	271.88
613.618	271.88
613.826	241.88
614.034	256.88
614.242	261.88
614.449	259.88
614.657	233.88
614.865	255.88
615.072	265.88
615.28	271.88
615.488	276.88
615.695	255.88
615.903	265.88
616.111	242.88
616.318	271.88
616.526	279.88
616.733	259.88
616.941	257.88
617.148	269.88
617.356	250.88
617.563	249.88
617.771	267.88
617.978	253.88
618.185	263.88
618.393	275.88
618.6	253.88
618.807	252.88
619.015	254.88
619.222	263.88
619.429	243.88
619.637	245.88
619.844	245.88
620.051	254.88
620.258	225.88
620.466	247.88
620.673	236.88
620.88	239.88
621.087	241.88
621.294	236.88
621.501	226.88
621.708	247.88
621.915	251.88
622.122	229.88
622.329	225.88
622.536	226.88
622.743	245.88
622.95	236.88
623.157	231.88
623.364	232.88
623.571	226.88
623.778	246.88
623.985	244.88
624.192	244.88
624.399	248.88
624.606	241.88
624.812	233.88
625.019	237.88
625.226	246.88
625.433	226.88
625.639	218.88
625.846	228.88
626.053	221.88
626.259	218.88
626.466	235.88
626.673	229.88
626.879	203.88
627.086	215.88
627.293	218.88
627.499	229.88
627.706	229.88
627.912	224.88
628.119	213.88
628.325	224.88
628.532	215.88
628.738	221.88
628.945	231.88
629.151	220.88
629.357	233.88
629.564	222.88
629.77	232.88
629.976	213.88
630.183	231.88
630.389	203.88
630.595	222.88
630.802	220.88
631.008	209.88
631.214	226.88
631.42	224.88
631.627	208.88
631.833	211.88
632.039	194.88
632.245	198.88
632.451	214.88
632.657	217.88
632.863	210.88
633.069	213.88
633.275	205.88
633.481	194.88
633.688	197.88
633.893	195.88
634.099	206.88
634.305	210.88
634.511	208.88
634.717	199.88
634.923	199.88
635.129	209.88
635.335	204.88
635.541	210.88
635.747	185.88
635.952	204.88
636.158	186.88
636.364	199.88
636.57	204.88
636.775	209.88
636.981	203.88
637.187	185.88
637.392	188.88
637.598	185.88
637.804	192.88
638.009	188.88
638.215	189.88
638.421	203.88
638.626	187.88
638.832	202.88
639.037	199.88
639.243	172.88
639.448	187.88
639.654	196.88
639.859	177.88
640.065	197.88
640.27	200.88
640.475	192.88
640.681	199.88
640.886	180.88
641.091	176.88
641.297	190.88
641.502	191.88
641.707	197.88
641.913	182.88
642.118	181.88
642.323	181.88
642.528	177.88
642.733	183.88
642.939	207.88
643.144	179.88
643.349	179.88
643.554	189.88
643.759	200.88
643.964	184.88
644.169	200.88
644.374	177.88
644.579	169.88
644.784	172.88
644.989	174.88
645.194	162.88
645.399	200.88
645.604	181.88
645.809	189.88
646.014	183.88
646.219	202.88
646.423	184.88
646.628	180.88
646.833	176.88
647.038	183.88
647.243	193.88
647.447	188.88
647.652	184.88
647.857	185.88
648.062	182.88
648.266	172.88
648.471	206.88
648.676	175.88
648.88	190.88
649.085	176.88
649.289	191.88
649.494	178.88
649.698	209.88
649.903	181.88
650.107	201.88
650.312	209.88
650.516	152.88
650.721	169.88
650.925	176.88
651.13	180.88
651.334	163.88
651.539	165.88
651.743	175.88
651.947	159.88
652.152	156.88
652.356	156.88
652.56	152.88
652.764	164.88
652.969	155.88
653.173	138.88
653.377	159.88
653.581	160.88
653.785	149.88
653.99	160.88
654.194	144.88
654.398	139.88
654.602	139.88
654.806	150.88
655.01	159.88
655.214	167.88
655.418	132.88
655.622	147.88
655.826	157.88
656.03	131.88
656.234	134.88
656.438	143.88
656.642	155.88
656.846	153.88
657.049	136.88
657.253	139.88
657.457	157.88
657.661	129.88
657.865	122.88
658.068	139.88
658.272	125.88
658.476	128.88
658.68	118.88
658.883	120.88
659.087	102.88
659.291	120.88
659.494	109.88
659.698	106.88
659.901	103.88
660.105	118.88
660.309	104.88
660.512	96.88
660.716	87.88
660.919	94.88
661.123	92.88
661.326	94.88
661.53	98.88
661.733	97.88
661.936	112.88
662.14	94.88
662.343	84.88
662.546	88.88
662.75	72.88
662.953	95.88
663.156	82.88
663.36	83.88
663.563	88.88
663.766	88.88
663.969	83.88
664.173	81.88
664.376	81.88
664.579	91.88
664.782	85.88
664.985	73.88
665.188	92.88
665.391	95.88
665.594	90.88
665.797	88.88
666	89.88
666.203	91.88
666.406	84.88
666.609	86.88
666.812	71.88
667.015	100.88
667.218	96.88
667.421	86.88
667.624	91.88
667.827	88.88
668.03	86.88
668.232	72.88
668.435	91.88
668.638	101.88
668.841	92.88
669.043	78.88
669.246	94.88
669.449	83.88
669.651	99.88
669.854	91.88
670.057	72.88
670.259	79.88
670.462	85.88
670.665	78.88
670.867	86.88
671.07	89.88
671.272	92.88
671.475	104.88
671.677	89.88
671.88	80.88
672.082	73.88
672.284	98.88
672.487	83.88
672.689	84.88
672.892	75.88
