Data from 1974.PennyLincolnUp.Lamp.En5.5.200Scan.071719.P1.Changed Mount._HRD10591_15-52-29-856.txt Node
Date: Thu Jul 18 15:52:29 EDT 2019
User: cochatt
Spectrometer: HR+D1059
Trigger mode: 1
Integration Time (sec): 1.000000E-1
Scans to average: 1
Electric dark correction enabled: true
Nonlinearity correction enabled: false
Boxcar width: 0
XAxis mode: Wavelengths
Number of Pixels in Spectrum: 2048
>>>>>Begin Spectral Data<<<<<
223.165	-3.19
223.4	-3.19
223.635	-3.19
223.869	-19.19
224.104	-20.19
224.338	-20.19
224.573	-11.19
224.808	-4.19
225.042	-10.19
225.277	-7.19
225.511	-7.19
225.746	-3.19
225.98	12.81
226.215	1.81
226.449	17.81
226.683	19.81
226.918	19.81
227.152	33.81
227.387	31.81
227.621	28.81
227.856	19.81
228.09	33.81
228.324	41.81
228.559	39.81
228.793	61.81
229.027	84.81
229.262	118.81
229.496	104.81
229.73	116.81
229.964	155.81
230.199	119.81
230.433	115.81
230.667	104.81
230.901	130.81
231.136	96.81
231.37	110.81
231.604	119.81
231.838	113.81
232.072	94.81
232.306	95.81
232.541	118.81
232.775	117.81
233.009	121.81
233.243	90.81
233.477	118.81
233.711	114.81
233.945	116.81
234.179	125.81
234.413	120.81
234.647	116.81
234.881	137.81
235.115	131.81
235.349	116.81
235.583	120.81
235.817	117.81
236.051	120.81
236.285	130.81
236.519	137.81
236.753	128.81
236.987	153.81
237.221	178.81
237.455	215.81
237.689	186.81
237.922	143.81
238.156	135.81
238.39	138.81
238.624	131.81
238.858	138.81
239.091	130.81
239.325	142.81
239.559	123.81
239.793	120.81
240.027	122.81
240.26	130.81
240.494	160.81
240.728	158.81
240.961	152.81
241.195	146.81
241.429	140.81
241.662	144.81
241.896	144.81
242.13	149.81
242.363	131.81
242.597	144.81
242.83	134.81
243.064	151.81
243.298	150.81
243.531	144.81
243.765	155.81
243.998	144.81
244.232	145.81
244.465	160.81
244.699	152.81
244.932	147.81
245.166	156.81
245.399	151.81
245.633	134.81
245.866	149.81
246.099	162.81
246.333	150.81
246.566	147.81
246.8	149.81
247.033	154.81
247.266	169.81
247.5	163.81
247.733	171.81
247.966	186.81
248.2	168.81
248.433	190.81
248.666	181.81
248.899	176.81
249.133	192.81
249.366	183.81
249.599	189.81
249.832	201.81
250.066	188.81
250.299	177.81
250.532	178.81
250.765	204.81
250.998	226.81
251.231	234.81
251.465	220.81
251.698	214.81
251.931	211.81
252.164	201.81
252.397	211.81
252.63	208.81
252.863	224.81
253.096	238.81
253.329	246.81
253.562	240.81
253.795	223.81
254.028	202.81
254.261	226.81
254.494	217.81
254.727	262.81
254.96	261.81
255.193	262.81
255.426	260.81
255.659	240.81
255.892	245.81
256.124	231.81
256.357	226.81
256.59	207.81
256.823	231.81
257.056	212.81
257.289	221.81
257.521	220.81
257.754	219.81
257.987	204.81
258.22	217.81
258.452	210.81
258.685	218.81
258.918	215.81
259.151	220.81
259.383	228.81
259.616	232.81
259.849	245.81
260.081	257.81
260.314	240.81
260.547	258.81
260.779	240.81
261.012	229.81
261.244	237.81
261.477	216.81
261.71	224.81
261.942	240.81
262.175	229.81
262.407	227.81
262.64	216.81
262.872	219.81
263.105	207.81
263.337	198.81
263.57	225.81
263.802	227.81
264.035	215.81
264.267	210.81
264.499	221.81
264.732	204.81
264.964	238.81
265.197	230.81
265.429	201.81
265.661	233.81
265.894	227.81
266.126	218.81
266.358	240.81
266.591	228.81
266.823	226.81
267.055	256.81
267.287	235.81
267.52	235.81
267.752	233.81
267.984	229.81
268.216	224.81
268.448	250.81
268.681	235.81
268.913	259.81
269.145	275.81
269.377	277.81
269.609	289.81
269.841	282.81
270.073	276.81
270.306	311.81
270.538	308.81
270.77	308.81
271.002	302.81
271.234	303.81
271.466	296.81
271.698	322.81
271.93	316.81
272.162	314.81
272.394	318.81
272.626	301.81
272.858	298.81
273.09	304.81
273.322	266.81
273.553	271.81
273.785	274.81
274.017	272.81
274.249	281.81
274.481	259.81
274.713	258.81
274.945	277.81
275.176	280.81
275.408	273.81
275.64	268.81
275.872	255.81
276.104	271.81
276.335	292.81
276.567	283.81
276.799	312.81
277.031	317.81
277.262	326.81
277.494	332.81
277.726	322.81
277.957	293.81
278.189	291.81
278.421	298.81
278.652	282.81
278.884	266.81
279.115	278.81
279.347	271.81
279.579	281.81
279.81	280.81
280.042	282.81
280.273	279.81
280.505	288.81
280.736	287.81
280.968	281.81
281.199	288.81
281.431	288.81
281.662	296.81
281.894	293.81
282.125	295.81
282.356	297.81
282.588	329.81
282.819	293.81
283.051	319.81
283.282	263.81
283.513	291.81
283.745	293.81
283.976	305.81
284.207	290.81
284.439	294.81
284.67	293.81
284.901	318.81
285.132	299.81
285.364	286.81
285.595	299.81
285.826	294.81
286.057	286.81
286.288	288.81
286.52	311.81
286.751	306.81
286.982	308.81
287.213	289.81
287.444	308.81
287.675	304.81
287.906	297.81
288.138	321.81
288.369	320.81
288.6	325.81
288.831	315.81
289.062	297.81
289.293	317.81
289.524	313.81
289.755	310.81
289.986	296.81
290.217	310.81
290.448	319.81
290.679	314.81
290.91	308.81
291.141	315.81
291.371	308.81
291.602	339.81
291.833	314.81
292.064	314.81
292.295	298.81
292.526	312.81
292.757	306.81
292.987	316.81
293.218	296.81
293.449	326.81
293.68	308.81
293.91	319.81
294.141	298.81
294.372	297.81
294.603	294.81
294.833	312.81
295.064	300.81
295.295	322.81
295.525	316.81
295.756	315.81
295.987	318.81
296.217	327.81
296.448	348.81
296.679	316.81
296.909	319.81
297.14	315.81
297.37	335.81
297.601	312.81
297.831	330.81
298.062	329.81
298.292	326.81
298.523	319.81
298.753	325.81
298.984	315.81
299.214	317.81
299.445	322.81
299.675	327.81
299.905	320.81
300.136	337.81
300.366	341.81
300.597	337.81
300.827	345.81
301.057	342.81
301.288	360.81
301.518	343.81
301.748	353.81
301.979	348.81
302.209	356.81
302.439	366.81
302.669	349.81
302.9	360.81
303.13	349.81
303.36	361.81
303.59	366.81
303.82	357.81
304.051	358.81
304.281	351.81
304.511	344.81
304.741	332.81
304.971	344.81
305.201	364.81
305.431	353.81
305.661	361.81
305.891	341.81
306.121	353.81
306.352	355.81
306.582	363.81
306.812	344.81
307.042	355.81
307.272	360.81
307.502	375.81
307.731	353.81
307.961	354.81
308.191	367.81
308.421	345.81
308.651	355.81
308.881	359.81
309.111	366.81
309.341	358.81
309.571	353.81
309.8	368.81
310.03	393.81
310.26	379.81
310.49	364.81
310.72	388.81
310.949	400.81
311.179	382.81
311.409	387.81
311.639	378.81
311.868	384.81
312.098	416.81
312.328	396.81
312.557	397.81
312.787	398.81
313.017	401.81
313.246	387.81
313.476	400.81
313.706	394.81
313.935	379.81
314.165	395.81
314.394	410.81
314.624	404.81
314.853	411.81
315.083	389.81
315.312	382.81
315.542	389.81
315.771	388.81
316.001	390.81
316.23	396.81
316.46	386.81
316.689	386.81
316.919	406.81
317.148	414.81
317.377	413.81
317.607	382.81
317.836	410.81
318.065	407.81
318.295	409.81
318.524	394.81
318.753	390.81
318.983	380.81
319.212	396.81
319.441	391.81
319.67	405.81
319.9	388.81
320.129	402.81
320.358	425.81
320.587	407.81
320.816	402.81
321.046	400.81
321.275	414.81
321.504	403.81
321.733	397.81
321.962	411.81
322.191	412.81
322.42	412.81
322.649	434.81
322.878	422.81
323.108	448.81
323.337	478.81
323.566	483.81
323.795	496.81
324.024	533.81
324.253	603.81
324.482	810.81
324.71	1187.81
324.939	1767.81
325.168	1558.81
325.397	805.81
325.626	583.81
325.855	501.81
326.084	485.81
326.313	477.81
326.542	497.81
326.77	516.81
326.999	593.81
327.228	751.81
327.457	1103.81
327.686	1354.81
327.914	946.81
328.143	636.81
328.372	571.81
328.6	547.81
328.829	534.81
329.058	532.81
329.287	530.81
329.515	522.81
329.744	504.81
329.972	476.81
330.201	511.81
330.43	546.81
330.658	571.81
330.887	575.81
331.115	581.81
331.344	517.81
331.572	485.81
331.801	486.81
332.03	487.81
332.258	471.81
332.486	487.81
332.715	482.81
332.943	474.81
333.172	483.81
333.4	475.81
333.629	491.81
333.857	501.81
334.085	514.81
334.314	524.81
334.542	553.81
334.771	601.81
334.999	542.81
335.227	491.81
335.455	504.81
335.684	491.81
335.912	496.81
336.14	475.81
336.369	478.81
336.597	489.81
336.825	478.81
337.053	465.81
337.281	470.81
337.51	473.81
337.738	451.81
337.966	455.81
338.194	461.81
338.422	476.81
338.65	479.81
338.878	465.81
339.106	457.81
339.334	440.81
339.562	469.81
339.79	464.81
340.018	452.81
340.246	459.81
340.474	441.81
340.702	443.81
340.93	438.81
341.158	438.81
341.386	430.81
341.614	437.81
341.842	460.81
342.07	462.81
342.298	451.81
342.526	437.81
342.754	442.81
342.981	446.81
343.209	453.81
343.437	469.81
343.665	467.81
343.893	487.81
344.12	487.81
344.348	471.81
344.576	464.81
344.804	480.81
345.031	472.81
345.259	466.81
345.487	471.81
345.714	457.81
345.942	445.81
346.17	446.81
346.397	439.81
346.625	438.81
346.853	430.81
347.08	424.81
347.308	430.81
347.535	461.81
347.763	437.81
347.99	453.81
348.218	449.81
348.445	450.81
348.673	452.81
348.9	442.81
349.128	434.81
349.355	439.81
349.583	437.81
349.81	419.81
350.037	432.81
350.265	437.81
350.492	422.81
350.72	442.81
350.947	446.81
351.174	455.81
351.402	432.81
351.629	455.81
351.856	441.81
352.083	450.81
352.311	462.81
352.538	450.81
352.765	442.81
352.992	431.81
353.22	429.81
353.447	426.81
353.674	454.81
353.901	423.81
354.128	421.81
354.355	427.81
354.583	412.81
354.81	426.81
355.037	424.81
355.264	422.81
355.491	431.81
355.718	422.81
355.945	405.81
356.172	428.81
356.399	425.81
356.626	422.81
356.853	410.81
357.08	420.81
357.307	434.81
357.534	414.81
357.761	433.81
357.988	439.81
358.215	435.81
358.441	412.81
358.668	412.81
358.895	419.81
359.122	446.81
359.349	440.81
359.576	427.81
359.802	434.81
360.029	472.81
360.256	491.81
360.483	469.81
360.709	444.81
360.936	442.81
361.163	417.81
361.39	425.81
361.616	446.81
361.843	455.81
362.07	444.81
362.296	448.81
362.523	440.81
362.749	422.81
362.976	431.81
363.203	445.81
363.429	420.81
363.656	420.81
363.882	440.81
364.109	427.81
364.335	445.81
364.562	443.81
364.788	424.81
365.015	432.81
365.241	418.81
365.468	419.81
365.694	442.81
365.92	438.81
366.147	433.81
366.373	440.81
366.599	425.81
366.826	431.81
367.052	429.81
367.278	433.81
367.505	428.81
367.731	435.81
367.957	430.81
368.184	424.81
368.41	436.81
368.636	450.81
368.862	454.81
369.089	450.81
369.315	422.81
369.541	456.81
369.767	440.81
369.993	432.81
370.219	438.81
370.445	425.81
370.672	456.81
370.898	439.81
371.124	446.81
371.35	456.81
371.576	450.81
371.802	445.81
372.028	424.81
372.254	434.81
372.48	457.81
372.706	437.81
372.932	464.81
373.158	442.81
373.384	449.81
373.61	439.81
373.835	430.81
374.061	436.81
374.287	443.81
374.513	446.81
374.739	462.81
374.965	456.81
375.191	451.81
375.416	473.81
375.642	478.81
375.868	432.81
376.094	455.81
376.319	438.81
376.545	451.81
376.771	433.81
376.997	466.81
377.222	454.81
377.448	430.81
377.674	451.81
377.899	430.81
378.125	431.81
378.35	420.81
378.576	425.81
378.802	434.81
379.027	444.81
379.253	434.81
379.478	446.81
379.704	438.81
379.929	449.81
380.155	441.81
380.38	446.81
380.606	457.81
380.831	430.81
381.057	456.81
381.282	452.81
381.507	456.81
381.733	453.81
381.958	453.81
382.184	457.81
382.409	452.81
382.634	453.81
382.86	456.81
383.085	474.81
383.31	459.81
383.535	476.81
383.761	476.81
383.986	486.81
384.211	472.81
384.436	473.81
384.662	452.81
384.887	470.81
385.112	483.81
385.337	491.81
385.562	493.81
385.787	483.81
386.013	527.81
386.238	507.81
386.463	500.81
386.688	498.81
386.913	497.81
387.138	514.81
387.363	499.81
387.588	474.81
387.813	488.81
388.038	490.81
388.263	508.81
388.488	491.81
388.713	508.81
388.938	503.81
389.163	488.81
389.387	489.81
389.612	520.81
389.837	505.81
390.062	496.81
390.287	496.81
390.512	494.81
390.736	513.81
390.961	492.81
391.186	502.81
391.411	513.81
391.636	497.81
391.86	514.81
392.085	516.81
392.31	523.81
392.534	533.81
392.759	514.81
392.984	519.81
393.208	485.81
393.433	522.81
393.658	522.81
393.882	493.81
394.107	512.81
394.331	529.81
394.556	506.81
394.78	522.81
395.005	533.81
395.229	507.81
395.454	523.81
395.678	547.81
395.903	547.81
396.127	557.81
396.352	545.81
396.576	528.81
396.801	509.81
397.025	523.81
397.249	522.81
397.474	546.81
397.698	554.81
397.922	556.81
398.147	585.81
398.371	575.81
398.595	571.81
398.82	579.81
399.044	590.81
399.268	628.81
399.492	660.81
399.717	697.81
399.941	752.81
400.165	736.81
400.389	724.81
400.613	679.81
400.837	619.81
401.062	601.81
401.286	596.81
401.51	588.81
401.734	570.81
401.958	604.81
402.182	597.81
402.406	595.81
402.63	601.81
402.854	613.81
403.078	594.81
403.302	603.81
403.526	604.81
403.75	618.81
403.974	630.81
404.198	616.81
404.422	624.81
404.645	611.81
404.869	638.81
405.093	636.81
405.317	705.81
405.541	744.81
405.765	682.81
405.988	630.81
406.212	670.81
406.436	649.81
406.66	678.81
406.883	666.81
407.107	662.81
407.331	726.81
407.555	795.81
407.778	795.81
408.002	757.81
408.226	662.81
408.449	675.81
408.673	679.81
408.896	711.81
409.12	714.81
409.344	698.81
409.567	636.81
409.791	643.81
410.014	615.81
410.238	624.81
410.461	626.81
410.685	596.81
410.908	631.81
411.132	664.81
411.355	716.81
411.578	645.81
411.802	619.81
412.025	599.81
412.249	601.81
412.472	624.81
412.695	683.81
412.919	663.81
413.142	628.81
413.365	583.81
413.589	611.81
413.812	580.81
414.035	600.81
414.258	559.81
414.482	576.81
414.705	583.81
414.928	553.81
415.151	587.81
415.374	581.81
415.597	580.81
415.821	569.81
416.044	550.81
416.267	579.81
416.49	562.81
416.713	584.81
416.936	582.81
417.159	559.81
417.382	578.81
417.605	569.81
417.828	578.81
418.051	593.81
418.274	601.81
418.497	587.81
418.72	560.81
418.943	593.81
419.166	611.81
419.389	630.81
419.611	632.81
419.834	613.81
420.057	622.81
420.28	622.81
420.503	596.81
420.726	618.81
420.948	626.81
421.171	652.81
421.394	656.81
421.617	627.81
421.839	606.81
422.062	580.81
422.285	602.81
422.507	667.81
422.73	727.81
422.953	737.81
423.175	654.81
423.398	626.81
423.621	634.81
423.843	647.81
424.066	650.81
424.288	650.81
424.511	680.81
424.733	680.81
424.956	805.81
425.178	751.81
425.401	746.81
425.623	757.81
425.846	670.81
426.068	641.81
426.291	633.81
426.513	632.81
426.735	647.81
426.958	691.81
427.18	742.81
427.402	873.81
427.625	947.81
427.847	833.81
428.069	693.81
428.292	667.81
428.514	618.81
428.736	591.81
428.958	600.81
429.181	589.81
429.403	593.81
429.625	607.81
429.847	613.81
430.069	660.81
430.292	678.81
430.514	610.81
430.736	587.81
430.958	564.81
431.18	578.81
431.402	569.81
431.624	554.81
431.846	541.81
432.068	562.81
432.29	549.81
432.512	560.81
432.734	584.81
432.956	567.81
433.178	579.81
433.4	587.81
433.622	563.81
433.844	572.81
434.066	574.81
434.287	558.81
434.509	552.81
434.731	580.81
434.953	586.81
435.175	604.81
435.397	628.81
435.618	620.81
435.84	643.81
436.062	751.81
436.284	802.81
436.505	696.81
436.727	610.81
436.949	580.81
437.17	560.81
437.392	574.81
437.614	585.81
437.835	603.81
438.057	694.81
438.278	798.81
438.5	812.81
438.721	884.81
438.943	836.81
439.165	709.81
439.386	646.81
439.608	626.81
439.829	601.81
440.05	625.81
440.272	670.81
440.493	635.81
440.715	618.81
440.936	592.81
441.158	584.81
441.379	574.81
441.6	614.81
441.822	635.81
442.043	651.81
442.264	751.81
442.486	820.81
442.707	686.81
442.928	666.81
443.149	645.81
443.371	671.81
443.592	708.81
443.813	794.81
444.034	866.81
444.255	734.81
444.476	663.81
444.698	656.81
444.919	686.81
445.14	735.81
445.361	692.81
445.582	645.81
445.803	731.81
446.024	814.81
446.245	811.81
446.466	740.81
446.687	652.81
446.908	626.81
447.129	606.81
447.35	563.81
447.571	569.81
447.792	554.81
448.013	583.81
448.234	581.81
448.455	642.81
448.675	750.81
448.896	838.81
449.117	748.81
449.338	687.81
449.559	797.81
449.779	893.81
450	743.81
450.221	619.81
450.442	608.81
450.662	547.81
450.883	556.81
451.104	584.81
451.324	536.81
451.545	537.81
451.766	530.81
451.986	529.81
452.207	521.81
452.428	513.81
452.648	500.81
452.869	500.81
453.089	525.81
453.31	520.81
453.53	532.81
453.751	506.81
453.971	498.81
454.192	521.81
454.412	514.81
454.633	495.81
454.853	502.81
455.073	511.81
455.294	546.81
455.514	596.81
455.734	591.81
455.955	504.81
456.175	502.81
456.395	505.81
456.616	472.81
456.836	475.81
457.056	481.81
457.276	472.81
457.497	514.81
457.717	514.81
457.937	518.81
458.157	479.81
458.377	495.81
458.598	524.81
458.818	568.81
459.038	656.81
459.258	660.81
459.478	598.81
459.698	555.81
459.918	576.81
460.138	560.81
460.358	567.81
460.578	586.81
460.798	572.81
461.018	564.81
461.238	576.81
461.458	584.81
461.678	578.81
461.898	603.81
462.118	591.81
462.338	608.81
462.558	609.81
462.777	617.81
462.997	638.81
463.217	676.81
463.437	683.81
463.657	645.81
463.876	618.81
464.096	650.81
464.316	615.81
464.536	630.81
464.755	624.81
464.975	618.81
465.195	656.81
465.414	662.81
465.634	627.81
465.854	587.81
466.073	584.81
466.293	563.81
466.512	544.81
466.732	521.81
466.951	530.81
467.171	564.81
467.391	555.81
467.61	538.81
467.829	536.81
468.049	536.81
468.268	527.81
468.488	511.81
468.707	525.81
468.927	524.81
469.146	511.81
469.365	529.81
469.585	540.81
469.804	538.81
470.023	558.81
470.243	548.81
470.462	542.81
470.681	558.81
470.901	540.81
471.12	545.81
471.339	538.81
471.558	539.81
471.777	572.81
471.997	525.81
472.216	550.81
472.435	568.81
472.654	546.81
472.873	536.81
473.092	520.81
473.311	539.81
473.53	533.81
473.749	564.81
473.968	586.81
474.187	691.81
474.406	686.81
474.625	574.81
474.844	562.81
475.063	569.81
475.282	520.81
475.501	524.81
475.72	561.81
475.939	564.81
476.158	550.81
476.377	577.81
476.596	557.81
476.814	565.81
477.033	574.81
477.252	592.81
477.471	569.81
477.69	584.81
477.908	591.81
478.127	580.81
478.346	592.81
478.564	594.81
478.783	599.81
479.002	626.81
479.22	620.81
479.439	630.81
479.658	642.81
479.876	678.81
480.095	636.81
480.313	674.81
480.532	667.81
480.751	704.81
480.969	667.81
481.188	686.81
481.406	749.81
481.624	701.81
481.843	662.81
482.061	670.81
482.28	662.81
482.498	614.81
482.717	633.81
482.935	614.81
483.153	610.81
483.372	651.81
483.59	636.81
483.808	654.81
484.027	637.81
484.245	625.81
484.463	636.81
484.681	630.81
484.9	659.81
485.118	644.81
485.336	659.81
485.554	636.81
485.772	629.81
485.99	648.81
486.209	668.81
486.427	662.81
486.645	663.81
486.863	665.81
487.081	677.81
487.299	688.81
487.517	698.81
487.735	668.81
487.953	659.81
488.171	697.81
488.389	676.81
488.607	681.81
488.825	696.81
489.043	690.81
489.261	664.81
489.479	700.81
489.696	696.81
489.914	679.81
490.132	717.81
490.35	720.81
490.568	709.81
490.786	731.81
491.003	719.81
491.221	760.81
491.439	764.81
491.657	787.81
491.874	785.81
492.092	799.81
492.31	783.81
492.527	807.81
492.745	802.81
492.963	765.81
493.18	802.81
493.398	810.81
493.615	831.81
493.833	816.81
494.05	795.81
494.268	809.81
494.485	801.81
494.703	820.81
494.92	807.81
495.138	811.81
495.355	807.81
495.573	795.81
495.79	795.81
496.008	796.81
496.225	779.81
496.442	824.81
496.66	835.81
496.877	818.81
497.094	836.81
497.312	818.81
497.529	836.81
497.746	863.81
497.963	867.81
498.181	887.81
498.398	908.81
498.615	939.81
498.832	970.81
499.049	966.81
499.267	1026.81
499.484	1047.81
499.701	1083.81
499.918	1143.81
500.135	1207.81
500.352	1285.81
500.569	1318.81
500.786	1317.81
501.003	1260.81
501.22	1193.81
501.437	1157.81
501.654	1127.81
501.871	1093.81
502.088	1031.81
502.305	997.81
502.522	942.81
502.739	913.81
502.956	895.81
503.172	854.81
503.389	844.81
503.606	842.81
503.823	826.81
504.04	844.81
504.256	819.81
504.473	837.81
504.69	832.81
504.907	807.81
505.123	802.81
505.34	776.81
505.557	775.81
505.773	784.81
505.99	774.81
506.207	773.81
506.423	775.81
506.64	755.81
506.856	779.81
507.073	751.81
507.289	744.81
507.506	732.81
507.722	738.81
507.939	730.81
508.155	723.81
508.372	714.81
508.588	732.81
508.805	705.81
509.021	690.81
509.238	717.81
509.454	725.81
509.67	715.81
509.887	697.81
510.103	692.81
510.319	748.81
510.536	760.81
510.752	1087.81
510.968	943.81
511.184	707.81
511.401	661.81
511.617	682.81
511.833	668.81
512.049	656.81
512.265	683.81
512.481	668.81
512.698	652.81
512.914	647.81
513.13	669.81
513.346	658.81
513.562	670.81
513.778	665.81
513.994	661.81
514.21	679.81
514.426	688.81
514.642	710.81
514.858	724.81
515.074	759.81
515.29	861.81
515.506	1085.81
515.721	983.81
515.937	728.81
516.153	729.81
516.369	723.81
516.585	683.81
516.801	704.81
517.016	703.81
517.232	732.81
517.448	741.81
517.664	736.81
517.879	713.81
518.095	726.81
518.311	708.81
518.527	719.81
518.742	688.81
518.958	671.81
519.173	695.81
519.389	710.81
519.605	665.81
519.82	670.81
520.036	683.81
520.251	692.81
520.467	682.81
520.682	712.81
520.898	720.81
521.113	690.81
521.329	748.81
521.544	768.81
521.76	889.81
521.975	1333.81
522.19	1331.81
522.406	831.81
522.621	690.81
522.836	658.81
523.052	644.81
523.267	596.81
523.482	618.81
523.698	614.81
523.913	603.81
524.128	614.81
524.343	610.81
524.559	583.81
524.774	570.81
524.989	573.81
525.204	590.81
525.419	603.81
525.634	574.81
525.849	581.81
526.064	575.81
526.28	564.81
526.495	574.81
526.71	576.81
526.925	532.81
527.14	539.81
527.355	553.81
527.57	570.81
527.785	542.81
527.999	575.81
528.214	568.81
528.429	554.81
528.644	573.81
528.859	565.81
529.074	565.81
529.289	559.81
529.503	617.81
529.718	627.81
529.933	576.81
530.148	588.81
530.363	567.81
530.577	550.81
530.792	564.81
531.007	546.81
531.221	556.81
531.436	540.81
531.651	529.81
531.865	525.81
532.08	542.81
532.295	551.81
532.509	531.81
532.724	530.81
532.938	536.81
533.153	535.81
533.367	539.81
533.582	535.81
533.796	553.81
534.011	539.81
534.225	527.81
534.44	546.81
534.654	519.81
534.868	535.81
535.083	536.81
535.297	527.81
535.511	529.81
535.726	551.81
535.94	542.81
536.154	540.81
536.369	517.81
536.583	488.81
536.797	487.81
537.011	514.81
537.225	510.81
537.44	502.81
537.654	512.81
537.868	503.81
538.082	525.81
538.296	502.81
538.51	514.81
538.724	503.81
538.938	494.81
539.153	528.81
539.367	531.81
539.581	522.81
539.795	528.81
540.009	490.81
540.222	494.81
540.436	503.81
540.65	515.81
540.864	519.81
541.078	540.81
541.292	531.81
541.506	523.81
541.72	524.81
541.934	502.81
542.147	514.81
542.361	511.81
542.575	491.81
542.789	520.81
543.002	498.81
543.216	489.81
543.43	510.81
543.644	519.81
543.857	507.81
544.071	512.81
544.285	538.81
544.498	518.81
544.712	521.81
544.925	529.81
545.139	509.81
545.352	514.81
545.566	497.81
545.779	524.81
545.993	512.81
546.206	518.81
546.42	527.81
546.633	489.81
546.847	491.81
547.06	494.81
547.274	483.81
547.487	523.81
547.7	506.81
547.914	516.81
548.127	489.81
548.34	511.81
548.554	512.81
548.767	495.81
548.98	492.81
549.193	496.81
549.407	506.81
549.62	519.81
549.833	519.81
550.046	512.81
550.259	515.81
550.473	490.81
550.686	481.81
550.899	492.81
551.112	497.81
551.325	478.81
551.538	479.81
551.751	504.81
551.964	475.81
552.177	480.81
552.39	491.81
552.603	500.81
552.816	528.81
553.029	522.81
553.242	503.81
553.455	530.81
553.667	527.81
553.88	530.81
554.093	503.81
554.306	509.81
554.519	490.81
554.732	486.81
554.944	478.81
555.157	510.81
555.37	479.81
555.583	489.81
555.795	498.81
556.008	469.81
556.221	473.81
556.433	459.81
556.646	468.81
556.859	464.81
557.071	440.81
557.284	439.81
557.496	446.81
557.709	456.81
557.921	450.81
558.134	461.81
558.346	457.81
558.559	442.81
558.771	440.81
558.984	439.81
559.196	441.81
559.409	441.81
559.621	442.81
559.833	439.81
560.046	448.81
560.258	444.81
560.47	436.81
560.683	443.81
560.895	434.81
561.107	436.81
561.32	426.81
561.532	468.81
561.744	444.81
561.956	447.81
562.168	472.81
562.381	426.81
562.593	461.81
562.805	446.81
563.017	443.81
563.229	432.81
563.441	432.81
563.653	466.81
563.865	449.81
564.077	458.81
564.289	452.81
564.501	450.81
564.713	459.81
564.925	468.81
565.137	481.81
565.349	489.81
565.561	476.81
565.773	503.81
565.985	500.81
566.197	533.81
566.408	544.81
566.62	560.81
566.832	575.81
567.044	595.81
567.255	586.81
567.467	596.81
567.679	609.81
567.891	616.81
568.102	611.81
568.314	611.81
568.526	573.81
568.737	563.81
568.949	543.81
569.161	501.81
569.372	479.81
569.584	471.81
569.795	468.81
570.007	464.81
570.218	485.81
570.43	476.81
570.641	457.81
570.853	433.81
571.064	421.81
571.276	441.81
571.487	441.81
571.698	418.81
571.91	434.81
572.121	421.81
572.333	409.81
572.544	412.81
572.755	415.81
572.966	418.81
573.178	381.81
573.389	388.81
573.6	385.81
573.811	380.81
574.023	396.81
574.234	382.81
574.445	372.81
574.656	388.81
574.867	389.81
575.078	376.81
575.289	377.81
575.501	379.81
575.712	362.81
575.923	370.81
576.134	354.81
576.345	356.81
576.556	379.81
576.767	360.81
576.978	370.81
577.188	384.81
577.399	379.81
577.61	367.81
577.821	360.81
578.032	376.81
578.243	386.81
578.454	525.81
578.665	456.81
578.875	355.81
579.086	376.81
579.297	343.81
579.508	364.81
579.718	372.81
579.929	352.81
580.14	353.81
580.35	370.81
580.561	346.81
580.772	346.81
580.982	348.81
581.193	348.81
581.403	349.81
581.614	339.81
581.825	335.81
582.035	329.81
582.246	340.81
582.456	347.81
582.667	334.81
582.877	355.81
583.087	347.81
583.298	341.81
583.508	331.81
583.719	325.81
583.929	338.81
584.139	342.81
584.35	332.81
584.56	352.81
584.77	332.81
584.981	349.81
585.191	336.81
585.401	338.81
585.611	338.81
585.821	331.81
586.032	343.81
586.242	332.81
586.452	338.81
586.662	311.81
586.872	316.81
587.082	335.81
587.292	316.81
587.502	324.81
587.713	333.81
587.923	314.81
588.133	325.81
588.343	318.81
588.553	319.81
588.762	320.81
588.972	334.81
589.182	343.81
589.392	333.81
589.602	332.81
589.812	317.81
590.022	318.81
590.232	330.81
590.441	312.81
590.651	326.81
590.861	318.81
591.071	330.81
591.281	331.81
591.49	360.81
591.7	350.81
591.91	348.81
592.119	345.81
592.329	331.81
592.539	362.81
592.748	363.81
592.958	360.81
593.167	367.81
593.377	367.81
593.587	390.81
593.796	366.81
594.006	378.81
594.215	382.81
594.424	350.81
594.634	366.81
594.843	366.81
595.053	352.81
595.262	355.81
595.472	340.81
595.681	328.81
595.89	342.81
596.1	332.81
596.309	345.81
596.518	311.81
596.727	302.81
596.937	314.81
597.146	310.81
597.355	311.81
597.564	308.81
597.774	312.81
597.983	298.81
598.192	297.81
598.401	307.81
598.61	302.81
598.819	282.81
599.028	291.81
599.237	300.81
599.446	291.81
599.655	272.81
599.864	290.81
600.073	293.81
600.282	282.81
600.491	302.81
600.7	278.81
600.909	287.81
601.118	283.81
601.327	288.81
601.536	277.81
601.745	282.81
601.953	299.81
602.162	272.81
602.371	276.81
602.58	286.81
602.789	283.81
602.997	281.81
603.206	295.81
603.415	286.81
603.623	286.81
603.832	297.81
604.041	285.81
604.249	285.81
604.458	290.81
604.666	271.81
604.875	271.81
605.084	270.81
605.292	278.81
605.501	292.81
605.709	265.81
605.918	279.81
606.126	280.81
606.334	292.81
606.543	273.81
606.751	271.81
606.96	291.81
607.168	270.81
607.376	308.81
607.585	290.81
607.793	284.81
608.001	278.81
608.21	271.81
608.418	272.81
608.626	292.81
608.834	267.81
609.043	282.81
609.251	282.81
609.459	279.81
609.667	273.81
609.875	267.81
610.083	271.81
610.291	272.81
610.499	267.81
610.707	278.81
610.916	266.81
611.124	279.81
611.332	282.81
611.54	281.81
611.748	273.81
611.955	274.81
612.163	284.81
612.371	269.81
612.579	267.81
612.787	272.81
612.995	271.81
613.203	264.81
613.411	274.81
613.618	270.81
613.826	275.81
614.034	265.81
614.242	285.81
614.449	267.81
614.657	272.81
614.865	287.81
615.072	247.81
615.28	256.81
615.488	286.81
615.695	263.81
615.903	274.81
616.111	269.81
616.318	255.81
616.526	274.81
616.733	274.81
616.941	268.81
617.148	274.81
617.356	281.81
617.563	278.81
617.771	265.81
617.978	265.81
618.185	230.81
618.393	267.81
618.6	269.81
618.807	258.81
619.015	255.81
619.222	256.81
619.429	255.81
619.637	246.81
619.844	266.81
620.051	248.81
620.258	261.81
620.466	250.81
620.673	239.81
620.88	225.81
621.087	235.81
621.294	238.81
621.501	248.81
621.708	246.81
621.915	254.81
622.122	235.81
622.329	260.81
622.536	242.81
622.743	248.81
622.95	254.81
623.157	232.81
623.364	242.81
623.571	242.81
623.778	232.81
623.985	248.81
624.192	233.81
624.399	249.81
624.606	251.81
624.812	240.81
625.019	247.81
625.226	231.81
625.433	220.81
625.639	239.81
625.846	227.81
626.053	222.81
626.259	238.81
626.466	231.81
626.673	234.81
626.879	223.81
627.086	219.81
627.293	243.81
627.499	228.81
627.706	227.81
627.912	226.81
628.119	228.81
628.325	218.81
628.532	224.81
628.738	232.81
628.945	213.81
629.151	230.81
629.357	217.81
629.564	222.81
629.77	228.81
629.976	234.81
630.183	216.81
630.389	227.81
630.595	230.81
630.802	234.81
631.008	200.81
631.214	209.81
631.42	206.81
631.627	232.81
631.833	218.81
632.039	200.81
632.245	225.81
632.451	201.81
632.657	211.81
632.863	211.81
633.069	218.81
633.275	197.81
633.481	197.81
633.688	211.81
633.893	189.81
634.099	207.81
634.305	224.81
634.511	201.81
634.717	227.81
634.923	217.81
635.129	194.81
635.335	199.81
635.541	187.81
635.747	199.81
635.952	208.81
636.158	201.81
636.364	195.81
636.57	209.81
636.775	220.81
636.981	208.81
637.187	204.81
637.392	189.81
637.598	187.81
637.804	186.81
638.009	191.81
638.215	199.81
638.421	197.81
638.626	194.81
638.832	180.81
639.037	201.81
639.243	200.81
639.448	200.81
639.654	175.81
639.859	202.81
640.065	192.81
640.27	191.81
640.475	187.81
640.681	180.81
640.886	195.81
641.091	204.81
641.297	198.81
641.502	188.81
641.707	167.81
641.913	207.81
642.118	194.81
642.323	192.81
642.528	181.81
642.733	187.81
642.939	172.81
643.144	200.81
643.349	182.81
643.554	174.81
643.759	183.81
643.964	188.81
644.169	169.81
644.374	175.81
644.579	179.81
644.784	182.81
644.989	182.81
645.194	184.81
645.399	159.81
645.604	183.81
645.809	182.81
646.014	178.81
646.219	186.81
646.423	184.81
646.628	186.81
646.833	191.81
647.038	174.81
647.243	186.81
647.447	183.81
647.652	193.81
647.857	191.81
648.062	174.81
648.266	178.81
648.471	201.81
648.676	186.81
648.88	189.81
649.085	176.81
649.289	187.81
649.494	190.81
649.698	194.81
649.903	189.81
650.107	181.81
650.312	168.81
650.516	169.81
650.721	154.81
650.925	163.81
651.13	171.81
651.334	166.81
651.539	152.81
651.743	149.81
651.947	158.81
652.152	153.81
652.356	162.81
652.56	145.81
652.764	158.81
652.969	140.81
653.173	137.81
653.377	161.81
653.581	137.81
653.785	139.81
653.99	145.81
654.194	138.81
654.398	147.81
654.602	134.81
654.806	142.81
655.01	159.81
655.214	146.81
655.418	148.81
655.622	149.81
655.826	149.81
656.03	138.81
656.234	134.81
656.438	140.81
656.642	139.81
656.846	131.81
657.049	127.81
657.253	138.81
657.457	116.81
657.661	119.81
657.865	106.81
658.068	115.81
658.272	110.81
658.476	116.81
658.68	110.81
658.883	100.81
659.087	103.81
659.291	100.81
659.494	103.81
659.698	101.81
659.901	106.81
660.105	103.81
660.309	107.81
660.512	96.81
660.716	92.81
660.919	89.81
661.123	77.81
661.326	86.81
661.53	95.81
661.733	80.81
661.936	83.81
662.14	78.81
662.343	94.81
662.546	78.81
662.75	80.81
662.953	77.81
663.156	94.81
663.36	86.81
663.563	76.81
663.766	82.81
663.969	69.81
664.173	81.81
664.376	75.81
664.579	90.81
664.782	86.81
664.985	80.81
665.188	78.81
665.391	89.81
665.594	82.81
665.797	83.81
666	81.81
666.203	81.81
666.406	68.81
666.609	78.81
666.812	86.81
667.015	78.81
667.218	72.81
667.421	73.81
667.624	78.81
667.827	82.81
668.03	74.81
668.232	64.81
668.435	76.81
668.638	80.81
668.841	80.81
669.043	84.81
669.246	75.81
669.449	96.81
669.651	91.81
669.854	96.81
670.057	70.81
670.259	83.81
670.462	82.81
670.665	72.81
670.867	87.81
671.07	78.81
671.272	79.81
671.475	90.81
671.677	83.81
671.88	73.81
672.082	79.81
672.284	73.81
672.487	83.81
672.689	81.81
672.892	76.81
