Data from 1974.PennyLincolnUp.Lamp.En5.5.200Scan.071719.P1.Changed Mount._HRD10591_15-51-14-856.txt Node
Date: Thu Jul 18 15:51:14 EDT 2019
User: cochatt
Spectrometer: HR+D1059
Trigger mode: 1
Integration Time (sec): 1.000000E-1
Scans to average: 1
Electric dark correction enabled: true
Nonlinearity correction enabled: false
Boxcar width: 0
XAxis mode: Wavelengths
Number of Pixels in Spectrum: 2048
>>>>>Begin Spectral Data<<<<<
223.165	-10.94
223.4	-10.94
223.635	-10.94
223.869	-10.94
224.104	-19.94
224.338	-10.94
224.573	-16.94
224.808	-12.94
225.042	-4.94
225.277	-11.94
225.511	-12.94
225.746	0.06
225.98	11.06
226.215	18.06
226.449	13.06
226.683	22.06
226.918	13.06
227.152	35.06
227.387	45.06
227.621	47.06
227.856	55.06
228.09	50.06
228.324	56.06
228.559	40.06
228.793	73.06
229.027	86.06
229.262	102.06
229.496	111.06
229.73	125.06
229.964	141.06
230.199	119.06
230.433	109.06
230.667	115.06
230.901	119.06
231.136	112.06
231.37	117.06
231.604	115.06
231.838	119.06
232.072	113.06
232.306	113.06
232.541	106.06
232.775	100.06
233.009	122.06
233.243	111.06
233.477	127.06
233.711	118.06
233.945	115.06
234.179	115.06
234.413	118.06
234.647	126.06
234.881	121.06
235.115	111.06
235.349	115.06
235.583	125.06
235.817	100.06
236.051	127.06
236.285	135.06
236.519	130.06
236.753	122.06
236.987	124.06
237.221	169.06
237.455	190.06
237.689	173.06
237.922	143.06
238.156	139.06
238.39	129.06
238.624	133.06
238.858	129.06
239.091	125.06
239.325	120.06
239.559	112.06
239.793	141.06
240.027	131.06
240.26	142.06
240.494	155.06
240.728	144.06
240.961	165.06
241.195	146.06
241.429	142.06
241.662	129.06
241.896	134.06
242.13	123.06
242.363	144.06
242.597	130.06
242.83	127.06
243.064	129.06
243.298	140.06
243.531	144.06
243.765	153.06
243.998	153.06
244.232	125.06
244.465	142.06
244.699	141.06
244.932	147.06
245.166	157.06
245.399	157.06
245.633	140.06
245.866	156.06
246.099	161.06
246.333	135.06
246.566	151.06
246.8	152.06
247.033	142.06
247.266	158.06
247.5	160.06
247.733	168.06
247.966	169.06
248.2	164.06
248.433	170.06
248.666	179.06
248.899	181.06
249.133	187.06
249.366	182.06
249.599	174.06
249.832	181.06
250.066	177.06
250.299	175.06
250.532	188.06
250.765	177.06
250.998	200.06
251.231	218.06
251.465	200.06
251.698	192.06
251.931	206.06
252.164	183.06
252.397	181.06
252.63	192.06
252.863	207.06
253.096	206.06
253.329	211.06
253.562	210.06
253.795	208.06
254.028	191.06
254.261	205.06
254.494	222.06
254.727	229.06
254.96	241.06
255.193	229.06
255.426	219.06
255.659	223.06
255.892	215.06
256.124	234.06
256.357	215.06
256.59	209.06
256.823	211.06
257.056	185.06
257.289	189.06
257.521	185.06
257.754	190.06
257.987	215.06
258.22	210.06
258.452	205.06
258.685	206.06
258.918	199.06
259.151	197.06
259.383	206.06
259.616	218.06
259.849	216.06
260.081	231.06
260.314	249.06
260.547	259.06
260.779	239.06
261.012	221.06
261.244	211.06
261.477	192.06
261.71	181.06
261.942	210.06
262.175	218.06
262.407	227.06
262.64	215.06
262.872	211.06
263.105	196.06
263.337	204.06
263.57	212.06
263.802	216.06
264.035	221.06
264.267	210.06
264.499	209.06
264.732	210.06
264.964	207.06
265.197	211.06
265.429	201.06
265.661	211.06
265.894	208.06
266.126	212.06
266.358	216.06
266.591	222.06
266.823	217.06
267.055	209.06
267.287	205.06
267.52	222.06
267.752	207.06
267.984	220.06
268.216	234.06
268.448	235.06
268.681	223.06
268.913	230.06
269.145	236.06
269.377	251.06
269.609	234.06
269.841	238.06
270.073	256.06
270.306	266.06
270.538	272.06
270.77	269.06
271.002	255.06
271.234	256.06
271.466	271.06
271.698	281.06
271.93	280.06
272.162	276.06
272.394	295.06
272.626	293.06
272.858	267.06
273.09	268.06
273.322	239.06
273.553	248.06
273.785	249.06
274.017	245.06
274.249	250.06
274.481	265.06
274.713	252.06
274.945	245.06
275.176	245.06
275.408	218.06
275.64	262.06
275.872	273.06
276.104	264.06
276.335	264.06
276.567	259.06
276.799	269.06
277.031	270.06
277.262	281.06
277.494	287.06
277.726	285.06
277.957	265.06
278.189	255.06
278.421	254.06
278.652	258.06
278.884	250.06
279.115	259.06
279.347	259.06
279.579	262.06
279.81	265.06
280.042	261.06
280.273	257.06
280.505	273.06
280.736	279.06
280.968	267.06
281.199	261.06
281.431	271.06
281.662	240.06
281.894	245.06
282.125	261.06
282.356	269.06
282.588	282.06
282.819	284.06
283.051	263.06
283.282	273.06
283.513	292.06
283.745	290.06
283.976	269.06
284.207	281.06
284.439	268.06
284.67	280.06
284.901	282.06
285.132	268.06
285.364	262.06
285.595	275.06
285.826	255.06
286.057	278.06
286.288	268.06
286.52	273.06
286.751	274.06
286.982	285.06
287.213	282.06
287.444	284.06
287.675	280.06
287.906	271.06
288.138	305.06
288.369	287.06
288.6	289.06
288.831	303.06
289.062	293.06
289.293	282.06
289.524	275.06
289.755	305.06
289.986	299.06
290.217	283.06
290.448	274.06
290.679	301.06
290.91	289.06
291.141	283.06
291.371	269.06
291.602	287.06
291.833	291.06
292.064	292.06
292.295	309.06
292.526	269.06
292.757	294.06
292.987	280.06
293.218	280.06
293.449	282.06
293.68	287.06
293.91	292.06
294.141	298.06
294.372	268.06
294.603	292.06
294.833	303.06
295.064	302.06
295.295	313.06
295.525	321.06
295.756	295.06
295.987	291.06
296.217	298.06
296.448	300.06
296.679	309.06
296.909	292.06
297.14	293.06
297.37	298.06
297.601	309.06
297.831	305.06
298.062	309.06
298.292	296.06
298.523	288.06
298.753	316.06
298.984	304.06
299.214	315.06
299.445	301.06
299.675	287.06
299.905	313.06
300.136	322.06
300.366	315.06
300.597	309.06
300.827	315.06
301.057	317.06
301.288	327.06
301.518	291.06
301.748	315.06
301.979	309.06
302.209	331.06
302.439	345.06
302.669	323.06
302.9	317.06
303.13	316.06
303.36	331.06
303.59	316.06
303.82	339.06
304.051	337.06
304.281	321.06
304.511	320.06
304.741	332.06
304.971	296.06
305.201	326.06
305.431	317.06
305.661	313.06
305.891	328.06
306.121	316.06
306.352	317.06
306.582	319.06
306.812	328.06
307.042	325.06
307.272	318.06
307.502	329.06
307.731	331.06
307.961	317.06
308.191	310.06
308.421	335.06
308.651	327.06
308.881	323.06
309.111	334.06
309.341	337.06
309.571	314.06
309.8	349.06
310.03	343.06
310.26	348.06
310.49	333.06
310.72	359.06
310.949	359.06
311.179	383.06
311.409	331.06
311.639	338.06
311.868	345.06
312.098	336.06
312.328	360.06
312.557	376.06
312.787	352.06
313.017	363.06
313.246	358.06
313.476	337.06
313.706	359.06
313.935	353.06
314.165	357.06
314.394	380.06
314.624	363.06
314.853	356.06
315.083	342.06
315.312	358.06
315.542	340.06
315.771	364.06
316.001	335.06
316.23	331.06
316.46	352.06
316.689	349.06
316.919	360.06
317.148	352.06
317.377	366.06
317.607	362.06
317.836	359.06
318.065	349.06
318.295	368.06
318.524	368.06
318.753	338.06
318.983	360.06
319.212	346.06
319.441	352.06
319.67	368.06
319.9	365.06
320.129	374.06
320.358	365.06
320.587	375.06
320.816	363.06
321.046	381.06
321.275	360.06
321.504	375.06
321.733	366.06
321.962	391.06
322.191	381.06
322.42	381.06
322.649	386.06
322.878	405.06
323.108	398.06
323.337	427.06
323.566	409.06
323.795	424.06
324.024	428.06
324.253	493.06
324.482	672.06
324.71	1001.06
324.939	1451.06
325.168	1234.06
325.397	653.06
325.626	479.06
325.855	430.06
326.084	408.06
326.313	405.06
326.542	407.06
326.77	451.06
326.999	499.06
327.228	605.06
327.457	903.06
327.686	1100.06
327.914	751.06
328.143	508.06
328.372	474.06
328.6	459.06
328.829	437.06
329.058	457.06
329.287	448.06
329.515	446.06
329.744	435.06
329.972	424.06
330.201	428.06
330.43	440.06
330.658	471.06
330.887	485.06
331.115	477.06
331.344	460.06
331.572	427.06
331.801	443.06
332.03	431.06
332.258	410.06
332.486	433.06
332.715	416.06
332.943	437.06
333.172	437.06
333.4	437.06
333.629	433.06
333.857	438.06
334.085	455.06
334.314	472.06
334.542	472.06
334.771	475.06
334.999	472.06
335.227	450.06
335.455	429.06
335.684	451.06
335.912	444.06
336.14	437.06
336.369	439.06
336.597	416.06
336.825	429.06
337.053	423.06
337.281	424.06
337.51	426.06
337.738	449.06
337.966	430.06
338.194	422.06
338.422	421.06
338.65	415.06
338.878	431.06
339.106	407.06
339.334	412.06
339.562	436.06
339.79	428.06
340.018	388.06
340.246	419.06
340.474	420.06
340.702	423.06
340.93	396.06
341.158	399.06
341.386	423.06
341.614	408.06
341.842	415.06
342.07	394.06
342.298	399.06
342.526	398.06
342.754	402.06
342.981	412.06
343.209	400.06
343.437	410.06
343.665	397.06
343.893	427.06
344.12	461.06
344.348	443.06
344.576	440.06
344.804	444.06
345.031	423.06
345.259	430.06
345.487	420.06
345.714	415.06
345.942	411.06
346.17	417.06
346.397	394.06
346.625	405.06
346.853	400.06
347.08	398.06
347.308	386.06
347.535	380.06
347.763	414.06
347.99	413.06
348.218	397.06
348.445	407.06
348.673	419.06
348.9	387.06
349.128	406.06
349.355	384.06
349.583	387.06
349.81	383.06
350.037	391.06
350.265	394.06
350.492	404.06
350.72	389.06
350.947	396.06
351.174	407.06
351.402	414.06
351.629	392.06
351.856	392.06
352.083	395.06
352.311	396.06
352.538	392.06
352.765	412.06
352.992	406.06
353.22	392.06
353.447	404.06
353.674	400.06
353.901	419.06
354.128	387.06
354.355	381.06
354.583	401.06
354.81	395.06
355.037	390.06
355.264	386.06
355.491	379.06
355.718	387.06
355.945	390.06
356.172	377.06
356.399	391.06
356.626	384.06
356.853	378.06
357.08	380.06
357.307	390.06
357.534	383.06
357.761	389.06
357.988	406.06
358.215	373.06
358.441	392.06
358.668	398.06
358.895	405.06
359.122	380.06
359.349	412.06
359.576	397.06
359.802	404.06
360.029	432.06
360.256	418.06
360.483	421.06
360.709	407.06
360.936	422.06
361.163	417.06
361.39	397.06
361.616	415.06
361.843	392.06
362.07	417.06
362.296	401.06
362.523	405.06
362.749	411.06
362.976	412.06
363.203	409.06
363.429	386.06
363.656	389.06
363.882	396.06
364.109	410.06
364.335	392.06
364.562	399.06
364.788	402.06
365.015	395.06
365.241	398.06
365.468	391.06
365.694	392.06
365.92	407.06
366.147	375.06
366.373	406.06
366.599	403.06
366.826	413.06
367.052	400.06
367.278	389.06
367.505	390.06
367.731	402.06
367.957	414.06
368.184	399.06
368.41	399.06
368.636	410.06
368.862	395.06
369.089	397.06
369.315	420.06
369.541	396.06
369.767	407.06
369.993	405.06
370.219	405.06
370.445	398.06
370.672	394.06
370.898	398.06
371.124	420.06
371.35	403.06
371.576	402.06
371.802	398.06
372.028	413.06
372.254	405.06
372.48	408.06
372.706	405.06
372.932	418.06
373.158	403.06
373.384	426.06
373.61	382.06
373.835	414.06
374.061	415.06
374.287	415.06
374.513	415.06
374.739	422.06
374.965	445.06
375.191	427.06
375.416	403.06
375.642	419.06
375.868	433.06
376.094	418.06
376.319	415.06
376.545	405.06
376.771	435.06
376.997	423.06
377.222	393.06
377.448	419.06
377.674	418.06
377.899	403.06
378.125	400.06
378.35	399.06
378.576	410.06
378.802	407.06
379.027	407.06
379.253	409.06
379.478	425.06
379.704	413.06
379.929	406.06
380.155	411.06
380.38	432.06
380.606	413.06
380.831	417.06
381.057	417.06
381.282	413.06
381.507	437.06
381.733	407.06
381.958	429.06
382.184	431.06
382.409	447.06
382.634	430.06
382.86	424.06
383.085	433.06
383.31	448.06
383.535	434.06
383.761	452.06
383.986	450.06
384.211	452.06
384.436	455.06
384.662	463.06
384.887	470.06
385.112	460.06
385.337	463.06
385.562	475.06
385.787	464.06
386.013	479.06
386.238	502.06
386.463	487.06
386.688	485.06
386.913	484.06
387.138	490.06
387.363	484.06
387.588	466.06
387.813	462.06
388.038	468.06
388.263	460.06
388.488	477.06
388.713	471.06
388.938	460.06
389.163	465.06
389.387	464.06
389.612	449.06
389.837	449.06
390.062	461.06
390.287	472.06
390.512	436.06
390.736	457.06
390.961	453.06
391.186	465.06
391.411	476.06
391.636	460.06
391.86	507.06
392.085	492.06
392.31	478.06
392.534	467.06
392.759	469.06
392.984	468.06
393.208	483.06
393.433	492.06
393.658	466.06
393.882	439.06
394.107	475.06
394.331	466.06
394.556	477.06
394.78	478.06
395.005	484.06
395.229	473.06
395.454	475.06
395.678	473.06
395.903	510.06
396.127	523.06
396.352	520.06
396.576	492.06
396.801	485.06
397.025	496.06
397.249	509.06
397.474	511.06
397.698	476.06
397.922	509.06
398.147	524.06
398.371	526.06
398.595	505.06
398.82	509.06
399.044	581.06
399.268	589.06
399.492	585.06
399.717	650.06
399.941	657.06
400.165	697.06
400.389	663.06
400.613	615.06
400.837	590.06
401.062	547.06
401.286	542.06
401.51	537.06
401.734	542.06
401.958	549.06
402.182	541.06
402.406	543.06
402.63	550.06
402.854	541.06
403.078	549.06
403.302	523.06
403.526	576.06
403.75	575.06
403.974	579.06
404.198	570.06
404.422	548.06
404.645	567.06
404.869	571.06
405.093	614.06
405.317	614.06
405.541	648.06
405.765	612.06
405.988	578.06
406.212	568.06
406.436	594.06
406.66	585.06
406.883	593.06
407.107	650.06
407.331	666.06
407.555	734.06
407.778	728.06
408.002	655.06
408.226	617.06
408.449	610.06
408.673	637.06
408.896	637.06
409.12	657.06
409.344	622.06
409.567	589.06
409.791	596.06
410.014	571.06
410.238	557.06
410.461	552.06
410.685	582.06
410.908	591.06
411.132	614.06
411.355	629.06
411.578	601.06
411.802	570.06
412.025	552.06
412.249	570.06
412.472	577.06
412.695	598.06
412.919	573.06
413.142	560.06
413.365	531.06
413.589	554.06
413.812	536.06
414.035	522.06
414.258	515.06
414.482	531.06
414.705	550.06
414.928	523.06
415.151	532.06
415.374	526.06
415.597	547.06
415.821	525.06
416.044	529.06
416.267	536.06
416.49	538.06
416.713	554.06
416.936	523.06
417.159	528.06
417.382	539.06
417.605	533.06
417.828	571.06
418.051	528.06
418.274	547.06
418.497	547.06
418.72	519.06
418.943	506.06
419.166	580.06
419.389	581.06
419.611	575.06
419.834	563.06
420.057	557.06
420.28	558.06
420.503	552.06
420.726	533.06
420.948	572.06
421.171	612.06
421.394	636.06
421.617	557.06
421.839	565.06
422.062	563.06
422.285	570.06
422.507	611.06
422.73	685.06
422.953	670.06
423.175	593.06
423.398	560.06
423.621	561.06
423.843	597.06
424.066	575.06
424.288	575.06
424.511	598.06
424.733	643.06
424.956	726.06
425.178	677.06
425.401	682.06
425.623	687.06
425.846	609.06
426.068	599.06
426.291	571.06
426.513	574.06
426.735	569.06
426.958	618.06
427.18	672.06
427.402	803.06
427.625	872.06
427.847	736.06
428.069	651.06
428.292	586.06
428.514	583.06
428.736	547.06
428.958	530.06
429.181	508.06
429.403	529.06
429.625	536.06
429.847	575.06
430.069	614.06
430.292	618.06
430.514	566.06
430.736	528.06
430.958	513.06
431.18	509.06
431.402	512.06
431.624	531.06
431.846	504.06
432.068	524.06
432.29	503.06
432.512	493.06
432.734	510.06
432.956	525.06
433.178	514.06
433.4	521.06
433.622	513.06
433.844	541.06
434.066	516.06
434.287	535.06
434.509	521.06
434.731	542.06
434.953	553.06
435.175	569.06
435.397	575.06
435.618	564.06
435.84	617.06
436.062	696.06
436.284	733.06
436.505	622.06
436.727	573.06
436.949	553.06
437.17	535.06
437.392	510.06
437.614	524.06
437.835	541.06
438.057	627.06
438.278	720.06
438.5	739.06
438.721	821.06
438.943	786.06
439.165	606.06
439.386	597.06
439.608	587.06
439.829	565.06
440.05	570.06
440.272	640.06
440.493	602.06
440.715	559.06
440.936	583.06
441.158	519.06
441.379	527.06
441.6	556.06
441.822	563.06
442.043	614.06
442.264	666.06
442.486	719.06
442.707	643.06
442.928	586.06
443.149	608.06
443.371	608.06
443.592	639.06
443.813	748.06
444.034	776.06
444.255	658.06
444.476	613.06
444.698	622.06
444.919	581.06
445.14	739.06
445.361	652.06
445.582	620.06
445.803	656.06
446.024	747.06
446.245	748.06
446.466	726.06
446.687	610.06
446.908	556.06
447.129	552.06
447.35	528.06
447.571	510.06
447.792	537.06
448.013	491.06
448.234	534.06
448.455	583.06
448.675	684.06
448.896	779.06
449.117	643.06
449.338	619.06
449.559	700.06
449.779	848.06
450	667.06
450.221	579.06
450.442	531.06
450.662	522.06
450.883	533.06
451.104	500.06
451.324	505.06
451.545	484.06
451.766	501.06
451.986	480.06
452.207	465.06
452.428	473.06
452.648	469.06
452.869	451.06
453.089	471.06
453.31	475.06
453.53	481.06
453.751	484.06
453.971	486.06
454.192	474.06
454.412	472.06
454.633	456.06
454.853	464.06
455.073	484.06
455.294	491.06
455.514	533.06
455.734	544.06
455.955	492.06
456.175	469.06
456.395	435.06
456.616	454.06
456.836	438.06
457.056	450.06
457.276	446.06
457.497	439.06
457.717	455.06
457.937	471.06
458.157	460.06
458.377	458.06
458.598	487.06
458.818	511.06
459.038	544.06
459.258	586.06
459.478	539.06
459.698	523.06
459.918	522.06
460.138	526.06
460.358	545.06
460.578	543.06
460.798	536.06
461.018	551.06
461.238	535.06
461.458	542.06
461.678	539.06
461.898	519.06
462.118	526.06
462.338	563.06
462.558	579.06
462.777	567.06
462.997	591.06
463.217	603.06
463.437	620.06
463.657	599.06
463.876	591.06
464.096	612.06
464.316	579.06
464.536	586.06
464.755	611.06
464.975	575.06
465.195	570.06
465.414	592.06
465.634	563.06
465.854	541.06
466.073	515.06
466.293	515.06
466.512	500.06
466.732	488.06
466.951	501.06
467.171	488.06
467.391	525.06
467.61	518.06
467.829	514.06
468.049	506.06
468.268	504.06
468.488	492.06
468.707	487.06
468.927	496.06
469.146	490.06
469.365	495.06
469.585	468.06
469.804	486.06
470.023	510.06
470.243	495.06
470.462	519.06
470.681	502.06
470.901	526.06
471.12	511.06
471.339	518.06
471.558	529.06
471.777	502.06
471.997	495.06
472.216	493.06
472.435	522.06
472.654	492.06
472.873	503.06
473.092	500.06
473.311	481.06
473.53	491.06
473.749	518.06
473.968	521.06
474.187	601.06
474.406	625.06
474.625	534.06
474.844	516.06
475.063	504.06
475.282	496.06
475.501	514.06
475.72	519.06
475.939	509.06
476.158	501.06
476.377	527.06
476.596	497.06
476.814	528.06
477.033	528.06
477.252	529.06
477.471	557.06
477.69	538.06
477.908	571.06
478.127	558.06
478.346	565.06
478.564	591.06
478.783	561.06
479.002	601.06
479.22	592.06
479.439	587.06
479.658	587.06
479.876	594.06
480.095	601.06
480.313	659.06
480.532	622.06
480.751	597.06
480.969	616.06
481.188	632.06
481.406	641.06
481.624	611.06
481.843	572.06
482.061	591.06
482.28	589.06
482.498	589.06
482.717	602.06
482.935	602.06
483.153	568.06
483.372	585.06
483.59	583.06
483.808	585.06
484.027	569.06
484.245	603.06
484.463	590.06
484.681	606.06
484.9	582.06
485.118	592.06
485.336	610.06
485.554	619.06
485.772	590.06
485.99	586.06
486.209	601.06
486.427	590.06
486.645	625.06
486.863	637.06
487.081	628.06
487.299	583.06
487.517	615.06
487.735	625.06
487.953	635.06
488.171	631.06
488.389	627.06
488.607	614.06
488.825	654.06
489.043	623.06
489.261	632.06
489.479	638.06
489.696	636.06
489.914	646.06
490.132	647.06
490.35	646.06
490.568	671.06
490.786	675.06
491.003	665.06
491.221	665.06
491.439	678.06
491.657	700.06
491.874	706.06
492.092	721.06
492.31	720.06
492.527	728.06
492.745	733.06
492.963	738.06
493.18	749.06
493.398	728.06
493.615	732.06
493.833	711.06
494.05	732.06
494.268	730.06
494.485	748.06
494.703	718.06
494.92	738.06
495.138	741.06
495.355	743.06
495.573	739.06
495.79	718.06
496.008	774.06
496.225	743.06
496.442	769.06
496.66	763.06
496.877	747.06
497.094	737.06
497.312	772.06
497.529	761.06
497.746	757.06
497.963	777.06
498.181	786.06
498.398	807.06
498.615	863.06
498.832	862.06
499.049	899.06
499.267	937.06
499.484	940.06
499.701	1008.06
499.918	1060.06
500.135	1125.06
500.352	1181.06
500.569	1195.06
500.786	1224.06
501.003	1201.06
501.22	1143.06
501.437	1095.06
501.654	1000.06
501.871	1013.06
502.088	932.06
502.305	905.06
502.522	859.06
502.739	853.06
502.956	820.06
503.172	806.06
503.389	789.06
503.606	805.06
503.823	774.06
504.04	778.06
504.256	770.06
504.473	734.06
504.69	761.06
504.907	743.06
505.123	743.06
505.34	728.06
505.557	714.06
505.773	708.06
505.99	679.06
506.207	720.06
506.423	687.06
506.64	663.06
506.856	669.06
507.073	685.06
507.289	682.06
507.506	672.06
507.722	678.06
507.939	685.06
508.155	645.06
508.372	631.06
508.588	648.06
508.805	638.06
509.021	652.06
509.238	653.06
509.454	630.06
509.67	647.06
509.887	631.06
510.103	635.06
510.319	628.06
510.536	681.06
510.752	858.06
510.968	785.06
511.184	647.06
511.401	639.06
511.617	608.06
511.833	608.06
512.049	622.06
512.265	587.06
512.481	588.06
512.698	594.06
512.914	608.06
513.13	625.06
513.346	628.06
513.562	581.06
513.778	616.06
513.994	601.06
514.21	612.06
514.426	608.06
514.642	649.06
514.858	634.06
515.074	681.06
515.29	710.06
515.506	873.06
515.721	801.06
515.937	657.06
516.153	645.06
516.369	661.06
516.585	638.06
516.801	633.06
517.016	646.06
517.232	655.06
517.448	667.06
517.664	679.06
517.879	661.06
518.095	677.06
518.311	669.06
518.527	655.06
518.742	640.06
518.958	622.06
519.173	624.06
519.389	611.06
519.605	620.06
519.82	624.06
520.036	601.06
520.251	616.06
520.467	636.06
520.682	616.06
520.898	615.06
521.113	611.06
521.329	633.06
521.544	681.06
521.76	751.06
521.975	1020.06
522.19	1020.06
522.406	709.06
522.621	613.06
522.836	588.06
523.052	569.06
523.267	572.06
523.482	521.06
523.698	548.06
523.913	538.06
524.128	547.06
524.343	541.06
524.559	548.06
524.774	533.06
524.989	522.06
525.204	519.06
525.419	520.06
525.634	515.06
525.849	523.06
526.064	534.06
526.28	510.06
526.495	520.06
526.71	523.06
526.925	512.06
527.14	541.06
527.355	525.06
527.57	503.06
527.785	500.06
527.999	494.06
528.214	492.06
528.429	509.06
528.644	519.06
528.859	511.06
529.074	503.06
529.289	544.06
529.503	570.06
529.718	531.06
529.933	529.06
530.148	521.06
530.363	526.06
530.577	501.06
530.792	513.06
531.007	519.06
531.221	508.06
531.436	505.06
531.651	481.06
531.865	505.06
532.08	500.06
532.295	496.06
532.509	505.06
532.724	492.06
532.938	509.06
533.153	485.06
533.367	508.06
533.582	497.06
533.796	489.06
534.011	488.06
534.225	476.06
534.44	471.06
534.654	494.06
534.868	489.06
535.083	493.06
535.297	479.06
535.511	499.06
535.726	489.06
535.94	508.06
536.154	490.06
536.369	485.06
536.583	464.06
536.797	470.06
537.011	484.06
537.225	462.06
537.44	484.06
537.654	463.06
537.868	467.06
538.082	479.06
538.296	488.06
538.51	464.06
538.724	476.06
538.938	476.06
539.153	464.06
539.367	476.06
539.581	480.06
539.795	471.06
540.009	477.06
540.222	474.06
540.436	470.06
540.65	476.06
540.864	464.06
541.078	473.06
541.292	482.06
541.506	479.06
541.72	480.06
541.934	490.06
542.147	469.06
542.361	499.06
542.575	473.06
542.789	499.06
543.002	478.06
543.216	509.06
543.43	468.06
543.644	476.06
543.857	471.06
544.071	489.06
544.285	478.06
544.498	481.06
544.712	497.06
544.925	468.06
545.139	461.06
545.352	470.06
545.566	476.06
545.779	476.06
545.993	474.06
546.206	510.06
546.42	477.06
546.633	448.06
546.847	471.06
547.06	484.06
547.274	495.06
547.487	469.06
547.7	474.06
547.914	462.06
548.127	488.06
548.34	475.06
548.554	459.06
548.767	461.06
548.98	487.06
549.193	470.06
549.407	468.06
549.62	484.06
549.833	474.06
550.046	491.06
550.259	508.06
550.473	480.06
550.686	475.06
550.899	465.06
551.112	466.06
551.325	461.06
551.538	479.06
551.751	451.06
551.964	469.06
552.177	477.06
552.39	468.06
552.603	473.06
552.816	487.06
553.029	502.06
553.242	471.06
553.455	501.06
553.667	499.06
553.88	488.06
554.093	503.06
554.306	470.06
554.519	479.06
554.732	466.06
554.944	463.06
555.157	452.06
555.37	470.06
555.583	452.06
555.795	454.06
556.008	454.06
556.221	439.06
556.433	419.06
556.646	460.06
556.859	431.06
557.071	405.06
557.284	416.06
557.496	424.06
557.709	432.06
557.921	437.06
558.134	440.06
558.346	426.06
558.559	407.06
558.771	411.06
558.984	413.06
559.196	422.06
559.409	403.06
559.621	416.06
559.833	419.06
560.046	414.06
560.258	414.06
560.47	422.06
560.683	409.06
560.895	409.06
561.107	418.06
561.32	404.06
561.532	425.06
561.744	444.06
561.956	437.06
562.168	415.06
562.381	417.06
562.593	430.06
562.805	432.06
563.017	417.06
563.229	427.06
563.441	433.06
563.653	414.06
563.865	437.06
564.077	418.06
564.289	439.06
564.501	440.06
564.713	457.06
564.925	447.06
565.137	456.06
565.349	457.06
565.561	465.06
565.773	475.06
565.985	494.06
566.197	492.06
566.408	492.06
566.62	550.06
566.832	559.06
567.044	549.06
567.255	556.06
567.467	587.06
567.679	603.06
567.891	579.06
568.102	602.06
568.314	583.06
568.526	549.06
568.737	545.06
568.949	509.06
569.161	478.06
569.372	475.06
569.584	466.06
569.795	436.06
570.007	448.06
570.218	451.06
570.43	438.06
570.641	430.06
570.853	414.06
571.064	397.06
571.276	415.06
571.487	417.06
571.698	406.06
571.91	411.06
572.121	388.06
572.333	393.06
572.544	384.06
572.755	395.06
572.966	377.06
573.178	370.06
573.389	361.06
573.6	363.06
573.811	381.06
574.023	357.06
574.234	375.06
574.445	345.06
574.656	355.06
574.867	388.06
575.078	379.06
575.289	373.06
575.501	360.06
575.712	356.06
575.923	359.06
576.134	362.06
576.345	374.06
576.556	356.06
576.767	355.06
576.978	387.06
577.188	358.06
577.399	355.06
577.61	345.06
577.821	364.06
578.032	348.06
578.243	377.06
578.454	439.06
578.665	391.06
578.875	349.06
579.086	342.06
579.297	330.06
579.508	327.06
579.718	345.06
579.929	325.06
580.14	337.06
580.35	345.06
580.561	324.06
580.772	341.06
580.982	358.06
581.193	325.06
581.403	323.06
581.614	341.06
581.825	320.06
582.035	321.06
582.246	328.06
582.456	315.06
582.667	318.06
582.877	331.06
583.087	320.06
583.298	328.06
583.508	323.06
583.719	319.06
583.929	320.06
584.139	328.06
584.35	331.06
584.56	316.06
584.77	323.06
584.981	325.06
585.191	309.06
585.401	311.06
585.611	305.06
585.821	325.06
586.032	311.06
586.242	309.06
586.452	313.06
586.662	302.06
586.872	331.06
587.082	321.06
587.292	312.06
587.502	308.06
587.713	324.06
587.923	302.06
588.133	325.06
588.343	332.06
588.553	332.06
588.762	324.06
588.972	333.06
589.182	325.06
589.392	308.06
589.602	307.06
589.812	318.06
590.022	336.06
590.232	326.06
590.441	325.06
590.651	320.06
590.861	311.06
591.071	312.06
591.281	323.06
591.49	317.06
591.7	340.06
591.91	340.06
592.119	332.06
592.329	362.06
592.539	344.06
592.748	347.06
592.958	364.06
593.167	341.06
593.377	342.06
593.587	360.06
593.796	346.06
594.006	352.06
594.215	363.06
594.424	344.06
594.634	343.06
594.843	359.06
595.053	352.06
595.262	333.06
595.472	340.06
595.681	319.06
595.89	324.06
596.1	320.06
596.309	318.06
596.518	313.06
596.727	310.06
596.937	315.06
597.146	293.06
597.355	302.06
597.564	301.06
597.774	296.06
597.983	294.06
598.192	288.06
598.401	295.06
598.61	284.06
598.819	284.06
599.028	268.06
599.237	272.06
599.446	285.06
599.655	292.06
599.864	300.06
600.073	271.06
600.282	307.06
600.491	270.06
600.7	274.06
600.909	281.06
601.118	295.06
601.327	296.06
601.536	278.06
601.745	264.06
601.953	278.06
602.162	288.06
602.371	284.06
602.58	285.06
602.789	284.06
602.997	292.06
603.206	287.06
603.415	269.06
603.623	290.06
603.832	275.06
604.041	267.06
604.249	267.06
604.458	267.06
604.666	250.06
604.875	273.06
605.084	274.06
605.292	254.06
605.501	275.06
605.709	274.06
605.918	277.06
606.126	288.06
606.334	253.06
606.543	273.06
606.751	272.06
606.96	264.06
607.168	275.06
607.376	265.06
607.585	257.06
607.793	278.06
608.001	271.06
608.21	267.06
608.418	267.06
608.626	261.06
608.834	262.06
609.043	261.06
609.251	263.06
609.459	270.06
609.667	264.06
609.875	277.06
610.083	255.06
610.291	264.06
610.499	269.06
610.707	267.06
610.916	276.06
611.124	269.06
611.332	279.06
611.54	273.06
611.748	259.06
611.955	264.06
612.163	252.06
612.371	269.06
612.579	253.06
612.787	262.06
612.995	261.06
613.203	278.06
613.411	272.06
613.618	255.06
613.826	277.06
614.034	273.06
614.242	245.06
614.449	273.06
614.657	262.06
614.865	261.06
615.072	270.06
615.28	272.06
615.488	268.06
615.695	261.06
615.903	263.06
616.111	259.06
616.318	265.06
616.526	270.06
616.733	275.06
616.941	268.06
617.148	266.06
617.356	271.06
617.563	261.06
617.771	240.06
617.978	248.06
618.185	256.06
618.393	283.06
618.6	269.06
618.807	253.06
619.015	272.06
619.222	264.06
619.429	245.06
619.637	256.06
619.844	249.06
620.051	258.06
620.258	247.06
620.466	260.06
620.673	230.06
620.88	225.06
621.087	234.06
621.294	252.06
621.501	247.06
621.708	257.06
621.915	253.06
622.122	260.06
622.329	249.06
622.536	238.06
622.743	252.06
622.95	230.06
623.157	215.06
623.364	240.06
623.571	244.06
623.778	232.06
623.985	235.06
624.192	248.06
624.399	236.06
624.606	247.06
624.812	227.06
625.019	235.06
625.226	222.06
625.433	209.06
625.639	225.06
625.846	223.06
626.053	214.06
626.259	234.06
626.466	230.06
626.673	219.06
626.879	226.06
627.086	230.06
627.293	218.06
627.499	232.06
627.706	229.06
627.912	229.06
628.119	220.06
628.325	223.06
628.532	213.06
628.738	228.06
628.945	228.06
629.151	204.06
629.357	229.06
629.564	219.06
629.77	209.06
629.976	219.06
630.183	223.06
630.389	217.06
630.595	214.06
630.802	212.06
631.008	219.06
631.214	220.06
631.42	217.06
631.627	221.06
631.833	199.06
632.039	204.06
632.245	213.06
632.451	200.06
632.657	213.06
632.863	223.06
633.069	215.06
633.275	217.06
633.481	203.06
633.688	210.06
633.893	198.06
634.099	204.06
634.305	200.06
634.511	209.06
634.717	212.06
634.923	204.06
635.129	197.06
635.335	192.06
635.541	188.06
635.747	193.06
635.952	191.06
636.158	202.06
636.364	199.06
636.57	216.06
636.775	208.06
636.981	188.06
637.187	196.06
637.392	200.06
637.598	205.06
637.804	212.06
638.009	207.06
638.215	197.06
638.421	208.06
638.626	183.06
638.832	196.06
639.037	185.06
639.243	185.06
639.448	176.06
639.654	201.06
639.859	207.06
640.065	189.06
640.27	195.06
640.475	191.06
640.681	192.06
640.886	196.06
641.091	193.06
641.297	194.06
641.502	201.06
641.707	184.06
641.913	201.06
642.118	174.06
642.323	191.06
642.528	195.06
642.733	185.06
642.939	191.06
643.144	171.06
643.349	195.06
643.554	186.06
643.759	177.06
643.964	170.06
644.169	180.06
644.374	185.06
644.579	188.06
644.784	179.06
644.989	187.06
645.194	168.06
645.399	187.06
645.604	189.06
645.809	194.06
646.014	176.06
646.219	174.06
646.423	184.06
646.628	184.06
646.833	195.06
647.038	182.06
647.243	196.06
647.447	180.06
647.652	184.06
647.857	190.06
648.062	212.06
648.266	188.06
648.471	180.06
648.676	191.06
648.88	196.06
649.085	194.06
649.289	200.06
649.494	175.06
649.698	190.06
649.903	184.06
650.107	173.06
650.312	185.06
650.516	187.06
650.721	183.06
650.925	173.06
651.13	160.06
651.334	172.06
651.539	173.06
651.743	171.06
651.947	157.06
652.152	157.06
652.356	176.06
652.56	172.06
652.764	153.06
652.969	163.06
653.173	141.06
653.377	171.06
653.581	163.06
653.785	167.06
653.99	155.06
654.194	156.06
654.398	163.06
654.602	159.06
654.806	145.06
655.01	157.06
655.214	168.06
655.418	157.06
655.622	150.06
655.826	158.06
656.03	152.06
656.234	159.06
656.438	163.06
656.642	153.06
656.846	158.06
657.049	156.06
657.253	128.06
657.457	138.06
657.661	138.06
657.865	143.06
658.068	121.06
658.272	122.06
658.476	121.06
658.68	132.06
658.883	103.06
659.087	112.06
659.291	115.06
659.494	104.06
659.698	110.06
659.901	110.06
660.105	97.06
660.309	104.06
660.512	100.06
660.716	99.06
660.919	120.06
661.123	105.06
661.326	85.06
661.53	100.06
661.733	96.06
661.936	98.06
662.14	93.06
662.343	73.06
662.546	77.06
662.75	77.06
662.953	84.06
663.156	93.06
663.36	88.06
663.563	90.06
663.766	85.06
663.969	81.06
664.173	91.06
664.376	80.06
664.579	85.06
664.782	92.06
664.985	89.06
665.188	93.06
665.391	93.06
665.594	91.06
665.797	74.06
666	78.06
666.203	74.06
666.406	99.06
666.609	93.06
666.812	90.06
667.015	100.06
667.218	91.06
667.421	91.06
667.624	95.06
667.827	92.06
668.03	83.06
668.232	93.06
668.435	75.06
668.638	86.06
668.841	92.06
669.043	84.06
669.246	90.06
669.449	83.06
669.651	92.06
669.854	95.06
670.057	80.06
670.259	96.06
670.462	87.06
670.665	80.06
670.867	99.06
671.07	80.06
671.272	84.06
671.475	89.06
671.677	89.06
671.88	79.06
672.082	70.06
672.284	82.06
672.487	84.06
672.689	72.06
672.892	91.06
