Data from 1974.PennyLincolnUp.Lamp.En5.5.200Scan.071719.P1.Changed Mount._HRD10591_15-53-42-857.txt Node
Date: Thu Jul 18 15:53:42 EDT 2019
User: cochatt
Spectrometer: HR+D1059
Trigger mode: 1
Integration Time (sec): 1.000000E-1
Scans to average: 1
Electric dark correction enabled: true
Nonlinearity correction enabled: false
Boxcar width: 0
XAxis mode: Wavelengths
Number of Pixels in Spectrum: 2048
>>>>>Begin Spectral Data<<<<<
223.165	-23.19
223.4	-23.19
223.635	-23.19
223.869	-11.19
224.104	-22.19
224.338	-10.19
224.573	-14.19
224.808	-11.19
225.042	-0.19
225.277	6.81
225.511	3.81
225.746	-2.19
225.98	-10.19
226.215	-2.19
226.449	22.81
226.683	19.81
226.918	29.81
227.152	23.81
227.387	40.81
227.621	33.81
227.856	36.81
228.09	32.81
228.324	33.81
228.559	37.81
228.793	67.81
229.027	89.81
229.262	121.81
229.496	109.81
229.73	139.81
229.964	165.81
230.199	123.81
230.433	98.81
230.667	128.81
230.901	117.81
231.136	102.81
231.37	116.81
231.604	116.81
231.838	124.81
232.072	116.81
232.306	104.81
232.541	122.81
232.775	125.81
233.009	117.81
233.243	116.81
233.477	118.81
233.711	120.81
233.945	124.81
234.179	122.81
234.413	120.81
234.647	124.81
234.881	122.81
235.115	124.81
235.349	128.81
235.583	132.81
235.817	140.81
236.051	120.81
236.285	134.81
236.519	133.81
236.753	130.81
236.987	139.81
237.221	181.81
237.455	240.81
237.689	180.81
237.922	156.81
238.156	118.81
238.39	135.81
238.624	130.81
238.858	126.81
239.091	131.81
239.325	132.81
239.559	128.81
239.793	146.81
240.027	149.81
240.26	162.81
240.494	144.81
240.728	148.81
240.961	159.81
241.195	154.81
241.429	159.81
241.662	136.81
241.896	138.81
242.13	140.81
242.363	152.81
242.597	139.81
242.83	143.81
243.064	139.81
243.298	148.81
243.531	160.81
243.765	148.81
243.998	142.81
244.232	148.81
244.465	154.81
244.699	159.81
244.932	152.81
245.166	144.81
245.399	153.81
245.633	168.81
245.866	160.81
246.099	164.81
246.333	150.81
246.566	164.81
246.8	161.81
247.033	157.81
247.266	164.81
247.5	168.81
247.733	176.81
247.966	189.81
248.2	174.81
248.433	165.81
248.666	186.81
248.899	199.81
249.133	217.81
249.366	208.81
249.599	212.81
249.832	198.81
250.066	186.81
250.299	198.81
250.532	190.81
250.765	205.81
250.998	231.81
251.231	240.81
251.465	237.81
251.698	225.81
251.931	205.81
252.164	207.81
252.397	216.81
252.63	225.81
252.863	227.81
253.096	225.81
253.329	235.81
253.562	237.81
253.795	235.81
254.028	242.81
254.261	223.81
254.494	243.81
254.727	264.81
254.96	291.81
255.193	286.81
255.426	263.81
255.659	252.81
255.892	249.81
256.124	246.81
256.357	232.81
256.59	220.81
256.823	234.81
257.056	226.81
257.289	240.81
257.521	235.81
257.754	211.81
257.987	232.81
258.22	210.81
258.452	219.81
258.685	220.81
258.918	225.81
259.151	220.81
259.383	240.81
259.616	237.81
259.849	250.81
260.081	259.81
260.314	270.81
260.547	270.81
260.779	254.81
261.012	261.81
261.244	258.81
261.477	238.81
261.71	233.81
261.942	229.81
262.175	250.81
262.407	244.81
262.64	235.81
262.872	231.81
263.105	229.81
263.337	210.81
263.57	230.81
263.802	230.81
264.035	244.81
264.267	229.81
264.499	218.81
264.732	222.81
264.964	228.81
265.197	206.81
265.429	217.81
265.661	231.81
265.894	230.81
266.126	227.81
266.358	244.81
266.591	254.81
266.823	248.81
267.055	237.81
267.287	256.81
267.52	254.81
267.752	232.81
267.984	250.81
268.216	250.81
268.448	260.81
268.681	278.81
268.913	256.81
269.145	273.81
269.377	293.81
269.609	306.81
269.841	288.81
270.073	280.81
270.306	301.81
270.538	337.81
270.77	335.81
271.002	327.81
271.234	302.81
271.466	322.81
271.698	339.81
271.93	342.81
272.162	334.81
272.394	353.81
272.626	320.81
272.858	304.81
273.09	311.81
273.322	286.81
273.553	278.81
273.785	277.81
274.017	284.81
274.249	290.81
274.481	286.81
274.713	296.81
274.945	289.81
275.176	277.81
275.408	289.81
275.64	282.81
275.872	279.81
276.104	297.81
276.335	311.81
276.567	301.81
276.799	310.81
277.031	336.81
277.262	343.81
277.494	349.81
277.726	333.81
277.957	321.81
278.189	317.81
278.421	306.81
278.652	307.81
278.884	288.81
279.115	281.81
279.347	285.81
279.579	279.81
279.81	281.81
280.042	299.81
280.273	294.81
280.505	293.81
280.736	301.81
280.968	300.81
281.199	304.81
281.431	300.81
281.662	304.81
281.894	289.81
282.125	315.81
282.356	308.81
282.588	331.81
282.819	324.81
283.051	314.81
283.282	299.81
283.513	298.81
283.745	313.81
283.976	292.81
284.207	306.81
284.439	280.81
284.67	306.81
284.901	308.81
285.132	304.81
285.364	321.81
285.595	308.81
285.826	299.81
286.057	311.81
286.288	311.81
286.52	314.81
286.751	305.81
286.982	318.81
287.213	293.81
287.444	309.81
287.675	304.81
287.906	331.81
288.138	340.81
288.369	325.81
288.6	324.81
288.831	327.81
289.062	335.81
289.293	315.81
289.524	332.81
289.755	315.81
289.986	325.81
290.217	303.81
290.448	325.81
290.679	330.81
290.91	314.81
291.141	309.81
291.371	310.81
291.602	315.81
291.833	342.81
292.064	314.81
292.295	321.81
292.526	328.81
292.757	331.81
292.987	331.81
293.218	324.81
293.449	349.81
293.68	312.81
293.91	315.81
294.141	324.81
294.372	325.81
294.603	325.81
294.833	325.81
295.064	306.81
295.295	334.81
295.525	338.81
295.756	355.81
295.987	349.81
296.217	356.81
296.448	339.81
296.679	320.81
296.909	326.81
297.14	340.81
297.37	331.81
297.601	340.81
297.831	333.81
298.062	329.81
298.292	344.81
298.523	337.81
298.753	341.81
298.984	324.81
299.214	342.81
299.445	334.81
299.675	356.81
299.905	333.81
300.136	344.81
300.366	352.81
300.597	335.81
300.827	354.81
301.057	345.81
301.288	352.81
301.518	370.81
301.748	364.81
301.979	352.81
302.209	354.81
302.439	382.81
302.669	356.81
302.9	377.81
303.13	361.81
303.36	370.81
303.59	375.81
303.82	366.81
304.051	386.81
304.281	346.81
304.511	346.81
304.741	340.81
304.971	362.81
305.201	370.81
305.431	372.81
305.661	384.81
305.891	356.81
306.121	376.81
306.352	368.81
306.582	357.81
306.812	373.81
307.042	357.81
307.272	365.81
307.502	359.81
307.731	364.81
307.961	366.81
308.191	354.81
308.421	355.81
308.651	381.81
308.881	365.81
309.111	372.81
309.341	375.81
309.571	389.81
309.8	379.81
310.03	377.81
310.26	379.81
310.49	395.81
310.72	408.81
310.949	412.81
311.179	444.81
311.409	419.81
311.639	405.81
311.868	398.81
312.098	406.81
312.328	410.81
312.557	413.81
312.787	449.81
313.017	450.81
313.246	415.81
313.476	414.81
313.706	406.81
313.935	390.81
314.165	421.81
314.394	435.81
314.624	432.81
314.853	410.81
315.083	415.81
315.312	413.81
315.542	396.81
315.771	402.81
316.001	413.81
316.23	406.81
316.46	398.81
316.689	405.81
316.919	391.81
317.148	432.81
317.377	432.81
317.607	427.81
317.836	404.81
318.065	423.81
318.295	419.81
318.524	415.81
318.753	416.81
318.983	420.81
319.212	403.81
319.441	416.81
319.67	404.81
319.9	429.81
320.129	409.81
320.358	420.81
320.587	422.81
320.816	411.81
321.046	411.81
321.275	414.81
321.504	425.81
321.733	430.81
321.962	442.81
322.191	450.81
322.42	448.81
322.649	457.81
322.878	477.81
323.108	471.81
323.337	482.81
323.566	489.81
323.795	526.81
324.024	547.81
324.253	646.81
324.482	872.81
324.71	1334.81
324.939	1971.81
325.168	1712.81
325.397	885.81
325.626	617.81
325.855	552.81
326.084	521.81
326.313	497.81
326.542	508.81
326.77	550.81
326.999	607.81
327.228	832.81
327.457	1207.81
327.686	1509.81
327.914	997.81
328.143	663.81
328.372	594.81
328.6	569.81
328.829	568.81
329.058	578.81
329.287	583.81
329.515	543.81
329.744	542.81
329.972	548.81
330.201	531.81
330.43	579.81
330.658	612.81
330.887	633.81
331.115	576.81
331.344	536.81
331.572	513.81
331.801	545.81
332.03	540.81
332.258	506.81
332.486	503.81
332.715	490.81
332.943	479.81
333.172	501.81
333.4	501.81
333.629	501.81
333.857	541.81
334.085	534.81
334.314	540.81
334.542	578.81
334.771	590.81
334.999	550.81
335.227	537.81
335.455	496.81
335.684	512.81
335.912	503.81
336.14	506.81
336.369	493.81
336.597	491.81
336.825	521.81
337.053	500.81
337.281	492.81
337.51	488.81
337.738	492.81
337.966	453.81
338.194	498.81
338.422	476.81
338.65	470.81
338.878	479.81
339.106	484.81
339.334	486.81
339.562	457.81
339.79	458.81
340.018	490.81
340.246	501.81
340.474	482.81
340.702	473.81
340.93	460.81
341.158	468.81
341.386	471.81
341.614	474.81
341.842	478.81
342.07	481.81
342.298	468.81
342.526	463.81
342.754	441.81
342.981	443.81
343.209	458.81
343.437	459.81
343.665	481.81
343.893	492.81
344.12	503.81
344.348	498.81
344.576	500.81
344.804	499.81
345.031	473.81
345.259	498.81
345.487	482.81
345.714	477.81
345.942	464.81
346.17	453.81
346.397	446.81
346.625	453.81
346.853	452.81
347.08	465.81
347.308	466.81
347.535	480.81
347.763	475.81
347.99	473.81
348.218	493.81
348.445	461.81
348.673	492.81
348.9	455.81
349.128	439.81
349.355	446.81
349.583	439.81
349.81	430.81
350.037	446.81
350.265	442.81
350.492	420.81
350.72	442.81
350.947	442.81
351.174	469.81
351.402	464.81
351.629	466.81
351.856	455.81
352.083	466.81
352.311	467.81
352.538	474.81
352.765	475.81
352.992	463.81
353.22	466.81
353.447	457.81
353.674	444.81
353.901	434.81
354.128	446.81
354.355	438.81
354.583	463.81
354.81	472.81
355.037	434.81
355.264	424.81
355.491	422.81
355.718	444.81
355.945	437.81
356.172	450.81
356.399	436.81
356.626	456.81
356.853	418.81
357.08	435.81
357.307	424.81
357.534	432.81
357.761	448.81
357.988	443.81
358.215	444.81
358.441	431.81
358.668	427.81
358.895	440.81
359.122	439.81
359.349	436.81
359.576	446.81
359.802	451.81
360.029	491.81
360.256	517.81
360.483	492.81
360.709	462.81
360.936	456.81
361.163	456.81
361.39	462.81
361.616	473.81
361.843	473.81
362.07	467.81
362.296	462.81
362.523	450.81
362.749	456.81
362.976	456.81
363.203	463.81
363.429	443.81
363.656	442.81
363.882	450.81
364.109	457.81
364.335	418.81
364.562	452.81
364.788	448.81
365.015	430.81
365.241	446.81
365.468	454.81
365.694	454.81
365.92	453.81
366.147	456.81
366.373	440.81
366.599	421.81
366.826	408.81
367.052	452.81
367.278	455.81
367.505	458.81
367.731	467.81
367.957	464.81
368.184	444.81
368.41	460.81
368.636	452.81
368.862	450.81
369.089	455.81
369.315	453.81
369.541	465.81
369.767	437.81
369.993	453.81
370.219	444.81
370.445	448.81
370.672	461.81
370.898	461.81
371.124	446.81
371.35	466.81
371.576	456.81
371.802	471.81
372.028	464.81
372.254	448.81
372.48	470.81
372.706	452.81
372.932	461.81
373.158	479.81
373.384	461.81
373.61	472.81
373.835	477.81
374.061	447.81
374.287	478.81
374.513	454.81
374.739	475.81
374.965	478.81
375.191	484.81
375.416	472.81
375.642	458.81
375.868	477.81
376.094	444.81
376.319	479.81
376.545	460.81
376.771	459.81
376.997	453.81
377.222	465.81
377.448	453.81
377.674	465.81
377.899	450.81
378.125	446.81
378.35	448.81
378.576	463.81
378.802	438.81
379.027	454.81
379.253	454.81
379.478	451.81
379.704	466.81
379.929	453.81
380.155	446.81
380.38	463.81
380.606	468.81
380.831	456.81
381.057	470.81
381.282	443.81
381.507	436.81
381.733	452.81
381.958	482.81
382.184	462.81
382.409	449.81
382.634	474.81
382.86	472.81
383.085	464.81
383.31	475.81
383.535	450.81
383.761	470.81
383.986	478.81
384.211	475.81
384.436	493.81
384.662	510.81
384.887	512.81
385.112	491.81
385.337	506.81
385.562	503.81
385.787	506.81
386.013	516.81
386.238	524.81
386.463	515.81
386.688	520.81
386.913	526.81
387.138	486.81
387.363	514.81
387.588	506.81
387.813	518.81
388.038	526.81
388.263	512.81
388.488	525.81
388.713	523.81
388.938	520.81
389.163	527.81
389.387	533.81
389.612	504.81
389.837	530.81
390.062	505.81
390.287	500.81
390.512	506.81
390.736	501.81
390.961	498.81
391.186	506.81
391.411	523.81
391.636	532.81
391.86	568.81
392.085	519.81
392.31	534.81
392.534	539.81
392.759	545.81
392.984	513.81
393.208	519.81
393.433	529.81
393.658	520.81
393.882	521.81
394.107	536.81
394.331	523.81
394.556	504.81
394.78	528.81
395.005	522.81
395.229	527.81
395.454	553.81
395.678	545.81
395.903	564.81
396.127	566.81
396.352	573.81
396.576	525.81
396.801	533.81
397.025	534.81
397.249	555.81
397.474	573.81
397.698	533.81
397.922	561.81
398.147	557.81
398.371	594.81
398.595	597.81
398.82	580.81
399.044	608.81
399.268	638.81
399.492	685.81
399.717	712.81
399.941	772.81
400.165	760.81
400.389	739.81
400.613	686.81
400.837	650.81
401.062	606.81
401.286	608.81
401.51	596.81
401.734	584.81
401.958	592.81
402.182	635.81
402.406	618.81
402.63	612.81
402.854	620.81
403.078	601.81
403.302	637.81
403.526	633.81
403.75	630.81
403.974	645.81
404.198	626.81
404.422	629.81
404.645	646.81
404.869	661.81
405.093	684.81
405.317	701.81
405.541	748.81
405.765	716.81
405.988	664.81
406.212	652.81
406.436	698.81
406.66	679.81
406.883	708.81
407.107	722.81
407.331	742.81
407.555	808.81
407.778	825.81
408.002	767.81
408.226	709.81
408.449	712.81
408.673	688.81
408.896	726.81
409.12	756.81
409.344	710.81
409.567	659.81
409.791	630.81
410.014	629.81
410.238	630.81
410.461	620.81
410.685	614.81
410.908	631.81
411.132	676.81
411.355	719.81
411.578	677.81
411.802	645.81
412.025	641.81
412.249	628.81
412.472	628.81
412.695	684.81
412.919	693.81
413.142	643.81
413.365	606.81
413.589	638.81
413.812	586.81
414.035	606.81
414.258	610.81
414.482	587.81
414.705	591.81
414.928	585.81
415.151	576.81
415.374	598.81
415.597	578.81
415.821	571.81
416.044	598.81
416.267	587.81
416.49	580.81
416.713	588.81
416.936	593.81
417.159	586.81
417.382	609.81
417.605	576.81
417.828	594.81
418.051	616.81
418.274	603.81
418.497	588.81
418.72	599.81
418.943	619.81
419.166	626.81
419.389	636.81
419.611	650.81
419.834	620.81
420.057	627.81
420.28	631.81
420.503	620.81
420.726	638.81
420.948	608.81
421.171	666.81
421.394	698.81
421.617	619.81
421.839	606.81
422.062	627.81
422.285	622.81
422.507	672.81
422.73	776.81
422.953	726.81
423.175	672.81
423.398	656.81
423.621	638.81
423.843	681.81
424.066	668.81
424.288	653.81
424.511	673.81
424.733	753.81
424.956	828.81
425.178	780.81
425.401	758.81
425.623	809.81
425.846	699.81
426.068	663.81
426.291	647.81
426.513	640.81
426.735	656.81
426.958	694.81
427.18	790.81
427.402	927.81
427.625	992.81
427.847	845.81
428.069	776.81
428.292	696.81
428.514	626.81
428.736	612.81
428.958	627.81
429.181	594.81
429.403	596.81
429.625	614.81
429.847	621.81
430.069	697.81
430.292	694.81
430.514	652.81
430.736	600.81
430.958	594.81
431.18	563.81
431.402	571.81
431.624	564.81
431.846	578.81
432.068	578.81
432.29	579.81
432.512	576.81
432.734	589.81
432.956	586.81
433.178	589.81
433.4	583.81
433.622	601.81
433.844	598.81
434.066	560.81
434.287	588.81
434.509	575.81
434.731	614.81
434.953	624.81
435.175	625.81
435.397	644.81
435.618	665.81
435.84	685.81
436.062	796.81
436.284	850.81
436.505	733.81
436.727	655.81
436.949	595.81
437.17	618.81
437.392	597.81
437.614	592.81
437.835	644.81
438.057	729.81
438.278	826.81
438.5	851.81
438.721	909.81
438.943	898.81
439.165	723.81
439.386	674.81
439.608	653.81
439.829	657.81
440.05	671.81
440.272	688.81
440.493	688.81
440.715	637.81
440.936	637.81
441.158	619.81
441.379	626.81
441.6	645.81
441.822	643.81
442.043	685.81
442.264	794.81
442.486	828.81
442.707	713.81
442.928	681.81
443.149	700.81
443.371	684.81
443.592	716.81
443.813	877.81
444.034	944.81
444.255	758.81
444.476	713.81
444.698	700.81
444.919	709.81
445.14	761.81
445.361	720.81
445.582	710.81
445.803	748.81
446.024	875.81
446.245	894.81
446.466	810.81
446.687	681.81
446.908	666.81
447.129	608.81
447.35	603.81
447.571	595.81
447.792	580.81
448.013	604.81
448.234	606.81
448.455	690.81
448.675	778.81
448.896	921.81
449.117	786.81
449.338	726.81
449.559	811.81
449.779	956.81
450	745.81
450.221	653.81
450.442	599.81
450.662	565.81
450.883	603.81
451.104	614.81
451.324	579.81
451.545	543.81
451.766	546.81
451.986	551.81
452.207	540.81
452.428	559.81
452.648	526.81
452.869	540.81
453.089	541.81
453.31	554.81
453.53	557.81
453.751	539.81
453.971	533.81
454.192	538.81
454.412	517.81
454.633	531.81
454.853	512.81
455.073	506.81
455.294	554.81
455.514	617.81
455.734	633.81
455.955	532.81
456.175	493.81
456.395	532.81
456.616	491.81
456.836	496.81
457.056	515.81
457.276	485.81
457.497	505.81
457.717	489.81
457.937	510.81
458.157	520.81
458.377	522.81
458.598	525.81
458.818	590.81
459.038	682.81
459.258	667.81
459.478	584.81
459.698	579.81
459.918	600.81
460.138	589.81
460.358	586.81
460.578	632.81
460.798	633.81
461.018	603.81
461.238	608.81
461.458	550.81
461.678	593.81
461.898	586.81
462.118	594.81
462.338	620.81
462.558	646.81
462.777	659.81
462.997	654.81
463.217	683.81
463.437	695.81
463.657	662.81
463.876	644.81
464.096	678.81
464.316	648.81
464.536	644.81
464.755	647.81
464.975	657.81
465.195	635.81
465.414	714.81
465.634	660.81
465.854	595.81
466.073	600.81
466.293	578.81
466.512	551.81
466.732	555.81
466.951	553.81
467.171	558.81
467.391	536.81
467.61	546.81
467.829	580.81
468.049	578.81
468.268	561.81
468.488	537.81
468.707	528.81
468.927	540.81
469.146	542.81
469.365	548.81
469.585	549.81
469.804	552.81
470.023	579.81
470.243	576.81
470.462	545.81
470.681	562.81
470.901	589.81
471.12	555.81
471.339	566.81
471.558	572.81
471.777	554.81
471.997	572.81
472.216	574.81
472.435	598.81
472.654	564.81
472.873	556.81
473.092	545.81
473.311	548.81
473.53	545.81
473.749	555.81
473.968	605.81
474.187	701.81
474.406	729.81
474.625	610.81
474.844	580.81
475.063	549.81
475.282	567.81
475.501	560.81
475.72	572.81
475.939	553.81
476.158	560.81
476.377	573.81
476.596	561.81
476.814	577.81
477.033	574.81
477.252	583.81
477.471	586.81
477.69	600.81
477.908	622.81
478.127	609.81
478.346	619.81
478.564	647.81
478.783	645.81
479.002	638.81
479.22	655.81
479.439	672.81
479.658	663.81
479.876	661.81
480.095	672.81
480.313	704.81
480.532	696.81
480.751	677.81
480.969	690.81
481.188	733.81
481.406	761.81
481.624	712.81
481.843	675.81
482.061	652.81
482.28	675.81
482.498	663.81
482.717	658.81
482.935	674.81
483.153	650.81
483.372	665.81
483.59	653.81
483.808	674.81
484.027	648.81
484.245	680.81
484.463	645.81
484.681	637.81
484.9	679.81
485.118	647.81
485.336	687.81
485.554	662.81
485.772	645.81
485.99	702.81
486.209	682.81
486.427	693.81
486.645	688.81
486.863	684.81
487.081	694.81
487.299	709.81
487.517	704.81
487.735	684.81
487.953	684.81
488.171	699.81
488.389	675.81
488.607	718.81
488.825	721.81
489.043	711.81
489.261	703.81
489.479	701.81
489.696	726.81
489.914	724.81
490.132	718.81
490.35	758.81
490.568	741.81
490.786	748.81
491.003	758.81
491.221	757.81
491.439	785.81
491.657	779.81
491.874	794.81
492.092	806.81
492.31	816.81
492.527	840.81
492.745	829.81
492.963	813.81
493.18	838.81
493.398	844.81
493.615	838.81
493.833	843.81
494.05	860.81
494.268	838.81
494.485	846.81
494.703	850.81
494.92	838.81
495.138	848.81
495.355	844.81
495.573	838.81
495.79	871.81
496.008	858.81
496.225	852.81
496.442	831.81
496.66	842.81
496.877	846.81
497.094	834.81
497.312	867.81
497.529	897.81
497.746	883.81
497.963	896.81
498.181	912.81
498.398	944.81
498.615	941.81
498.832	974.81
499.049	997.81
499.267	1017.81
499.484	1046.81
499.701	1125.81
499.918	1163.81
500.135	1230.81
500.352	1294.81
500.569	1318.81
500.786	1333.81
501.003	1283.81
501.22	1277.81
501.437	1201.81
501.654	1118.81
501.871	1105.81
502.088	1069.81
502.305	996.81
502.522	952.81
502.739	977.81
502.956	942.81
503.172	917.81
503.389	883.81
503.606	888.81
503.823	889.81
504.04	866.81
504.256	854.81
504.473	855.81
504.69	840.81
504.907	836.81
505.123	831.81
505.34	808.81
505.557	805.81
505.773	785.81
505.99	802.81
506.207	798.81
506.423	771.81
506.64	788.81
506.856	784.81
507.073	761.81
507.289	752.81
507.506	774.81
507.722	789.81
507.939	782.81
508.155	737.81
508.372	749.81
508.588	745.81
508.805	753.81
509.021	726.81
509.238	747.81
509.454	759.81
509.67	746.81
509.887	732.81
510.103	724.81
510.319	721.81
510.536	811.81
510.752	1172.81
510.968	1019.81
511.184	726.81
511.401	729.81
511.617	690.81
511.833	697.81
512.049	682.81
512.265	681.81
512.481	725.81
512.698	716.81
512.914	690.81
513.13	694.81
513.346	695.81
513.562	670.81
513.778	684.81
513.994	697.81
514.21	686.81
514.426	710.81
514.642	737.81
514.858	753.81
515.074	796.81
515.29	892.81
515.506	1174.81
515.721	1017.81
515.937	807.81
516.153	766.81
516.369	749.81
516.585	749.81
516.801	741.81
517.016	731.81
517.232	728.81
517.448	748.81
517.664	732.81
517.879	780.81
518.095	731.81
518.311	736.81
518.527	776.81
518.742	708.81
518.958	727.81
519.173	715.81
519.389	686.81
519.605	688.81
519.82	662.81
520.036	709.81
520.251	710.81
520.467	745.81
520.682	730.81
520.898	737.81
521.113	725.81
521.329	756.81
521.544	801.81
521.76	971.81
521.975	1444.81
522.19	1440.81
522.406	880.81
522.621	721.81
522.836	694.81
523.052	673.81
523.267	672.81
523.482	659.81
523.698	645.81
523.913	635.81
524.128	617.81
524.343	600.81
524.559	603.81
524.774	617.81
524.989	612.81
525.204	597.81
525.419	608.81
525.634	596.81
525.849	584.81
526.064	594.81
526.28	594.81
526.495	562.81
526.71	571.81
526.925	576.81
527.14	554.81
527.355	555.81
527.57	575.81
527.785	587.81
527.999	553.81
528.214	559.81
528.429	545.81
528.644	588.81
528.859	593.81
529.074	603.81
529.289	591.81
529.503	659.81
529.718	622.81
529.933	609.81
530.148	560.81
530.363	583.81
530.577	546.81
530.792	574.81
531.007	528.81
531.221	562.81
531.436	564.81
531.651	554.81
531.865	554.81
532.08	574.81
532.295	561.81
532.509	537.81
532.724	535.81
532.938	537.81
533.153	541.81
533.367	537.81
533.582	559.81
533.796	568.81
534.011	553.81
534.225	546.81
534.44	534.81
534.654	561.81
534.868	542.81
535.083	558.81
535.297	550.81
535.511	562.81
535.726	551.81
535.94	578.81
536.154	555.81
536.369	547.81
536.583	544.81
536.797	550.81
537.011	538.81
537.225	555.81
537.44	527.81
537.654	550.81
537.868	522.81
538.082	533.81
538.296	536.81
538.51	530.81
538.724	542.81
538.938	533.81
539.153	544.81
539.367	530.81
539.581	540.81
539.795	519.81
540.009	491.81
540.222	526.81
540.436	545.81
540.65	535.81
540.864	524.81
541.078	542.81
541.292	543.81
541.506	520.81
541.72	535.81
541.934	536.81
542.147	532.81
542.361	542.81
542.575	521.81
542.789	546.81
543.002	541.81
543.216	536.81
543.43	531.81
543.644	515.81
543.857	504.81
544.071	520.81
544.285	541.81
544.498	517.81
544.712	539.81
544.925	538.81
545.139	517.81
545.352	525.81
545.566	513.81
545.779	509.81
545.993	532.81
546.206	538.81
546.42	548.81
546.633	508.81
546.847	517.81
547.06	499.81
547.274	523.81
547.487	508.81
547.7	531.81
547.914	521.81
548.127	515.81
548.34	522.81
548.554	523.81
548.767	519.81
548.98	502.81
549.193	539.81
549.407	541.81
549.62	523.81
549.833	538.81
550.046	530.81
550.259	539.81
550.473	516.81
550.686	508.81
550.899	517.81
551.112	538.81
551.325	504.81
551.538	509.81
551.751	482.81
551.964	517.81
552.177	509.81
552.39	509.81
552.603	507.81
552.816	541.81
553.029	527.81
553.242	528.81
553.455	529.81
553.667	562.81
553.88	554.81
554.093	528.81
554.306	536.81
554.519	522.81
554.732	517.81
554.944	494.81
555.157	496.81
555.37	471.81
555.583	504.81
555.795	485.81
556.008	472.81
556.221	463.81
556.433	476.81
556.646	452.81
556.859	490.81
557.071	458.81
557.284	461.81
557.496	465.81
557.709	458.81
557.921	464.81
558.134	472.81
558.346	459.81
558.559	468.81
558.771	454.81
558.984	465.81
559.196	466.81
559.409	457.81
559.621	447.81
559.833	451.81
560.046	455.81
560.258	459.81
560.47	444.81
560.683	447.81
560.895	435.81
561.107	457.81
561.32	462.81
561.532	447.81
561.744	442.81
561.956	449.81
562.168	458.81
562.381	454.81
562.593	456.81
562.805	452.81
563.017	448.81
563.229	455.81
563.441	453.81
563.653	470.81
563.865	469.81
564.077	433.81
564.289	453.81
564.501	474.81
564.713	470.81
564.925	481.81
565.137	520.81
565.349	510.81
565.561	492.81
565.773	490.81
565.985	506.81
566.197	544.81
566.408	561.81
566.62	576.81
566.832	569.81
567.044	581.81
567.255	583.81
567.467	625.81
567.679	614.81
567.891	631.81
568.102	629.81
568.314	603.81
568.526	594.81
568.737	556.81
568.949	528.81
569.161	524.81
569.372	486.81
569.584	485.81
569.795	489.81
570.007	456.81
570.218	483.81
570.43	470.81
570.641	470.81
570.853	463.81
571.064	451.81
571.276	450.81
571.487	453.81
571.698	448.81
571.91	437.81
572.121	421.81
572.333	432.81
572.544	418.81
572.755	424.81
572.966	410.81
573.178	420.81
573.389	398.81
573.6	416.81
573.811	388.81
574.023	401.81
574.234	397.81
574.445	386.81
574.656	389.81
574.867	393.81
575.078	386.81
575.289	380.81
575.501	409.81
575.712	405.81
575.923	388.81
576.134	397.81
576.345	376.81
576.556	372.81
576.767	370.81
576.978	385.81
577.188	390.81
577.399	388.81
577.61	362.81
577.821	373.81
578.032	371.81
578.243	396.81
578.454	568.81
578.665	459.81
578.875	394.81
579.086	359.81
579.297	358.81
579.508	362.81
579.718	359.81
579.929	347.81
580.14	351.81
580.35	353.81
580.561	346.81
580.772	347.81
580.982	358.81
581.193	354.81
581.403	360.81
581.614	344.81
581.825	342.81
582.035	349.81
582.246	334.81
582.456	341.81
582.667	374.81
582.877	330.81
583.087	336.81
583.298	346.81
583.508	338.81
583.719	347.81
583.929	332.81
584.139	336.81
584.35	345.81
584.56	338.81
584.77	325.81
584.981	347.81
585.191	354.81
585.401	344.81
585.611	346.81
585.821	314.81
586.032	322.81
586.242	329.81
586.452	322.81
586.662	344.81
586.872	346.81
587.082	338.81
587.292	322.81
587.502	343.81
587.713	333.81
587.923	334.81
588.133	323.81
588.343	340.81
588.553	340.81
588.762	342.81
588.972	323.81
589.182	341.81
589.392	334.81
589.602	328.81
589.812	339.81
590.022	329.81
590.232	335.81
590.441	346.81
590.651	345.81
590.861	340.81
591.071	334.81
591.281	335.81
591.49	327.81
591.7	347.81
591.91	348.81
592.119	353.81
592.329	340.81
592.539	353.81
592.748	331.81
592.958	370.81
593.167	362.81
593.377	368.81
593.587	374.81
593.796	373.81
594.006	371.81
594.215	378.81
594.424	366.81
594.634	364.81
594.843	374.81
595.053	348.81
595.262	352.81
595.472	356.81
595.681	332.81
595.89	334.81
596.1	323.81
596.309	323.81
596.518	320.81
596.727	336.81
596.937	330.81
597.146	326.81
597.355	323.81
597.564	296.81
597.774	304.81
597.983	287.81
598.192	318.81
598.401	319.81
598.61	306.81
598.819	312.81
599.028	298.81
599.237	308.81
599.446	315.81
599.655	308.81
599.864	302.81
600.073	291.81
600.282	306.81
600.491	299.81
600.7	304.81
600.909	299.81
601.118	303.81
601.327	298.81
601.536	281.81
601.745	310.81
601.953	297.81
602.162	281.81
602.371	308.81
602.58	294.81
602.789	311.81
602.997	286.81
603.206	284.81
603.415	289.81
603.623	290.81
603.832	283.81
604.041	296.81
604.249	288.81
604.458	281.81
604.666	260.81
604.875	260.81
605.084	276.81
605.292	267.81
605.501	290.81
605.709	273.81
605.918	284.81
606.126	285.81
606.334	277.81
606.543	285.81
606.751	273.81
606.96	265.81
607.168	284.81
607.376	288.81
607.585	281.81
607.793	270.81
608.001	274.81
608.21	276.81
608.418	286.81
608.626	256.81
608.834	282.81
609.043	278.81
609.251	280.81
609.459	275.81
609.667	306.81
609.875	284.81
610.083	278.81
610.291	278.81
610.499	269.81
610.707	261.81
610.916	278.81
611.124	275.81
611.332	301.81
611.54	288.81
611.748	284.81
611.955	276.81
612.163	285.81
612.371	291.81
612.579	260.81
612.787	270.81
612.995	277.81
613.203	284.81
613.411	268.81
613.618	271.81
613.826	274.81
614.034	284.81
614.242	247.81
614.449	270.81
614.657	259.81
614.865	269.81
615.072	273.81
615.28	258.81
615.488	271.81
615.695	286.81
615.903	258.81
616.111	274.81
616.318	290.81
616.526	285.81
616.733	277.81
616.941	268.81
617.148	265.81
617.356	266.81
617.563	263.81
617.771	250.81
617.978	271.81
618.185	268.81
618.393	262.81
618.6	257.81
618.807	273.81
619.015	264.81
619.222	290.81
619.429	264.81
619.637	270.81
619.844	264.81
620.051	270.81
620.258	245.81
620.466	265.81
620.673	236.81
620.88	249.81
621.087	257.81
621.294	260.81
621.501	223.81
621.708	232.81
621.915	250.81
622.122	263.81
622.329	260.81
622.536	244.81
622.743	245.81
622.95	252.81
623.157	227.81
623.364	237.81
623.571	253.81
623.778	259.81
623.985	259.81
624.192	247.81
624.399	237.81
624.606	252.81
624.812	244.81
625.019	247.81
625.226	240.81
625.433	256.81
625.639	230.81
625.846	237.81
626.053	244.81
626.259	241.81
626.466	236.81
626.673	241.81
626.879	243.81
627.086	232.81
627.293	234.81
627.499	240.81
627.706	242.81
627.912	244.81
628.119	226.81
628.325	226.81
628.532	233.81
628.738	215.81
628.945	237.81
629.151	240.81
629.357	224.81
629.564	209.81
629.77	214.81
629.976	227.81
630.183	220.81
630.389	229.81
630.595	216.81
630.802	216.81
631.008	198.81
631.214	227.81
631.42	212.81
631.627	222.81
631.833	221.81
632.039	201.81
632.245	213.81
632.451	205.81
632.657	228.81
632.863	213.81
633.069	203.81
633.275	206.81
633.481	208.81
633.688	220.81
633.893	212.81
634.099	197.81
634.305	215.81
634.511	205.81
634.717	205.81
634.923	219.81
635.129	206.81
635.335	198.81
635.541	199.81
635.747	204.81
635.952	206.81
636.158	202.81
636.364	216.81
636.57	217.81
636.775	213.81
636.981	200.81
637.187	197.81
637.392	192.81
637.598	202.81
637.804	193.81
638.009	191.81
638.215	213.81
638.421	191.81
638.626	187.81
638.832	205.81
639.037	206.81
639.243	211.81
639.448	200.81
639.654	187.81
639.859	197.81
640.065	201.81
640.27	193.81
640.475	191.81
640.681	204.81
640.886	203.81
641.091	190.81
641.297	188.81
641.502	185.81
641.707	181.81
641.913	195.81
642.118	192.81
642.323	190.81
642.528	194.81
642.733	195.81
642.939	181.81
643.144	189.81
643.349	185.81
643.554	189.81
643.759	193.81
643.964	184.81
644.169	189.81
644.374	179.81
644.579	195.81
644.784	165.81
644.989	162.81
645.194	182.81
645.399	174.81
645.604	194.81
645.809	192.81
646.014	189.81
646.219	190.81
646.423	172.81
646.628	194.81
646.833	188.81
647.038	175.81
647.243	174.81
647.447	197.81
647.652	188.81
647.857	190.81
648.062	192.81
648.266	193.81
648.471	209.81
648.676	188.81
648.88	191.81
649.085	190.81
649.289	176.81
649.494	167.81
649.698	214.81
649.903	189.81
650.107	187.81
650.312	212.81
650.516	175.81
650.721	165.81
650.925	156.81
651.13	166.81
651.334	156.81
651.539	176.81
651.743	162.81
651.947	153.81
652.152	158.81
652.356	168.81
652.56	170.81
652.764	167.81
652.969	160.81
653.173	162.81
653.377	164.81
653.581	146.81
653.785	147.81
653.99	144.81
654.194	147.81
654.398	158.81
654.602	139.81
654.806	130.81
655.01	155.81
655.214	158.81
655.418	134.81
655.622	150.81
655.826	161.81
656.03	161.81
656.234	160.81
656.438	157.81
656.642	142.81
656.846	146.81
657.049	127.81
657.253	132.81
657.457	129.81
657.661	138.81
657.865	125.81
658.068	121.81
658.272	118.81
658.476	119.81
658.68	102.81
658.883	112.81
659.087	104.81
659.291	106.81
659.494	113.81
659.698	101.81
659.901	107.81
660.105	77.81
660.309	105.81
660.512	105.81
660.716	112.81
660.919	100.81
661.123	90.81
661.326	83.81
661.53	95.81
661.733	85.81
661.936	90.81
662.14	94.81
662.343	93.81
662.546	93.81
662.75	92.81
662.953	89.81
663.156	86.81
663.36	74.81
663.563	74.81
663.766	79.81
663.969	97.81
664.173	92.81
664.376	88.81
664.579	69.81
664.782	74.81
664.985	82.81
665.188	57.81
665.391	83.81
665.594	73.81
665.797	78.81
666	84.81
666.203	86.81
666.406	101.81
666.609	81.81
666.812	84.81
667.015	82.81
667.218	81.81
667.421	95.81
667.624	86.81
667.827	79.81
668.03	88.81
668.232	83.81
668.435	80.81
668.638	74.81
668.841	79.81
669.043	95.81
669.246	89.81
669.449	83.81
669.651	66.81
669.854	86.81
670.057	89.81
670.259	85.81
670.462	75.81
670.665	96.81
670.867	77.81
671.07	86.81
671.272	85.81
671.475	92.81
671.677	66.81
671.88	91.81
672.082	85.81
672.284	92.81
672.487	93.81
672.689	76.81
672.892	87.81
