Data from 1974.PennyLincolnUp.Lamp.En5.5.200Scan.071719.P1.Changed Mount._HRD10591_15-54-00-857.txt Node
Date: Thu Jul 18 15:54:00 EDT 2019
User: cochatt
Spectrometer: HR+D1059
Trigger mode: 1
Integration Time (sec): 1.000000E-1
Scans to average: 1
Electric dark correction enabled: true
Nonlinearity correction enabled: false
Boxcar width: 0
XAxis mode: Wavelengths
Number of Pixels in Spectrum: 2048
>>>>>Begin Spectral Data<<<<<
223.165	-17.31
223.4	-17.31
223.635	-17.31
223.869	-12.31
224.104	-10.31
224.338	-18.31
224.573	-5.31
224.808	-6.31
225.042	2.69
225.277	-16.31
225.511	-18.31
225.746	1.69
225.98	16.69
226.215	5.69
226.449	9.69
226.683	22.69
226.918	23.69
227.152	21.69
227.387	29.69
227.621	49.69
227.856	37.69
228.09	46.69
228.324	49.69
228.559	52.69
228.793	75.69
229.027	84.69
229.262	113.69
229.496	119.69
229.73	131.69
229.964	168.69
230.199	135.69
230.433	118.69
230.667	110.69
230.901	110.69
231.136	120.69
231.37	113.69
231.604	121.69
231.838	119.69
232.072	123.69
232.306	131.69
232.541	127.69
232.775	124.69
233.009	111.69
233.243	119.69
233.477	123.69
233.711	114.69
233.945	105.69
234.179	133.69
234.413	124.69
234.647	136.69
234.881	129.69
235.115	121.69
235.349	126.69
235.583	127.69
235.817	132.69
236.051	135.69
236.285	127.69
236.519	126.69
236.753	131.69
236.987	135.69
237.221	179.69
237.455	234.69
237.689	195.69
237.922	157.69
238.156	131.69
238.39	131.69
238.624	127.69
238.858	143.69
239.091	129.69
239.325	133.69
239.559	124.69
239.793	136.69
240.027	134.69
240.26	157.69
240.494	158.69
240.728	153.69
240.961	160.69
241.195	150.69
241.429	140.69
241.662	143.69
241.896	131.69
242.13	148.69
242.363	144.69
242.597	130.69
242.83	149.69
243.064	133.69
243.298	136.69
243.531	144.69
243.765	147.69
243.998	147.69
244.232	164.69
244.465	159.69
244.699	154.69
244.932	144.69
245.166	158.69
245.399	169.69
245.633	152.69
245.866	155.69
246.099	174.69
246.333	165.69
246.566	149.69
246.8	161.69
247.033	171.69
247.266	164.69
247.5	173.69
247.733	175.69
247.966	180.69
248.2	183.69
248.433	186.69
248.666	189.69
248.899	196.69
249.133	216.69
249.366	214.69
249.599	200.69
249.832	195.69
250.066	182.69
250.299	202.69
250.532	204.69
250.765	220.69
250.998	234.69
251.231	232.69
251.465	225.69
251.698	214.69
251.931	228.69
252.164	225.69
252.397	214.69
252.63	215.69
252.863	210.69
253.096	236.69
253.329	227.69
253.562	247.69
253.795	238.69
254.028	229.69
254.261	229.69
254.494	251.69
254.727	272.69
254.96	295.69
255.193	279.69
255.426	266.69
255.659	231.69
255.892	235.69
256.124	250.69
256.357	249.69
256.59	242.69
256.823	226.69
257.056	222.69
257.289	217.69
257.521	226.69
257.754	215.69
257.987	210.69
258.22	233.69
258.452	225.69
258.685	227.69
258.918	219.69
259.151	226.69
259.383	230.69
259.616	238.69
259.849	258.69
260.081	248.69
260.314	265.69
260.547	283.69
260.779	255.69
261.012	259.69
261.244	246.69
261.477	271.69
261.71	236.69
261.942	234.69
262.175	246.69
262.407	244.69
262.64	212.69
262.872	229.69
263.105	231.69
263.337	229.69
263.57	225.69
263.802	234.69
264.035	241.69
264.267	225.69
264.499	230.69
264.732	253.69
264.964	232.69
265.197	253.69
265.429	244.69
265.661	212.69
265.894	233.69
266.126	249.69
266.358	228.69
266.591	253.69
266.823	239.69
267.055	249.69
267.287	239.69
267.52	255.69
267.752	241.69
267.984	250.69
268.216	238.69
268.448	246.69
268.681	265.69
268.913	269.69
269.145	289.69
269.377	288.69
269.609	294.69
269.841	290.69
270.073	300.69
270.306	307.69
270.538	327.69
270.77	343.69
271.002	339.69
271.234	316.69
271.466	319.69
271.698	314.69
271.93	327.69
272.162	334.69
272.394	336.69
272.626	347.69
272.858	315.69
273.09	302.69
273.322	301.69
273.553	289.69
273.785	283.69
274.017	291.69
274.249	286.69
274.481	287.69
274.713	278.69
274.945	297.69
275.176	277.69
275.408	297.69
275.64	298.69
275.872	287.69
276.104	299.69
276.335	301.69
276.567	277.69
276.799	311.69
277.031	329.69
277.262	329.69
277.494	333.69
277.726	313.69
277.957	311.69
278.189	291.69
278.421	313.69
278.652	293.69
278.884	293.69
279.115	272.69
279.347	306.69
279.579	302.69
279.81	312.69
280.042	321.69
280.273	292.69
280.505	301.69
280.736	300.69
280.968	282.69
281.199	283.69
281.431	300.69
281.662	301.69
281.894	317.69
282.125	275.69
282.356	319.69
282.588	310.69
282.819	341.69
283.051	287.69
283.282	289.69
283.513	313.69
283.745	308.69
283.976	309.69
284.207	320.69
284.439	307.69
284.67	313.69
284.901	330.69
285.132	312.69
285.364	312.69
285.595	292.69
285.826	301.69
286.057	314.69
286.288	310.69
286.52	308.69
286.751	313.69
286.982	302.69
287.213	307.69
287.444	314.69
287.675	327.69
287.906	320.69
288.138	330.69
288.369	348.69
288.6	320.69
288.831	309.69
289.062	335.69
289.293	309.69
289.524	308.69
289.755	294.69
289.986	317.69
290.217	331.69
290.448	309.69
290.679	312.69
290.91	341.69
291.141	326.69
291.371	337.69
291.602	322.69
291.833	324.69
292.064	323.69
292.295	322.69
292.526	309.69
292.757	335.69
292.987	319.69
293.218	333.69
293.449	308.69
293.68	318.69
293.91	321.69
294.141	328.69
294.372	323.69
294.603	321.69
294.833	332.69
295.064	329.69
295.295	339.69
295.525	335.69
295.756	329.69
295.987	324.69
296.217	335.69
296.448	377.69
296.679	331.69
296.909	326.69
297.14	332.69
297.37	342.69
297.601	340.69
297.831	342.69
298.062	338.69
298.292	332.69
298.523	345.69
298.753	339.69
298.984	331.69
299.214	341.69
299.445	333.69
299.675	341.69
299.905	348.69
300.136	339.69
300.366	337.69
300.597	356.69
300.827	356.69
301.057	355.69
301.288	367.69
301.518	350.69
301.748	347.69
301.979	369.69
302.209	355.69
302.439	362.69
302.669	352.69
302.9	358.69
303.13	364.69
303.36	369.69
303.59	383.69
303.82	376.69
304.051	363.69
304.281	357.69
304.511	367.69
304.741	366.69
304.971	374.69
305.201	369.69
305.431	351.69
305.661	349.69
305.891	378.69
306.121	351.69
306.352	379.69
306.582	379.69
306.812	362.69
307.042	355.69
307.272	365.69
307.502	354.69
307.731	365.69
307.961	383.69
308.191	371.69
308.421	366.69
308.651	349.69
308.881	379.69
309.111	373.69
309.341	361.69
309.571	385.69
309.8	378.69
310.03	381.69
310.26	412.69
310.49	395.69
310.72	394.69
310.949	415.69
311.179	411.69
311.409	398.69
311.639	393.69
311.868	419.69
312.098	427.69
312.328	405.69
312.557	430.69
312.787	439.69
313.017	426.69
313.246	409.69
313.476	407.69
313.706	418.69
313.935	435.69
314.165	426.69
314.394	437.69
314.624	437.69
314.853	430.69
315.083	412.69
315.312	430.69
315.542	390.69
315.771	399.69
316.001	410.69
316.23	421.69
316.46	391.69
316.689	422.69
316.919	422.69
317.148	438.69
317.377	407.69
317.607	416.69
317.836	411.69
318.065	393.69
318.295	406.69
318.524	432.69
318.753	408.69
318.983	417.69
319.212	400.69
319.441	418.69
319.67	407.69
319.9	409.69
320.129	418.69
320.358	414.69
320.587	410.69
320.816	422.69
321.046	432.69
321.275	420.69
321.504	428.69
321.733	425.69
321.962	424.69
322.191	435.69
322.42	450.69
322.649	489.69
322.878	464.69
323.108	486.69
323.337	486.69
323.566	498.69
323.795	529.69
324.024	554.69
324.253	635.69
324.482	880.69
324.71	1342.69
324.939	1990.69
325.168	1725.69
325.397	890.69
325.626	643.69
325.855	540.69
326.084	522.69
326.313	515.69
326.542	504.69
326.77	537.69
326.999	614.69
327.228	823.69
327.457	1222.69
327.686	1520.69
327.914	1044.69
328.143	693.69
328.372	609.69
328.6	581.69
328.829	566.69
329.058	552.69
329.287	573.69
329.515	565.69
329.744	554.69
329.972	529.69
330.201	523.69
330.43	581.69
330.658	606.69
330.887	631.69
331.115	605.69
331.344	550.69
331.572	522.69
331.801	489.69
332.03	528.69
332.258	486.69
332.486	498.69
332.715	509.69
332.943	509.69
333.172	514.69
333.4	507.69
333.629	499.69
333.857	528.69
334.085	535.69
334.314	550.69
334.542	564.69
334.771	583.69
334.999	547.69
335.227	513.69
335.455	515.69
335.684	498.69
335.912	533.69
336.14	491.69
336.369	484.69
336.597	505.69
336.825	515.69
337.053	514.69
337.281	475.69
337.51	483.69
337.738	477.69
337.966	468.69
338.194	494.69
338.422	483.69
338.65	483.69
338.878	491.69
339.106	493.69
339.334	487.69
339.562	478.69
339.79	463.69
340.018	469.69
340.246	468.69
340.474	482.69
340.702	458.69
340.93	477.69
341.158	485.69
341.386	469.69
341.614	459.69
341.842	461.69
342.07	429.69
342.298	451.69
342.526	442.69
342.754	466.69
342.981	459.69
343.209	464.69
343.437	456.69
343.665	465.69
343.893	494.69
344.12	503.69
344.348	503.69
344.576	509.69
344.804	487.69
345.031	477.69
345.259	479.69
345.487	472.69
345.714	474.69
345.942	459.69
346.17	454.69
346.397	444.69
346.625	453.69
346.853	452.69
347.08	455.69
347.308	471.69
347.535	461.69
347.763	465.69
347.99	465.69
348.218	467.69
348.445	483.69
348.673	474.69
348.9	460.69
349.128	453.69
349.355	436.69
349.583	456.69
349.81	421.69
350.037	443.69
350.265	425.69
350.492	450.69
350.72	462.69
350.947	463.69
351.174	458.69
351.402	452.69
351.629	476.69
351.856	446.69
352.083	438.69
352.311	473.69
352.538	451.69
352.765	465.69
352.992	454.69
353.22	454.69
353.447	418.69
353.674	445.69
353.901	449.69
354.128	433.69
354.355	449.69
354.583	463.69
354.81	457.69
355.037	443.69
355.264	439.69
355.491	449.69
355.718	450.69
355.945	430.69
356.172	437.69
356.399	443.69
356.626	439.69
356.853	411.69
357.08	447.69
357.307	435.69
357.534	426.69
357.761	422.69
357.988	446.69
358.215	409.69
358.441	426.69
358.668	455.69
358.895	432.69
359.122	441.69
359.349	430.69
359.576	449.69
359.802	485.69
360.029	491.69
360.256	474.69
360.483	478.69
360.709	441.69
360.936	464.69
361.163	465.69
361.39	454.69
361.616	465.69
361.843	442.69
362.07	436.69
362.296	486.69
362.523	455.69
362.749	476.69
362.976	462.69
363.203	473.69
363.429	440.69
363.656	455.69
363.882	435.69
364.109	436.69
364.335	443.69
364.562	455.69
364.788	449.69
365.015	447.69
365.241	448.69
365.468	437.69
365.694	445.69
365.92	455.69
366.147	450.69
366.373	453.69
366.599	441.69
366.826	443.69
367.052	435.69
367.278	447.69
367.505	459.69
367.731	447.69
367.957	442.69
368.184	445.69
368.41	441.69
368.636	453.69
368.862	466.69
369.089	452.69
369.315	447.69
369.541	456.69
369.767	446.69
369.993	460.69
370.219	449.69
370.445	451.69
370.672	448.69
370.898	458.69
371.124	447.69
371.35	456.69
371.576	465.69
371.802	461.69
372.028	460.69
372.254	450.69
372.48	454.69
372.706	461.69
372.932	485.69
373.158	461.69
373.384	452.69
373.61	465.69
373.835	443.69
374.061	455.69
374.287	463.69
374.513	447.69
374.739	471.69
374.965	474.69
375.191	442.69
375.416	470.69
375.642	482.69
375.868	457.69
376.094	451.69
376.319	445.69
376.545	457.69
376.771	451.69
376.997	442.69
377.222	459.69
377.448	487.69
377.674	448.69
377.899	446.69
378.125	441.69
378.35	471.69
378.576	450.69
378.802	453.69
379.027	450.69
379.253	435.69
379.478	456.69
379.704	442.69
379.929	451.69
380.155	477.69
380.38	450.69
380.606	462.69
380.831	450.69
381.057	480.69
381.282	466.69
381.507	471.69
381.733	446.69
381.958	462.69
382.184	479.69
382.409	457.69
382.634	484.69
382.86	465.69
383.085	471.69
383.31	471.69
383.535	482.69
383.761	462.69
383.986	504.69
384.211	492.69
384.436	497.69
384.662	522.69
384.887	516.69
385.112	525.69
385.337	508.69
385.562	496.69
385.787	508.69
386.013	527.69
386.238	536.69
386.463	510.69
386.688	519.69
386.913	515.69
387.138	517.69
387.363	517.69
387.588	511.69
387.813	501.69
388.038	493.69
388.263	534.69
388.488	517.69
388.713	491.69
388.938	490.69
389.163	521.69
389.387	496.69
389.612	504.69
389.837	492.69
390.062	519.69
390.287	500.69
390.512	518.69
390.736	516.69
390.961	527.69
391.186	506.69
391.411	528.69
391.636	538.69
391.86	548.69
392.085	532.69
392.31	548.69
392.534	536.69
392.759	530.69
392.984	518.69
393.208	518.69
393.433	525.69
393.658	509.69
393.882	514.69
394.107	527.69
394.331	517.69
394.556	529.69
394.78	535.69
395.005	514.69
395.229	512.69
395.454	519.69
395.678	536.69
395.903	530.69
396.127	551.69
396.352	596.69
396.576	565.69
396.801	531.69
397.025	549.69
397.249	542.69
397.474	528.69
397.698	541.69
397.922	563.69
398.147	582.69
398.371	605.69
398.595	568.69
398.82	595.69
399.044	586.69
399.268	636.69
399.492	711.69
399.717	734.69
399.941	745.69
400.165	754.69
400.389	744.69
400.613	660.69
400.837	639.69
401.062	631.69
401.286	621.69
401.51	620.69
401.734	605.69
401.958	598.69
402.182	619.69
402.406	616.69
402.63	630.69
402.854	608.69
403.078	613.69
403.302	648.69
403.526	640.69
403.75	632.69
403.974	630.69
404.198	603.69
404.422	631.69
404.645	635.69
404.869	650.69
405.093	684.69
405.317	726.69
405.541	753.69
405.765	699.69
405.988	645.69
406.212	653.69
406.436	685.69
406.66	703.69
406.883	689.69
407.107	676.69
407.331	762.69
407.555	794.69
407.778	831.69
408.002	751.69
408.226	698.69
408.449	672.69
408.673	659.69
408.896	726.69
409.12	740.69
409.344	726.69
409.567	653.69
409.791	655.69
410.014	635.69
410.238	631.69
410.461	620.69
410.685	639.69
410.908	645.69
411.132	657.69
411.355	709.69
411.578	661.69
411.802	639.69
412.025	629.69
412.249	643.69
412.472	663.69
412.695	697.69
412.919	703.69
413.142	611.69
413.365	620.69
413.589	614.69
413.812	599.69
414.035	586.69
414.258	594.69
414.482	583.69
414.705	588.69
414.928	600.69
415.151	591.69
415.374	585.69
415.597	586.69
415.821	587.69
416.044	620.69
416.267	591.69
416.49	581.69
416.713	589.69
416.936	582.69
417.159	574.69
417.382	609.69
417.605	567.69
417.828	599.69
418.051	629.69
418.274	600.69
418.497	613.69
418.72	599.69
418.943	597.69
419.166	629.69
419.389	654.69
419.611	657.69
419.834	647.69
420.057	635.69
420.28	619.69
420.503	627.69
420.726	608.69
420.948	650.69
421.171	667.69
421.394	706.69
421.617	673.69
421.839	643.69
422.062	613.69
422.285	649.69
422.507	673.69
422.73	778.69
422.953	753.69
423.175	670.69
423.398	631.69
423.621	665.69
423.843	689.69
424.066	677.69
424.288	681.69
424.511	686.69
424.733	722.69
424.956	829.69
425.178	775.69
425.401	802.69
425.623	819.69
425.846	684.69
426.068	643.69
426.291	639.69
426.513	647.69
426.735	657.69
426.958	689.69
427.18	798.69
427.402	937.69
427.625	1007.69
427.847	862.69
428.069	775.69
428.292	686.69
428.514	651.69
428.736	626.69
428.958	624.69
429.181	602.69
429.403	618.69
429.625	604.69
429.847	636.69
430.069	712.69
430.292	717.69
430.514	596.69
430.736	616.69
430.958	591.69
431.18	597.69
431.402	556.69
431.624	576.69
431.846	561.69
432.068	558.69
432.29	564.69
432.512	581.69
432.734	567.69
432.956	601.69
433.178	582.69
433.4	605.69
433.622	591.69
433.844	586.69
434.066	573.69
434.287	565.69
434.509	567.69
434.731	593.69
434.953	597.69
435.175	637.69
435.397	635.69
435.618	647.69
435.84	673.69
436.062	781.69
436.284	860.69
436.505	722.69
436.727	647.69
436.949	614.69
437.17	625.69
437.392	580.69
437.614	595.69
437.835	626.69
438.057	726.69
438.278	853.69
438.5	836.69
438.721	905.69
438.943	895.69
439.165	719.69
439.386	671.69
439.608	668.69
439.829	661.69
440.05	644.69
440.272	718.69
440.493	700.69
440.715	630.69
440.936	631.69
441.158	628.69
441.379	607.69
441.6	638.69
441.822	654.69
442.043	698.69
442.264	770.69
442.486	822.69
442.707	697.69
442.928	666.69
443.149	670.69
443.371	695.69
443.592	727.69
443.813	861.69
444.034	904.69
444.255	769.69
444.476	693.69
444.698	686.69
444.919	682.69
445.14	763.69
445.361	725.69
445.582	705.69
445.803	748.69
446.024	865.69
446.245	862.69
446.466	813.69
446.687	678.69
446.908	649.69
447.129	640.69
447.35	617.69
447.571	609.69
447.792	572.69
448.013	593.69
448.234	618.69
448.455	669.69
448.675	757.69
448.896	899.69
449.117	769.69
449.338	704.69
449.559	841.69
449.779	961.69
450	770.69
450.221	673.69
450.442	611.69
450.662	552.69
450.883	586.69
451.104	590.69
451.324	573.69
451.545	572.69
451.766	533.69
451.986	524.69
452.207	523.69
452.428	546.69
452.648	520.69
452.869	517.69
453.089	547.69
453.31	558.69
453.53	538.69
453.751	519.69
453.971	524.69
454.192	536.69
454.412	525.69
454.633	524.69
454.853	518.69
455.073	505.69
455.294	563.69
455.514	625.69
455.734	590.69
455.955	551.69
456.175	520.69
456.395	503.69
456.616	531.69
456.836	505.69
457.056	492.69
457.276	485.69
457.497	488.69
457.717	490.69
457.937	512.69
458.157	526.69
458.377	528.69
458.598	552.69
458.818	604.69
459.038	672.69
459.258	713.69
459.478	615.69
459.698	585.69
459.918	583.69
460.138	580.69
460.358	612.69
460.578	602.69
460.798	607.69
461.018	606.69
461.238	600.69
461.458	603.69
461.678	588.69
461.898	627.69
462.118	594.69
462.338	623.69
462.558	631.69
462.777	610.69
462.997	650.69
463.217	673.69
463.437	690.69
463.657	653.69
463.876	647.69
464.096	664.69
464.316	641.69
464.536	651.69
464.755	641.69
464.975	629.69
465.195	633.69
465.414	712.69
465.634	644.69
465.854	600.69
466.073	587.69
466.293	546.69
466.512	569.69
466.732	545.69
466.951	559.69
467.171	548.69
467.391	556.69
467.61	554.69
467.829	571.69
468.049	572.69
468.268	561.69
468.488	535.69
468.707	503.69
468.927	538.69
469.146	544.69
469.365	545.69
469.585	558.69
469.804	573.69
470.023	561.69
470.243	580.69
470.462	571.69
470.681	564.69
470.901	584.69
471.12	561.69
471.339	556.69
471.558	533.69
471.777	548.69
471.997	545.69
472.216	547.69
472.435	566.69
472.654	554.69
472.873	551.69
473.092	555.69
473.311	546.69
473.53	561.69
473.749	567.69
473.968	579.69
474.187	702.69
474.406	728.69
474.625	604.69
474.844	590.69
475.063	571.69
475.282	555.69
475.501	555.69
475.72	566.69
475.939	566.69
476.158	589.69
476.377	577.69
476.596	605.69
476.814	586.69
477.033	597.69
477.252	602.69
477.471	585.69
477.69	588.69
477.908	609.69
478.127	627.69
478.346	618.69
478.564	645.69
478.783	610.69
479.002	657.69
479.22	653.69
479.439	631.69
479.658	671.69
479.876	662.69
480.095	672.69
480.313	705.69
480.532	712.69
480.751	705.69
480.969	670.69
481.188	721.69
481.406	776.69
481.624	705.69
481.843	683.69
482.061	667.69
482.28	677.69
482.498	663.69
482.717	646.69
482.935	640.69
483.153	687.69
483.372	672.69
483.59	645.69
483.808	635.69
484.027	663.69
484.245	671.69
484.463	665.69
484.681	663.69
484.9	671.69
485.118	679.69
485.336	673.69
485.554	659.69
485.772	667.69
485.99	681.69
486.209	686.69
486.427	670.69
486.645	677.69
486.863	698.69
487.081	695.69
487.299	711.69
487.517	691.69
487.735	690.69
487.953	693.69
488.171	706.69
488.389	691.69
488.607	705.69
488.825	699.69
489.043	725.69
489.261	689.69
489.479	730.69
489.696	725.69
489.914	732.69
490.132	725.69
490.35	741.69
490.568	749.69
490.786	762.69
491.003	773.69
491.221	777.69
491.439	777.69
491.657	801.69
491.874	808.69
492.092	812.69
492.31	812.69
492.527	835.69
492.745	834.69
492.963	844.69
493.18	812.69
493.398	832.69
493.615	825.69
493.833	829.69
494.05	824.69
494.268	832.69
494.485	820.69
494.703	811.69
494.92	842.69
495.138	830.69
495.355	855.69
495.573	829.69
495.79	822.69
496.008	865.69
496.225	845.69
496.442	861.69
496.66	844.69
496.877	858.69
497.094	839.69
497.312	860.69
497.529	869.69
497.746	887.69
497.963	905.69
498.181	916.69
498.398	929.69
498.615	939.69
498.832	971.69
499.049	969.69
499.267	1019.69
499.484	1067.69
499.701	1117.69
499.918	1183.69
500.135	1269.69
500.352	1300.69
500.569	1385.69
500.786	1323.69
501.003	1246.69
501.22	1242.69
501.437	1172.69
501.654	1134.69
501.871	1114.69
502.088	1052.69
502.305	994.69
502.522	981.69
502.739	966.69
502.956	947.69
503.172	922.69
503.389	893.69
503.606	883.69
503.823	865.69
504.04	864.69
504.256	830.69
504.473	865.69
504.69	844.69
504.907	860.69
505.123	829.69
505.34	805.69
505.557	764.69
505.773	815.69
505.99	788.69
506.207	796.69
506.423	798.69
506.64	758.69
506.856	769.69
507.073	771.69
507.289	782.69
507.506	740.69
507.722	779.69
507.939	778.69
508.155	767.69
508.372	730.69
508.588	760.69
508.805	729.69
509.021	726.69
509.238	746.69
509.454	758.69
509.67	740.69
509.887	727.69
510.103	731.69
510.319	726.69
510.536	804.69
510.752	1193.69
510.968	987.69
511.184	755.69
511.401	735.69
511.617	687.69
511.833	667.69
512.049	675.69
512.265	687.69
512.481	680.69
512.698	672.69
512.914	702.69
513.13	697.69
513.346	683.69
513.562	681.69
513.778	679.69
513.994	706.69
514.21	702.69
514.426	715.69
514.642	761.69
514.858	776.69
515.074	796.69
515.29	896.69
515.506	1181.69
515.721	1034.69
515.937	801.69
516.153	755.69
516.369	731.69
516.585	735.69
516.801	741.69
517.016	705.69
517.232	734.69
517.448	737.69
517.664	765.69
517.879	727.69
518.095	733.69
518.311	729.69
518.527	724.69
518.742	735.69
518.958	723.69
519.173	720.69
519.389	685.69
519.605	710.69
519.82	692.69
520.036	691.69
520.251	716.69
520.467	729.69
520.682	733.69
520.898	708.69
521.113	732.69
521.329	745.69
521.544	817.69
521.76	990.69
521.975	1482.69
522.19	1450.69
522.406	902.69
522.621	720.69
522.836	703.69
523.052	647.69
523.267	633.69
523.482	635.69
523.698	631.69
523.913	657.69
524.128	648.69
524.343	641.69
524.559	590.69
524.774	589.69
524.989	598.69
525.204	617.69
525.419	607.69
525.634	591.69
525.849	595.69
526.064	616.69
526.28	604.69
526.495	589.69
526.71	590.69
526.925	600.69
527.14	560.69
527.355	580.69
527.57	557.69
527.785	564.69
527.999	584.69
528.214	575.69
528.429	588.69
528.644	577.69
528.859	550.69
529.074	581.69
529.289	579.69
529.503	652.69
529.718	647.69
529.933	600.69
530.148	607.69
530.363	589.69
530.577	560.69
530.792	576.69
531.007	573.69
531.221	554.69
531.436	557.69
531.651	570.69
531.865	543.69
532.08	564.69
532.295	545.69
532.509	543.69
532.724	544.69
532.938	569.69
533.153	545.69
533.367	541.69
533.582	547.69
533.796	575.69
534.011	551.69
534.225	553.69
534.44	546.69
534.654	559.69
534.868	542.69
535.083	552.69
535.297	539.69
535.511	540.69
535.726	528.69
535.94	560.69
536.154	552.69
536.369	550.69
536.583	543.69
536.797	547.69
537.011	557.69
537.225	544.69
537.44	527.69
537.654	533.69
537.868	527.69
538.082	521.69
538.296	520.69
538.51	542.69
538.724	545.69
538.938	532.69
539.153	521.69
539.367	532.69
539.581	552.69
539.795	523.69
540.009	514.69
540.222	526.69
540.436	527.69
540.65	527.69
540.864	536.69
541.078	542.69
541.292	527.69
541.506	549.69
541.72	517.69
541.934	532.69
542.147	549.69
542.361	548.69
542.575	521.69
542.789	523.69
543.002	511.69
543.216	533.69
543.43	523.69
543.644	515.69
543.857	541.69
544.071	531.69
544.285	540.69
544.498	535.69
544.712	547.69
544.925	517.69
545.139	518.69
545.352	518.69
545.566	514.69
545.779	505.69
545.993	523.69
546.206	541.69
546.42	539.69
546.633	493.69
546.847	533.69
547.06	527.69
547.274	500.69
547.487	512.69
547.7	523.69
547.914	526.69
548.127	528.69
548.34	532.69
548.554	536.69
548.767	522.69
548.98	525.69
549.193	515.69
549.407	526.69
549.62	521.69
549.833	530.69
550.046	526.69
550.259	506.69
550.473	527.69
550.686	517.69
550.899	498.69
551.112	514.69
551.325	518.69
551.538	522.69
551.751	521.69
551.964	533.69
552.177	484.69
552.39	498.69
552.603	517.69
552.816	545.69
553.029	520.69
553.242	527.69
553.455	535.69
553.667	560.69
553.88	561.69
554.093	536.69
554.306	529.69
554.519	501.69
554.732	517.69
554.944	496.69
555.157	506.69
555.37	531.69
555.583	502.69
555.795	486.69
556.008	484.69
556.221	491.69
556.433	488.69
556.646	476.69
556.859	452.69
557.071	463.69
557.284	474.69
557.496	462.69
557.709	479.69
557.921	453.69
558.134	477.69
558.346	450.69
558.559	465.69
558.771	451.69
558.984	467.69
559.196	453.69
559.409	453.69
559.621	461.69
559.833	442.69
560.046	450.69
560.258	437.69
560.47	463.69
560.683	453.69
560.895	434.69
561.107	423.69
561.32	450.69
561.532	440.69
561.744	466.69
561.956	462.69
562.168	448.69
562.381	434.69
562.593	454.69
562.805	445.69
563.017	469.69
563.229	460.69
563.441	465.69
563.653	463.69
563.865	444.69
564.077	459.69
564.289	471.69
564.501	467.69
564.713	467.69
564.925	484.69
565.137	478.69
565.349	495.69
565.561	498.69
565.773	529.69
565.985	512.69
566.197	527.69
566.408	556.69
566.62	567.69
566.832	594.69
567.044	608.69
567.255	605.69
567.467	614.69
567.679	624.69
567.891	639.69
568.102	635.69
568.314	625.69
568.526	598.69
568.737	598.69
568.949	540.69
569.161	506.69
569.372	484.69
569.584	485.69
569.795	478.69
570.007	467.69
570.218	495.69
570.43	494.69
570.641	448.69
570.853	437.69
571.064	463.69
571.276	446.69
571.487	416.69
571.698	454.69
571.91	444.69
572.121	415.69
572.333	438.69
572.544	417.69
572.755	409.69
572.966	419.69
573.178	415.69
573.389	399.69
573.6	392.69
573.811	389.69
574.023	393.69
574.234	395.69
574.445	396.69
574.656	350.69
574.867	391.69
575.078	387.69
575.289	378.69
575.501	397.69
575.712	390.69
575.923	395.69
576.134	377.69
576.345	397.69
576.556	381.69
576.767	368.69
576.978	391.69
577.188	362.69
577.399	379.69
577.61	358.69
577.821	379.69
578.032	377.69
578.243	411.69
578.454	527.69
578.665	460.69
578.875	377.69
579.086	358.69
579.297	373.69
579.508	364.69
579.718	350.69
579.929	353.69
580.14	354.69
580.35	360.69
580.561	355.69
580.772	343.69
580.982	372.69
581.193	363.69
581.403	331.69
581.614	356.69
581.825	366.69
582.035	345.69
582.246	358.69
582.456	364.69
582.667	371.69
582.877	331.69
583.087	341.69
583.298	328.69
583.508	339.69
583.719	339.69
583.929	349.69
584.139	348.69
584.35	340.69
584.56	348.69
584.77	339.69
584.981	345.69
585.191	339.69
585.401	348.69
585.611	330.69
585.821	348.69
586.032	346.69
586.242	345.69
586.452	349.69
586.662	347.69
586.872	331.69
587.082	323.69
587.292	323.69
587.502	342.69
587.713	324.69
587.923	332.69
588.133	346.69
588.343	346.69
588.553	353.69
588.762	330.69
588.972	342.69
589.182	328.69
589.392	348.69
589.602	327.69
589.812	361.69
590.022	325.69
590.232	336.69
590.441	350.69
590.651	327.69
590.861	346.69
591.071	333.69
591.281	355.69
591.49	341.69
591.7	358.69
591.91	332.69
592.119	353.69
592.329	334.69
592.539	373.69
592.748	356.69
592.958	376.69
593.167	360.69
593.377	375.69
593.587	385.69
593.796	369.69
594.006	365.69
594.215	375.69
594.424	364.69
594.634	372.69
594.843	369.69
595.053	350.69
595.262	351.69
595.472	349.69
595.681	338.69
595.89	343.69
596.1	341.69
596.309	340.69
596.518	329.69
596.727	331.69
596.937	330.69
597.146	313.69
597.355	321.69
597.564	319.69
597.774	317.69
597.983	290.69
598.192	293.69
598.401	323.69
598.61	316.69
598.819	318.69
599.028	299.69
599.237	295.69
599.446	303.69
599.655	287.69
599.864	309.69
600.073	298.69
600.282	300.69
600.491	304.69
600.7	299.69
600.909	290.69
601.118	305.69
601.327	288.69
601.536	284.69
601.745	308.69
601.953	314.69
602.162	276.69
602.371	287.69
602.58	291.69
602.789	291.69
602.997	282.69
603.206	290.69
603.415	289.69
603.623	281.69
603.832	282.69
604.041	296.69
604.249	285.69
604.458	298.69
604.666	280.69
604.875	263.69
605.084	277.69
605.292	287.69
605.501	276.69
605.709	290.69
605.918	279.69
606.126	281.69
606.334	274.69
606.543	292.69
606.751	296.69
606.96	287.69
607.168	267.69
607.376	285.69
607.585	270.69
607.793	275.69
608.001	283.69
608.21	272.69
608.418	267.69
608.626	287.69
608.834	279.69
609.043	285.69
609.251	292.69
609.459	300.69
609.667	268.69
609.875	286.69
610.083	278.69
610.291	278.69
610.499	296.69
610.707	266.69
610.916	277.69
611.124	283.69
611.332	271.69
611.54	277.69
611.748	285.69
611.955	286.69
612.163	278.69
612.371	277.69
612.579	288.69
612.787	290.69
612.995	295.69
613.203	265.69
613.411	274.69
613.618	284.69
613.826	295.69
614.034	281.69
614.242	272.69
614.449	261.69
614.657	250.69
614.865	267.69
615.072	260.69
615.28	284.69
615.488	278.69
615.695	285.69
615.903	292.69
616.111	287.69
616.318	289.69
616.526	267.69
616.733	261.69
616.941	268.69
617.148	278.69
617.356	285.69
617.563	264.69
617.771	257.69
617.978	281.69
618.185	257.69
618.393	274.69
618.6	278.69
618.807	256.69
619.015	268.69
619.222	250.69
619.429	251.69
619.637	270.69
619.844	258.69
620.051	242.69
620.258	249.69
620.466	261.69
620.673	249.69
620.88	230.69
621.087	259.69
621.294	257.69
621.501	249.69
621.708	239.69
621.915	255.69
622.122	251.69
622.329	264.69
622.536	264.69
622.743	236.69
622.95	253.69
623.157	243.69
623.364	247.69
623.571	243.69
623.778	235.69
623.985	257.69
624.192	263.69
624.399	249.69
624.606	254.69
624.812	253.69
625.019	225.69
625.226	232.69
625.433	238.69
625.639	240.69
625.846	248.69
626.053	250.69
626.259	227.69
626.466	229.69
626.673	219.69
626.879	229.69
627.086	236.69
627.293	231.69
627.499	223.69
627.706	237.69
627.912	246.69
628.119	238.69
628.325	244.69
628.532	243.69
628.738	228.69
628.945	233.69
629.151	222.69
629.357	238.69
629.564	205.69
629.77	222.69
629.976	243.69
630.183	213.69
630.389	224.69
630.595	251.69
630.802	222.69
631.008	228.69
631.214	213.69
631.42	222.69
631.627	222.69
631.833	201.69
632.039	197.69
632.245	199.69
632.451	223.69
632.657	222.69
632.863	223.69
633.069	202.69
633.275	219.69
633.481	202.69
633.688	203.69
633.893	225.69
634.099	205.69
634.305	206.69
634.511	200.69
634.717	203.69
634.923	203.69
635.129	202.69
635.335	216.69
635.541	224.69
635.747	210.69
635.952	212.69
636.158	220.69
636.364	211.69
636.57	216.69
636.775	203.69
636.981	201.69
637.187	197.69
637.392	199.69
637.598	208.69
637.804	196.69
638.009	195.69
638.215	209.69
638.421	203.69
638.626	199.69
638.832	202.69
639.037	207.69
639.243	187.69
639.448	193.69
639.654	212.69
639.859	186.69
640.065	179.69
640.27	200.69
640.475	190.69
640.681	191.69
640.886	205.69
641.091	176.69
641.297	194.69
641.502	181.69
641.707	186.69
641.913	191.69
642.118	189.69
642.323	182.69
642.528	181.69
642.733	183.69
642.939	187.69
643.144	179.69
643.349	195.69
643.554	197.69
643.759	165.69
643.964	183.69
644.169	177.69
644.374	186.69
644.579	181.69
644.784	195.69
644.989	200.69
645.194	186.69
645.399	196.69
645.604	182.69
645.809	192.69
646.014	199.69
646.219	168.69
646.423	187.69
646.628	197.69
646.833	195.69
647.038	199.69
647.243	187.69
647.447	181.69
647.652	191.69
647.857	179.69
648.062	187.69
648.266	190.69
648.471	185.69
648.676	184.69
648.88	180.69
649.085	199.69
649.289	189.69
649.494	185.69
649.698	198.69
649.903	209.69
650.107	187.69
650.312	165.69
650.516	169.69
650.721	158.69
650.925	157.69
651.13	173.69
651.334	165.69
651.539	178.69
651.743	167.69
651.947	150.69
652.152	152.69
652.356	174.69
652.56	159.69
652.764	165.69
652.969	160.69
653.173	167.69
653.377	167.69
653.581	158.69
653.785	141.69
653.99	145.69
654.194	150.69
654.398	147.69
654.602	154.69
654.806	136.69
655.01	149.69
655.214	154.69
655.418	149.69
655.622	131.69
655.826	141.69
656.03	142.69
656.234	152.69
656.438	154.69
656.642	141.69
656.846	133.69
657.049	141.69
657.253	149.69
657.457	139.69
657.661	132.69
657.865	123.69
658.068	118.69
658.272	116.69
658.476	107.69
658.68	113.69
658.883	108.69
659.087	99.69
659.291	108.69
659.494	113.69
659.698	93.69
659.901	110.69
660.105	106.69
660.309	102.69
660.512	96.69
660.716	101.69
660.919	95.69
661.123	98.69
661.326	85.69
661.53	84.69
661.733	84.69
661.936	95.69
662.14	102.69
662.343	101.69
662.546	86.69
662.75	81.69
662.953	83.69
663.156	91.69
663.36	86.69
663.563	75.69
663.766	74.69
663.969	85.69
664.173	88.69
664.376	82.69
664.579	88.69
664.782	69.69
664.985	71.69
665.188	79.69
665.391	80.69
665.594	92.69
665.797	77.69
666	86.69
666.203	90.69
666.406	94.69
666.609	89.69
666.812	97.69
667.015	88.69
667.218	83.69
667.421	97.69
667.624	78.69
667.827	88.69
668.03	70.69
668.232	64.69
668.435	83.69
668.638	81.69
668.841	87.69
669.043	87.69
669.246	103.69
669.449	81.69
669.651	77.69
669.854	86.69
670.057	80.69
670.259	69.69
670.462	78.69
670.665	70.69
670.867	73.69
671.07	75.69
671.272	69.69
671.475	78.69
671.677	73.69
671.88	81.69
672.082	71.69
672.284	87.69
672.487	83.69
672.689	82.69
672.892	69.69
