Data from 1974.PennyLincolnUp.Lamp.En5.5.200Scan.071719.P1.Changed Mount._HRD10591_15-52-37-857.txt Node
Date: Thu Jul 18 15:52:37 EDT 2019
User: cochatt
Spectrometer: HR+D1059
Trigger mode: 1
Integration Time (sec): 1.000000E-1
Scans to average: 1
Electric dark correction enabled: true
Nonlinearity correction enabled: false
Boxcar width: 0
XAxis mode: Wavelengths
Number of Pixels in Spectrum: 2048
>>>>>Begin Spectral Data<<<<<
223.165	-8.25
223.4	-8.25
223.635	-8.25
223.869	-18.25
224.104	-11.25
224.338	-23.25
224.573	-17.25
224.808	-13.25
225.042	0.75
225.277	-7.25
225.511	1.75
225.746	3.75
225.98	1.75
226.215	8.75
226.449	15.75
226.683	19.75
226.918	21.75
227.152	24.75
227.387	35.75
227.621	47.75
227.856	48.75
228.09	51.75
228.324	56.75
228.559	47.75
228.793	55.75
229.027	90.75
229.262	116.75
229.496	109.75
229.73	132.75
229.964	145.75
230.199	142.75
230.433	111.75
230.667	114.75
230.901	118.75
231.136	108.75
231.37	117.75
231.604	104.75
231.838	109.75
232.072	127.75
232.306	119.75
232.541	126.75
232.775	108.75
233.009	127.75
233.243	130.75
233.477	112.75
233.711	122.75
233.945	123.75
234.179	138.75
234.413	117.75
234.647	122.75
234.881	123.75
235.115	135.75
235.349	127.75
235.583	124.75
235.817	118.75
236.051	142.75
236.285	135.75
236.519	135.75
236.753	142.75
236.987	131.75
237.221	171.75
237.455	248.75
237.689	195.75
237.922	154.75
238.156	139.75
238.39	140.75
238.624	138.75
238.858	128.75
239.091	127.75
239.325	134.75
239.559	134.75
239.793	142.75
240.027	128.75
240.26	146.75
240.494	170.75
240.728	156.75
240.961	150.75
241.195	164.75
241.429	143.75
241.662	127.75
241.896	139.75
242.13	149.75
242.363	146.75
242.597	139.75
242.83	141.75
243.064	145.75
243.298	160.75
243.531	162.75
243.765	155.75
243.998	153.75
244.232	157.75
244.465	144.75
244.699	166.75
244.932	158.75
245.166	159.75
245.399	171.75
245.633	167.75
245.866	145.75
246.099	180.75
246.333	153.75
246.566	157.75
246.8	161.75
247.033	168.75
247.266	172.75
247.5	166.75
247.733	168.75
247.966	166.75
248.2	181.75
248.433	193.75
248.666	180.75
248.899	210.75
249.133	207.75
249.366	225.75
249.599	218.75
249.832	182.75
250.066	192.75
250.299	213.75
250.532	203.75
250.765	217.75
250.998	236.75
251.231	240.75
251.465	225.75
251.698	206.75
251.931	212.75
252.164	209.75
252.397	189.75
252.63	213.75
252.863	221.75
253.096	206.75
253.329	227.75
253.562	227.75
253.795	241.75
254.028	221.75
254.261	235.75
254.494	239.75
254.727	256.75
254.96	292.75
255.193	281.75
255.426	257.75
255.659	238.75
255.892	233.75
256.124	245.75
256.357	235.75
256.59	230.75
256.823	234.75
257.056	246.75
257.289	221.75
257.521	240.75
257.754	218.75
257.987	194.75
258.22	224.75
258.452	228.75
258.685	212.75
258.918	212.75
259.151	219.75
259.383	235.75
259.616	239.75
259.849	235.75
260.081	252.75
260.314	262.75
260.547	272.75
260.779	260.75
261.012	253.75
261.244	239.75
261.477	244.75
261.71	234.75
261.942	235.75
262.175	252.75
262.407	230.75
262.64	232.75
262.872	216.75
263.105	231.75
263.337	222.75
263.57	231.75
263.802	217.75
264.035	213.75
264.267	228.75
264.499	227.75
264.732	229.75
264.964	224.75
265.197	220.75
265.429	223.75
265.661	229.75
265.894	227.75
266.126	217.75
266.358	216.75
266.591	227.75
266.823	238.75
267.055	248.75
267.287	236.75
267.52	242.75
267.752	256.75
267.984	230.75
268.216	265.75
268.448	260.75
268.681	264.75
268.913	275.75
269.145	283.75
269.377	290.75
269.609	297.75
269.841	287.75
270.073	274.75
270.306	318.75
270.538	332.75
270.77	332.75
271.002	316.75
271.234	300.75
271.466	302.75
271.698	318.75
271.93	338.75
272.162	341.75
272.394	319.75
272.626	313.75
272.858	303.75
273.09	298.75
273.322	280.75
273.553	282.75
273.785	282.75
274.017	278.75
274.249	304.75
274.481	271.75
274.713	283.75
274.945	271.75
275.176	287.75
275.408	282.75
275.64	272.75
275.872	288.75
276.104	287.75
276.335	292.75
276.567	299.75
276.799	315.75
277.031	324.75
277.262	346.75
277.494	328.75
277.726	333.75
277.957	296.75
278.189	307.75
278.421	293.75
278.652	295.75
278.884	279.75
279.115	291.75
279.347	290.75
279.579	297.75
279.81	281.75
280.042	283.75
280.273	310.75
280.505	294.75
280.736	282.75
280.968	298.75
281.199	283.75
281.431	290.75
281.662	284.75
281.894	298.75
282.125	291.75
282.356	307.75
282.588	325.75
282.819	326.75
283.051	314.75
283.282	308.75
283.513	306.75
283.745	315.75
283.976	318.75
284.207	308.75
284.439	314.75
284.67	304.75
284.901	312.75
285.132	306.75
285.364	317.75
285.595	323.75
285.826	304.75
286.057	318.75
286.288	310.75
286.52	322.75
286.751	290.75
286.982	300.75
287.213	291.75
287.444	307.75
287.675	314.75
287.906	322.75
288.138	330.75
288.369	311.75
288.6	308.75
288.831	325.75
289.062	332.75
289.293	322.75
289.524	320.75
289.755	297.75
289.986	329.75
290.217	318.75
290.448	318.75
290.679	312.75
290.91	312.75
291.141	317.75
291.371	317.75
291.602	312.75
291.833	332.75
292.064	316.75
292.295	319.75
292.526	300.75
292.757	314.75
292.987	301.75
293.218	314.75
293.449	322.75
293.68	316.75
293.91	307.75
294.141	315.75
294.372	316.75
294.603	319.75
294.833	329.75
295.064	327.75
295.295	312.75
295.525	326.75
295.756	354.75
295.987	333.75
296.217	330.75
296.448	350.75
296.679	334.75
296.909	322.75
297.14	350.75
297.37	344.75
297.601	320.75
297.831	330.75
298.062	324.75
298.292	328.75
298.523	350.75
298.753	336.75
298.984	334.75
299.214	330.75
299.445	338.75
299.675	341.75
299.905	341.75
300.136	345.75
300.366	352.75
300.597	348.75
300.827	339.75
301.057	345.75
301.288	359.75
301.518	355.75
301.748	371.75
301.979	380.75
302.209	366.75
302.439	351.75
302.669	349.75
302.9	364.75
303.13	357.75
303.36	351.75
303.59	348.75
303.82	366.75
304.051	372.75
304.281	370.75
304.511	353.75
304.741	340.75
304.971	355.75
305.201	361.75
305.431	344.75
305.661	339.75
305.891	349.75
306.121	365.75
306.352	363.75
306.582	368.75
306.812	365.75
307.042	376.75
307.272	350.75
307.502	376.75
307.731	368.75
307.961	376.75
308.191	373.75
308.421	372.75
308.651	372.75
308.881	375.75
309.111	374.75
309.341	375.75
309.571	362.75
309.8	390.75
310.03	400.75
310.26	397.75
310.49	389.75
310.72	417.75
310.949	407.75
311.179	408.75
311.409	403.75
311.639	406.75
311.868	394.75
312.098	389.75
312.328	425.75
312.557	409.75
312.787	419.75
313.017	410.75
313.246	414.75
313.476	414.75
313.706	417.75
313.935	417.75
314.165	437.75
314.394	428.75
314.624	418.75
314.853	408.75
315.083	398.75
315.312	414.75
315.542	389.75
315.771	393.75
316.001	395.75
316.23	404.75
316.46	416.75
316.689	409.75
316.919	407.75
317.148	411.75
317.377	409.75
317.607	416.75
317.836	407.75
318.065	419.75
318.295	419.75
318.524	395.75
318.753	398.75
318.983	387.75
319.212	390.75
319.441	411.75
319.67	419.75
319.9	416.75
320.129	419.75
320.358	412.75
320.587	428.75
320.816	430.75
321.046	421.75
321.275	431.75
321.504	431.75
321.733	408.75
321.962	432.75
322.191	451.75
322.42	437.75
322.649	438.75
322.878	464.75
323.108	448.75
323.337	478.75
323.566	462.75
323.795	544.75
324.024	548.75
324.253	624.75
324.482	846.75
324.71	1248.75
324.939	1806.75
325.168	1622.75
325.397	827.75
325.626	593.75
325.855	521.75
326.084	517.75
326.313	502.75
326.542	498.75
326.77	524.75
326.999	614.75
327.228	790.75
327.457	1135.75
327.686	1418.75
327.914	942.75
328.143	660.75
328.372	606.75
328.6	566.75
328.829	529.75
329.058	555.75
329.287	556.75
329.515	547.75
329.744	507.75
329.972	533.75
330.201	545.75
330.43	551.75
330.658	559.75
330.887	584.75
331.115	581.75
331.344	559.75
331.572	496.75
331.801	523.75
332.03	524.75
332.258	502.75
332.486	510.75
332.715	500.75
332.943	496.75
333.172	492.75
333.4	485.75
333.629	519.75
333.857	538.75
334.085	522.75
334.314	562.75
334.542	562.75
334.771	568.75
334.999	540.75
335.227	538.75
335.455	507.75
335.684	498.75
335.912	504.75
336.14	500.75
336.369	476.75
336.597	511.75
336.825	493.75
337.053	485.75
337.281	476.75
337.51	477.75
337.738	485.75
337.966	489.75
338.194	499.75
338.422	463.75
338.65	491.75
338.878	475.75
339.106	471.75
339.334	487.75
339.562	457.75
339.79	450.75
340.018	471.75
340.246	471.75
340.474	455.75
340.702	460.75
340.93	464.75
341.158	451.75
341.386	463.75
341.614	481.75
341.842	487.75
342.07	468.75
342.298	478.75
342.526	429.75
342.754	453.75
342.981	450.75
343.209	454.75
343.437	472.75
343.665	480.75
343.893	501.75
344.12	503.75
344.348	500.75
344.576	487.75
344.804	510.75
345.031	480.75
345.259	488.75
345.487	484.75
345.714	487.75
345.942	458.75
346.17	468.75
346.397	470.75
346.625	449.75
346.853	429.75
347.08	453.75
347.308	435.75
347.535	465.75
347.763	474.75
347.99	466.75
348.218	463.75
348.445	461.75
348.673	464.75
348.9	448.75
349.128	457.75
349.355	444.75
349.583	424.75
349.81	455.75
350.037	459.75
350.265	428.75
350.492	471.75
350.72	441.75
350.947	467.75
351.174	457.75
351.402	457.75
351.629	474.75
351.856	464.75
352.083	476.75
352.311	454.75
352.538	454.75
352.765	460.75
352.992	469.75
353.22	464.75
353.447	454.75
353.674	438.75
353.901	450.75
354.128	435.75
354.355	444.75
354.583	438.75
354.81	448.75
355.037	438.75
355.264	424.75
355.491	414.75
355.718	437.75
355.945	424.75
356.172	439.75
356.399	429.75
356.626	450.75
356.853	444.75
357.08	436.75
357.307	452.75
357.534	421.75
357.761	426.75
357.988	433.75
358.215	436.75
358.441	426.75
358.668	421.75
358.895	464.75
359.122	441.75
359.349	460.75
359.576	440.75
359.802	472.75
360.029	491.75
360.256	504.75
360.483	505.75
360.709	466.75
360.936	451.75
361.163	452.75
361.39	448.75
361.616	464.75
361.843	451.75
362.07	468.75
362.296	452.75
362.523	465.75
362.749	438.75
362.976	450.75
363.203	438.75
363.429	464.75
363.656	436.75
363.882	425.75
364.109	434.75
364.335	437.75
364.562	429.75
364.788	427.75
365.015	420.75
365.241	445.75
365.468	437.75
365.694	424.75
365.92	444.75
366.147	440.75
366.373	449.75
366.599	443.75
366.826	435.75
367.052	436.75
367.278	459.75
367.505	449.75
367.731	457.75
367.957	458.75
368.184	436.75
368.41	460.75
368.636	489.75
368.862	485.75
369.089	446.75
369.315	459.75
369.541	446.75
369.767	446.75
369.993	442.75
370.219	456.75
370.445	450.75
370.672	435.75
370.898	459.75
371.124	452.75
371.35	458.75
371.576	456.75
371.802	464.75
372.028	450.75
372.254	463.75
372.48	465.75
372.706	480.75
372.932	445.75
373.158	456.75
373.384	474.75
373.61	460.75
373.835	464.75
374.061	445.75
374.287	469.75
374.513	480.75
374.739	483.75
374.965	468.75
375.191	474.75
375.416	498.75
375.642	468.75
375.868	451.75
376.094	442.75
376.319	442.75
376.545	473.75
376.771	451.75
376.997	468.75
377.222	459.75
377.448	454.75
377.674	457.75
377.899	459.75
378.125	461.75
378.35	458.75
378.576	464.75
378.802	436.75
379.027	408.75
379.253	451.75
379.478	459.75
379.704	457.75
379.929	469.75
380.155	452.75
380.38	460.75
380.606	473.75
380.831	480.75
381.057	484.75
381.282	455.75
381.507	464.75
381.733	471.75
381.958	474.75
382.184	465.75
382.409	467.75
382.634	465.75
382.86	468.75
383.085	464.75
383.31	472.75
383.535	481.75
383.761	472.75
383.986	492.75
384.211	501.75
384.436	490.75
384.662	497.75
384.887	507.75
385.112	483.75
385.337	498.75
385.562	481.75
385.787	472.75
386.013	542.75
386.238	528.75
386.463	515.75
386.688	531.75
386.913	488.75
387.138	488.75
387.363	518.75
387.588	517.75
387.813	520.75
388.038	516.75
388.263	511.75
388.488	515.75
388.713	526.75
388.938	518.75
389.163	502.75
389.387	521.75
389.612	526.75
389.837	506.75
390.062	521.75
390.287	519.75
390.512	510.75
390.736	516.75
390.961	529.75
391.186	507.75
391.411	514.75
391.636	553.75
391.86	537.75
392.085	528.75
392.31	550.75
392.534	519.75
392.759	542.75
392.984	531.75
393.208	526.75
393.433	524.75
393.658	525.75
393.882	529.75
394.107	529.75
394.331	543.75
394.556	517.75
394.78	540.75
395.005	530.75
395.229	528.75
395.454	546.75
395.678	561.75
395.903	555.75
396.127	552.75
396.352	573.75
396.576	538.75
396.801	556.75
397.025	539.75
397.249	544.75
397.474	567.75
397.698	547.75
397.922	575.75
398.147	585.75
398.371	611.75
398.595	596.75
398.82	596.75
399.044	640.75
399.268	626.75
399.492	702.75
399.717	717.75
399.941	756.75
400.165	764.75
400.389	772.75
400.613	669.75
400.837	634.75
401.062	649.75
401.286	609.75
401.51	598.75
401.734	623.75
401.958	596.75
402.182	599.75
402.406	630.75
402.63	588.75
402.854	632.75
403.078	618.75
403.302	622.75
403.526	645.75
403.75	611.75
403.974	626.75
404.198	642.75
404.422	652.75
404.645	626.75
404.869	641.75
405.093	700.75
405.317	702.75
405.541	727.75
405.765	692.75
405.988	653.75
406.212	656.75
406.436	661.75
406.66	676.75
406.883	672.75
407.107	712.75
407.331	730.75
407.555	811.75
407.778	808.75
408.002	743.75
408.226	695.75
408.449	677.75
408.673	687.75
408.896	703.75
409.12	739.75
409.344	728.75
409.567	654.75
409.791	638.75
410.014	651.75
410.238	618.75
410.461	634.75
410.685	622.75
410.908	646.75
411.132	685.75
411.355	712.75
411.578	660.75
411.802	647.75
412.025	630.75
412.249	639.75
412.472	652.75
412.695	727.75
412.919	702.75
413.142	655.75
413.365	611.75
413.589	610.75
413.812	613.75
414.035	611.75
414.258	610.75
414.482	605.75
414.705	580.75
414.928	582.75
415.151	633.75
415.374	596.75
415.597	604.75
415.821	588.75
416.044	585.75
416.267	583.75
416.49	581.75
416.713	584.75
416.936	583.75
417.159	586.75
417.382	592.75
417.605	611.75
417.828	609.75
418.051	588.75
418.274	606.75
418.497	603.75
418.72	589.75
418.943	613.75
419.166	632.75
419.389	650.75
419.611	628.75
419.834	615.75
420.057	646.75
420.28	640.75
420.503	610.75
420.726	600.75
420.948	649.75
421.171	666.75
421.394	734.75
421.617	645.75
421.839	606.75
422.062	634.75
422.285	637.75
422.507	690.75
422.73	751.75
422.953	730.75
423.175	671.75
423.398	624.75
423.621	644.75
423.843	657.75
424.066	646.75
424.288	677.75
424.511	678.75
424.733	719.75
424.956	824.75
425.178	792.75
425.401	778.75
425.623	796.75
425.846	692.75
426.068	646.75
426.291	638.75
426.513	635.75
426.735	655.75
426.958	680.75
427.18	746.75
427.402	891.75
427.625	986.75
427.847	864.75
428.069	768.75
428.292	702.75
428.514	653.75
428.736	604.75
428.958	615.75
429.181	594.75
429.403	585.75
429.625	593.75
429.847	656.75
430.069	706.75
430.292	692.75
430.514	619.75
430.736	624.75
430.958	589.75
431.18	593.75
431.402	561.75
431.624	566.75
431.846	563.75
432.068	575.75
432.29	567.75
432.512	580.75
432.734	595.75
432.956	593.75
433.178	596.75
433.4	578.75
433.622	588.75
433.844	584.75
434.066	571.75
434.287	567.75
434.509	606.75
434.731	607.75
434.953	613.75
435.175	619.75
435.397	671.75
435.618	644.75
435.84	691.75
436.062	774.75
436.284	852.75
436.505	683.75
436.727	652.75
436.949	647.75
437.17	591.75
437.392	586.75
437.614	597.75
437.835	628.75
438.057	722.75
438.278	841.75
438.5	830.75
438.721	894.75
438.943	888.75
439.165	701.75
439.386	661.75
439.608	644.75
439.829	649.75
440.05	662.75
440.272	686.75
440.493	670.75
440.715	654.75
440.936	606.75
441.158	617.75
441.379	586.75
441.6	628.75
441.822	674.75
442.043	683.75
442.264	803.75
442.486	821.75
442.707	709.75
442.928	667.75
443.149	661.75
443.371	691.75
443.592	751.75
443.813	839.75
444.034	873.75
444.255	774.75
444.476	704.75
444.698	647.75
444.919	675.75
445.14	774.75
445.361	721.75
445.582	687.75
445.803	747.75
446.024	840.75
446.245	850.75
446.466	797.75
446.687	681.75
446.908	655.75
447.129	611.75
447.35	616.75
447.571	587.75
447.792	586.75
448.013	571.75
448.234	598.75
448.455	667.75
448.675	760.75
448.896	885.75
449.117	753.75
449.338	682.75
449.559	824.75
449.779	940.75
450	806.75
450.221	664.75
450.442	609.75
450.662	594.75
450.883	574.75
451.104	585.75
451.324	579.75
451.545	558.75
451.766	532.75
451.986	546.75
452.207	553.75
452.428	534.75
452.648	543.75
452.869	545.75
453.089	534.75
453.31	530.75
453.53	537.75
453.751	521.75
453.971	517.75
454.192	555.75
454.412	538.75
454.633	538.75
454.853	509.75
455.073	518.75
455.294	542.75
455.514	611.75
455.734	607.75
455.955	550.75
456.175	518.75
456.395	501.75
456.616	499.75
456.836	498.75
457.056	494.75
457.276	501.75
457.497	502.75
457.717	522.75
457.937	519.75
458.157	516.75
458.377	536.75
458.598	532.75
458.818	579.75
459.038	660.75
459.258	699.75
459.478	596.75
459.698	571.75
459.918	585.75
460.138	583.75
460.358	572.75
460.578	607.75
460.798	603.75
461.018	587.75
461.238	594.75
461.458	600.75
461.678	604.75
461.898	573.75
462.118	571.75
462.338	618.75
462.558	625.75
462.777	632.75
462.997	666.75
463.217	679.75
463.437	705.75
463.657	660.75
463.876	630.75
464.096	638.75
464.316	644.75
464.536	662.75
464.755	638.75
464.975	638.75
465.195	639.75
465.414	709.75
465.634	638.75
465.854	612.75
466.073	574.75
466.293	558.75
466.512	548.75
466.732	555.75
466.951	544.75
467.171	563.75
467.391	531.75
467.61	573.75
467.829	540.75
468.049	562.75
468.268	563.75
468.488	551.75
468.707	532.75
468.927	527.75
469.146	520.75
469.365	544.75
469.585	534.75
469.804	545.75
470.023	582.75
470.243	565.75
470.462	563.75
470.681	555.75
470.901	574.75
471.12	559.75
471.339	550.75
471.558	560.75
471.777	565.75
471.997	560.75
472.216	534.75
472.435	582.75
472.654	575.75
472.873	542.75
473.092	549.75
473.311	541.75
473.53	538.75
473.749	576.75
473.968	598.75
474.187	684.75
474.406	719.75
474.625	611.75
474.844	582.75
475.063	569.75
475.282	550.75
475.501	576.75
475.72	572.75
475.939	597.75
476.158	569.75
476.377	582.75
476.596	584.75
476.814	594.75
477.033	589.75
477.252	578.75
477.471	595.75
477.69	595.75
477.908	614.75
478.127	614.75
478.346	615.75
478.564	628.75
478.783	623.75
479.002	641.75
479.22	654.75
479.439	665.75
479.658	652.75
479.876	678.75
480.095	692.75
480.313	730.75
480.532	695.75
480.751	693.75
480.969	667.75
481.188	742.75
481.406	747.75
481.624	699.75
481.843	677.75
482.061	678.75
482.28	630.75
482.498	670.75
482.717	644.75
482.935	682.75
483.153	665.75
483.372	640.75
483.59	662.75
483.808	666.75
484.027	657.75
484.245	649.75
484.463	657.75
484.681	669.75
484.9	650.75
485.118	644.75
485.336	666.75
485.554	662.75
485.772	684.75
485.99	677.75
486.209	654.75
486.427	665.75
486.645	682.75
486.863	731.75
487.081	648.75
487.299	668.75
487.517	695.75
487.735	700.75
487.953	714.75
488.171	694.75
488.389	712.75
488.607	694.75
488.825	708.75
489.043	693.75
489.261	702.75
489.479	709.75
489.696	719.75
489.914	734.75
490.132	725.75
490.35	742.75
490.568	728.75
490.786	753.75
491.003	733.75
491.221	772.75
491.439	778.75
491.657	783.75
491.874	785.75
492.092	801.75
492.31	808.75
492.527	787.75
492.745	822.75
492.963	821.75
493.18	834.75
493.398	844.75
493.615	859.75
493.833	812.75
494.05	831.75
494.268	828.75
494.485	823.75
494.703	824.75
494.92	837.75
495.138	839.75
495.355	828.75
495.573	848.75
495.79	844.75
496.008	799.75
496.225	812.75
496.442	855.75
496.66	842.75
496.877	830.75
497.094	839.75
497.312	854.75
497.529	849.75
497.746	886.75
497.963	886.75
498.181	915.75
498.398	918.75
498.615	914.75
498.832	975.75
499.049	981.75
499.267	1024.75
499.484	1097.75
499.701	1102.75
499.918	1171.75
500.135	1250.75
500.352	1289.75
500.569	1347.75
500.786	1365.75
501.003	1297.75
501.22	1278.75
501.437	1178.75
501.654	1135.75
501.871	1108.75
502.088	1066.75
502.305	1038.75
502.522	992.75
502.739	986.75
502.956	926.75
503.172	914.75
503.389	908.75
503.606	863.75
503.823	850.75
504.04	844.75
504.256	847.75
504.473	842.75
504.69	870.75
504.907	856.75
505.123	852.75
505.34	808.75
505.557	821.75
505.773	770.75
505.99	806.75
506.207	778.75
506.423	765.75
506.64	782.75
506.856	766.75
507.073	733.75
507.289	764.75
507.506	760.75
507.722	747.75
507.939	779.75
508.155	747.75
508.372	749.75
508.588	724.75
508.805	716.75
509.021	705.75
509.238	770.75
509.454	716.75
509.67	725.75
509.887	748.75
510.103	713.75
510.319	723.75
510.536	784.75
510.752	1128.75
510.968	966.75
511.184	731.75
511.401	714.75
511.617	683.75
511.833	680.75
512.049	686.75
512.265	705.75
512.481	699.75
512.698	680.75
512.914	683.75
513.13	660.75
513.346	694.75
513.562	668.75
513.778	679.75
513.994	705.75
514.21	687.75
514.426	714.75
514.642	744.75
514.858	756.75
515.074	805.75
515.29	879.75
515.506	1136.75
515.721	1000.75
515.937	791.75
516.153	736.75
516.369	728.75
516.585	725.75
516.801	721.75
517.016	730.75
517.232	725.75
517.448	749.75
517.664	725.75
517.879	738.75
518.095	741.75
518.311	755.75
518.527	717.75
518.742	709.75
518.958	697.75
519.173	716.75
519.389	726.75
519.605	708.75
519.82	692.75
520.036	686.75
520.251	694.75
520.467	718.75
520.682	722.75
520.898	717.75
521.113	718.75
521.329	746.75
521.544	812.75
521.76	934.75
521.975	1362.75
522.19	1385.75
522.406	882.75
522.621	716.75
522.836	672.75
523.052	654.75
523.267	643.75
523.482	615.75
523.698	607.75
523.913	613.75
524.128	616.75
524.343	600.75
524.559	595.75
524.774	608.75
524.989	606.75
525.204	605.75
525.419	608.75
525.634	591.75
525.849	586.75
526.064	575.75
526.28	576.75
526.495	583.75
526.71	571.75
526.925	571.75
527.14	564.75
527.355	537.75
527.57	557.75
527.785	555.75
527.999	575.75
528.214	558.75
528.429	548.75
528.644	565.75
528.859	557.75
529.074	578.75
529.289	589.75
529.503	639.75
529.718	621.75
529.933	570.75
530.148	554.75
530.363	590.75
530.577	576.75
530.792	560.75
531.007	564.75
531.221	567.75
531.436	563.75
531.651	566.75
531.865	544.75
532.08	578.75
532.295	571.75
532.509	567.75
532.724	546.75
532.938	533.75
533.153	556.75
533.367	527.75
533.582	579.75
533.796	532.75
534.011	544.75
534.225	542.75
534.44	541.75
534.654	523.75
534.868	548.75
535.083	544.75
535.297	546.75
535.511	547.75
535.726	565.75
535.94	573.75
536.154	564.75
536.369	542.75
536.583	536.75
536.797	532.75
537.011	537.75
537.225	540.75
537.44	540.75
537.654	514.75
537.868	541.75
538.082	520.75
538.296	542.75
538.51	522.75
538.724	527.75
538.938	541.75
539.153	536.75
539.367	545.75
539.581	528.75
539.795	515.75
540.009	517.75
540.222	506.75
540.436	510.75
540.65	523.75
540.864	516.75
541.078	516.75
541.292	543.75
541.506	544.75
541.72	531.75
541.934	540.75
542.147	529.75
542.361	530.75
542.575	530.75
542.789	536.75
543.002	541.75
543.216	536.75
543.43	530.75
543.644	508.75
543.857	510.75
544.071	526.75
544.285	532.75
544.498	556.75
544.712	516.75
544.925	528.75
545.139	523.75
545.352	512.75
545.566	517.75
545.779	503.75
545.993	506.75
546.206	535.75
546.42	509.75
546.633	505.75
546.847	530.75
547.06	525.75
547.274	521.75
547.487	513.75
547.7	517.75
547.914	522.75
548.127	517.75
548.34	512.75
548.554	523.75
548.767	529.75
548.98	513.75
549.193	506.75
549.407	523.75
549.62	525.75
549.833	536.75
550.046	504.75
550.259	506.75
550.473	501.75
550.686	514.75
550.899	510.75
551.112	523.75
551.325	536.75
551.538	506.75
551.751	521.75
551.964	513.75
552.177	517.75
552.39	526.75
552.603	508.75
552.816	518.75
553.029	499.75
553.242	535.75
553.455	551.75
553.667	545.75
553.88	542.75
554.093	525.75
554.306	517.75
554.519	538.75
554.732	504.75
554.944	482.75
555.157	487.75
555.37	497.75
555.583	480.75
555.795	488.75
556.008	486.75
556.221	479.75
556.433	496.75
556.646	452.75
556.859	472.75
557.071	463.75
557.284	456.75
557.496	468.75
557.709	461.75
557.921	468.75
558.134	475.75
558.346	465.75
558.559	480.75
558.771	454.75
558.984	449.75
559.196	446.75
559.409	466.75
559.621	438.75
559.833	459.75
560.046	468.75
560.258	464.75
560.47	457.75
560.683	459.75
560.895	440.75
561.107	452.75
561.32	446.75
561.532	471.75
561.744	455.75
561.956	448.75
562.168	466.75
562.381	448.75
562.593	443.75
562.805	467.75
563.017	483.75
563.229	477.75
563.441	468.75
563.653	461.75
563.865	458.75
564.077	488.75
564.289	466.75
564.501	482.75
564.713	478.75
564.925	469.75
565.137	489.75
565.349	478.75
565.561	490.75
565.773	514.75
565.985	528.75
566.197	532.75
566.408	533.75
566.62	568.75
566.832	580.75
567.044	614.75
567.255	604.75
567.467	600.75
567.679	622.75
567.891	640.75
568.102	649.75
568.314	635.75
568.526	583.75
568.737	549.75
568.949	547.75
569.161	529.75
569.372	528.75
569.584	474.75
569.795	484.75
570.007	497.75
570.218	482.75
570.43	481.75
570.641	441.75
570.853	446.75
571.064	460.75
571.276	460.75
571.487	435.75
571.698	437.75
571.91	430.75
572.121	410.75
572.333	413.75
572.544	397.75
572.755	402.75
572.966	418.75
573.178	400.75
573.389	411.75
573.6	400.75
573.811	392.75
574.023	389.75
574.234	395.75
574.445	382.75
574.656	387.75
574.867	391.75
575.078	384.75
575.289	383.75
575.501	390.75
575.712	376.75
575.923	372.75
576.134	383.75
576.345	385.75
576.556	378.75
576.767	394.75
576.978	373.75
577.188	403.75
577.399	381.75
577.61	362.75
577.821	374.75
578.032	367.75
578.243	392.75
578.454	538.75
578.665	454.75
578.875	381.75
579.086	367.75
579.297	359.75
579.508	354.75
579.718	360.75
579.929	346.75
580.14	362.75
580.35	371.75
580.561	370.75
580.772	350.75
580.982	341.75
581.193	340.75
581.403	347.75
581.614	370.75
581.825	342.75
582.035	344.75
582.246	366.75
582.456	342.75
582.667	345.75
582.877	320.75
583.087	352.75
583.298	339.75
583.508	350.75
583.719	344.75
583.929	359.75
584.139	335.75
584.35	352.75
584.56	335.75
584.77	355.75
584.981	340.75
585.191	346.75
585.401	322.75
585.611	331.75
585.821	354.75
586.032	361.75
586.242	364.75
586.452	360.75
586.662	346.75
586.872	334.75
587.082	344.75
587.292	336.75
587.502	336.75
587.713	348.75
587.923	356.75
588.133	339.75
588.343	336.75
588.553	341.75
588.762	328.75
588.972	331.75
589.182	338.75
589.392	322.75
589.602	331.75
589.812	330.75
590.022	323.75
590.232	320.75
590.441	321.75
590.651	357.75
590.861	351.75
591.071	357.75
591.281	335.75
591.49	343.75
591.7	349.75
591.91	345.75
592.119	366.75
592.329	332.75
592.539	371.75
592.748	364.75
592.958	378.75
593.167	378.75
593.377	367.75
593.587	382.75
593.796	365.75
594.006	369.75
594.215	386.75
594.424	388.75
594.634	383.75
594.843	364.75
595.053	362.75
595.262	358.75
595.472	367.75
595.681	356.75
595.89	338.75
596.1	337.75
596.309	327.75
596.518	334.75
596.727	331.75
596.937	316.75
597.146	335.75
597.355	315.75
597.564	317.75
597.774	310.75
597.983	316.75
598.192	298.75
598.401	306.75
598.61	304.75
598.819	300.75
599.028	287.75
599.237	310.75
599.446	316.75
599.655	298.75
599.864	311.75
600.073	300.75
600.282	314.75
600.491	290.75
600.7	310.75
600.909	304.75
601.118	293.75
601.327	290.75
601.536	298.75
601.745	292.75
601.953	275.75
602.162	285.75
602.371	286.75
602.58	279.75
602.789	284.75
602.997	285.75
603.206	273.75
603.415	291.75
603.623	310.75
603.832	282.75
604.041	302.75
604.249	288.75
604.458	285.75
604.666	282.75
604.875	301.75
605.084	274.75
605.292	308.75
605.501	288.75
605.709	278.75
605.918	279.75
606.126	286.75
606.334	271.75
606.543	276.75
606.751	287.75
606.96	282.75
607.168	306.75
607.376	272.75
607.585	266.75
607.793	282.75
608.001	264.75
608.21	268.75
608.418	293.75
608.626	276.75
608.834	275.75
609.043	291.75
609.251	282.75
609.459	280.75
609.667	266.75
609.875	274.75
610.083	278.75
610.291	275.75
610.499	275.75
610.707	281.75
610.916	275.75
611.124	283.75
611.332	298.75
611.54	302.75
611.748	277.75
611.955	271.75
612.163	279.75
612.371	284.75
612.579	267.75
612.787	251.75
612.995	276.75
613.203	275.75
613.411	264.75
613.618	288.75
613.826	287.75
614.034	271.75
614.242	277.75
614.449	266.75
614.657	264.75
614.865	268.75
615.072	272.75
615.28	273.75
615.488	269.75
615.695	266.75
615.903	258.75
616.111	258.75
616.318	285.75
616.526	265.75
616.733	291.75
616.941	266.75
617.148	272.75
617.356	275.75
617.563	269.75
617.771	273.75
617.978	270.75
618.185	275.75
618.393	282.75
618.6	278.75
618.807	269.75
619.015	256.75
619.222	254.75
619.429	257.75
619.637	285.75
619.844	256.75
620.051	279.75
620.258	260.75
620.466	270.75
620.673	240.75
620.88	234.75
621.087	253.75
621.294	260.75
621.501	266.75
621.708	250.75
621.915	267.75
622.122	258.75
622.329	272.75
622.536	260.75
622.743	246.75
622.95	255.75
623.157	242.75
623.364	255.75
623.571	250.75
623.778	246.75
623.985	253.75
624.192	253.75
624.399	230.75
624.606	251.75
624.812	245.75
625.019	228.75
625.226	242.75
625.433	263.75
625.639	251.75
625.846	239.75
626.053	226.75
626.259	235.75
626.466	220.75
626.673	230.75
626.879	238.75
627.086	243.75
627.293	221.75
627.499	238.75
627.706	235.75
627.912	225.75
628.119	235.75
628.325	255.75
628.532	216.75
628.738	222.75
628.945	225.75
629.151	228.75
629.357	235.75
629.564	219.75
629.77	236.75
629.976	233.75
630.183	227.75
630.389	203.75
630.595	226.75
630.802	214.75
631.008	222.75
631.214	217.75
631.42	239.75
631.627	228.75
631.833	231.75
632.039	216.75
632.245	197.75
632.451	221.75
632.657	214.75
632.863	222.75
633.069	206.75
633.275	210.75
633.481	225.75
633.688	225.75
633.893	234.75
634.099	218.75
634.305	201.75
634.511	204.75
634.717	218.75
634.923	206.75
635.129	200.75
635.335	206.75
635.541	200.75
635.747	187.75
635.952	190.75
636.158	208.75
636.364	208.75
636.57	212.75
636.775	213.75
636.981	219.75
637.187	198.75
637.392	217.75
637.598	211.75
637.804	200.75
638.009	203.75
638.215	228.75
638.421	208.75
638.626	206.75
638.832	187.75
639.037	196.75
639.243	217.75
639.448	192.75
639.654	204.75
639.859	195.75
640.065	197.75
640.27	191.75
640.475	206.75
640.681	201.75
640.886	183.75
641.091	203.75
641.297	202.75
641.502	201.75
641.707	198.75
641.913	188.75
642.118	188.75
642.323	195.75
642.528	190.75
642.733	187.75
642.939	196.75
643.144	215.75
643.349	192.75
643.554	180.75
643.759	199.75
643.964	186.75
644.169	184.75
644.374	189.75
644.579	200.75
644.784	183.75
644.989	195.75
645.194	193.75
645.399	185.75
645.604	180.75
645.809	175.75
646.014	188.75
646.219	160.75
646.423	181.75
646.628	198.75
646.833	165.75
647.038	208.75
647.243	186.75
647.447	181.75
647.652	194.75
647.857	182.75
648.062	190.75
648.266	195.75
648.471	196.75
648.676	199.75
648.88	190.75
649.085	204.75
649.289	206.75
649.494	191.75
649.698	186.75
649.903	223.75
650.107	188.75
650.312	185.75
650.516	173.75
650.721	161.75
650.925	167.75
651.13	176.75
651.334	182.75
651.539	178.75
651.743	167.75
651.947	169.75
652.152	164.75
652.356	155.75
652.56	164.75
652.764	156.75
652.969	161.75
653.173	141.75
653.377	166.75
653.581	150.75
653.785	159.75
653.99	164.75
654.194	168.75
654.398	154.75
654.602	151.75
654.806	160.75
655.01	151.75
655.214	141.75
655.418	143.75
655.622	144.75
655.826	139.75
656.03	151.75
656.234	148.75
656.438	143.75
656.642	137.75
656.846	171.75
657.049	144.75
657.253	139.75
657.457	142.75
657.661	132.75
657.865	131.75
658.068	122.75
658.272	111.75
658.476	98.75
658.68	114.75
658.883	111.75
659.087	123.75
659.291	119.75
659.494	114.75
659.698	94.75
659.901	97.75
660.105	122.75
660.309	97.75
660.512	95.75
660.716	104.75
660.919	103.75
661.123	86.75
661.326	103.75
661.53	90.75
661.733	107.75
661.936	90.75
662.14	85.75
662.343	88.75
662.546	99.75
662.75	94.75
662.953	96.75
663.156	94.75
663.36	91.75
663.563	77.75
663.766	90.75
663.969	83.75
664.173	79.75
664.376	88.75
664.579	73.75
664.782	85.75
664.985	81.75
665.188	98.75
665.391	79.75
665.594	79.75
665.797	86.75
666	96.75
666.203	79.75
666.406	80.75
666.609	83.75
666.812	92.75
667.015	89.75
667.218	79.75
667.421	73.75
667.624	75.75
667.827	94.75
668.03	87.75
668.232	89.75
668.435	84.75
668.638	99.75
668.841	92.75
669.043	88.75
669.246	87.75
669.449	77.75
669.651	80.75
669.854	93.75
670.057	95.75
670.259	82.75
670.462	95.75
670.665	76.75
670.867	84.75
671.07	80.75
671.272	95.75
671.475	89.75
671.677	83.75
671.88	85.75
672.082	84.75
672.284	88.75
672.487	88.75
672.689	86.75
672.892	79.75
