Data from 1974.PennyLincolnUp.Lamp.En5.5.200Scan.071719.P1.Changed Mount._HRD10591_15-51-48-856.txt Node
Date: Thu Jul 18 15:51:48 EDT 2019
User: cochatt
Spectrometer: HR+D1059
Trigger mode: 1
Integration Time (sec): 1.000000E-1
Scans to average: 1
Electric dark correction enabled: true
Nonlinearity correction enabled: false
Boxcar width: 0
XAxis mode: Wavelengths
Number of Pixels in Spectrum: 2048
>>>>>Begin Spectral Data<<<<<
223.165	-12.94
223.4	-12.94
223.635	-12.94
223.869	-16.94
224.104	-19.94
224.338	-14.94
224.573	-2.94
224.808	-16.94
225.042	-8.94
225.277	-16.94
225.511	0.06
225.746	13.06
225.98	10.06
226.215	-3.94
226.449	5.06
226.683	8.06
226.918	33.06
227.152	45.06
227.387	34.06
227.621	37.06
227.856	41.06
228.09	38.06
228.324	45.06
228.559	66.06
228.793	71.06
229.027	88.06
229.262	100.06
229.496	115.06
229.73	114.06
229.964	158.06
230.199	123.06
230.433	112.06
230.667	104.06
230.901	111.06
231.136	127.06
231.37	102.06
231.604	96.06
231.838	116.06
232.072	120.06
232.306	115.06
232.541	123.06
232.775	121.06
233.009	120.06
233.243	128.06
233.477	120.06
233.711	129.06
233.945	119.06
234.179	119.06
234.413	130.06
234.647	121.06
234.881	128.06
235.115	127.06
235.349	111.06
235.583	125.06
235.817	126.06
236.051	123.06
236.285	117.06
236.519	123.06
236.753	131.06
236.987	120.06
237.221	181.06
237.455	220.06
237.689	195.06
237.922	135.06
238.156	127.06
238.39	130.06
238.624	134.06
238.858	125.06
239.091	118.06
239.325	120.06
239.559	136.06
239.793	128.06
240.027	128.06
240.26	141.06
240.494	167.06
240.728	147.06
240.961	140.06
241.195	138.06
241.429	138.06
241.662	134.06
241.896	144.06
242.13	147.06
242.363	138.06
242.597	125.06
242.83	137.06
243.064	161.06
243.298	137.06
243.531	128.06
243.765	144.06
243.998	140.06
244.232	141.06
244.465	149.06
244.699	148.06
244.932	165.06
245.166	139.06
245.399	144.06
245.633	159.06
245.866	148.06
246.099	164.06
246.333	147.06
246.566	144.06
246.8	151.06
247.033	166.06
247.266	165.06
247.5	162.06
247.733	187.06
247.966	183.06
248.2	173.06
248.433	172.06
248.666	190.06
248.899	175.06
249.133	206.06
249.366	224.06
249.599	194.06
249.832	200.06
250.066	168.06
250.299	193.06
250.532	201.06
250.765	203.06
250.998	207.06
251.231	220.06
251.465	203.06
251.698	220.06
251.931	204.06
252.164	206.06
252.397	189.06
252.63	202.06
252.863	205.06
253.096	208.06
253.329	241.06
253.562	232.06
253.795	219.06
254.028	226.06
254.261	225.06
254.494	212.06
254.727	259.06
254.96	276.06
255.193	266.06
255.426	244.06
255.659	222.06
255.892	231.06
256.124	233.06
256.357	230.06
256.59	221.06
256.823	215.06
257.056	206.06
257.289	220.06
257.521	221.06
257.754	219.06
257.987	214.06
258.22	212.06
258.452	204.06
258.685	216.06
258.918	221.06
259.151	222.06
259.383	230.06
259.616	218.06
259.849	229.06
260.081	230.06
260.314	248.06
260.547	250.06
260.779	252.06
261.012	240.06
261.244	232.06
261.477	220.06
261.71	241.06
261.942	225.06
262.175	224.06
262.407	234.06
262.64	222.06
262.872	207.06
263.105	206.06
263.337	232.06
263.57	236.06
263.802	233.06
264.035	223.06
264.267	197.06
264.499	216.06
264.732	231.06
264.964	217.06
265.197	219.06
265.429	230.06
265.661	218.06
265.894	207.06
266.126	233.06
266.358	226.06
266.591	231.06
266.823	240.06
267.055	240.06
267.287	247.06
267.52	230.06
267.752	227.06
267.984	236.06
268.216	242.06
268.448	235.06
268.681	242.06
268.913	257.06
269.145	264.06
269.377	294.06
269.609	277.06
269.841	259.06
270.073	287.06
270.306	315.06
270.538	303.06
270.77	304.06
271.002	301.06
271.234	295.06
271.466	297.06
271.698	294.06
271.93	319.06
272.162	314.06
272.394	303.06
272.626	307.06
272.858	281.06
273.09	290.06
273.322	265.06
273.553	259.06
273.785	272.06
274.017	273.06
274.249	271.06
274.481	267.06
274.713	280.06
274.945	285.06
275.176	276.06
275.408	277.06
275.64	285.06
275.872	245.06
276.104	275.06
276.335	276.06
276.567	268.06
276.799	269.06
277.031	306.06
277.262	322.06
277.494	330.06
277.726	308.06
277.957	295.06
278.189	287.06
278.421	274.06
278.652	268.06
278.884	255.06
279.115	284.06
279.347	277.06
279.579	274.06
279.81	267.06
280.042	263.06
280.273	276.06
280.505	273.06
280.736	265.06
280.968	265.06
281.199	282.06
281.431	275.06
281.662	287.06
281.894	283.06
282.125	276.06
282.356	306.06
282.588	299.06
282.819	293.06
283.051	302.06
283.282	266.06
283.513	285.06
283.745	291.06
283.976	304.06
284.207	290.06
284.439	288.06
284.67	288.06
284.901	276.06
285.132	282.06
285.364	304.06
285.595	287.06
285.826	287.06
286.057	290.06
286.288	290.06
286.52	300.06
286.751	289.06
286.982	293.06
287.213	288.06
287.444	293.06
287.675	298.06
287.906	293.06
288.138	309.06
288.369	309.06
288.6	309.06
288.831	296.06
289.062	295.06
289.293	323.06
289.524	304.06
289.755	307.06
289.986	311.06
290.217	309.06
290.448	300.06
290.679	312.06
290.91	314.06
291.141	292.06
291.371	303.06
291.602	295.06
291.833	310.06
292.064	283.06
292.295	296.06
292.526	292.06
292.757	290.06
292.987	299.06
293.218	298.06
293.449	318.06
293.68	290.06
293.91	301.06
294.141	306.06
294.372	292.06
294.603	302.06
294.833	313.06
295.064	309.06
295.295	320.06
295.525	308.06
295.756	298.06
295.987	308.06
296.217	320.06
296.448	340.06
296.679	327.06
296.909	315.06
297.14	323.06
297.37	323.06
297.601	311.06
297.831	320.06
298.062	337.06
298.292	332.06
298.523	323.06
298.753	327.06
298.984	312.06
299.214	321.06
299.445	311.06
299.675	317.06
299.905	333.06
300.136	337.06
300.366	332.06
300.597	350.06
300.827	326.06
301.057	344.06
301.288	334.06
301.518	336.06
301.748	339.06
301.979	327.06
302.209	339.06
302.439	347.06
302.669	367.06
302.9	345.06
303.13	344.06
303.36	328.06
303.59	349.06
303.82	354.06
304.051	347.06
304.281	345.06
304.511	356.06
304.741	340.06
304.971	356.06
305.201	360.06
305.431	339.06
305.661	349.06
305.891	347.06
306.121	355.06
306.352	355.06
306.582	343.06
306.812	351.06
307.042	355.06
307.272	338.06
307.502	341.06
307.731	338.06
307.961	358.06
308.191	345.06
308.421	335.06
308.651	329.06
308.881	365.06
309.111	373.06
309.341	333.06
309.571	347.06
309.8	351.06
310.03	360.06
310.26	356.06
310.49	372.06
310.72	383.06
310.949	381.06
311.179	376.06
311.409	395.06
311.639	360.06
311.868	375.06
312.098	389.06
312.328	388.06
312.557	380.06
312.787	383.06
313.017	376.06
313.246	393.06
313.476	395.06
313.706	409.06
313.935	405.06
314.165	400.06
314.394	408.06
314.624	409.06
314.853	375.06
315.083	379.06
315.312	407.06
315.542	381.06
315.771	375.06
316.001	378.06
316.23	385.06
316.46	373.06
316.689	396.06
316.919	372.06
317.148	398.06
317.377	412.06
317.607	395.06
317.836	397.06
318.065	389.06
318.295	377.06
318.524	373.06
318.753	380.06
318.983	392.06
319.212	370.06
319.441	391.06
319.67	394.06
319.9	382.06
320.129	385.06
320.358	393.06
320.587	379.06
320.816	379.06
321.046	384.06
321.275	388.06
321.504	381.06
321.733	404.06
321.962	417.06
322.191	423.06
322.42	403.06
322.649	412.06
322.878	441.06
323.108	437.06
323.337	450.06
323.566	467.06
323.795	468.06
324.024	501.06
324.253	594.06
324.482	781.06
324.71	1156.06
324.939	1716.06
325.168	1521.06
325.397	809.06
325.626	560.06
325.855	482.06
326.084	488.06
326.313	481.06
326.542	496.06
326.77	514.06
326.999	558.06
327.228	710.06
327.457	1051.06
327.686	1329.06
327.914	863.06
328.143	603.06
328.372	544.06
328.6	520.06
328.829	488.06
329.058	511.06
329.287	518.06
329.515	512.06
329.744	483.06
329.972	484.06
330.201	471.06
330.43	511.06
330.658	518.06
330.887	561.06
331.115	547.06
331.344	505.06
331.572	476.06
331.801	469.06
332.03	478.06
332.258	455.06
332.486	470.06
332.715	466.06
332.943	471.06
333.172	489.06
333.4	479.06
333.629	461.06
333.857	495.06
334.085	513.06
334.314	529.06
334.542	535.06
334.771	542.06
334.999	530.06
335.227	487.06
335.455	496.06
335.684	495.06
335.912	498.06
336.14	467.06
336.369	464.06
336.597	474.06
336.825	472.06
337.053	467.06
337.281	453.06
337.51	434.06
337.738	452.06
337.966	458.06
338.194	475.06
338.422	460.06
338.65	474.06
338.878	465.06
339.106	451.06
339.334	444.06
339.562	459.06
339.79	412.06
340.018	459.06
340.246	451.06
340.474	445.06
340.702	453.06
340.93	441.06
341.158	450.06
341.386	442.06
341.614	439.06
341.842	441.06
342.07	429.06
342.298	434.06
342.526	435.06
342.754	439.06
342.981	445.06
343.209	467.06
343.437	460.06
343.665	455.06
343.893	456.06
344.12	483.06
344.348	488.06
344.576	451.06
344.804	462.06
345.031	473.06
345.259	454.06
345.487	451.06
345.714	453.06
345.942	436.06
346.17	427.06
346.397	421.06
346.625	446.06
346.853	426.06
347.08	437.06
347.308	425.06
347.535	415.06
347.763	430.06
347.99	424.06
348.218	413.06
348.445	439.06
348.673	418.06
348.9	437.06
349.128	428.06
349.355	415.06
349.583	387.06
349.81	425.06
350.037	409.06
350.265	431.06
350.492	421.06
350.72	422.06
350.947	427.06
351.174	404.06
351.402	435.06
351.629	431.06
351.856	427.06
352.083	456.06
352.311	448.06
352.538	453.06
352.765	451.06
352.992	440.06
353.22	427.06
353.447	421.06
353.674	413.06
353.901	424.06
354.128	427.06
354.355	415.06
354.583	420.06
354.81	405.06
355.037	410.06
355.264	419.06
355.491	395.06
355.718	398.06
355.945	419.06
356.172	420.06
356.399	407.06
356.626	411.06
356.853	411.06
357.08	388.06
357.307	417.06
357.534	439.06
357.761	410.06
357.988	404.06
358.215	433.06
358.441	431.06
358.668	416.06
358.895	419.06
359.122	429.06
359.349	435.06
359.576	443.06
359.802	428.06
360.029	450.06
360.256	456.06
360.483	442.06
360.709	439.06
360.936	446.06
361.163	436.06
361.39	431.06
361.616	450.06
361.843	433.06
362.07	438.06
362.296	440.06
362.523	439.06
362.749	434.06
362.976	433.06
363.203	436.06
363.429	411.06
363.656	432.06
363.882	435.06
364.109	419.06
364.335	435.06
364.562	423.06
364.788	434.06
365.015	416.06
365.241	440.06
365.468	459.06
365.694	419.06
365.92	444.06
366.147	417.06
366.373	426.06
366.599	427.06
366.826	412.06
367.052	421.06
367.278	423.06
367.505	421.06
367.731	412.06
367.957	413.06
368.184	434.06
368.41	451.06
368.636	433.06
368.862	450.06
369.089	450.06
369.315	440.06
369.541	417.06
369.767	429.06
369.993	441.06
370.219	433.06
370.445	440.06
370.672	415.06
370.898	427.06
371.124	441.06
371.35	436.06
371.576	424.06
371.802	426.06
372.028	425.06
372.254	430.06
372.48	422.06
372.706	439.06
372.932	453.06
373.158	468.06
373.384	449.06
373.61	427.06
373.835	435.06
374.061	440.06
374.287	444.06
374.513	437.06
374.739	456.06
374.965	440.06
375.191	445.06
375.416	453.06
375.642	430.06
375.868	481.06
376.094	437.06
376.319	434.06
376.545	446.06
376.771	426.06
376.997	452.06
377.222	449.06
377.448	437.06
377.674	433.06
377.899	437.06
378.125	403.06
378.35	404.06
378.576	440.06
378.802	418.06
379.027	446.06
379.253	425.06
379.478	453.06
379.704	458.06
379.929	439.06
380.155	451.06
380.38	448.06
380.606	448.06
380.831	446.06
381.057	454.06
381.282	452.06
381.507	463.06
381.733	437.06
381.958	456.06
382.184	444.06
382.409	452.06
382.634	439.06
382.86	461.06
383.085	466.06
383.31	451.06
383.535	485.06
383.761	456.06
383.986	478.06
384.211	480.06
384.436	460.06
384.662	486.06
384.887	487.06
385.112	488.06
385.337	498.06
385.562	473.06
385.787	506.06
386.013	510.06
386.238	504.06
386.463	502.06
386.688	487.06
386.913	480.06
387.138	524.06
387.363	475.06
387.588	485.06
387.813	508.06
388.038	501.06
388.263	482.06
388.488	495.06
388.713	495.06
388.938	476.06
389.163	499.06
389.387	485.06
389.612	483.06
389.837	471.06
390.062	506.06
390.287	488.06
390.512	483.06
390.736	490.06
390.961	480.06
391.186	472.06
391.411	504.06
391.636	512.06
391.86	514.06
392.085	526.06
392.31	523.06
392.534	509.06
392.759	510.06
392.984	496.06
393.208	497.06
393.433	502.06
393.658	504.06
393.882	487.06
394.107	499.06
394.331	491.06
394.556	484.06
394.78	504.06
395.005	463.06
395.229	511.06
395.454	511.06
395.678	547.06
395.903	531.06
396.127	553.06
396.352	547.06
396.576	548.06
396.801	512.06
397.025	528.06
397.249	521.06
397.474	541.06
397.698	532.06
397.922	555.06
398.147	562.06
398.371	575.06
398.595	559.06
398.82	545.06
399.044	546.06
399.268	616.06
399.492	644.06
399.717	682.06
399.941	732.06
400.165	727.06
400.389	709.06
400.613	658.06
400.837	602.06
401.062	582.06
401.286	578.06
401.51	589.06
401.734	584.06
401.958	583.06
402.182	582.06
402.406	571.06
402.63	564.06
402.854	578.06
403.078	582.06
403.302	585.06
403.526	593.06
403.75	613.06
403.974	625.06
404.198	592.06
404.422	580.06
404.645	616.06
404.869	613.06
405.093	649.06
405.317	649.06
405.541	715.06
405.765	667.06
405.988	617.06
406.212	613.06
406.436	648.06
406.66	665.06
406.883	631.06
407.107	678.06
407.331	707.06
407.555	784.06
407.778	809.06
408.002	722.06
408.226	672.06
408.449	659.06
408.673	659.06
408.896	660.06
409.12	708.06
409.344	705.06
409.567	638.06
409.791	610.06
410.014	596.06
410.238	583.06
410.461	596.06
410.685	615.06
410.908	594.06
411.132	651.06
411.355	668.06
411.578	629.06
411.802	597.06
412.025	580.06
412.249	592.06
412.472	641.06
412.695	637.06
412.919	652.06
413.142	616.06
413.365	593.06
413.589	558.06
413.812	560.06
414.035	554.06
414.258	573.06
414.482	574.06
414.705	593.06
414.928	567.06
415.151	579.06
415.374	564.06
415.597	567.06
415.821	545.06
416.044	571.06
416.267	562.06
416.49	585.06
416.713	591.06
416.936	557.06
417.159	568.06
417.382	570.06
417.605	559.06
417.828	583.06
418.051	567.06
418.274	587.06
418.497	576.06
418.72	570.06
418.943	554.06
419.166	576.06
419.389	628.06
419.611	627.06
419.834	594.06
420.057	602.06
420.28	602.06
420.503	605.06
420.726	577.06
420.948	628.06
421.171	652.06
421.394	682.06
421.617	631.06
421.839	588.06
422.062	617.06
422.285	601.06
422.507	653.06
422.73	731.06
422.953	706.06
423.175	632.06
423.398	602.06
423.621	627.06
423.843	636.06
424.066	616.06
424.288	619.06
424.511	635.06
424.733	687.06
424.956	758.06
425.178	764.06
425.401	755.06
425.623	775.06
425.846	666.06
426.068	632.06
426.291	599.06
426.513	618.06
426.735	623.06
426.958	631.06
427.18	723.06
427.402	875.06
427.625	959.06
427.847	822.06
428.069	701.06
428.292	630.06
428.514	605.06
428.736	597.06
428.958	587.06
429.181	550.06
429.403	568.06
429.625	588.06
429.847	609.06
430.069	688.06
430.292	685.06
430.514	601.06
430.736	577.06
430.958	562.06
431.18	532.06
431.402	544.06
431.624	542.06
431.846	544.06
432.068	525.06
432.29	544.06
432.512	549.06
432.734	558.06
432.956	542.06
433.178	575.06
433.4	563.06
433.622	574.06
433.844	578.06
434.066	539.06
434.287	545.06
434.509	549.06
434.731	564.06
434.953	580.06
435.175	593.06
435.397	619.06
435.618	618.06
435.84	626.06
436.062	749.06
436.284	817.06
436.505	693.06
436.727	623.06
436.949	582.06
437.17	576.06
437.392	581.06
437.614	574.06
437.835	618.06
438.057	675.06
438.278	819.06
438.5	800.06
438.721	885.06
438.943	844.06
439.165	653.06
439.386	626.06
439.608	609.06
439.829	619.06
440.05	647.06
440.272	699.06
440.493	637.06
440.715	611.06
440.936	583.06
441.158	602.06
441.379	578.06
441.6	611.06
441.822	619.06
442.043	643.06
442.264	725.06
442.486	809.06
442.707	684.06
442.928	621.06
443.149	634.06
443.371	660.06
443.592	681.06
443.813	807.06
444.034	875.06
444.255	722.06
444.476	671.06
444.698	627.06
444.919	645.06
445.14	747.06
445.361	698.06
445.582	661.06
445.803	703.06
446.024	808.06
446.245	826.06
446.466	753.06
446.687	632.06
446.908	602.06
447.129	589.06
447.35	588.06
447.571	565.06
447.792	544.06
448.013	565.06
448.234	581.06
448.455	642.06
448.675	771.06
448.896	840.06
449.117	703.06
449.338	683.06
449.559	788.06
449.779	891.06
450	719.06
450.221	604.06
450.442	559.06
450.662	550.06
450.883	524.06
451.104	548.06
451.324	540.06
451.545	528.06
451.766	529.06
451.986	533.06
452.207	489.06
452.428	495.06
452.648	517.06
452.869	516.06
453.089	512.06
453.31	528.06
453.53	515.06
453.751	515.06
453.971	492.06
454.192	519.06
454.412	505.06
454.633	492.06
454.853	496.06
455.073	505.06
455.294	516.06
455.514	588.06
455.734	581.06
455.955	497.06
456.175	465.06
456.395	491.06
456.616	481.06
456.836	479.06
457.056	474.06
457.276	463.06
457.497	476.06
457.717	491.06
457.937	494.06
458.157	505.06
458.377	506.06
458.598	539.06
458.818	557.06
459.038	615.06
459.258	641.06
459.478	597.06
459.698	543.06
459.918	556.06
460.138	551.06
460.358	565.06
460.578	587.06
460.798	582.06
461.018	587.06
461.238	571.06
461.458	578.06
461.678	566.06
461.898	561.06
462.118	582.06
462.338	620.06
462.558	579.06
462.777	610.06
462.997	614.06
463.217	647.06
463.437	652.06
463.657	645.06
463.876	637.06
464.096	619.06
464.316	602.06
464.536	633.06
464.755	605.06
464.975	603.06
465.195	635.06
465.414	653.06
465.634	596.06
465.854	583.06
466.073	576.06
466.293	564.06
466.512	511.06
466.732	531.06
466.951	525.06
467.171	521.06
467.391	512.06
467.61	538.06
467.829	533.06
468.049	535.06
468.268	526.06
468.488	522.06
468.707	527.06
468.927	524.06
469.146	487.06
469.365	513.06
469.585	523.06
469.804	524.06
470.023	546.06
470.243	567.06
470.462	545.06
470.681	527.06
470.901	540.06
471.12	538.06
471.339	542.06
471.558	522.06
471.777	528.06
471.997	532.06
472.216	547.06
472.435	544.06
472.654	535.06
472.873	533.06
473.092	513.06
473.311	517.06
473.53	533.06
473.749	519.06
473.968	581.06
474.187	652.06
474.406	663.06
474.625	588.06
474.844	553.06
475.063	529.06
475.282	516.06
475.501	554.06
475.72	554.06
475.939	548.06
476.158	545.06
476.377	544.06
476.596	537.06
476.814	565.06
477.033	561.06
477.252	566.06
477.471	550.06
477.69	579.06
477.908	595.06
478.127	581.06
478.346	613.06
478.564	604.06
478.783	599.06
479.002	603.06
479.22	631.06
479.439	615.06
479.658	632.06
479.876	653.06
480.095	648.06
480.313	671.06
480.532	684.06
480.751	667.06
480.969	649.06
481.188	664.06
481.406	714.06
481.624	655.06
481.843	640.06
482.061	626.06
482.28	643.06
482.498	601.06
482.717	619.06
482.935	606.06
483.153	586.06
483.372	634.06
483.59	620.06
483.808	592.06
484.027	598.06
484.245	631.06
484.463	631.06
484.681	627.06
484.9	658.06
485.118	642.06
485.336	638.06
485.554	637.06
485.772	651.06
485.99	666.06
486.209	627.06
486.427	656.06
486.645	672.06
486.863	698.06
487.081	657.06
487.299	669.06
487.517	646.06
487.735	663.06
487.953	677.06
488.171	643.06
488.389	674.06
488.607	656.06
488.825	663.06
489.043	682.06
489.261	682.06
489.479	690.06
489.696	674.06
489.914	663.06
490.132	674.06
490.35	721.06
490.568	716.06
490.786	707.06
491.003	752.06
491.221	738.06
491.439	735.06
491.657	775.06
491.874	778.06
492.092	775.06
492.31	787.06
492.527	758.06
492.745	795.06
492.963	812.06
493.18	800.06
493.398	776.06
493.615	784.06
493.833	793.06
494.05	794.06
494.268	805.06
494.485	793.06
494.703	787.06
494.92	805.06
495.138	768.06
495.355	817.06
495.573	827.06
495.79	818.06
496.008	796.06
496.225	775.06
496.442	782.06
496.66	793.06
496.877	816.06
497.094	826.06
497.312	805.06
497.529	803.06
497.746	842.06
497.963	827.06
498.181	880.06
498.398	888.06
498.615	903.06
498.832	941.06
499.049	951.06
499.267	992.06
499.484	1023.06
499.701	1047.06
499.918	1107.06
500.135	1158.06
500.352	1259.06
500.569	1285.06
500.786	1302.06
501.003	1224.06
501.22	1173.06
501.437	1149.06
501.654	1103.06
501.871	1077.06
502.088	1035.06
502.305	954.06
502.522	896.06
502.739	892.06
502.956	873.06
503.172	851.06
503.389	846.06
503.606	831.06
503.823	829.06
504.04	812.06
504.256	808.06
504.473	845.06
504.69	797.06
504.907	792.06
505.123	781.06
505.34	760.06
505.557	759.06
505.773	750.06
505.99	767.06
506.207	760.06
506.423	745.06
506.64	728.06
506.856	727.06
507.073	749.06
507.289	766.06
507.506	716.06
507.722	765.06
507.939	725.06
508.155	683.06
508.372	708.06
508.588	697.06
508.805	708.06
509.021	687.06
509.238	716.06
509.454	708.06
509.67	724.06
509.887	695.06
510.103	687.06
510.319	678.06
510.536	732.06
510.752	1046.06
510.968	919.06
511.184	689.06
511.401	667.06
511.617	671.06
511.833	640.06
512.049	677.06
512.265	664.06
512.481	661.06
512.698	649.06
512.914	663.06
513.13	664.06
513.346	643.06
513.562	631.06
513.778	639.06
513.994	648.06
514.21	668.06
514.426	676.06
514.642	689.06
514.858	700.06
515.074	732.06
515.29	801.06
515.506	1077.06
515.721	937.06
515.937	725.06
516.153	703.06
516.369	678.06
516.585	689.06
516.801	687.06
517.016	708.06
517.232	706.06
517.448	708.06
517.664	742.06
517.879	708.06
518.095	727.06
518.311	720.06
518.527	692.06
518.742	668.06
518.958	682.06
519.173	690.06
519.389	660.06
519.605	672.06
519.82	642.06
520.036	644.06
520.251	656.06
520.467	684.06
520.682	674.06
520.898	680.06
521.113	688.06
521.329	700.06
521.544	737.06
521.76	875.06
521.975	1271.06
522.19	1237.06
522.406	809.06
522.621	655.06
522.836	646.06
523.052	619.06
523.267	611.06
523.482	618.06
523.698	586.06
523.913	599.06
524.128	617.06
524.343	574.06
524.559	586.06
524.774	579.06
524.989	578.06
525.204	578.06
525.419	566.06
525.634	569.06
525.849	546.06
526.064	545.06
526.28	538.06
526.495	552.06
526.71	516.06
526.925	552.06
527.14	543.06
527.355	563.06
527.57	544.06
527.785	535.06
527.999	552.06
528.214	561.06
528.429	533.06
528.644	551.06
528.859	540.06
529.074	547.06
529.289	548.06
529.503	581.06
529.718	596.06
529.933	568.06
530.148	548.06
530.363	537.06
530.577	534.06
530.792	541.06
531.007	524.06
531.221	532.06
531.436	545.06
531.651	533.06
531.865	542.06
532.08	550.06
532.295	530.06
532.509	505.06
532.724	513.06
532.938	507.06
533.153	511.06
533.367	531.06
533.582	520.06
533.796	529.06
534.011	539.06
534.225	533.06
534.44	525.06
534.654	507.06
534.868	530.06
535.083	536.06
535.297	515.06
535.511	534.06
535.726	531.06
535.94	534.06
536.154	538.06
536.369	520.06
536.583	515.06
536.797	495.06
537.011	498.06
537.225	474.06
537.44	495.06
537.654	511.06
537.868	492.06
538.082	515.06
538.296	497.06
538.51	495.06
538.724	491.06
538.938	528.06
539.153	508.06
539.367	527.06
539.581	515.06
539.795	496.06
540.009	501.06
540.222	488.06
540.436	493.06
540.65	498.06
540.864	519.06
541.078	497.06
541.292	519.06
541.506	511.06
541.72	521.06
541.934	519.06
542.147	533.06
542.361	521.06
542.575	485.06
542.789	499.06
543.002	487.06
543.216	505.06
543.43	512.06
543.644	525.06
543.857	504.06
544.071	495.06
544.285	498.06
544.498	525.06
544.712	514.06
544.925	497.06
545.139	509.06
545.352	484.06
545.566	520.06
545.779	493.06
545.993	495.06
546.206	514.06
546.42	485.06
546.633	517.06
546.847	526.06
547.06	496.06
547.274	511.06
547.487	518.06
547.7	489.06
547.914	521.06
548.127	486.06
548.34	484.06
548.554	503.06
548.767	514.06
548.98	496.06
549.193	496.06
549.407	501.06
549.62	525.06
549.833	493.06
550.046	505.06
550.259	469.06
550.473	502.06
550.686	481.06
550.899	489.06
551.112	475.06
551.325	503.06
551.538	496.06
551.751	499.06
551.964	462.06
552.177	500.06
552.39	511.06
552.603	492.06
552.816	509.06
553.029	519.06
553.242	500.06
553.455	511.06
553.667	528.06
553.88	516.06
554.093	523.06
554.306	504.06
554.519	513.06
554.732	469.06
554.944	494.06
555.157	477.06
555.37	471.06
555.583	459.06
555.795	476.06
556.008	485.06
556.221	455.06
556.433	464.06
556.646	445.06
556.859	437.06
557.071	446.06
557.284	447.06
557.496	464.06
557.709	463.06
557.921	435.06
558.134	439.06
558.346	436.06
558.559	450.06
558.771	473.06
558.984	451.06
559.196	460.06
559.409	461.06
559.621	440.06
559.833	428.06
560.046	445.06
560.258	417.06
560.47	457.06
560.683	445.06
560.895	446.06
561.107	437.06
561.32	444.06
561.532	438.06
561.744	447.06
561.956	425.06
562.168	456.06
562.381	442.06
562.593	447.06
562.805	444.06
563.017	449.06
563.229	455.06
563.441	427.06
563.653	457.06
563.865	477.06
564.077	444.06
564.289	443.06
564.501	449.06
564.713	477.06
564.925	456.06
565.137	467.06
565.349	491.06
565.561	521.06
565.773	487.06
565.985	491.06
566.197	508.06
566.408	517.06
566.62	561.06
566.832	564.06
567.044	582.06
567.255	568.06
567.467	579.06
567.679	591.06
567.891	592.06
568.102	599.06
568.314	621.06
568.526	561.06
568.737	564.06
568.949	526.06
569.161	499.06
569.372	470.06
569.584	479.06
569.795	458.06
570.007	449.06
570.218	464.06
570.43	482.06
570.641	447.06
570.853	428.06
571.064	433.06
571.276	426.06
571.487	415.06
571.698	409.06
571.91	426.06
572.121	423.06
572.333	419.06
572.544	404.06
572.755	394.06
572.966	389.06
573.178	389.06
573.389	383.06
573.6	391.06
573.811	385.06
574.023	382.06
574.234	351.06
574.445	375.06
574.656	391.06
574.867	385.06
575.078	399.06
575.289	404.06
575.501	373.06
575.712	370.06
575.923	367.06
576.134	354.06
576.345	375.06
576.556	366.06
576.767	354.06
576.978	361.06
577.188	370.06
577.399	339.06
577.61	349.06
577.821	358.06
578.032	355.06
578.243	377.06
578.454	513.06
578.665	425.06
578.875	358.06
579.086	348.06
579.297	350.06
579.508	343.06
579.718	344.06
579.929	345.06
580.14	331.06
580.35	355.06
580.561	331.06
580.772	355.06
580.982	341.06
581.193	320.06
581.403	348.06
581.614	351.06
581.825	348.06
582.035	341.06
582.246	339.06
582.456	333.06
582.667	336.06
582.877	346.06
583.087	341.06
583.298	338.06
583.508	342.06
583.719	328.06
583.929	319.06
584.139	328.06
584.35	330.06
584.56	346.06
584.77	319.06
584.981	337.06
585.191	334.06
585.401	325.06
585.611	326.06
585.821	320.06
586.032	341.06
586.242	324.06
586.452	324.06
586.662	338.06
586.872	333.06
587.082	317.06
587.292	322.06
587.502	339.06
587.713	316.06
587.923	319.06
588.133	320.06
588.343	314.06
588.553	346.06
588.762	330.06
588.972	337.06
589.182	332.06
589.392	332.06
589.602	320.06
589.812	323.06
590.022	314.06
590.232	344.06
590.441	316.06
590.651	338.06
590.861	328.06
591.071	340.06
591.281	340.06
591.49	325.06
591.7	317.06
591.91	347.06
592.119	341.06
592.329	345.06
592.539	351.06
592.748	355.06
592.958	361.06
593.167	357.06
593.377	365.06
593.587	391.06
593.796	368.06
594.006	374.06
594.215	363.06
594.424	364.06
594.634	352.06
594.843	357.06
595.053	363.06
595.262	362.06
595.472	355.06
595.681	333.06
595.89	318.06
596.1	341.06
596.309	319.06
596.518	325.06
596.727	319.06
596.937	316.06
597.146	332.06
597.355	332.06
597.564	293.06
597.774	293.06
597.983	300.06
598.192	308.06
598.401	298.06
598.61	314.06
598.819	292.06
599.028	308.06
599.237	300.06
599.446	305.06
599.655	296.06
599.864	300.06
600.073	291.06
600.282	289.06
600.491	289.06
600.7	290.06
600.909	298.06
601.118	303.06
601.327	293.06
601.536	277.06
601.745	283.06
601.953	288.06
602.162	301.06
602.371	290.06
602.58	292.06
602.789	284.06
602.997	274.06
603.206	276.06
603.415	279.06
603.623	282.06
603.832	285.06
604.041	275.06
604.249	270.06
604.458	289.06
604.666	281.06
604.875	290.06
605.084	263.06
605.292	251.06
605.501	283.06
605.709	285.06
605.918	290.06
606.126	265.06
606.334	284.06
606.543	288.06
606.751	284.06
606.96	268.06
607.168	277.06
607.376	273.06
607.585	276.06
607.793	272.06
608.001	284.06
608.21	257.06
608.418	263.06
608.626	264.06
608.834	272.06
609.043	265.06
609.251	273.06
609.459	273.06
609.667	255.06
609.875	263.06
610.083	276.06
610.291	279.06
610.499	267.06
610.707	283.06
610.916	286.06
611.124	285.06
611.332	289.06
611.54	285.06
611.748	287.06
611.955	291.06
612.163	268.06
612.371	281.06
612.579	258.06
612.787	268.06
612.995	265.06
613.203	272.06
613.411	264.06
613.618	271.06
613.826	274.06
614.034	272.06
614.242	247.06
614.449	267.06
614.657	250.06
614.865	260.06
615.072	264.06
615.28	262.06
615.488	271.06
615.695	272.06
615.903	256.06
616.111	269.06
616.318	269.06
616.526	264.06
616.733	269.06
616.941	268.06
617.148	284.06
617.356	281.06
617.563	257.06
617.771	253.06
617.978	251.06
618.185	254.06
618.393	255.06
618.6	262.06
618.807	269.06
619.015	267.06
619.222	251.06
619.429	247.06
619.637	255.06
619.844	253.06
620.051	248.06
620.258	244.06
620.466	240.06
620.673	254.06
620.88	261.06
621.087	243.06
621.294	244.06
621.501	241.06
621.708	249.06
621.915	218.06
622.122	264.06
622.329	248.06
622.536	259.06
622.743	252.06
622.95	232.06
623.157	253.06
623.364	234.06
623.571	241.06
623.778	243.06
623.985	249.06
624.192	228.06
624.399	243.06
624.606	239.06
624.812	229.06
625.019	226.06
625.226	255.06
625.433	239.06
625.639	245.06
625.846	226.06
626.053	250.06
626.259	230.06
626.466	241.06
626.673	212.06
626.879	220.06
627.086	214.06
627.293	240.06
627.499	220.06
627.706	223.06
627.912	238.06
628.119	233.06
628.325	235.06
628.532	221.06
628.738	223.06
628.945	216.06
629.151	213.06
629.357	233.06
629.564	222.06
629.77	215.06
629.976	225.06
630.183	218.06
630.389	214.06
630.595	204.06
630.802	199.06
631.008	213.06
631.214	215.06
631.42	212.06
631.627	219.06
631.833	205.06
632.039	221.06
632.245	212.06
632.451	209.06
632.657	209.06
632.863	205.06
633.069	200.06
633.275	219.06
633.481	193.06
633.688	205.06
633.893	197.06
634.099	196.06
634.305	227.06
634.511	203.06
634.717	209.06
634.923	184.06
635.129	209.06
635.335	176.06
635.541	209.06
635.747	200.06
635.952	189.06
636.158	184.06
636.364	201.06
636.57	200.06
636.775	207.06
636.981	205.06
637.187	189.06
637.392	210.06
637.598	197.06
637.804	198.06
638.009	205.06
638.215	192.06
638.421	196.06
638.626	187.06
638.832	185.06
639.037	178.06
639.243	193.06
639.448	213.06
639.654	189.06
639.859	173.06
640.065	195.06
640.27	205.06
640.475	202.06
640.681	187.06
640.886	173.06
641.091	186.06
641.297	175.06
641.502	179.06
641.707	174.06
641.913	187.06
642.118	196.06
642.323	183.06
642.528	188.06
642.733	192.06
642.939	189.06
643.144	171.06
643.349	195.06
643.554	170.06
643.759	180.06
643.964	191.06
644.169	167.06
644.374	167.06
644.579	189.06
644.784	191.06
644.989	195.06
645.194	179.06
645.399	171.06
645.604	190.06
645.809	179.06
646.014	170.06
646.219	183.06
646.423	188.06
646.628	183.06
646.833	185.06
647.038	182.06
647.243	191.06
647.447	178.06
647.652	177.06
647.857	180.06
648.062	199.06
648.266	187.06
648.471	185.06
648.676	187.06
648.88	168.06
649.085	177.06
649.289	182.06
649.494	184.06
649.698	194.06
649.903	186.06
650.107	180.06
650.312	157.06
650.516	172.06
650.721	166.06
650.925	183.06
651.13	167.06
651.334	161.06
651.539	151.06
651.743	147.06
651.947	162.06
652.152	163.06
652.356	161.06
652.56	147.06
652.764	147.06
652.969	154.06
653.173	156.06
653.377	149.06
653.581	152.06
653.785	149.06
653.99	138.06
654.194	142.06
654.398	146.06
654.602	153.06
654.806	145.06
655.01	141.06
655.214	147.06
655.418	147.06
655.622	160.06
655.826	151.06
656.03	153.06
656.234	144.06
656.438	143.06
656.642	152.06
656.846	143.06
657.049	139.06
657.253	127.06
657.457	127.06
657.661	129.06
657.865	134.06
658.068	125.06
658.272	122.06
658.476	108.06
658.68	119.06
658.883	105.06
659.087	102.06
659.291	102.06
659.494	95.06
659.698	96.06
659.901	107.06
660.105	110.06
660.309	97.06
660.512	81.06
660.716	92.06
660.919	92.06
661.123	105.06
661.326	92.06
661.53	84.06
661.733	104.06
661.936	100.06
662.14	89.06
662.343	98.06
662.546	88.06
662.75	78.06
662.953	64.06
663.156	81.06
663.36	107.06
663.563	95.06
663.766	75.06
663.969	75.06
664.173	75.06
664.376	90.06
664.579	75.06
664.782	83.06
664.985	88.06
665.188	79.06
665.391	87.06
665.594	66.06
665.797	79.06
666	83.06
666.203	86.06
666.406	83.06
666.609	83.06
666.812	72.06
667.015	87.06
667.218	81.06
667.421	69.06
667.624	61.06
667.827	80.06
668.03	78.06
668.232	85.06
668.435	75.06
668.638	76.06
668.841	86.06
669.043	81.06
669.246	83.06
669.449	72.06
669.651	68.06
669.854	93.06
670.057	88.06
670.259	90.06
670.462	80.06
670.665	72.06
670.867	101.06
671.07	75.06
671.272	80.06
671.475	76.06
671.677	76.06
671.88	81.06
672.082	74.06
672.284	80.06
672.487	76.06
672.689	85.06
672.892	81.06
