Data from 1974.PennyLincolnUp.Lamp.En5.5.200Scan.071719.P1.Changed Mount._HRD10591_15-52-15-856.txt Node
Date: Thu Jul 18 15:52:15 EDT 2019
User: cochatt
Spectrometer: HR+D1059
Trigger mode: 1
Integration Time (sec): 1.000000E-1
Scans to average: 1
Electric dark correction enabled: true
Nonlinearity correction enabled: false
Boxcar width: 0
XAxis mode: Wavelengths
Number of Pixels in Spectrum: 2048
>>>>>Begin Spectral Data<<<<<
223.165	-2.19
223.4	-2.19
223.635	-2.19
223.869	-19.19
224.104	-24.19
224.338	-12.19
224.573	-14.19
224.808	-7.19
225.042	-13.19
225.277	7.81
225.511	0.81
225.746	-6.19
225.98	3.81
226.215	18.81
226.449	9.81
226.683	18.81
226.918	21.81
227.152	16.81
227.387	39.81
227.621	35.81
227.856	45.81
228.09	49.81
228.324	40.81
228.559	61.81
228.793	68.81
229.027	109.81
229.262	124.81
229.496	103.81
229.73	137.81
229.964	160.81
230.199	123.81
230.433	125.81
230.667	107.81
230.901	105.81
231.136	127.81
231.37	92.81
231.604	107.81
231.838	109.81
232.072	116.81
232.306	120.81
232.541	111.81
232.775	123.81
233.009	135.81
233.243	125.81
233.477	113.81
233.711	124.81
233.945	129.81
234.179	127.81
234.413	112.81
234.647	117.81
234.881	121.81
235.115	123.81
235.349	100.81
235.583	140.81
235.817	131.81
236.051	127.81
236.285	137.81
236.519	125.81
236.753	135.81
236.987	172.81
237.221	189.81
237.455	223.81
237.689	187.81
237.922	156.81
238.156	149.81
238.39	142.81
238.624	131.81
238.858	143.81
239.091	135.81
239.325	125.81
239.559	119.81
239.793	142.81
240.027	164.81
240.26	141.81
240.494	151.81
240.728	155.81
240.961	151.81
241.195	149.81
241.429	154.81
241.662	145.81
241.896	127.81
242.13	140.81
242.363	157.81
242.597	149.81
242.83	137.81
243.064	131.81
243.298	133.81
243.531	142.81
243.765	146.81
243.998	156.81
244.232	147.81
244.465	159.81
244.699	143.81
244.932	163.81
245.166	154.81
245.399	170.81
245.633	158.81
245.866	158.81
246.099	154.81
246.333	169.81
246.566	154.81
246.8	170.81
247.033	168.81
247.266	168.81
247.5	185.81
247.733	172.81
247.966	173.81
248.2	177.81
248.433	211.81
248.666	185.81
248.899	186.81
249.133	218.81
249.366	221.81
249.599	208.81
249.832	173.81
250.066	202.81
250.299	202.81
250.532	192.81
250.765	222.81
250.998	223.81
251.231	242.81
251.465	239.81
251.698	219.81
251.931	208.81
252.164	199.81
252.397	206.81
252.63	207.81
252.863	211.81
253.096	231.81
253.329	244.81
253.562	249.81
253.795	229.81
254.028	241.81
254.261	224.81
254.494	225.81
254.727	265.81
254.96	269.81
255.193	264.81
255.426	263.81
255.659	222.81
255.892	236.81
256.124	252.81
256.357	245.81
256.59	234.81
256.823	204.81
257.056	222.81
257.289	215.81
257.521	227.81
257.754	215.81
257.987	219.81
258.22	207.81
258.452	216.81
258.685	218.81
258.918	230.81
259.151	212.81
259.383	230.81
259.616	227.81
259.849	227.81
260.081	256.81
260.314	258.81
260.547	280.81
260.779	248.81
261.012	259.81
261.244	234.81
261.477	222.81
261.71	228.81
261.942	263.81
262.175	243.81
262.407	230.81
262.64	235.81
262.872	225.81
263.105	227.81
263.337	246.81
263.57	229.81
263.802	227.81
264.035	224.81
264.267	211.81
264.499	234.81
264.732	225.81
264.964	222.81
265.197	217.81
265.429	236.81
265.661	239.81
265.894	234.81
266.126	225.81
266.358	239.81
266.591	225.81
266.823	223.81
267.055	251.81
267.287	221.81
267.52	232.81
267.752	248.81
267.984	232.81
268.216	234.81
268.448	238.81
268.681	254.81
268.913	259.81
269.145	284.81
269.377	289.81
269.609	287.81
269.841	288.81
270.073	269.81
270.306	290.81
270.538	326.81
270.77	319.81
271.002	301.81
271.234	303.81
271.466	303.81
271.698	313.81
271.93	315.81
272.162	317.81
272.394	346.81
272.626	336.81
272.858	308.81
273.09	294.81
273.322	283.81
273.553	287.81
273.785	297.81
274.017	277.81
274.249	271.81
274.481	288.81
274.713	279.81
274.945	291.81
275.176	284.81
275.408	281.81
275.64	271.81
275.872	277.81
276.104	293.81
276.335	288.81
276.567	292.81
276.799	293.81
277.031	310.81
277.262	331.81
277.494	325.81
277.726	316.81
277.957	313.81
278.189	292.81
278.421	283.81
278.652	304.81
278.884	284.81
279.115	280.81
279.347	266.81
279.579	296.81
279.81	279.81
280.042	291.81
280.273	310.81
280.505	280.81
280.736	277.81
280.968	285.81
281.199	273.81
281.431	280.81
281.662	287.81
281.894	295.81
282.125	285.81
282.356	305.81
282.588	310.81
282.819	303.81
283.051	277.81
283.282	279.81
283.513	296.81
283.745	289.81
283.976	282.81
284.207	287.81
284.439	289.81
284.67	290.81
284.901	300.81
285.132	312.81
285.364	289.81
285.595	306.81
285.826	292.81
286.057	294.81
286.288	302.81
286.52	302.81
286.751	312.81
286.982	288.81
287.213	301.81
287.444	308.81
287.675	301.81
287.906	299.81
288.138	314.81
288.369	324.81
288.6	327.81
288.831	309.81
289.062	311.81
289.293	312.81
289.524	316.81
289.755	316.81
289.986	316.81
290.217	308.81
290.448	312.81
290.679	318.81
290.91	307.81
291.141	313.81
291.371	326.81
291.602	325.81
291.833	313.81
292.064	322.81
292.295	316.81
292.526	296.81
292.757	295.81
292.987	318.81
293.218	306.81
293.449	316.81
293.68	295.81
293.91	294.81
294.141	314.81
294.372	303.81
294.603	304.81
294.833	315.81
295.064	310.81
295.295	334.81
295.525	310.81
295.756	313.81
295.987	318.81
296.217	351.81
296.448	357.81
296.679	338.81
296.909	325.81
297.14	312.81
297.37	317.81
297.601	345.81
297.831	330.81
298.062	340.81
298.292	327.81
298.523	335.81
298.753	351.81
298.984	334.81
299.214	334.81
299.445	337.81
299.675	333.81
299.905	314.81
300.136	324.81
300.366	335.81
300.597	340.81
300.827	331.81
301.057	342.81
301.288	343.81
301.518	353.81
301.748	346.81
301.979	356.81
302.209	342.81
302.439	344.81
302.669	376.81
302.9	346.81
303.13	349.81
303.36	355.81
303.59	340.81
303.82	364.81
304.051	358.81
304.281	352.81
304.511	345.81
304.741	354.81
304.971	348.81
305.201	355.81
305.431	382.81
305.661	349.81
305.891	345.81
306.121	347.81
306.352	370.81
306.582	357.81
306.812	343.81
307.042	342.81
307.272	354.81
307.502	332.81
307.731	373.81
307.961	367.81
308.191	346.81
308.421	339.81
308.651	364.81
308.881	368.81
309.111	377.81
309.341	352.81
309.571	369.81
309.8	357.81
310.03	387.81
310.26	391.81
310.49	380.81
310.72	383.81
310.949	415.81
311.179	400.81
311.409	394.81
311.639	393.81
311.868	410.81
312.098	407.81
312.328	392.81
312.557	400.81
312.787	416.81
313.017	398.81
313.246	406.81
313.476	397.81
313.706	395.81
313.935	395.81
314.165	412.81
314.394	423.81
314.624	402.81
314.853	401.81
315.083	396.81
315.312	412.81
315.542	396.81
315.771	407.81
316.001	408.81
316.23	408.81
316.46	396.81
316.689	389.81
316.919	383.81
317.148	410.81
317.377	417.81
317.607	418.81
317.836	408.81
318.065	391.81
318.295	396.81
318.524	401.81
318.753	380.81
318.983	398.81
319.212	405.81
319.441	410.81
319.67	408.81
319.9	392.81
320.129	405.81
320.358	373.81
320.587	400.81
320.816	403.81
321.046	419.81
321.275	406.81
321.504	409.81
321.733	431.81
321.962	405.81
322.191	434.81
322.42	413.81
322.649	446.81
322.878	441.81
323.108	435.81
323.337	471.81
323.566	469.81
323.795	504.81
324.024	527.81
324.253	619.81
324.482	833.81
324.71	1284.81
324.939	1901.81
325.168	1647.81
325.397	848.81
325.626	608.81
325.855	529.81
326.084	477.81
326.313	486.81
326.542	494.81
326.77	534.81
326.999	624.81
327.228	788.81
327.457	1155.81
327.686	1446.81
327.914	995.81
328.143	659.81
328.372	581.81
328.6	574.81
328.829	559.81
329.058	553.81
329.287	576.81
329.515	509.81
329.744	491.81
329.972	495.81
330.201	523.81
330.43	546.81
330.658	583.81
330.887	557.81
331.115	587.81
331.344	531.81
331.572	477.81
331.801	494.81
332.03	481.81
332.258	476.81
332.486	486.81
332.715	484.81
332.943	477.81
333.172	492.81
333.4	490.81
333.629	491.81
333.857	517.81
334.085	560.81
334.314	518.81
334.542	568.81
334.771	570.81
334.999	523.81
335.227	519.81
335.455	505.81
335.684	494.81
335.912	477.81
336.14	498.81
336.369	475.81
336.597	480.81
336.825	484.81
337.053	471.81
337.281	476.81
337.51	477.81
337.738	464.81
337.966	465.81
338.194	472.81
338.422	481.81
338.65	462.81
338.878	452.81
339.106	470.81
339.334	451.81
339.562	453.81
339.79	443.81
340.018	457.81
340.246	445.81
340.474	465.81
340.702	450.81
340.93	443.81
341.158	450.81
341.386	439.81
341.614	456.81
341.842	444.81
342.07	443.81
342.298	459.81
342.526	450.81
342.754	454.81
342.981	430.81
343.209	464.81
343.437	460.81
343.665	458.81
343.893	466.81
344.12	476.81
344.348	483.81
344.576	475.81
344.804	475.81
345.031	458.81
345.259	484.81
345.487	494.81
345.714	461.81
345.942	458.81
346.17	426.81
346.397	461.81
346.625	431.81
346.853	438.81
347.08	426.81
347.308	458.81
347.535	444.81
347.763	466.81
347.99	430.81
348.218	443.81
348.445	455.81
348.673	459.81
348.9	457.81
349.128	460.81
349.355	444.81
349.583	430.81
349.81	444.81
350.037	416.81
350.265	437.81
350.492	431.81
350.72	433.81
350.947	451.81
351.174	452.81
351.402	447.81
351.629	435.81
351.856	419.81
352.083	443.81
352.311	451.81
352.538	453.81
352.765	464.81
352.992	459.81
353.22	442.81
353.447	461.81
353.674	424.81
353.901	444.81
354.128	423.81
354.355	437.81
354.583	435.81
354.81	425.81
355.037	423.81
355.264	423.81
355.491	422.81
355.718	401.81
355.945	429.81
356.172	417.81
356.399	407.81
356.626	406.81
356.853	413.81
357.08	402.81
357.307	429.81
357.534	420.81
357.761	427.81
357.988	425.81
358.215	418.81
358.441	423.81
358.668	407.81
358.895	432.81
359.122	431.81
359.349	444.81
359.576	463.81
359.802	443.81
360.029	476.81
360.256	515.81
360.483	484.81
360.709	471.81
360.936	432.81
361.163	447.81
361.39	437.81
361.616	441.81
361.843	454.81
362.07	459.81
362.296	468.81
362.523	446.81
362.749	420.81
362.976	451.81
363.203	453.81
363.429	430.81
363.656	428.81
363.882	447.81
364.109	438.81
364.335	447.81
364.562	439.81
364.788	428.81
365.015	431.81
365.241	439.81
365.468	443.81
365.694	431.81
365.92	446.81
366.147	433.81
366.373	440.81
366.599	429.81
366.826	424.81
367.052	430.81
367.278	443.81
367.505	428.81
367.731	441.81
367.957	433.81
368.184	447.81
368.41	437.81
368.636	457.81
368.862	448.81
369.089	439.81
369.315	446.81
369.541	437.81
369.767	428.81
369.993	449.81
370.219	448.81
370.445	438.81
370.672	430.81
370.898	428.81
371.124	423.81
371.35	446.81
371.576	410.81
371.802	432.81
372.028	441.81
372.254	439.81
372.48	444.81
372.706	443.81
372.932	448.81
373.158	460.81
373.384	444.81
373.61	440.81
373.835	441.81
374.061	438.81
374.287	461.81
374.513	452.81
374.739	443.81
374.965	456.81
375.191	444.81
375.416	435.81
375.642	464.81
375.868	453.81
376.094	439.81
376.319	438.81
376.545	428.81
376.771	406.81
376.997	430.81
377.222	428.81
377.448	432.81
377.674	443.81
377.899	430.81
378.125	441.81
378.35	441.81
378.576	438.81
378.802	426.81
379.027	434.81
379.253	445.81
379.478	443.81
379.704	427.81
379.929	435.81
380.155	443.81
380.38	442.81
380.606	445.81
380.831	438.81
381.057	446.81
381.282	446.81
381.507	439.81
381.733	459.81
381.958	445.81
382.184	467.81
382.409	428.81
382.634	475.81
382.86	439.81
383.085	462.81
383.31	473.81
383.535	479.81
383.761	459.81
383.986	484.81
384.211	480.81
384.436	480.81
384.662	484.81
384.887	492.81
385.112	503.81
385.337	475.81
385.562	487.81
385.787	489.81
386.013	497.81
386.238	478.81
386.463	504.81
386.688	492.81
386.913	475.81
387.138	505.81
387.363	488.81
387.588	497.81
387.813	491.81
388.038	493.81
388.263	491.81
388.488	473.81
388.713	496.81
388.938	490.81
389.163	481.81
389.387	495.81
389.612	493.81
389.837	469.81
390.062	488.81
390.287	486.81
390.512	481.81
390.736	485.81
390.961	493.81
391.186	485.81
391.411	532.81
391.636	523.81
391.86	501.81
392.085	507.81
392.31	513.81
392.534	518.81
392.759	507.81
392.984	506.81
393.208	515.81
393.433	509.81
393.658	524.81
393.882	536.81
394.107	490.81
394.331	506.81
394.556	513.81
394.78	507.81
395.005	530.81
395.229	518.81
395.454	519.81
395.678	529.81
395.903	537.81
396.127	556.81
396.352	552.81
396.576	533.81
396.801	495.81
397.025	511.81
397.249	527.81
397.474	533.81
397.698	542.81
397.922	547.81
398.147	545.81
398.371	588.81
398.595	573.81
398.82	566.81
399.044	587.81
399.268	631.81
399.492	651.81
399.717	680.81
399.941	721.81
400.165	729.81
400.389	712.81
400.613	655.81
400.837	646.81
401.062	611.81
401.286	593.81
401.51	582.81
401.734	595.81
401.958	588.81
402.182	593.81
402.406	584.81
402.63	580.81
402.854	599.81
403.078	582.81
403.302	596.81
403.526	608.81
403.75	599.81
403.974	601.81
404.198	596.81
404.422	611.81
404.645	600.81
404.869	600.81
405.093	656.81
405.317	685.81
405.541	707.81
405.765	678.81
405.988	639.81
406.212	615.81
406.436	667.81
406.66	662.81
406.883	672.81
407.107	686.81
407.331	731.81
407.555	792.81
407.778	794.81
408.002	722.81
408.226	652.81
408.449	675.81
408.673	676.81
408.896	720.81
409.12	746.81
409.344	680.81
409.567	641.81
409.791	622.81
410.014	593.81
410.238	593.81
410.461	604.81
410.685	614.81
410.908	623.81
411.132	672.81
411.355	713.81
411.578	664.81
411.802	597.81
412.025	603.81
412.249	619.81
412.472	629.81
412.695	664.81
412.919	665.81
413.142	642.81
413.365	610.81
413.589	580.81
413.812	582.81
414.035	584.81
414.258	559.81
414.482	579.81
414.705	587.81
414.928	586.81
415.151	576.81
415.374	580.81
415.597	580.81
415.821	546.81
416.044	565.81
416.267	581.81
416.49	571.81
416.713	573.81
416.936	572.81
417.159	581.81
417.382	581.81
417.605	571.81
417.828	560.81
418.051	610.81
418.274	599.81
418.497	555.81
418.72	597.81
418.943	578.81
419.166	597.81
419.389	617.81
419.611	640.81
419.834	600.81
420.057	620.81
420.28	598.81
420.503	615.81
420.726	597.81
420.948	606.81
421.171	665.81
421.394	657.81
421.617	611.81
421.839	573.81
422.062	615.81
422.285	614.81
422.507	669.81
422.73	731.81
422.953	701.81
423.175	639.81
423.398	631.81
423.621	625.81
423.843	647.81
424.066	630.81
424.288	651.81
424.511	653.81
424.733	729.81
424.956	779.81
425.178	752.81
425.401	741.81
425.623	769.81
425.846	683.81
426.068	645.81
426.291	621.81
426.513	613.81
426.735	651.81
426.958	675.81
427.18	731.81
427.402	889.81
427.625	985.81
427.847	830.81
428.069	725.81
428.292	685.81
428.514	608.81
428.736	599.81
428.958	611.81
429.181	593.81
429.403	579.81
429.625	587.81
429.847	613.81
430.069	680.81
430.292	676.81
430.514	574.81
430.736	594.81
430.958	584.81
431.18	567.81
431.402	573.81
431.624	568.81
431.846	552.81
432.068	563.81
432.29	540.81
432.512	566.81
432.734	563.81
432.956	563.81
433.178	565.81
433.4	584.81
433.622	552.81
433.844	573.81
434.066	559.81
434.287	566.81
434.509	576.81
434.731	587.81
434.953	580.81
435.175	616.81
435.397	638.81
435.618	613.81
435.84	649.81
436.062	755.81
436.284	830.81
436.505	670.81
436.727	634.81
436.949	580.81
437.17	582.81
437.392	570.81
437.614	573.81
437.835	619.81
438.057	711.81
438.278	800.81
438.5	846.81
438.721	883.81
438.943	860.81
439.165	691.81
439.386	625.81
439.608	640.81
439.829	631.81
440.05	640.81
440.272	698.81
440.493	657.81
440.715	611.81
440.936	586.81
441.158	577.81
441.379	594.81
441.6	606.81
441.822	609.81
442.043	693.81
442.264	730.81
442.486	806.81
442.707	680.81
442.928	673.81
443.149	663.81
443.371	662.81
443.592	714.81
443.813	807.81
444.034	876.81
444.255	727.81
444.476	663.81
444.698	653.81
444.919	653.81
445.14	774.81
445.361	691.81
445.582	691.81
445.803	705.81
446.024	831.81
446.245	835.81
446.466	783.81
446.687	665.81
446.908	613.81
447.129	593.81
447.35	579.81
447.571	592.81
447.792	580.81
448.013	576.81
448.234	588.81
448.455	626.81
448.675	715.81
448.896	879.81
449.117	743.81
449.338	696.81
449.559	804.81
449.779	913.81
450	752.81
450.221	636.81
450.442	575.81
450.662	574.81
450.883	555.81
451.104	579.81
451.324	568.81
451.545	539.81
451.766	547.81
451.986	535.81
452.207	510.81
452.428	519.81
452.648	500.81
452.869	519.81
453.089	527.81
453.31	552.81
453.53	524.81
453.751	504.81
453.971	539.81
454.192	525.81
454.412	517.81
454.633	512.81
454.853	499.81
455.073	497.81
455.294	559.81
455.514	602.81
455.734	588.81
455.955	507.81
456.175	486.81
456.395	488.81
456.616	450.81
456.836	516.81
457.056	496.81
457.276	480.81
457.497	491.81
457.717	488.81
457.937	481.81
458.157	483.81
458.377	491.81
458.598	525.81
458.818	562.81
459.038	638.81
459.258	677.81
459.478	587.81
459.698	556.81
459.918	550.81
460.138	569.81
460.358	569.81
460.578	591.81
460.798	556.81
461.018	581.81
461.238	575.81
461.458	573.81
461.678	559.81
461.898	559.81
462.118	575.81
462.338	596.81
462.558	599.81
462.777	609.81
462.997	641.81
463.217	642.81
463.437	652.81
463.657	648.81
463.876	630.81
464.096	624.81
464.316	616.81
464.536	623.81
464.755	612.81
464.975	629.81
465.195	628.81
465.414	672.81
465.634	631.81
465.854	584.81
466.073	568.81
466.293	544.81
466.512	545.81
466.732	525.81
466.951	544.81
467.171	527.81
467.391	529.81
467.61	547.81
467.829	561.81
468.049	528.81
468.268	540.81
468.488	527.81
468.707	509.81
468.927	505.81
469.146	509.81
469.365	494.81
469.585	524.81
469.804	510.81
470.023	525.81
470.243	542.81
470.462	555.81
470.681	553.81
470.901	558.81
471.12	538.81
471.339	541.81
471.558	538.81
471.777	547.81
471.997	543.81
472.216	541.81
472.435	572.81
472.654	579.81
472.873	531.81
473.092	531.81
473.311	507.81
473.53	516.81
473.749	539.81
473.968	587.81
474.187	689.81
474.406	696.81
474.625	576.81
474.844	543.81
475.063	548.81
475.282	547.81
475.501	550.81
475.72	528.81
475.939	538.81
476.158	520.81
476.377	565.81
476.596	541.81
476.814	557.81
477.033	582.81
477.252	579.81
477.471	554.81
477.69	591.81
477.908	585.81
478.127	589.81
478.346	589.81
478.564	608.81
478.783	620.81
479.002	607.81
479.22	623.81
479.439	628.81
479.658	659.81
479.876	659.81
480.095	661.81
480.313	684.81
480.532	681.81
480.751	665.81
480.969	674.81
481.188	712.81
481.406	735.81
481.624	664.81
481.843	676.81
482.061	659.81
482.28	652.81
482.498	631.81
482.717	633.81
482.935	632.81
483.153	651.81
483.372	653.81
483.59	644.81
483.808	632.81
484.027	628.81
484.245	636.81
484.463	642.81
484.681	648.81
484.9	633.81
485.118	647.81
485.336	625.81
485.554	656.81
485.772	667.81
485.99	632.81
486.209	662.81
486.427	639.81
486.645	665.81
486.863	671.81
487.081	673.81
487.299	681.81
487.517	669.81
487.735	685.81
487.953	658.81
488.171	687.81
488.389	681.81
488.607	681.81
488.825	680.81
489.043	669.81
489.261	657.81
489.479	678.81
489.696	702.81
489.914	684.81
490.132	718.81
490.35	728.81
490.568	717.81
490.786	740.81
491.003	754.81
491.221	749.81
491.439	751.81
491.657	796.81
491.874	744.81
492.092	794.81
492.31	772.81
492.527	785.81
492.745	779.81
492.963	810.81
493.18	801.81
493.398	806.81
493.615	808.81
493.833	819.81
494.05	805.81
494.268	824.81
494.485	792.81
494.703	809.81
494.92	809.81
495.138	810.81
495.355	808.81
495.573	804.81
495.79	834.81
496.008	832.81
496.225	817.81
496.442	799.81
496.66	816.81
496.877	816.81
497.094	822.81
497.312	826.81
497.529	824.81
497.746	833.81
497.963	857.81
498.181	869.81
498.398	890.81
498.615	917.81
498.832	945.81
499.049	967.81
499.267	993.81
499.484	1060.81
499.701	1088.81
499.918	1138.81
500.135	1173.81
500.352	1249.81
500.569	1277.81
500.786	1281.81
501.003	1258.81
501.22	1232.81
501.437	1168.81
501.654	1068.81
501.871	1067.81
502.088	1029.81
502.305	976.81
502.522	929.81
502.739	927.81
502.956	878.81
503.172	873.81
503.389	856.81
503.606	848.81
503.823	832.81
504.04	830.81
504.256	830.81
504.473	800.81
504.69	867.81
504.907	823.81
505.123	819.81
505.34	789.81
505.557	773.81
505.773	783.81
505.99	743.81
506.207	762.81
506.423	763.81
506.64	763.81
506.856	747.81
507.073	722.81
507.289	732.81
507.506	725.81
507.722	732.81
507.939	742.81
508.155	699.81
508.372	733.81
508.588	672.81
508.805	700.81
509.021	716.81
509.238	739.81
509.454	719.81
509.67	728.81
509.887	712.81
510.103	712.81
510.319	704.81
510.536	789.81
510.752	1216.81
510.968	1027.81
511.184	709.81
511.401	703.81
511.617	665.81
511.833	666.81
512.049	654.81
512.265	662.81
512.481	653.81
512.698	652.81
512.914	661.81
513.13	665.81
513.346	661.81
513.562	662.81
513.778	663.81
513.994	680.81
514.21	674.81
514.426	697.81
514.642	727.81
514.858	727.81
515.074	774.81
515.29	895.81
515.506	1211.81
515.721	1041.81
515.937	767.81
516.153	738.81
516.369	729.81
516.585	722.81
516.801	688.81
517.016	708.81
517.232	728.81
517.448	732.81
517.664	725.81
517.879	724.81
518.095	718.81
518.311	722.81
518.527	700.81
518.742	699.81
518.958	693.81
519.173	689.81
519.389	686.81
519.605	670.81
519.82	676.81
520.036	686.81
520.251	700.81
520.467	712.81
520.682	710.81
520.898	697.81
521.113	703.81
521.329	771.81
521.544	807.81
521.76	956.81
521.975	1492.81
522.19	1499.81
522.406	899.81
522.621	719.81
522.836	672.81
523.052	639.81
523.267	629.81
523.482	627.81
523.698	638.81
523.913	619.81
524.128	596.81
524.343	607.81
524.559	593.81
524.774	597.81
524.989	599.81
525.204	587.81
525.419	580.81
525.634	557.81
525.849	566.81
526.064	563.81
526.28	555.81
526.495	556.81
526.71	556.81
526.925	545.81
527.14	521.81
527.355	546.81
527.57	554.81
527.785	540.81
527.999	541.81
528.214	554.81
528.429	544.81
528.644	556.81
528.859	552.81
529.074	558.81
529.289	582.81
529.503	631.81
529.718	623.81
529.933	603.81
530.148	552.81
530.363	531.81
530.577	563.81
530.792	547.81
531.007	530.81
531.221	532.81
531.436	523.81
531.651	529.81
531.865	551.81
532.08	539.81
532.295	524.81
532.509	531.81
532.724	544.81
532.938	541.81
533.153	537.81
533.367	557.81
533.582	544.81
533.796	526.81
534.011	529.81
534.225	540.81
534.44	510.81
534.654	515.81
534.868	523.81
535.083	519.81
535.297	551.81
535.511	528.81
535.726	538.81
535.94	537.81
536.154	539.81
536.369	506.81
536.583	518.81
536.797	510.81
537.011	520.81
537.225	495.81
537.44	513.81
537.654	527.81
537.868	530.81
538.082	505.81
538.296	514.81
538.51	501.81
538.724	524.81
538.938	539.81
539.153	515.81
539.367	527.81
539.581	510.81
539.795	494.81
540.009	522.81
540.222	477.81
540.436	498.81
540.65	503.81
540.864	504.81
541.078	525.81
541.292	508.81
541.506	524.81
541.72	499.81
541.934	525.81
542.147	525.81
542.361	532.81
542.575	527.81
542.789	507.81
543.002	503.81
543.216	520.81
543.43	520.81
543.644	506.81
543.857	482.81
544.071	519.81
544.285	523.81
544.498	545.81
544.712	493.81
544.925	493.81
545.139	532.81
545.352	529.81
545.566	521.81
545.779	503.81
545.993	511.81
546.206	486.81
546.42	501.81
546.633	512.81
546.847	521.81
547.06	515.81
547.274	492.81
547.487	496.81
547.7	508.81
547.914	496.81
548.127	495.81
548.34	522.81
548.554	496.81
548.767	495.81
548.98	504.81
549.193	504.81
549.407	499.81
549.62	515.81
549.833	511.81
550.046	518.81
550.259	525.81
550.473	492.81
550.686	498.81
550.899	496.81
551.112	492.81
551.325	484.81
551.538	484.81
551.751	520.81
551.964	480.81
552.177	496.81
552.39	495.81
552.603	501.81
552.816	512.81
553.029	514.81
553.242	528.81
553.455	503.81
553.667	527.81
553.88	519.81
554.093	527.81
554.306	521.81
554.519	515.81
554.732	520.81
554.944	500.81
555.157	487.81
555.37	459.81
555.583	476.81
555.795	492.81
556.008	474.81
556.221	472.81
556.433	458.81
556.646	476.81
556.859	452.81
557.071	436.81
557.284	436.81
557.496	460.81
557.709	477.81
557.921	445.81
558.134	431.81
558.346	461.81
558.559	461.81
558.771	461.81
558.984	428.81
559.196	438.81
559.409	443.81
559.621	431.81
559.833	427.81
560.046	431.81
560.258	430.81
560.47	449.81
560.683	450.81
560.895	436.81
561.107	432.81
561.32	440.81
561.532	409.81
561.744	429.81
561.956	450.81
562.168	414.81
562.381	434.81
562.593	431.81
562.805	466.81
563.017	436.81
563.229	429.81
563.441	446.81
563.653	450.81
563.865	442.81
564.077	422.81
564.289	458.81
564.501	455.81
564.713	467.81
564.925	491.81
565.137	487.81
565.349	464.81
565.561	483.81
565.773	491.81
565.985	480.81
566.197	513.81
566.408	527.81
566.62	566.81
566.832	567.81
567.044	564.81
567.255	582.81
567.467	588.81
567.679	603.81
567.891	597.81
568.102	608.81
568.314	604.81
568.526	578.81
568.737	553.81
568.949	515.81
569.161	502.81
569.372	470.81
569.584	455.81
569.795	449.81
570.007	426.81
570.218	482.81
570.43	464.81
570.641	445.81
570.853	440.81
571.064	426.81
571.276	429.81
571.487	429.81
571.698	435.81
571.91	431.81
572.121	408.81
572.333	399.81
572.544	373.81
572.755	389.81
572.966	412.81
573.178	390.81
573.389	413.81
573.6	386.81
573.811	400.81
574.023	367.81
574.234	364.81
574.445	380.81
574.656	370.81
574.867	363.81
575.078	381.81
575.289	385.81
575.501	377.81
575.712	377.81
575.923	369.81
576.134	365.81
576.345	376.81
576.556	379.81
576.767	360.81
576.978	366.81
577.188	361.81
577.399	357.81
577.61	364.81
577.821	361.81
578.032	343.81
578.243	397.81
578.454	583.81
578.665	447.81
578.875	372.81
579.086	345.81
579.297	365.81
579.508	340.81
579.718	349.81
579.929	339.81
580.14	359.81
580.35	340.81
580.561	339.81
580.772	348.81
580.982	340.81
581.193	344.81
581.403	327.81
581.614	362.81
581.825	349.81
582.035	349.81
582.246	337.81
582.456	341.81
582.667	332.81
582.877	343.81
583.087	341.81
583.298	334.81
583.508	335.81
583.719	341.81
583.929	341.81
584.139	329.81
584.35	363.81
584.56	325.81
584.77	360.81
584.981	351.81
585.191	345.81
585.401	345.81
585.611	325.81
585.821	336.81
586.032	356.81
586.242	325.81
586.452	340.81
586.662	335.81
586.872	323.81
587.082	331.81
587.292	324.81
587.502	327.81
587.713	335.81
587.923	334.81
588.133	351.81
588.343	347.81
588.553	324.81
588.762	325.81
588.972	325.81
589.182	340.81
589.392	328.81
589.602	342.81
589.812	345.81
590.022	327.81
590.232	348.81
590.441	315.81
590.651	336.81
590.861	338.81
591.071	335.81
591.281	350.81
591.49	335.81
591.7	329.81
591.91	351.81
592.119	348.81
592.329	358.81
592.539	356.81
592.748	352.81
592.958	363.81
593.167	360.81
593.377	371.81
593.587	376.81
593.796	387.81
594.006	385.81
594.215	358.81
594.424	381.81
594.634	357.81
594.843	361.81
595.053	358.81
595.262	353.81
595.472	323.81
595.681	319.81
595.89	349.81
596.1	319.81
596.309	319.81
596.518	316.81
596.727	313.81
596.937	337.81
597.146	318.81
597.355	315.81
597.564	315.81
597.774	308.81
597.983	309.81
598.192	303.81
598.401	310.81
598.61	307.81
598.819	280.81
599.028	282.81
599.237	281.81
599.446	278.81
599.655	290.81
599.864	299.81
600.073	294.81
600.282	303.81
600.491	308.81
600.7	302.81
600.909	311.81
601.118	276.81
601.327	294.81
601.536	307.81
601.745	283.81
601.953	292.81
602.162	267.81
602.371	305.81
602.58	293.81
602.789	272.81
602.997	268.81
603.206	282.81
603.415	270.81
603.623	284.81
603.832	293.81
604.041	280.81
604.249	269.81
604.458	282.81
604.666	287.81
604.875	273.81
605.084	283.81
605.292	272.81
605.501	289.81
605.709	273.81
605.918	278.81
606.126	289.81
606.334	268.81
606.543	277.81
606.751	285.81
606.96	281.81
607.168	267.81
607.376	258.81
607.585	292.81
607.793	269.81
608.001	269.81
608.21	276.81
608.418	277.81
608.626	284.81
608.834	280.81
609.043	271.81
609.251	278.81
609.459	272.81
609.667	267.81
609.875	262.81
610.083	266.81
610.291	273.81
610.499	255.81
610.707	257.81
610.916	275.81
611.124	280.81
611.332	278.81
611.54	283.81
611.748	264.81
611.955	291.81
612.163	283.81
612.371	265.81
612.579	276.81
612.787	267.81
612.995	271.81
613.203	261.81
613.411	276.81
613.618	266.81
613.826	265.81
614.034	275.81
614.242	270.81
614.449	261.81
614.657	274.81
614.865	271.81
615.072	259.81
615.28	256.81
615.488	259.81
615.695	255.81
615.903	268.81
616.111	284.81
616.318	275.81
616.526	269.81
616.733	261.81
616.941	262.81
617.148	278.81
617.356	256.81
617.563	283.81
617.771	274.81
617.978	273.81
618.185	249.81
618.393	262.81
618.6	265.81
618.807	244.81
619.015	275.81
619.222	277.81
619.429	262.81
619.637	265.81
619.844	248.81
620.051	248.81
620.258	270.81
620.466	253.81
620.673	258.81
620.88	251.81
621.087	255.81
621.294	248.81
621.501	257.81
621.708	245.81
621.915	233.81
622.122	271.81
622.329	253.81
622.536	244.81
622.743	240.81
622.95	267.81
623.157	221.81
623.364	247.81
623.571	245.81
623.778	235.81
623.985	248.81
624.192	232.81
624.399	234.81
624.606	259.81
624.812	221.81
625.019	232.81
625.226	237.81
625.433	245.81
625.639	243.81
625.846	232.81
626.053	232.81
626.259	226.81
626.466	233.81
626.673	228.81
626.879	237.81
627.086	223.81
627.293	237.81
627.499	227.81
627.706	224.81
627.912	219.81
628.119	226.81
628.325	221.81
628.532	245.81
628.738	222.81
628.945	235.81
629.151	230.81
629.357	226.81
629.564	218.81
629.77	224.81
629.976	214.81
630.183	208.81
630.389	228.81
630.595	228.81
630.802	208.81
631.008	230.81
631.214	216.81
631.42	219.81
631.627	239.81
631.833	216.81
632.039	216.81
632.245	212.81
632.451	211.81
632.657	225.81
632.863	222.81
633.069	209.81
633.275	220.81
633.481	191.81
633.688	225.81
633.893	218.81
634.099	208.81
634.305	205.81
634.511	202.81
634.717	197.81
634.923	193.81
635.129	200.81
635.335	191.81
635.541	208.81
635.747	187.81
635.952	187.81
636.158	209.81
636.364	208.81
636.57	218.81
636.775	203.81
636.981	209.81
637.187	209.81
637.392	209.81
637.598	209.81
637.804	192.81
638.009	189.81
638.215	191.81
638.421	193.81
638.626	189.81
638.832	188.81
639.037	214.81
639.243	196.81
639.448	182.81
639.654	204.81
639.859	192.81
640.065	180.81
640.27	199.81
640.475	172.81
640.681	194.81
640.886	201.81
641.091	189.81
641.297	187.81
641.502	201.81
641.707	192.81
641.913	201.81
642.118	188.81
642.323	187.81
642.528	195.81
642.733	182.81
642.939	182.81
643.144	183.81
643.349	193.81
643.554	192.81
643.759	191.81
643.964	186.81
644.169	177.81
644.374	183.81
644.579	183.81
644.784	184.81
644.989	166.81
645.194	169.81
645.399	196.81
645.604	184.81
645.809	182.81
646.014	188.81
646.219	171.81
646.423	188.81
646.628	194.81
646.833	172.81
647.038	189.81
647.243	185.81
647.447	191.81
647.652	196.81
647.857	183.81
648.062	182.81
648.266	188.81
648.471	198.81
648.676	207.81
648.88	188.81
649.085	181.81
649.289	186.81
649.494	192.81
649.698	194.81
649.903	195.81
650.107	186.81
650.312	177.81
650.516	175.81
650.721	183.81
650.925	180.81
651.13	164.81
651.334	165.81
651.539	179.81
651.743	166.81
651.947	153.81
652.152	161.81
652.356	160.81
652.56	144.81
652.764	163.81
652.969	155.81
653.173	161.81
653.377	137.81
653.581	151.81
653.785	136.81
653.99	150.81
654.194	156.81
654.398	155.81
654.602	150.81
654.806	160.81
655.01	159.81
655.214	154.81
655.418	162.81
655.622	132.81
655.826	134.81
656.03	147.81
656.234	139.81
656.438	147.81
656.642	137.81
656.846	150.81
657.049	138.81
657.253	135.81
657.457	126.81
657.661	128.81
657.865	136.81
658.068	122.81
658.272	118.81
658.476	125.81
658.68	110.81
658.883	117.81
659.087	114.81
659.291	109.81
659.494	103.81
659.698	103.81
659.901	105.81
660.105	92.81
660.309	96.81
660.512	92.81
660.716	88.81
660.919	92.81
661.123	86.81
661.326	86.81
661.53	101.81
661.733	79.81
661.936	91.81
662.14	98.81
662.343	81.81
662.546	101.81
662.75	86.81
662.953	84.81
663.156	88.81
663.36	92.81
663.563	94.81
663.766	85.81
663.969	84.81
664.173	93.81
664.376	92.81
664.579	72.81
664.782	88.81
664.985	75.81
665.188	97.81
665.391	84.81
665.594	100.81
665.797	86.81
666	93.81
666.203	93.81
666.406	81.81
666.609	72.81
666.812	95.81
667.015	84.81
667.218	83.81
667.421	84.81
667.624	85.81
667.827	91.81
668.03	86.81
668.232	92.81
668.435	90.81
668.638	78.81
668.841	87.81
669.043	81.81
669.246	104.81
669.449	80.81
669.651	87.81
669.854	85.81
670.057	87.81
670.259	81.81
670.462	68.81
670.665	79.81
670.867	99.81
671.07	86.81
671.272	94.81
671.475	92.81
671.677	93.81
671.88	81.81
672.082	74.81
672.284	89.81
672.487	92.81
672.689	87.81
672.892	81.81
