Data from 1974.PennyLincolnUp.Lamp.En5.5.200Scan.071719.P1.Changed Mount._HRD10591_15-54-25-857.txt Node
Date: Thu Jul 18 15:54:25 EDT 2019
User: cochatt
Spectrometer: HR+D1059
Trigger mode: 1
Integration Time (sec): 1.000000E-1
Scans to average: 1
Electric dark correction enabled: true
Nonlinearity correction enabled: false
Boxcar width: 0
XAxis mode: Wavelengths
Number of Pixels in Spectrum: 2048
>>>>>Begin Spectral Data<<<<<
223.165	-11.75
223.4	-11.75
223.635	-11.75
223.869	-5.75
224.104	-13.75
224.338	-23.75
224.573	-19.75
224.808	-18.75
225.042	-2.75
225.277	4.25
225.511	-4.75
225.746	4.25
225.98	10.25
226.215	3.25
226.449	17.25
226.683	20.25
226.918	18.25
227.152	23.25
227.387	31.25
227.621	39.25
227.856	34.25
228.09	42.25
228.324	39.25
228.559	52.25
228.793	68.25
229.027	94.25
229.262	107.25
229.496	108.25
229.73	127.25
229.964	165.25
230.199	135.25
230.433	125.25
230.667	102.25
230.901	115.25
231.136	106.25
231.37	100.25
231.604	121.25
231.838	120.25
232.072	117.25
232.306	114.25
232.541	118.25
232.775	121.25
233.009	115.25
233.243	126.25
233.477	138.25
233.711	130.25
233.945	126.25
234.179	135.25
234.413	125.25
234.647	122.25
234.881	115.25
235.115	118.25
235.349	119.25
235.583	137.25
235.817	131.25
236.051	142.25
236.285	133.25
236.519	136.25
236.753	147.25
236.987	156.25
237.221	197.25
237.455	244.25
237.689	199.25
237.922	138.25
238.156	142.25
238.39	143.25
238.624	121.25
238.858	133.25
239.091	137.25
239.325	152.25
239.559	137.25
239.793	131.25
240.027	150.25
240.26	155.25
240.494	185.25
240.728	163.25
240.961	164.25
241.195	158.25
241.429	143.25
241.662	137.25
241.896	149.25
242.13	151.25
242.363	149.25
242.597	154.25
242.83	158.25
243.064	147.25
243.298	155.25
243.531	153.25
243.765	148.25
243.998	155.25
244.232	166.25
244.465	169.25
244.699	174.25
244.932	161.25
245.166	178.25
245.399	168.25
245.633	167.25
245.866	169.25
246.099	161.25
246.333	161.25
246.566	165.25
246.8	168.25
247.033	163.25
247.266	175.25
247.5	180.25
247.733	177.25
247.966	181.25
248.2	173.25
248.433	194.25
248.666	188.25
248.899	193.25
249.133	209.25
249.366	202.25
249.599	225.25
249.832	200.25
250.066	199.25
250.299	205.25
250.532	216.25
250.765	225.25
250.998	238.25
251.231	235.25
251.465	221.25
251.698	222.25
251.931	225.25
252.164	218.25
252.397	235.25
252.63	224.25
252.863	219.25
253.096	229.25
253.329	252.25
253.562	253.25
253.795	220.25
254.028	234.25
254.261	242.25
254.494	245.25
254.727	275.25
254.96	299.25
255.193	294.25
255.426	279.25
255.659	266.25
255.892	253.25
256.124	265.25
256.357	265.25
256.59	256.25
256.823	244.25
257.056	231.25
257.289	248.25
257.521	227.25
257.754	243.25
257.987	230.25
258.22	257.25
258.452	219.25
258.685	233.25
258.918	237.25
259.151	236.25
259.383	245.25
259.616	248.25
259.849	250.25
260.081	262.25
260.314	260.25
260.547	279.25
260.779	260.25
261.012	257.25
261.244	263.25
261.477	267.25
261.71	230.25
261.942	252.25
262.175	257.25
262.407	254.25
262.64	238.25
262.872	244.25
263.105	243.25
263.337	241.25
263.57	227.25
263.802	236.25
264.035	248.25
264.267	248.25
264.499	243.25
264.732	219.25
264.964	247.25
265.197	241.25
265.429	249.25
265.661	236.25
265.894	234.25
266.126	252.25
266.358	251.25
266.591	255.25
266.823	244.25
267.055	253.25
267.287	254.25
267.52	256.25
267.752	259.25
267.984	268.25
268.216	248.25
268.448	253.25
268.681	274.25
268.913	259.25
269.145	294.25
269.377	296.25
269.609	310.25
269.841	288.25
270.073	314.25
270.306	310.25
270.538	336.25
270.77	346.25
271.002	330.25
271.234	323.25
271.466	332.25
271.698	329.25
271.93	357.25
272.162	354.25
272.394	341.25
272.626	323.25
272.858	325.25
273.09	317.25
273.322	299.25
273.553	295.25
273.785	303.25
274.017	306.25
274.249	298.25
274.481	284.25
274.713	294.25
274.945	307.25
275.176	317.25
275.408	294.25
275.64	300.25
275.872	316.25
276.104	299.25
276.335	307.25
276.567	298.25
276.799	303.25
277.031	333.25
277.262	345.25
277.494	343.25
277.726	335.25
277.957	316.25
278.189	314.25
278.421	299.25
278.652	299.25
278.884	310.25
279.115	300.25
279.347	302.25
279.579	272.25
279.81	292.25
280.042	307.25
280.273	292.25
280.505	321.25
280.736	293.25
280.968	306.25
281.199	302.25
281.431	307.25
281.662	290.25
281.894	307.25
282.125	302.25
282.356	327.25
282.588	325.25
282.819	351.25
283.051	314.25
283.282	301.25
283.513	314.25
283.745	321.25
283.976	329.25
284.207	319.25
284.439	311.25
284.67	325.25
284.901	330.25
285.132	317.25
285.364	310.25
285.595	304.25
285.826	331.25
286.057	332.25
286.288	331.25
286.52	314.25
286.751	331.25
286.982	327.25
287.213	335.25
287.444	327.25
287.675	331.25
287.906	353.25
288.138	351.25
288.369	342.25
288.6	343.25
288.831	333.25
289.062	330.25
289.293	335.25
289.524	340.25
289.755	345.25
289.986	330.25
290.217	336.25
290.448	311.25
290.679	322.25
290.91	329.25
291.141	318.25
291.371	334.25
291.602	336.25
291.833	330.25
292.064	321.25
292.295	320.25
292.526	329.25
292.757	337.25
292.987	322.25
293.218	331.25
293.449	324.25
293.68	335.25
293.91	339.25
294.141	333.25
294.372	317.25
294.603	334.25
294.833	331.25
295.064	338.25
295.295	344.25
295.525	346.25
295.756	362.25
295.987	357.25
296.217	372.25
296.448	356.25
296.679	351.25
296.909	339.25
297.14	337.25
297.37	365.25
297.601	350.25
297.831	350.25
298.062	328.25
298.292	348.25
298.523	344.25
298.753	356.25
298.984	348.25
299.214	350.25
299.445	355.25
299.675	350.25
299.905	356.25
300.136	357.25
300.366	362.25
300.597	362.25
300.827	357.25
301.057	380.25
301.288	375.25
301.518	378.25
301.748	372.25
301.979	369.25
302.209	383.25
302.439	371.25
302.669	370.25
302.9	366.25
303.13	379.25
303.36	387.25
303.59	385.25
303.82	380.25
304.051	390.25
304.281	366.25
304.511	366.25
304.741	366.25
304.971	380.25
305.201	387.25
305.431	366.25
305.661	373.25
305.891	381.25
306.121	375.25
306.352	355.25
306.582	381.25
306.812	355.25
307.042	379.25
307.272	378.25
307.502	381.25
307.731	383.25
307.961	380.25
308.191	373.25
308.421	387.25
308.651	375.25
308.881	383.25
309.111	402.25
309.341	373.25
309.571	405.25
309.8	424.25
310.03	384.25
310.26	399.25
310.49	408.25
310.72	433.25
310.949	435.25
311.179	428.25
311.409	430.25
311.639	449.25
311.868	404.25
312.098	427.25
312.328	422.25
312.557	448.25
312.787	439.25
313.017	433.25
313.246	446.25
313.476	415.25
313.706	442.25
313.935	443.25
314.165	436.25
314.394	445.25
314.624	431.25
314.853	417.25
315.083	420.25
315.312	419.25
315.542	415.25
315.771	426.25
316.001	413.25
316.23	431.25
316.46	425.25
316.689	436.25
316.919	421.25
317.148	422.25
317.377	435.25
317.607	426.25
317.836	429.25
318.065	430.25
318.295	419.25
318.524	435.25
318.753	426.25
318.983	429.25
319.212	435.25
319.441	431.25
319.67	422.25
319.9	429.25
320.129	421.25
320.358	417.25
320.587	433.25
320.816	438.25
321.046	442.25
321.275	457.25
321.504	437.25
321.733	443.25
321.962	458.25
322.191	439.25
322.42	467.25
322.649	474.25
322.878	503.25
323.108	478.25
323.337	493.25
323.566	501.25
323.795	542.25
324.024	580.25
324.253	700.25
324.482	897.25
324.71	1415.25
324.939	2139.25
325.168	1861.25
325.397	933.25
325.626	653.25
325.855	588.25
326.084	539.25
326.313	533.25
326.542	534.25
326.77	580.25
326.999	638.25
327.228	829.25
327.457	1290.25
327.686	1608.25
327.914	1046.25
328.143	719.25
328.372	639.25
328.6	613.25
328.829	596.25
329.058	581.25
329.287	607.25
329.515	588.25
329.744	545.25
329.972	528.25
330.201	579.25
330.43	567.25
330.658	596.25
330.887	628.25
331.115	645.25
331.344	563.25
331.572	545.25
331.801	539.25
332.03	529.25
332.258	525.25
332.486	522.25
332.715	529.25
332.943	557.25
333.172	524.25
333.4	517.25
333.629	541.25
333.857	555.25
334.085	563.25
334.314	586.25
334.542	595.25
334.771	592.25
334.999	598.25
335.227	534.25
335.455	535.25
335.684	519.25
335.912	503.25
336.14	511.25
336.369	514.25
336.597	531.25
336.825	518.25
337.053	503.25
337.281	513.25
337.51	512.25
337.738	505.25
337.966	499.25
338.194	525.25
338.422	525.25
338.65	507.25
338.878	486.25
339.106	479.25
339.334	510.25
339.562	499.25
339.79	474.25
340.018	477.25
340.246	485.25
340.474	487.25
340.702	475.25
340.93	468.25
341.158	485.25
341.386	466.25
341.614	469.25
341.842	476.25
342.07	489.25
342.298	489.25
342.526	482.25
342.754	478.25
342.981	465.25
343.209	465.25
343.437	476.25
343.665	490.25
343.893	504.25
344.12	527.25
344.348	526.25
344.576	538.25
344.804	530.25
345.031	523.25
345.259	518.25
345.487	474.25
345.714	489.25
345.942	476.25
346.17	488.25
346.397	473.25
346.625	467.25
346.853	484.25
347.08	479.25
347.308	470.25
347.535	491.25
347.763	464.25
347.99	466.25
348.218	488.25
348.445	478.25
348.673	478.25
348.9	468.25
349.128	476.25
349.355	475.25
349.583	453.25
349.81	469.25
350.037	458.25
350.265	453.25
350.492	454.25
350.72	469.25
350.947	487.25
351.174	507.25
351.402	462.25
351.629	471.25
351.856	493.25
352.083	479.25
352.311	480.25
352.538	489.25
352.765	485.25
352.992	473.25
353.22	452.25
353.447	477.25
353.674	452.25
353.901	450.25
354.128	436.25
354.355	436.25
354.583	449.25
354.81	432.25
355.037	459.25
355.264	467.25
355.491	454.25
355.718	424.25
355.945	470.25
356.172	442.25
356.399	437.25
356.626	438.25
356.853	439.25
357.08	447.25
357.307	461.25
357.534	441.25
357.761	449.25
357.988	439.25
358.215	452.25
358.441	434.25
358.668	459.25
358.895	451.25
359.122	483.25
359.349	468.25
359.576	469.25
359.802	505.25
360.029	491.25
360.256	519.25
360.483	511.25
360.709	480.25
360.936	490.25
361.163	504.25
361.39	481.25
361.616	495.25
361.843	452.25
362.07	473.25
362.296	491.25
362.523	472.25
362.749	472.25
362.976	471.25
363.203	459.25
363.429	451.25
363.656	482.25
363.882	471.25
364.109	473.25
364.335	477.25
364.562	446.25
364.788	460.25
365.015	468.25
365.241	452.25
365.468	459.25
365.694	461.25
365.92	472.25
366.147	466.25
366.373	463.25
366.599	468.25
366.826	446.25
367.052	433.25
367.278	453.25
367.505	479.25
367.731	458.25
367.957	473.25
368.184	462.25
368.41	463.25
368.636	487.25
368.862	485.25
369.089	487.25
369.315	464.25
369.541	469.25
369.767	483.25
369.993	453.25
370.219	451.25
370.445	476.25
370.672	472.25
370.898	469.25
371.124	479.25
371.35	497.25
371.576	481.25
371.802	473.25
372.028	469.25
372.254	463.25
372.48	497.25
372.706	476.25
372.932	478.25
373.158	481.25
373.384	471.25
373.61	470.25
373.835	457.25
374.061	468.25
374.287	474.25
374.513	476.25
374.739	501.25
374.965	511.25
375.191	499.25
375.416	505.25
375.642	484.25
375.868	463.25
376.094	490.25
376.319	486.25
376.545	463.25
376.771	479.25
376.997	464.25
377.222	485.25
377.448	485.25
377.674	478.25
377.899	472.25
378.125	457.25
378.35	449.25
378.576	452.25
378.802	478.25
379.027	478.25
379.253	464.25
379.478	474.25
379.704	463.25
379.929	491.25
380.155	474.25
380.38	461.25
380.606	465.25
380.831	465.25
381.057	487.25
381.282	463.25
381.507	492.25
381.733	486.25
381.958	482.25
382.184	486.25
382.409	505.25
382.634	492.25
382.86	487.25
383.085	462.25
383.31	491.25
383.535	500.25
383.761	501.25
383.986	501.25
384.211	506.25
384.436	499.25
384.662	511.25
384.887	522.25
385.112	493.25
385.337	517.25
385.562	517.25
385.787	514.25
386.013	535.25
386.238	535.25
386.463	529.25
386.688	550.25
386.913	499.25
387.138	511.25
387.363	510.25
387.588	522.25
387.813	531.25
388.038	538.25
388.263	538.25
388.488	539.25
388.713	552.25
388.938	533.25
389.163	531.25
389.387	513.25
389.612	527.25
389.837	543.25
390.062	543.25
390.287	515.25
390.512	534.25
390.736	517.25
390.961	521.25
391.186	563.25
391.411	535.25
391.636	545.25
391.86	563.25
392.085	534.25
392.31	546.25
392.534	548.25
392.759	528.25
392.984	558.25
393.208	554.25
393.433	554.25
393.658	530.25
393.882	534.25
394.107	534.25
394.331	524.25
394.556	523.25
394.78	547.25
395.005	556.25
395.229	534.25
395.454	562.25
395.678	566.25
395.903	573.25
396.127	573.25
396.352	590.25
396.576	563.25
396.801	547.25
397.025	554.25
397.249	576.25
397.474	594.25
397.698	582.25
397.922	575.25
398.147	597.25
398.371	614.25
398.595	609.25
398.82	633.25
399.044	645.25
399.268	666.25
399.492	682.25
399.717	737.25
399.941	793.25
400.165	802.25
400.389	788.25
400.613	693.25
400.837	668.25
401.062	655.25
401.286	647.25
401.51	632.25
401.734	619.25
401.958	613.25
402.182	626.25
402.406	619.25
402.63	643.25
402.854	655.25
403.078	655.25
403.302	657.25
403.526	648.25
403.75	659.25
403.974	676.25
404.198	666.25
404.422	644.25
404.645	673.25
404.869	668.25
405.093	698.25
405.317	723.25
405.541	782.25
405.765	721.25
405.988	696.25
406.212	702.25
406.436	693.25
406.66	722.25
406.883	693.25
407.107	739.25
407.331	779.25
407.555	868.25
407.778	846.25
408.002	788.25
408.226	748.25
408.449	727.25
408.673	730.25
408.896	727.25
409.12	770.25
409.344	748.25
409.567	709.25
409.791	653.25
410.014	669.25
410.238	638.25
410.461	640.25
410.685	643.25
410.908	663.25
411.132	680.25
411.355	745.25
411.578	727.25
411.802	655.25
412.025	669.25
412.249	657.25
412.472	684.25
412.695	717.25
412.919	693.25
413.142	652.25
413.365	601.25
413.589	633.25
413.812	618.25
414.035	608.25
414.258	612.25
414.482	624.25
414.705	618.25
414.928	605.25
415.151	605.25
415.374	614.25
415.597	616.25
415.821	612.25
416.044	645.25
416.267	579.25
416.49	621.25
416.713	583.25
416.936	618.25
417.159	604.25
417.382	628.25
417.605	623.25
417.828	631.25
418.051	645.25
418.274	633.25
418.497	599.25
418.72	613.25
418.943	617.25
419.166	667.25
419.389	695.25
419.611	671.25
419.834	674.25
420.057	667.25
420.28	675.25
420.503	651.25
420.726	647.25
420.948	656.25
421.171	701.25
421.394	734.25
421.617	652.25
421.839	638.25
422.062	645.25
422.285	649.25
422.507	706.25
422.73	807.25
422.953	764.25
423.175	679.25
423.398	683.25
423.621	679.25
423.843	695.25
424.066	693.25
424.288	694.25
424.511	699.25
424.733	763.25
424.956	857.25
425.178	828.25
425.401	823.25
425.623	817.25
425.846	729.25
426.068	656.25
426.291	662.25
426.513	682.25
426.735	680.25
426.958	692.25
427.18	823.25
427.402	945.25
427.625	1043.25
427.847	901.25
428.069	799.25
428.292	709.25
428.514	687.25
428.736	635.25
428.958	632.25
429.181	623.25
429.403	625.25
429.625	639.25
429.847	652.25
430.069	737.25
430.292	746.25
430.514	630.25
430.736	613.25
430.958	625.25
431.18	599.25
431.402	599.25
431.624	577.25
431.846	591.25
432.068	582.25
432.29	589.25
432.512	579.25
432.734	606.25
432.956	605.25
433.178	618.25
433.4	621.25
433.622	596.25
433.844	603.25
434.066	575.25
434.287	592.25
434.509	611.25
434.731	607.25
434.953	642.25
435.175	677.25
435.397	687.25
435.618	681.25
435.84	683.25
436.062	829.25
436.284	887.25
436.505	765.25
436.727	705.25
436.949	645.25
437.17	650.25
437.392	649.25
437.614	622.25
437.835	667.25
438.057	797.25
438.278	904.25
438.5	873.25
438.721	970.25
438.943	933.25
439.165	741.25
439.386	685.25
439.608	684.25
439.829	685.25
440.05	710.25
440.272	746.25
440.493	739.25
440.715	660.25
440.936	649.25
441.158	626.25
441.379	637.25
441.6	649.25
441.822	666.25
442.043	720.25
442.264	817.25
442.486	863.25
442.707	744.25
442.928	686.25
443.149	672.25
443.371	696.25
443.592	759.25
443.813	866.25
444.034	946.25
444.255	798.25
444.476	735.25
444.698	717.25
444.919	718.25
445.14	785.25
445.361	756.25
445.582	758.25
445.803	776.25
446.024	916.25
446.245	885.25
446.466	853.25
446.687	737.25
446.908	687.25
447.129	635.25
447.35	634.25
447.571	633.25
447.792	617.25
448.013	615.25
448.234	616.25
448.455	670.25
448.675	810.25
448.896	941.25
449.117	809.25
449.338	737.25
449.559	875.25
449.779	985.25
450	801.25
450.221	672.25
450.442	595.25
450.662	602.25
450.883	612.25
451.104	627.25
451.324	620.25
451.545	583.25
451.766	571.25
451.986	596.25
452.207	564.25
452.428	541.25
452.648	546.25
452.869	544.25
453.089	546.25
453.31	566.25
453.53	555.25
453.751	542.25
453.971	555.25
454.192	577.25
454.412	568.25
454.633	572.25
454.853	542.25
455.073	539.25
455.294	588.25
455.514	647.25
455.734	632.25
455.955	567.25
456.175	538.25
456.395	503.25
456.616	511.25
456.836	525.25
457.056	502.25
457.276	494.25
457.497	539.25
457.717	513.25
457.937	537.25
458.157	546.25
458.377	532.25
458.598	583.25
458.818	608.25
459.038	685.25
459.258	716.25
459.478	649.25
459.698	625.25
459.918	623.25
460.138	579.25
460.358	605.25
460.578	585.25
460.798	623.25
461.018	602.25
461.238	638.25
461.458	638.25
461.678	625.25
461.898	630.25
462.118	613.25
462.338	633.25
462.558	659.25
462.777	674.25
462.997	681.25
463.217	700.25
463.437	719.25
463.657	697.25
463.876	657.25
464.096	669.25
464.316	653.25
464.536	663.25
464.755	675.25
464.975	673.25
465.195	715.25
465.414	735.25
465.634	666.25
465.854	627.25
466.073	616.25
466.293	584.25
466.512	606.25
466.732	588.25
466.951	585.25
467.171	575.25
467.391	557.25
467.61	588.25
467.829	583.25
468.049	618.25
468.268	577.25
468.488	554.25
468.707	565.25
468.927	547.25
469.146	545.25
469.365	574.25
469.585	543.25
469.804	571.25
470.023	583.25
470.243	587.25
470.462	610.25
470.681	594.25
470.901	590.25
471.12	554.25
471.339	579.25
471.558	553.25
471.777	594.25
471.997	591.25
472.216	577.25
472.435	598.25
472.654	589.25
472.873	585.25
473.092	573.25
473.311	567.25
473.53	601.25
473.749	577.25
473.968	609.25
474.187	737.25
474.406	757.25
474.625	640.25
474.844	596.25
475.063	590.25
475.282	598.25
475.501	578.25
475.72	578.25
475.939	588.25
476.158	617.25
476.377	593.25
476.596	611.25
476.814	594.25
477.033	607.25
477.252	613.25
477.471	598.25
477.69	626.25
477.908	606.25
478.127	639.25
478.346	646.25
478.564	629.25
478.783	677.25
479.002	668.25
479.22	663.25
479.439	662.25
479.658	704.25
479.876	696.25
480.095	709.25
480.313	727.25
480.532	744.25
480.751	699.25
480.969	740.25
481.188	780.25
481.406	767.25
481.624	735.25
481.843	699.25
482.061	673.25
482.28	684.25
482.498	674.25
482.717	647.25
482.935	654.25
483.153	674.25
483.372	672.25
483.59	679.25
483.808	678.25
484.027	673.25
484.245	689.25
484.463	689.25
484.681	671.25
484.9	685.25
485.118	706.25
485.336	711.25
485.554	696.25
485.772	701.25
485.99	716.25
486.209	713.25
486.427	717.25
486.645	717.25
486.863	711.25
487.081	712.25
487.299	734.25
487.517	718.25
487.735	721.25
487.953	739.25
488.171	734.25
488.389	716.25
488.607	741.25
488.825	713.25
489.043	730.25
489.261	729.25
489.479	743.25
489.696	755.25
489.914	759.25
490.132	745.25
490.35	771.25
490.568	774.25
490.786	745.25
491.003	793.25
491.221	800.25
491.439	820.25
491.657	837.25
491.874	844.25
492.092	844.25
492.31	856.25
492.527	847.25
492.745	827.25
492.963	838.25
493.18	875.25
493.398	881.25
493.615	901.25
493.833	873.25
494.05	866.25
494.268	897.25
494.485	866.25
494.703	873.25
494.92	858.25
495.138	874.25
495.355	903.25
495.573	851.25
495.79	866.25
496.008	886.25
496.225	891.25
496.442	879.25
496.66	860.25
496.877	858.25
497.094	884.25
497.312	917.25
497.529	891.25
497.746	911.25
497.963	921.25
498.181	941.25
498.398	990.25
498.615	1014.25
498.832	990.25
499.049	1035.25
499.267	1077.25
499.484	1111.25
499.701	1182.25
499.918	1247.25
500.135	1307.25
500.352	1353.25
500.569	1397.25
500.786	1401.25
501.003	1352.25
501.22	1309.25
501.437	1241.25
501.654	1196.25
501.871	1149.25
502.088	1083.25
502.305	1016.25
502.522	1032.25
502.739	989.25
502.956	945.25
503.172	952.25
503.389	922.25
503.606	926.25
503.823	914.25
504.04	933.25
504.256	874.25
504.473	888.25
504.69	886.25
504.907	885.25
505.123	858.25
505.34	847.25
505.557	838.25
505.773	843.25
505.99	850.25
506.207	814.25
506.423	831.25
506.64	812.25
506.856	788.25
507.073	789.25
507.289	813.25
507.506	775.25
507.722	809.25
507.939	798.25
508.155	811.25
508.372	780.25
508.588	740.25
508.805	731.25
509.021	761.25
509.238	788.25
509.454	771.25
509.67	755.25
509.887	771.25
510.103	764.25
510.319	748.25
510.536	819.25
510.752	1218.25
510.968	1061.25
511.184	771.25
511.401	732.25
511.617	750.25
511.833	707.25
512.049	731.25
512.265	725.25
512.481	707.25
512.698	707.25
512.914	729.25
513.13	712.25
513.346	700.25
513.562	711.25
513.778	706.25
513.994	729.25
514.21	722.25
514.426	757.25
514.642	795.25
514.858	815.25
515.074	837.25
515.29	919.25
515.506	1237.25
515.721	1066.25
515.937	828.25
516.153	785.25
516.369	757.25
516.585	743.25
516.801	740.25
517.016	757.25
517.232	761.25
517.448	770.25
517.664	771.25
517.879	784.25
518.095	773.25
518.311	784.25
518.527	760.25
518.742	727.25
518.958	748.25
519.173	723.25
519.389	752.25
519.605	718.25
519.82	740.25
520.036	730.25
520.251	740.25
520.467	763.25
520.682	772.25
520.898	758.25
521.113	770.25
521.329	783.25
521.544	866.25
521.76	1010.25
521.975	1540.25
522.19	1549.25
522.406	949.25
522.621	771.25
522.836	717.25
523.052	689.25
523.267	683.25
523.482	668.25
523.698	669.25
523.913	676.25
524.128	653.25
524.343	613.25
524.559	625.25
524.774	623.25
524.989	604.25
525.204	625.25
525.419	609.25
525.634	621.25
525.849	622.25
526.064	631.25
526.28	605.25
526.495	611.25
526.71	605.25
526.925	597.25
527.14	579.25
527.355	588.25
527.57	584.25
527.785	605.25
527.999	573.25
528.214	577.25
528.429	603.25
528.644	583.25
528.859	595.25
529.074	611.25
529.289	628.25
529.503	684.25
529.718	642.25
529.933	637.25
530.148	599.25
530.363	594.25
530.577	599.25
530.792	589.25
531.007	576.25
531.221	582.25
531.436	583.25
531.651	544.25
531.865	571.25
532.08	571.25
532.295	581.25
532.509	595.25
532.724	595.25
532.938	570.25
533.153	586.25
533.367	558.25
533.582	573.25
533.796	582.25
534.011	574.25
534.225	542.25
534.44	557.25
534.654	557.25
534.868	565.25
535.083	549.25
535.297	559.25
535.511	562.25
535.726	579.25
535.94	560.25
536.154	560.25
536.369	579.25
536.583	563.25
536.797	565.25
537.011	536.25
537.225	543.25
537.44	540.25
537.654	553.25
537.868	549.25
538.082	564.25
538.296	547.25
538.51	578.25
538.724	547.25
538.938	534.25
539.153	553.25
539.367	552.25
539.581	577.25
539.795	559.25
540.009	543.25
540.222	538.25
540.436	541.25
540.65	534.25
540.864	527.25
541.078	576.25
541.292	563.25
541.506	555.25
541.72	555.25
541.934	522.25
542.147	550.25
542.361	549.25
542.575	530.25
542.789	544.25
543.002	552.25
543.216	563.25
543.43	533.25
543.644	561.25
543.857	547.25
544.071	551.25
544.285	562.25
544.498	534.25
544.712	535.25
544.925	527.25
545.139	538.25
545.352	541.25
545.566	554.25
545.779	523.25
545.993	531.25
546.206	539.25
546.42	523.25
546.633	545.25
546.847	542.25
547.06	539.25
547.274	541.25
547.487	535.25
547.7	511.25
547.914	520.25
548.127	527.25
548.34	533.25
548.554	524.25
548.767	532.25
548.98	547.25
549.193	541.25
549.407	555.25
549.62	554.25
549.833	540.25
550.046	531.25
550.259	536.25
550.473	517.25
550.686	533.25
550.899	523.25
551.112	533.25
551.325	522.25
551.538	536.25
551.751	515.25
551.964	524.25
552.177	539.25
552.39	528.25
552.603	525.25
552.816	571.25
553.029	537.25
553.242	556.25
553.455	556.25
553.667	558.25
553.88	563.25
554.093	545.25
554.306	558.25
554.519	532.25
554.732	526.25
554.944	515.25
555.157	521.25
555.37	517.25
555.583	519.25
555.795	508.25
556.008	487.25
556.221	485.25
556.433	493.25
556.646	480.25
556.859	481.25
557.071	478.25
557.284	484.25
557.496	465.25
557.709	475.25
557.921	489.25
558.134	485.25
558.346	481.25
558.559	470.25
558.771	468.25
558.984	463.25
559.196	458.25
559.409	444.25
559.621	472.25
559.833	453.25
560.046	475.25
560.258	469.25
560.47	467.25
560.683	482.25
560.895	455.25
561.107	461.25
561.32	453.25
561.532	452.25
561.744	465.25
561.956	469.25
562.168	481.25
562.381	499.25
562.593	469.25
562.805	483.25
563.017	466.25
563.229	465.25
563.441	467.25
563.653	499.25
563.865	461.25
564.077	489.25
564.289	478.25
564.501	483.25
564.713	502.25
564.925	516.25
565.137	541.25
565.349	527.25
565.561	535.25
565.773	539.25
565.985	547.25
566.197	532.25
566.408	563.25
566.62	585.25
566.832	610.25
567.044	609.25
567.255	602.25
567.467	625.25
567.679	646.25
567.891	657.25
568.102	654.25
568.314	643.25
568.526	617.25
568.737	595.25
568.949	551.25
569.161	539.25
569.372	502.25
569.584	514.25
569.795	492.25
570.007	484.25
570.218	521.25
570.43	531.25
570.641	470.25
570.853	478.25
571.064	466.25
571.276	451.25
571.487	456.25
571.698	447.25
571.91	451.25
572.121	457.25
572.333	418.25
572.544	441.25
572.755	405.25
572.966	425.25
573.178	424.25
573.389	400.25
573.6	411.25
573.811	412.25
574.023	410.25
574.234	417.25
574.445	411.25
574.656	398.25
574.867	382.25
575.078	415.25
575.289	410.25
575.501	403.25
575.712	381.25
575.923	390.25
576.134	400.25
576.345	389.25
576.556	386.25
576.767	377.25
576.978	400.25
577.188	389.25
577.399	396.25
577.61	389.25
577.821	371.25
578.032	374.25
578.243	422.25
578.454	585.25
578.665	462.25
578.875	383.25
579.086	371.25
579.297	377.25
579.508	369.25
579.718	380.25
579.929	364.25
580.14	359.25
580.35	357.25
580.561	372.25
580.772	367.25
580.982	372.25
581.193	371.25
581.403	356.25
581.614	378.25
581.825	372.25
582.035	371.25
582.246	369.25
582.456	360.25
582.667	363.25
582.877	353.25
583.087	360.25
583.298	370.25
583.508	377.25
583.719	352.25
583.929	371.25
584.139	332.25
584.35	354.25
584.56	343.25
584.77	344.25
584.981	348.25
585.191	353.25
585.401	345.25
585.611	347.25
585.821	351.25
586.032	369.25
586.242	347.25
586.452	350.25
586.662	340.25
586.872	359.25
587.082	364.25
587.292	345.25
587.502	356.25
587.713	352.25
587.923	360.25
588.133	346.25
588.343	337.25
588.553	349.25
588.762	332.25
588.972	332.25
589.182	358.25
589.392	354.25
589.602	352.25
589.812	337.25
590.022	328.25
590.232	337.25
590.441	359.25
590.651	337.25
590.861	355.25
591.071	349.25
591.281	347.25
591.49	335.25
591.7	357.25
591.91	371.25
592.119	363.25
592.329	369.25
592.539	377.25
592.748	376.25
592.958	377.25
593.167	371.25
593.377	392.25
593.587	409.25
593.796	378.25
594.006	375.25
594.215	380.25
594.424	398.25
594.634	394.25
594.843	377.25
595.053	377.25
595.262	357.25
595.472	363.25
595.681	360.25
595.89	344.25
596.1	331.25
596.309	329.25
596.518	337.25
596.727	335.25
596.937	342.25
597.146	325.25
597.355	325.25
597.564	331.25
597.774	304.25
597.983	307.25
598.192	322.25
598.401	316.25
598.61	317.25
598.819	301.25
599.028	295.25
599.237	309.25
599.446	306.25
599.655	307.25
599.864	321.25
600.073	280.25
600.282	301.25
600.491	314.25
600.7	323.25
600.909	287.25
601.118	310.25
601.327	314.25
601.536	310.25
601.745	330.25
601.953	292.25
602.162	285.25
602.371	283.25
602.58	317.25
602.789	284.25
602.997	297.25
603.206	302.25
603.415	289.25
603.623	302.25
603.832	295.25
604.041	301.25
604.249	289.25
604.458	293.25
604.666	287.25
604.875	285.25
605.084	301.25
605.292	298.25
605.501	300.25
605.709	292.25
605.918	289.25
606.126	311.25
606.334	295.25
606.543	289.25
606.751	296.25
606.96	275.25
607.168	295.25
607.376	289.25
607.585	290.25
607.793	294.25
608.001	292.25
608.21	289.25
608.418	274.25
608.626	285.25
608.834	284.25
609.043	270.25
609.251	271.25
609.459	278.25
609.667	282.25
609.875	271.25
610.083	280.25
610.291	295.25
610.499	278.25
610.707	283.25
610.916	277.25
611.124	290.25
611.332	294.25
611.54	275.25
611.748	284.25
611.955	294.25
612.163	280.25
612.371	298.25
612.579	291.25
612.787	279.25
612.995	278.25
613.203	290.25
613.411	283.25
613.618	287.25
613.826	271.25
614.034	291.25
614.242	284.25
614.449	283.25
614.657	286.25
614.865	266.25
615.072	297.25
615.28	271.25
615.488	285.25
615.695	278.25
615.903	282.25
616.111	281.25
616.318	293.25
616.526	281.25
616.733	280.25
616.941	281.25
617.148	275.25
617.356	284.25
617.563	275.25
617.771	269.25
617.978	259.25
618.185	255.25
618.393	284.25
618.6	255.25
618.807	273.25
619.015	275.25
619.222	278.25
619.429	279.25
619.637	285.25
619.844	265.25
620.051	250.25
620.258	267.25
620.466	268.25
620.673	261.25
620.88	238.25
621.087	234.25
621.294	232.25
621.501	258.25
621.708	249.25
621.915	257.25
622.122	269.25
622.329	246.25
622.536	267.25
622.743	271.25
622.95	250.25
623.157	258.25
623.364	245.25
623.571	259.25
623.778	263.25
623.985	256.25
624.192	267.25
624.399	248.25
624.606	246.25
624.812	243.25
625.019	226.25
625.226	258.25
625.433	257.25
625.639	253.25
625.846	243.25
626.053	246.25
626.259	246.25
626.466	250.25
626.673	250.25
626.879	239.25
627.086	233.25
627.293	242.25
627.499	245.25
627.706	236.25
627.912	256.25
628.119	226.25
628.325	236.25
628.532	249.25
628.738	232.25
628.945	254.25
629.151	243.25
629.357	218.25
629.564	228.25
629.77	245.25
629.976	238.25
630.183	222.25
630.389	218.25
630.595	231.25
630.802	221.25
631.008	231.25
631.214	229.25
631.42	232.25
631.627	233.25
631.833	218.25
632.039	205.25
632.245	220.25
632.451	226.25
632.657	228.25
632.863	226.25
633.069	210.25
633.275	237.25
633.481	222.25
633.688	211.25
633.893	230.25
634.099	215.25
634.305	204.25
634.511	206.25
634.717	196.25
634.923	213.25
635.129	222.25
635.335	197.25
635.541	204.25
635.747	214.25
635.952	219.25
636.158	202.25
636.364	225.25
636.57	213.25
636.775	227.25
636.981	229.25
637.187	212.25
637.392	215.25
637.598	204.25
637.804	219.25
638.009	206.25
638.215	209.25
638.421	213.25
638.626	199.25
638.832	205.25
639.037	205.25
639.243	202.25
639.448	197.25
639.654	195.25
639.859	185.25
640.065	191.25
640.27	203.25
640.475	199.25
640.681	193.25
640.886	196.25
641.091	193.25
641.297	217.25
641.502	193.25
641.707	190.25
641.913	204.25
642.118	199.25
642.323	190.25
642.528	200.25
642.733	194.25
642.939	193.25
643.144	187.25
643.349	190.25
643.554	184.25
643.759	174.25
643.964	197.25
644.169	191.25
644.374	189.25
644.579	188.25
644.784	178.25
644.989	198.25
645.194	203.25
645.399	198.25
645.604	172.25
645.809	197.25
646.014	190.25
646.219	185.25
646.423	194.25
646.628	201.25
646.833	206.25
647.038	204.25
647.243	204.25
647.447	199.25
647.652	174.25
647.857	193.25
648.062	199.25
648.266	190.25
648.471	188.25
648.676	203.25
648.88	187.25
649.085	192.25
649.289	187.25
649.494	191.25
649.698	215.25
649.903	200.25
650.107	174.25
650.312	189.25
650.516	173.25
650.721	171.25
650.925	182.25
651.13	171.25
651.334	171.25
651.539	164.25
651.743	169.25
651.947	162.25
652.152	156.25
652.356	172.25
652.56	169.25
652.764	157.25
652.969	141.25
653.173	149.25
653.377	160.25
653.581	167.25
653.785	165.25
653.99	163.25
654.194	134.25
654.398	144.25
654.602	150.25
654.806	152.25
655.01	157.25
655.214	153.25
655.418	154.25
655.622	161.25
655.826	153.25
656.03	132.25
656.234	146.25
656.438	151.25
656.642	166.25
656.846	158.25
657.049	126.25
657.253	138.25
657.457	121.25
657.661	135.25
657.865	119.25
658.068	121.25
658.272	115.25
658.476	109.25
658.68	114.25
658.883	110.25
659.087	111.25
659.291	111.25
659.494	94.25
659.698	90.25
659.901	103.25
660.105	98.25
660.309	97.25
660.512	97.25
660.716	91.25
660.919	98.25
661.123	106.25
661.326	88.25
661.53	95.25
661.733	89.25
661.936	98.25
662.14	91.25
662.343	69.25
662.546	82.25
662.75	82.25
662.953	79.25
663.156	85.25
663.36	86.25
663.563	68.25
663.766	73.25
663.969	92.25
664.173	93.25
664.376	90.25
664.579	82.25
664.782	86.25
664.985	85.25
665.188	90.25
665.391	84.25
665.594	99.25
665.797	75.25
666	70.25
666.203	81.25
666.406	72.25
666.609	72.25
666.812	92.25
667.015	82.25
667.218	97.25
667.421	83.25
667.624	94.25
667.827	96.25
668.03	83.25
668.232	75.25
668.435	80.25
668.638	81.25
668.841	85.25
669.043	81.25
669.246	83.25
669.449	68.25
669.651	86.25
669.854	86.25
670.057	83.25
670.259	88.25
670.462	81.25
670.665	76.25
670.867	87.25
671.07	84.25
671.272	77.25
671.475	89.25
671.677	82.25
671.88	70.25
672.082	71.25
672.284	89.25
672.487	77.25
672.689	78.25
672.892	73.25
