Data from 1974.PennyLincolnUp.Lamp.En5.5.200Scan.071719.P1.Changed Mount._HRD10591_15-53-46-857.txt Node
Date: Thu Jul 18 15:53:46 EDT 2019
User: cochatt
Spectrometer: HR+D1059
Trigger mode: 1
Integration Time (sec): 1.000000E-1
Scans to average: 1
Electric dark correction enabled: true
Nonlinearity correction enabled: false
Boxcar width: 0
XAxis mode: Wavelengths
Number of Pixels in Spectrum: 2048
>>>>>Begin Spectral Data<<<<<
223.165	-22.31
223.4	-22.31
223.635	-22.31
223.869	-23.31
224.104	-16.31
224.338	-7.31
224.573	-17.31
224.808	-16.31
225.042	-11.31
225.277	5.69
225.511	9.69
225.746	-0.31
225.98	-3.31
226.215	6.69
226.449	5.69
226.683	23.69
226.918	29.69
227.152	36.69
227.387	36.69
227.621	28.69
227.856	47.69
228.09	48.69
228.324	47.69
228.559	46.69
228.793	86.69
229.027	94.69
229.262	120.69
229.496	115.69
229.73	147.69
229.964	154.69
230.199	125.69
230.433	125.69
230.667	132.69
230.901	124.69
231.136	115.69
231.37	108.69
231.604	113.69
231.838	120.69
232.072	112.69
232.306	127.69
232.541	105.69
232.775	121.69
233.009	130.69
233.243	117.69
233.477	123.69
233.711	115.69
233.945	119.69
234.179	124.69
234.413	122.69
234.647	115.69
234.881	124.69
235.115	132.69
235.349	134.69
235.583	130.69
235.817	118.69
236.051	134.69
236.285	127.69
236.519	126.69
236.753	138.69
236.987	163.69
237.221	184.69
237.455	245.69
237.689	190.69
237.922	159.69
238.156	136.69
238.39	131.69
238.624	125.69
238.858	132.69
239.091	126.69
239.325	123.69
239.559	141.69
239.793	134.69
240.027	147.69
240.26	161.69
240.494	158.69
240.728	154.69
240.961	158.69
241.195	157.69
241.429	145.69
241.662	141.69
241.896	142.69
242.13	144.69
242.363	141.69
242.597	118.69
242.83	145.69
243.064	144.69
243.298	160.69
243.531	151.69
243.765	156.69
243.998	149.69
244.232	169.69
244.465	166.69
244.699	162.69
244.932	175.69
245.166	152.69
245.399	156.69
245.633	164.69
245.866	155.69
246.099	182.69
246.333	156.69
246.566	170.69
246.8	169.69
247.033	165.69
247.266	167.69
247.5	185.69
247.733	170.69
247.966	190.69
248.2	187.69
248.433	182.69
248.666	180.69
248.899	195.69
249.133	227.69
249.366	214.69
249.599	204.69
249.832	182.69
250.066	195.69
250.299	180.69
250.532	212.69
250.765	222.69
250.998	227.69
251.231	242.69
251.465	230.69
251.698	220.69
251.931	207.69
252.164	212.69
252.397	205.69
252.63	205.69
252.863	218.69
253.096	244.69
253.329	255.69
253.562	239.69
253.795	242.69
254.028	238.69
254.261	242.69
254.494	258.69
254.727	273.69
254.96	310.69
255.193	290.69
255.426	275.69
255.659	249.69
255.892	228.69
256.124	252.69
256.357	263.69
256.59	236.69
256.823	219.69
257.056	224.69
257.289	230.69
257.521	237.69
257.754	243.69
257.987	237.69
258.22	220.69
258.452	220.69
258.685	221.69
258.918	222.69
259.151	227.69
259.383	240.69
259.616	257.69
259.849	258.69
260.081	255.69
260.314	272.69
260.547	284.69
260.779	274.69
261.012	261.69
261.244	251.69
261.477	254.69
261.71	230.69
261.942	235.69
262.175	247.69
262.407	256.69
262.64	230.69
262.872	220.69
263.105	231.69
263.337	243.69
263.57	237.69
263.802	233.69
264.035	244.69
264.267	220.69
264.499	247.69
264.732	234.69
264.964	218.69
265.197	226.69
265.429	243.69
265.661	239.69
265.894	239.69
266.126	246.69
266.358	239.69
266.591	238.69
266.823	254.69
267.055	239.69
267.287	235.69
267.52	254.69
267.752	259.69
267.984	232.69
268.216	262.69
268.448	248.69
268.681	268.69
268.913	262.69
269.145	283.69
269.377	314.69
269.609	300.69
269.841	293.69
270.073	300.69
270.306	310.69
270.538	349.69
270.77	344.69
271.002	295.69
271.234	311.69
271.466	317.69
271.698	335.69
271.93	356.69
272.162	360.69
272.394	331.69
272.626	338.69
272.858	315.69
273.09	290.69
273.322	289.69
273.553	298.69
273.785	303.69
274.017	296.69
274.249	303.69
274.481	302.69
274.713	297.69
274.945	287.69
275.176	291.69
275.408	308.69
275.64	299.69
275.872	295.69
276.104	288.69
276.335	295.69
276.567	301.69
276.799	280.69
277.031	324.69
277.262	351.69
277.494	346.69
277.726	343.69
277.957	314.69
278.189	296.69
278.421	289.69
278.652	302.69
278.884	298.69
279.115	269.69
279.347	305.69
279.579	312.69
279.81	299.69
280.042	286.69
280.273	311.69
280.505	308.69
280.736	290.69
280.968	306.69
281.199	307.69
281.431	297.69
281.662	288.69
281.894	298.69
282.125	302.69
282.356	323.69
282.588	332.69
282.819	347.69
283.051	308.69
283.282	306.69
283.513	309.69
283.745	290.69
283.976	315.69
284.207	322.69
284.439	310.69
284.67	308.69
284.901	318.69
285.132	306.69
285.364	312.69
285.595	301.69
285.826	323.69
286.057	315.69
286.288	306.69
286.52	310.69
286.751	306.69
286.982	310.69
287.213	302.69
287.444	331.69
287.675	325.69
287.906	321.69
288.138	341.69
288.369	330.69
288.6	342.69
288.831	322.69
289.062	321.69
289.293	328.69
289.524	319.69
289.755	326.69
289.986	322.69
290.217	315.69
290.448	324.69
290.679	333.69
290.91	352.69
291.141	332.69
291.371	338.69
291.602	337.69
291.833	315.69
292.064	330.69
292.295	329.69
292.526	322.69
292.757	312.69
292.987	315.69
293.218	316.69
293.449	318.69
293.68	327.69
293.91	330.69
294.141	318.69
294.372	327.69
294.603	331.69
294.833	336.69
295.064	345.69
295.295	354.69
295.525	330.69
295.756	336.69
295.987	333.69
296.217	350.69
296.448	365.69
296.679	340.69
296.909	330.69
297.14	325.69
297.37	324.69
297.601	329.69
297.831	332.69
298.062	323.69
298.292	330.69
298.523	354.69
298.753	354.69
298.984	330.69
299.214	341.69
299.445	363.69
299.675	344.69
299.905	363.69
300.136	336.69
300.366	337.69
300.597	359.69
300.827	361.69
301.057	358.69
301.288	374.69
301.518	379.69
301.748	370.69
301.979	368.69
302.209	376.69
302.439	378.69
302.669	360.69
302.9	360.69
303.13	370.69
303.36	352.69
303.59	388.69
303.82	358.69
304.051	380.69
304.281	372.69
304.511	391.69
304.741	376.69
304.971	360.69
305.201	366.69
305.431	377.69
305.661	356.69
305.891	364.69
306.121	371.69
306.352	376.69
306.582	364.69
306.812	356.69
307.042	350.69
307.272	357.69
307.502	348.69
307.731	374.69
307.961	381.69
308.191	374.69
308.421	392.69
308.651	375.69
308.881	374.69
309.111	392.69
309.341	378.69
309.571	383.69
309.8	403.69
310.03	415.69
310.26	404.69
310.49	388.69
310.72	410.69
310.949	426.69
311.179	424.69
311.409	404.69
311.639	403.69
311.868	401.69
312.098	404.69
312.328	415.69
312.557	405.69
312.787	439.69
313.017	446.69
313.246	426.69
313.476	415.69
313.706	406.69
313.935	424.69
314.165	424.69
314.394	450.69
314.624	419.69
314.853	437.69
315.083	423.69
315.312	422.69
315.542	413.69
315.771	392.69
316.001	400.69
316.23	408.69
316.46	410.69
316.689	406.69
316.919	403.69
317.148	414.69
317.377	418.69
317.607	416.69
317.836	429.69
318.065	426.69
318.295	402.69
318.524	410.69
318.753	420.69
318.983	430.69
319.212	394.69
319.441	428.69
319.67	419.69
319.9	412.69
320.129	419.69
320.358	431.69
320.587	421.69
320.816	426.69
321.046	426.69
321.275	420.69
321.504	427.69
321.733	435.69
321.962	462.69
322.191	453.69
322.42	471.69
322.649	469.69
322.878	480.69
323.108	489.69
323.337	501.69
323.566	508.69
323.795	531.69
324.024	565.69
324.253	638.69
324.482	882.69
324.71	1366.69
324.939	2034.69
325.168	1810.69
325.397	909.69
325.626	676.69
325.855	542.69
326.084	532.69
326.313	533.69
326.542	532.69
326.77	586.69
326.999	631.69
327.228	824.69
327.457	1255.69
327.686	1598.69
327.914	1039.69
328.143	700.69
328.372	630.69
328.6	598.69
328.829	599.69
329.058	567.69
329.287	601.69
329.515	554.69
329.744	553.69
329.972	538.69
330.201	534.69
330.43	570.69
330.658	600.69
330.887	600.69
331.115	626.69
331.344	559.69
331.572	534.69
331.801	526.69
332.03	543.69
332.258	536.69
332.486	493.69
332.715	518.69
332.943	495.69
333.172	497.69
333.4	524.69
333.629	515.69
333.857	539.69
334.085	540.69
334.314	560.69
334.542	588.69
334.771	580.69
334.999	564.69
335.227	517.69
335.455	549.69
335.684	535.69
335.912	488.69
336.14	480.69
336.369	511.69
336.597	518.69
336.825	505.69
337.053	507.69
337.281	492.69
337.51	494.69
337.738	475.69
337.966	494.69
338.194	503.69
338.422	502.69
338.65	520.69
338.878	474.69
339.106	463.69
339.334	499.69
339.562	484.69
339.79	498.69
340.018	477.69
340.246	473.69
340.474	507.69
340.702	470.69
340.93	456.69
341.158	462.69
341.386	490.69
341.614	493.69
341.842	469.69
342.07	477.69
342.298	458.69
342.526	465.69
342.754	457.69
342.981	486.69
343.209	493.69
343.437	475.69
343.665	461.69
343.893	492.69
344.12	509.69
344.348	514.69
344.576	514.69
344.804	519.69
345.031	499.69
345.259	477.69
345.487	482.69
345.714	472.69
345.942	457.69
346.17	470.69
346.397	484.69
346.625	469.69
346.853	443.69
347.08	476.69
347.308	455.69
347.535	483.69
347.763	474.69
347.99	457.69
348.218	471.69
348.445	486.69
348.673	502.69
348.9	473.69
349.128	455.69
349.355	450.69
349.583	474.69
349.81	455.69
350.037	458.69
350.265	461.69
350.492	444.69
350.72	448.69
350.947	483.69
351.174	439.69
351.402	484.69
351.629	456.69
351.856	475.69
352.083	488.69
352.311	475.69
352.538	490.69
352.765	481.69
352.992	475.69
353.22	469.69
353.447	453.69
353.674	461.69
353.901	427.69
354.128	447.69
354.355	455.69
354.583	451.69
354.81	432.69
355.037	452.69
355.264	458.69
355.491	430.69
355.718	458.69
355.945	447.69
356.172	438.69
356.399	449.69
356.626	431.69
356.853	445.69
357.08	414.69
357.307	447.69
357.534	444.69
357.761	421.69
357.988	435.69
358.215	444.69
358.441	449.69
358.668	455.69
358.895	441.69
359.122	458.69
359.349	461.69
359.576	445.69
359.802	509.69
360.029	495.69
360.256	520.69
360.483	499.69
360.709	454.69
360.936	458.69
361.163	464.69
361.39	479.69
361.616	471.69
361.843	460.69
362.07	455.69
362.296	460.69
362.523	457.69
362.749	455.69
362.976	443.69
363.203	461.69
363.429	451.69
363.656	479.69
363.882	447.69
364.109	439.69
364.335	447.69
364.562	444.69
364.788	459.69
365.015	474.69
365.241	459.69
365.468	459.69
365.694	443.69
365.92	455.69
366.147	438.69
366.373	444.69
366.599	461.69
366.826	451.69
367.052	446.69
367.278	457.69
367.505	448.69
367.731	450.69
367.957	457.69
368.184	467.69
368.41	453.69
368.636	454.69
368.862	474.69
369.089	464.69
369.315	460.69
369.541	467.69
369.767	454.69
369.993	474.69
370.219	458.69
370.445	461.69
370.672	456.69
370.898	439.69
371.124	462.69
371.35	452.69
371.576	446.69
371.802	447.69
372.028	465.69
372.254	458.69
372.48	479.69
372.706	461.69
372.932	451.69
373.158	479.69
373.384	487.69
373.61	478.69
373.835	475.69
374.061	444.69
374.287	461.69
374.513	478.69
374.739	491.69
374.965	474.69
375.191	487.69
375.416	493.69
375.642	486.69
375.868	486.69
376.094	473.69
376.319	463.69
376.545	477.69
376.771	489.69
376.997	460.69
377.222	465.69
377.448	463.69
377.674	456.69
377.899	486.69
378.125	470.69
378.35	450.69
378.576	462.69
378.802	448.69
379.027	465.69
379.253	472.69
379.478	446.69
379.704	455.69
379.929	466.69
380.155	466.69
380.38	463.69
380.606	488.69
380.831	483.69
381.057	471.69
381.282	455.69
381.507	469.69
381.733	479.69
381.958	472.69
382.184	477.69
382.409	476.69
382.634	465.69
382.86	470.69
383.085	467.69
383.31	478.69
383.535	482.69
383.761	498.69
383.986	484.69
384.211	489.69
384.436	486.69
384.662	500.69
384.887	501.69
385.112	506.69
385.337	501.69
385.562	516.69
385.787	523.69
386.013	533.69
386.238	520.69
386.463	520.69
386.688	527.69
386.913	517.69
387.138	528.69
387.363	507.69
387.588	512.69
387.813	506.69
388.038	494.69
388.263	528.69
388.488	518.69
388.713	547.69
388.938	518.69
389.163	514.69
389.387	508.69
389.612	479.69
389.837	510.69
390.062	504.69
390.287	502.69
390.512	531.69
390.736	528.69
390.961	512.69
391.186	520.69
391.411	499.69
391.636	528.69
391.86	545.69
392.085	542.69
392.31	558.69
392.534	545.69
392.759	532.69
392.984	544.69
393.208	536.69
393.433	515.69
393.658	515.69
393.882	532.69
394.107	519.69
394.331	535.69
394.556	525.69
394.78	505.69
395.005	528.69
395.229	519.69
395.454	561.69
395.678	547.69
395.903	553.69
396.127	592.69
396.352	587.69
396.576	553.69
396.801	532.69
397.025	525.69
397.249	565.69
397.474	549.69
397.698	556.69
397.922	590.69
398.147	580.69
398.371	636.69
398.595	596.69
398.82	606.69
399.044	622.69
399.268	630.69
399.492	675.69
399.717	757.69
399.941	770.69
400.165	795.69
400.389	768.69
400.613	728.69
400.837	640.69
401.062	629.69
401.286	638.69
401.51	615.69
401.734	611.69
401.958	596.69
402.182	616.69
402.406	614.69
402.63	608.69
402.854	629.69
403.078	624.69
403.302	624.69
403.526	639.69
403.75	638.69
403.974	657.69
404.198	638.69
404.422	643.69
404.645	649.69
404.869	660.69
405.093	675.69
405.317	717.69
405.541	787.69
405.765	688.69
405.988	644.69
406.212	670.69
406.436	680.69
406.66	706.69
406.883	680.69
407.107	704.69
407.331	749.69
407.555	855.69
407.778	831.69
408.002	761.69
408.226	719.69
408.449	685.69
408.673	686.69
408.896	717.69
409.12	785.69
409.344	734.69
409.567	683.69
409.791	654.69
410.014	634.69
410.238	633.69
410.461	637.69
410.685	628.69
410.908	637.69
411.132	687.69
411.355	708.69
411.578	700.69
411.802	668.69
412.025	641.69
412.249	660.69
412.472	665.69
412.695	711.69
412.919	704.69
413.142	647.69
413.365	628.69
413.589	633.69
413.812	617.69
414.035	608.69
414.258	602.69
414.482	582.69
414.705	614.69
414.928	582.69
415.151	594.69
415.374	586.69
415.597	597.69
415.821	588.69
416.044	603.69
416.267	579.69
416.49	589.69
416.713	589.69
416.936	595.69
417.159	578.69
417.382	610.69
417.605	624.69
417.828	633.69
418.051	650.69
418.274	657.69
418.497	615.69
418.72	596.69
418.943	605.69
419.166	636.69
419.389	674.69
419.611	674.69
419.834	648.69
420.057	635.69
420.28	630.69
420.503	617.69
420.726	613.69
420.948	651.69
421.171	659.69
421.394	706.69
421.617	651.69
421.839	622.69
422.062	644.69
422.285	630.69
422.507	691.69
422.73	748.69
422.953	763.69
423.175	672.69
423.398	663.69
423.621	656.69
423.843	650.69
424.066	690.69
424.288	681.69
424.511	698.69
424.733	766.69
424.956	844.69
425.178	802.69
425.401	770.69
425.623	824.69
425.846	695.69
426.068	668.69
426.291	651.69
426.513	642.69
426.735	662.69
426.958	699.69
427.18	799.69
427.402	922.69
427.625	1010.69
427.847	856.69
428.069	773.69
428.292	701.69
428.514	665.69
428.736	631.69
428.958	607.69
429.181	624.69
429.403	618.69
429.625	631.69
429.847	662.69
430.069	716.69
430.292	727.69
430.514	641.69
430.736	606.69
430.958	600.69
431.18	598.69
431.402	587.69
431.624	564.69
431.846	580.69
432.068	576.69
432.29	594.69
432.512	588.69
432.734	583.69
432.956	587.69
433.178	597.69
433.4	585.69
433.622	596.69
433.844	588.69
434.066	614.69
434.287	584.69
434.509	594.69
434.731	608.69
434.953	604.69
435.175	616.69
435.397	667.69
435.618	648.69
435.84	700.69
436.062	807.69
436.284	882.69
436.505	734.69
436.727	662.69
436.949	636.69
437.17	629.69
437.392	612.69
437.614	611.69
437.835	631.69
438.057	780.69
438.278	865.69
438.5	863.69
438.721	905.69
438.943	940.69
439.165	744.69
439.386	704.69
439.608	673.69
439.829	671.69
440.05	656.69
440.272	727.69
440.493	698.69
440.715	635.69
440.936	630.69
441.158	622.69
441.379	605.69
441.6	629.69
441.822	646.69
442.043	684.69
442.264	807.69
442.486	842.69
442.707	726.69
442.928	680.69
443.149	690.69
443.371	712.69
443.592	749.69
443.813	898.69
444.034	931.69
444.255	783.69
444.476	695.69
444.698	676.69
444.919	692.69
445.14	780.69
445.361	727.69
445.582	712.69
445.803	795.69
446.024	912.69
446.245	904.69
446.466	836.69
446.687	684.69
446.908	653.69
447.129	612.69
447.35	621.69
447.571	608.69
447.792	588.69
448.013	600.69
448.234	625.69
448.455	661.69
448.675	809.69
448.896	935.69
449.117	804.69
449.338	718.69
449.559	849.69
449.779	980.69
450	776.69
450.221	675.69
450.442	625.69
450.662	588.69
450.883	587.69
451.104	603.69
451.324	586.69
451.545	571.69
451.766	569.69
451.986	551.69
452.207	523.69
452.428	520.69
452.648	542.69
452.869	534.69
453.089	526.69
453.31	584.69
453.53	547.69
453.751	524.69
453.971	538.69
454.192	558.69
454.412	523.69
454.633	539.69
454.853	528.69
455.073	538.69
455.294	556.69
455.514	641.69
455.734	614.69
455.955	524.69
456.175	516.69
456.395	521.69
456.616	519.69
456.836	491.69
457.056	484.69
457.276	521.69
457.497	506.69
457.717	485.69
457.937	532.69
458.157	546.69
458.377	547.69
458.598	559.69
458.818	614.69
459.038	694.69
459.258	703.69
459.478	620.69
459.698	596.69
459.918	588.69
460.138	582.69
460.358	612.69
460.578	602.69
460.798	628.69
461.018	609.69
461.238	601.69
461.458	614.69
461.678	590.69
461.898	605.69
462.118	630.69
462.338	634.69
462.558	628.69
462.777	662.69
462.997	674.69
463.217	673.69
463.437	694.69
463.657	669.69
463.876	672.69
464.096	654.69
464.316	674.69
464.536	671.69
464.755	657.69
464.975	643.69
465.195	683.69
465.414	719.69
465.634	668.69
465.854	616.69
466.073	564.69
466.293	588.69
466.512	548.69
466.732	565.69
466.951	557.69
467.171	585.69
467.391	582.69
467.61	541.69
467.829	576.69
468.049	567.69
468.268	560.69
468.488	565.69
468.707	543.69
468.927	566.69
469.146	554.69
469.365	554.69
469.585	542.69
469.804	550.69
470.023	551.69
470.243	566.69
470.462	583.69
470.681	600.69
470.901	582.69
471.12	579.69
471.339	568.69
471.558	581.69
471.777	564.69
471.997	548.69
472.216	572.69
472.435	613.69
472.654	580.69
472.873	566.69
473.092	578.69
473.311	561.69
473.53	542.69
473.749	577.69
473.968	618.69
474.187	698.69
474.406	735.69
474.625	632.69
474.844	606.69
475.063	600.69
475.282	582.69
475.501	566.69
475.72	580.69
475.939	587.69
476.158	595.69
476.377	575.69
476.596	588.69
476.814	597.69
477.033	602.69
477.252	590.69
477.471	624.69
477.69	602.69
477.908	629.69
478.127	628.69
478.346	645.69
478.564	638.69
478.783	647.69
479.002	660.69
479.22	654.69
479.439	668.69
479.658	675.69
479.876	676.69
480.095	689.69
480.313	740.69
480.532	700.69
480.751	676.69
480.969	720.69
481.188	733.69
481.406	779.69
481.624	713.69
481.843	703.69
482.061	678.69
482.28	650.69
482.498	662.69
482.717	651.69
482.935	661.69
483.153	655.69
483.372	659.69
483.59	674.69
483.808	670.69
484.027	648.69
484.245	662.69
484.463	647.69
484.681	694.69
484.9	675.69
485.118	650.69
485.336	674.69
485.554	699.69
485.772	670.69
485.99	665.69
486.209	697.69
486.427	699.69
486.645	674.69
486.863	702.69
487.081	710.69
487.299	690.69
487.517	695.69
487.735	699.69
487.953	717.69
488.171	685.69
488.389	700.69
488.607	722.69
488.825	709.69
489.043	686.69
489.261	729.69
489.479	742.69
489.696	717.69
489.914	720.69
490.132	731.69
490.35	741.69
490.568	766.69
490.786	778.69
491.003	768.69
491.221	799.69
491.439	832.69
491.657	785.69
491.874	828.69
492.092	818.69
492.31	837.69
492.527	833.69
492.745	850.69
492.963	802.69
493.18	830.69
493.398	836.69
493.615	852.69
493.833	856.69
494.05	851.69
494.268	862.69
494.485	853.69
494.703	852.69
494.92	864.69
495.138	843.69
495.355	864.69
495.573	871.69
495.79	851.69
496.008	862.69
496.225	844.69
496.442	851.69
496.66	868.69
496.877	872.69
497.094	889.69
497.312	869.69
497.529	870.69
497.746	900.69
497.963	922.69
498.181	933.69
498.398	948.69
498.615	988.69
498.832	991.69
499.049	1032.69
499.267	1043.69
499.484	1092.69
499.701	1135.69
499.918	1160.69
500.135	1268.69
500.352	1367.69
500.569	1383.69
500.786	1355.69
501.003	1297.69
501.22	1276.69
501.437	1197.69
501.654	1140.69
501.871	1123.69
502.088	1060.69
502.305	1034.69
502.522	966.69
502.739	983.69
502.956	929.69
503.172	936.69
503.389	888.69
503.606	882.69
503.823	882.69
504.04	867.69
504.256	874.69
504.473	884.69
504.69	864.69
504.907	858.69
505.123	884.69
505.34	814.69
505.557	802.69
505.773	801.69
505.99	808.69
506.207	811.69
506.423	812.69
506.64	799.69
506.856	773.69
507.073	798.69
507.289	788.69
507.506	768.69
507.722	782.69
507.939	776.69
508.155	759.69
508.372	725.69
508.588	740.69
508.805	734.69
509.021	754.69
509.238	772.69
509.454	751.69
509.67	745.69
509.887	726.69
510.103	722.69
510.319	748.69
510.536	826.69
510.752	1205.69
510.968	1030.69
511.184	742.69
511.401	726.69
511.617	713.69
511.833	722.69
512.049	702.69
512.265	698.69
512.481	698.69
512.698	684.69
512.914	698.69
513.13	703.69
513.346	692.69
513.562	699.69
513.778	704.69
513.994	715.69
514.21	694.69
514.426	734.69
514.642	755.69
514.858	766.69
515.074	815.69
515.29	926.69
515.506	1239.69
515.721	1070.69
515.937	818.69
516.153	750.69
516.369	755.69
516.585	756.69
516.801	733.69
517.016	747.69
517.232	752.69
517.448	744.69
517.664	754.69
517.879	772.69
518.095	764.69
518.311	743.69
518.527	734.69
518.742	704.69
518.958	731.69
519.173	739.69
519.389	723.69
519.605	697.69
519.82	705.69
520.036	720.69
520.251	716.69
520.467	764.69
520.682	736.69
520.898	745.69
521.113	745.69
521.329	791.69
521.544	863.69
521.76	1000.69
521.975	1515.69
522.19	1470.69
522.406	917.69
522.621	753.69
522.836	704.69
523.052	648.69
523.267	647.69
523.482	655.69
523.698	618.69
523.913	640.69
524.128	668.69
524.343	625.69
524.559	638.69
524.774	611.69
524.989	605.69
525.204	595.69
525.419	600.69
525.634	611.69
525.849	601.69
526.064	584.69
526.28	583.69
526.495	590.69
526.71	600.69
526.925	574.69
527.14	576.69
527.355	574.69
527.57	586.69
527.785	574.69
527.999	582.69
528.214	583.69
528.429	588.69
528.644	586.69
528.859	606.69
529.074	558.69
529.289	604.69
529.503	653.69
529.718	638.69
529.933	615.69
530.148	596.69
530.363	593.69
530.577	580.69
530.792	567.69
531.007	574.69
531.221	558.69
531.436	576.69
531.651	578.69
531.865	552.69
532.08	564.69
532.295	562.69
532.509	540.69
532.724	547.69
532.938	556.69
533.153	552.69
533.367	573.69
533.582	565.69
533.796	572.69
534.011	563.69
534.225	548.69
534.44	562.69
534.654	539.69
534.868	536.69
535.083	565.69
535.297	554.69
535.511	544.69
535.726	564.69
535.94	570.69
536.154	543.69
536.369	565.69
536.583	562.69
536.797	553.69
537.011	529.69
537.225	533.69
537.44	531.69
537.654	566.69
537.868	540.69
538.082	531.69
538.296	551.69
538.51	548.69
538.724	545.69
538.938	544.69
539.153	549.69
539.367	546.69
539.581	552.69
539.795	496.69
540.009	529.69
540.222	524.69
540.436	526.69
540.65	538.69
540.864	550.69
541.078	538.69
541.292	549.69
541.506	537.69
541.72	552.69
541.934	526.69
542.147	543.69
542.361	538.69
542.575	537.69
542.789	543.69
543.002	526.69
543.216	538.69
543.43	536.69
543.644	538.69
543.857	554.69
544.071	536.69
544.285	565.69
544.498	554.69
544.712	512.69
544.925	536.69
545.139	550.69
545.352	525.69
545.566	518.69
545.779	513.69
545.993	493.69
546.206	531.69
546.42	535.69
546.633	522.69
546.847	539.69
547.06	528.69
547.274	526.69
547.487	532.69
547.7	534.69
547.914	510.69
548.127	534.69
548.34	525.69
548.554	532.69
548.767	532.69
548.98	520.69
549.193	510.69
549.407	539.69
549.62	542.69
549.833	498.69
550.046	524.69
550.259	517.69
550.473	514.69
550.686	512.69
550.899	508.69
551.112	512.69
551.325	517.69
551.538	503.69
551.751	504.69
551.964	502.69
552.177	518.69
552.39	514.69
552.603	517.69
552.816	522.69
553.029	531.69
553.242	543.69
553.455	544.69
553.667	529.69
553.88	535.69
554.093	538.69
554.306	534.69
554.519	513.69
554.732	521.69
554.944	519.69
555.157	487.69
555.37	534.69
555.583	522.69
555.795	487.69
556.008	482.69
556.221	499.69
556.433	464.69
556.646	476.69
556.859	481.69
557.071	457.69
557.284	465.69
557.496	481.69
557.709	483.69
557.921	469.69
558.134	463.69
558.346	477.69
558.559	462.69
558.771	473.69
558.984	483.69
559.196	487.69
559.409	461.69
559.621	464.69
559.833	438.69
560.046	447.69
560.258	482.69
560.47	453.69
560.683	473.69
560.895	462.69
561.107	455.69
561.32	440.69
561.532	447.69
561.744	457.69
561.956	458.69
562.168	451.69
562.381	455.69
562.593	460.69
562.805	447.69
563.017	463.69
563.229	471.69
563.441	460.69
563.653	459.69
563.865	468.69
564.077	480.69
564.289	478.69
564.501	475.69
564.713	485.69
564.925	502.69
565.137	503.69
565.349	498.69
565.561	508.69
565.773	524.69
565.985	527.69
566.197	529.69
566.408	584.69
566.62	570.69
566.832	595.69
567.044	592.69
567.255	601.69
567.467	630.69
567.679	660.69
567.891	650.69
568.102	650.69
568.314	637.69
568.526	602.69
568.737	576.69
568.949	557.69
569.161	494.69
569.372	503.69
569.584	485.69
569.795	489.69
570.007	472.69
570.218	519.69
570.43	498.69
570.641	475.69
570.853	470.69
571.064	442.69
571.276	468.69
571.487	462.69
571.698	442.69
571.91	430.69
572.121	414.69
572.333	445.69
572.544	418.69
572.755	418.69
572.966	418.69
573.178	408.69
573.389	414.69
573.6	416.69
573.811	396.69
574.023	390.69
574.234	415.69
574.445	400.69
574.656	392.69
574.867	401.69
575.078	388.69
575.289	382.69
575.501	395.69
575.712	386.69
575.923	401.69
576.134	381.69
576.345	378.69
576.556	375.69
576.767	392.69
576.978	403.69
577.188	399.69
577.399	387.69
577.61	392.69
577.821	390.69
578.032	388.69
578.243	417.69
578.454	559.69
578.665	450.69
578.875	382.69
579.086	382.69
579.297	365.69
579.508	367.69
579.718	365.69
579.929	367.69
580.14	345.69
580.35	336.69
580.561	342.69
580.772	348.69
580.982	382.69
581.193	362.69
581.403	367.69
581.614	347.69
581.825	344.69
582.035	351.69
582.246	370.69
582.456	338.69
582.667	355.69
582.877	343.69
583.087	333.69
583.298	342.69
583.508	373.69
583.719	341.69
583.929	359.69
584.139	340.69
584.35	351.69
584.56	354.69
584.77	342.69
584.981	357.69
585.191	334.69
585.401	344.69
585.611	342.69
585.821	342.69
586.032	351.69
586.242	335.69
586.452	338.69
586.662	340.69
586.872	327.69
587.082	329.69
587.292	347.69
587.502	333.69
587.713	347.69
587.923	347.69
588.133	339.69
588.343	360.69
588.553	355.69
588.762	322.69
588.972	345.69
589.182	352.69
589.392	345.69
589.602	342.69
589.812	337.69
590.022	344.69
590.232	350.69
590.441	329.69
590.651	345.69
590.861	335.69
591.071	331.69
591.281	346.69
591.49	328.69
591.7	336.69
591.91	363.69
592.119	363.69
592.329	352.69
592.539	362.69
592.748	358.69
592.958	373.69
593.167	379.69
593.377	371.69
593.587	372.69
593.796	377.69
594.006	390.69
594.215	388.69
594.424	379.69
594.634	407.69
594.843	360.69
595.053	359.69
595.262	359.69
595.472	366.69
595.681	350.69
595.89	348.69
596.1	347.69
596.309	335.69
596.518	333.69
596.727	313.69
596.937	316.69
597.146	328.69
597.355	317.69
597.564	311.69
597.774	313.69
597.983	334.69
598.192	336.69
598.401	322.69
598.61	282.69
598.819	295.69
599.028	310.69
599.237	307.69
599.446	316.69
599.655	306.69
599.864	327.69
600.073	316.69
600.282	306.69
600.491	295.69
600.7	293.69
600.909	312.69
601.118	297.69
601.327	294.69
601.536	303.69
601.745	308.69
601.953	282.69
602.162	292.69
602.371	301.69
602.58	293.69
602.789	306.69
602.997	286.69
603.206	301.69
603.415	301.69
603.623	290.69
603.832	292.69
604.041	295.69
604.249	290.69
604.458	269.69
604.666	283.69
604.875	278.69
605.084	285.69
605.292	281.69
605.501	298.69
605.709	286.69
605.918	292.69
606.126	271.69
606.334	299.69
606.543	281.69
606.751	271.69
606.96	267.69
607.168	265.69
607.376	284.69
607.585	287.69
607.793	280.69
608.001	297.69
608.21	286.69
608.418	274.69
608.626	292.69
608.834	304.69
609.043	295.69
609.251	295.69
609.459	267.69
609.667	271.69
609.875	276.69
610.083	290.69
610.291	290.69
610.499	291.69
610.707	282.69
610.916	297.69
611.124	284.69
611.332	278.69
611.54	280.69
611.748	286.69
611.955	265.69
612.163	284.69
612.371	280.69
612.579	277.69
612.787	293.69
612.995	298.69
613.203	290.69
613.411	279.69
613.618	285.69
613.826	280.69
614.034	306.69
614.242	268.69
614.449	288.69
614.657	281.69
614.865	279.69
615.072	270.69
615.28	278.69
615.488	265.69
615.695	288.69
615.903	287.69
616.111	272.69
616.318	259.69
616.526	270.69
616.733	275.69
616.941	279.69
617.148	263.69
617.356	275.69
617.563	268.69
617.771	264.69
617.978	265.69
618.185	270.69
618.393	258.69
618.6	276.69
618.807	276.69
619.015	271.69
619.222	276.69
619.429	246.69
619.637	276.69
619.844	258.69
620.051	269.69
620.258	269.69
620.466	255.69
620.673	262.69
620.88	278.69
621.087	264.69
621.294	264.69
621.501	238.69
621.708	269.69
621.915	244.69
622.122	268.69
622.329	259.69
622.536	245.69
622.743	244.69
622.95	251.69
623.157	247.69
623.364	265.69
623.571	266.69
623.778	253.69
623.985	267.69
624.192	244.69
624.399	250.69
624.606	237.69
624.812	242.69
625.019	246.69
625.226	265.69
625.433	242.69
625.639	244.69
625.846	236.69
626.053	227.69
626.259	250.69
626.466	244.69
626.673	219.69
626.879	230.69
627.086	260.69
627.293	231.69
627.499	226.69
627.706	232.69
627.912	238.69
628.119	229.69
628.325	237.69
628.532	231.69
628.738	244.69
628.945	231.69
629.151	236.69
629.357	232.69
629.564	221.69
629.77	212.69
629.976	216.69
630.183	226.69
630.389	237.69
630.595	223.69
630.802	233.69
631.008	227.69
631.214	216.69
631.42	218.69
631.627	212.69
631.833	211.69
632.039	222.69
632.245	210.69
632.451	218.69
632.657	211.69
632.863	206.69
633.069	192.69
633.275	216.69
633.481	226.69
633.688	227.69
633.893	211.69
634.099	206.69
634.305	212.69
634.511	196.69
634.717	213.69
634.923	212.69
635.129	206.69
635.335	207.69
635.541	204.69
635.747	198.69
635.952	190.69
636.158	212.69
636.364	212.69
636.57	211.69
636.775	219.69
636.981	199.69
637.187	217.69
637.392	206.69
637.598	206.69
637.804	192.69
638.009	210.69
638.215	194.69
638.421	203.69
638.626	200.69
638.832	200.69
639.037	196.69
639.243	199.69
639.448	175.69
639.654	198.69
639.859	200.69
640.065	196.69
640.27	203.69
640.475	192.69
640.681	207.69
640.886	192.69
641.091	198.69
641.297	206.69
641.502	192.69
641.707	198.69
641.913	224.69
642.118	201.69
642.323	184.69
642.528	180.69
642.733	192.69
642.939	197.69
643.144	191.69
643.349	207.69
643.554	193.69
643.759	177.69
643.964	176.69
644.169	206.69
644.374	196.69
644.579	191.69
644.784	186.69
644.989	185.69
645.194	195.69
645.399	180.69
645.604	173.69
645.809	164.69
646.014	168.69
646.219	172.69
646.423	195.69
646.628	182.69
646.833	200.69
647.038	207.69
647.243	184.69
647.447	195.69
647.652	185.69
647.857	193.69
648.062	185.69
648.266	207.69
648.471	182.69
648.676	184.69
648.88	185.69
649.085	199.69
649.289	200.69
649.494	198.69
649.698	212.69
649.903	210.69
650.107	196.69
650.312	182.69
650.516	168.69
650.721	174.69
650.925	174.69
651.13	155.69
651.334	165.69
651.539	168.69
651.743	160.69
651.947	170.69
652.152	164.69
652.356	174.69
652.56	150.69
652.764	162.69
652.969	178.69
653.173	148.69
653.377	136.69
653.581	152.69
653.785	158.69
653.99	138.69
654.194	151.69
654.398	144.69
654.602	138.69
654.806	155.69
655.01	141.69
655.214	148.69
655.418	144.69
655.622	148.69
655.826	144.69
656.03	143.69
656.234	136.69
656.438	147.69
656.642	150.69
656.846	168.69
657.049	130.69
657.253	135.69
657.457	140.69
657.661	130.69
657.865	124.69
658.068	119.69
658.272	107.69
658.476	121.69
658.68	117.69
658.883	100.69
659.087	119.69
659.291	110.69
659.494	110.69
659.698	96.69
659.901	89.69
660.105	104.69
660.309	100.69
660.512	111.69
660.716	116.69
660.919	95.69
661.123	100.69
661.326	87.69
661.53	86.69
661.733	91.69
661.936	88.69
662.14	86.69
662.343	85.69
662.546	94.69
662.75	82.69
662.953	95.69
663.156	84.69
663.36	82.69
663.563	106.69
663.766	87.69
663.969	87.69
664.173	87.69
664.376	86.69
664.579	70.69
664.782	85.69
664.985	94.69
665.188	92.69
665.391	92.69
665.594	84.69
665.797	79.69
666	83.69
666.203	74.69
666.406	76.69
666.609	89.69
666.812	91.69
667.015	75.69
667.218	80.69
667.421	68.69
667.624	84.69
667.827	89.69
668.03	72.69
668.232	75.69
668.435	75.69
668.638	71.69
668.841	89.69
669.043	85.69
669.246	91.69
669.449	81.69
669.651	84.69
669.854	88.69
670.057	85.69
670.259	79.69
670.462	80.69
670.665	97.69
670.867	91.69
671.07	94.69
671.272	94.69
671.475	82.69
671.677	88.69
671.88	71.69
672.082	85.69
672.284	90.69
672.487	72.69
672.689	82.69
672.892	64.69
