Data from 1974.PennyLincolnUp.Lamp.En5.5.200Scan.071719.P1.Changed Mount._HRD10591_15-52-54-857.txt Node
Date: Thu Jul 18 15:52:54 EDT 2019
User: cochatt
Spectrometer: HR+D1059
Trigger mode: 1
Integration Time (sec): 1.000000E-1
Scans to average: 1
Electric dark correction enabled: true
Nonlinearity correction enabled: false
Boxcar width: 0
XAxis mode: Wavelengths
Number of Pixels in Spectrum: 2048
>>>>>Begin Spectral Data<<<<<
223.165	-26.25
223.4	-26.25
223.635	-26.25
223.869	-14.25
224.104	-10.25
224.338	-15.25
224.573	-14.25
224.808	-3.25
225.042	3.75
225.277	-5.25
225.511	1.75
225.746	1.75
225.98	3.75
226.215	15.75
226.449	6.75
226.683	10.75
226.918	14.75
227.152	29.75
227.387	38.75
227.621	39.75
227.856	33.75
228.09	37.75
228.324	34.75
228.559	49.75
228.793	75.75
229.027	86.75
229.262	100.75
229.496	119.75
229.73	137.75
229.964	144.75
230.199	136.75
230.433	120.75
230.667	121.75
230.901	117.75
231.136	89.75
231.37	121.75
231.604	126.75
231.838	123.75
232.072	126.75
232.306	113.75
232.541	121.75
232.775	133.75
233.009	135.75
233.243	127.75
233.477	129.75
233.711	132.75
233.945	107.75
234.179	125.75
234.413	118.75
234.647	126.75
234.881	108.75
235.115	111.75
235.349	117.75
235.583	128.75
235.817	126.75
236.051	123.75
236.285	129.75
236.519	113.75
236.753	139.75
236.987	149.75
237.221	177.75
237.455	222.75
237.689	187.75
237.922	137.75
238.156	142.75
238.39	137.75
238.624	137.75
238.858	131.75
239.091	133.75
239.325	126.75
239.559	133.75
239.793	142.75
240.027	140.75
240.26	145.75
240.494	163.75
240.728	178.75
240.961	151.75
241.195	141.75
241.429	150.75
241.662	157.75
241.896	141.75
242.13	150.75
242.363	145.75
242.597	143.75
242.83	125.75
243.064	142.75
243.298	156.75
243.531	150.75
243.765	155.75
243.998	131.75
244.232	158.75
244.465	139.75
244.699	133.75
244.932	145.75
245.166	153.75
245.399	167.75
245.633	159.75
245.866	157.75
246.099	177.75
246.333	153.75
246.566	165.75
246.8	159.75
247.033	176.75
247.266	174.75
247.5	170.75
247.733	154.75
247.966	184.75
248.2	189.75
248.433	172.75
248.666	204.75
248.899	196.75
249.133	196.75
249.366	213.75
249.599	211.75
249.832	182.75
250.066	203.75
250.299	193.75
250.532	186.75
250.765	211.75
250.998	241.75
251.231	235.75
251.465	237.75
251.698	215.75
251.931	212.75
252.164	200.75
252.397	195.75
252.63	214.75
252.863	225.75
253.096	214.75
253.329	223.75
253.562	253.75
253.795	243.75
254.028	238.75
254.261	230.75
254.494	227.75
254.727	259.75
254.96	311.75
255.193	282.75
255.426	263.75
255.659	244.75
255.892	243.75
256.124	254.75
256.357	241.75
256.59	231.75
256.823	228.75
257.056	227.75
257.289	221.75
257.521	231.75
257.754	245.75
257.987	227.75
258.22	243.75
258.452	223.75
258.685	228.75
258.918	220.75
259.151	214.75
259.383	226.75
259.616	236.75
259.849	245.75
260.081	251.75
260.314	286.75
260.547	289.75
260.779	267.75
261.012	237.75
261.244	241.75
261.477	252.75
261.71	237.75
261.942	230.75
262.175	248.75
262.407	241.75
262.64	240.75
262.872	232.75
263.105	222.75
263.337	231.75
263.57	229.75
263.802	216.75
264.035	228.75
264.267	222.75
264.499	229.75
264.732	221.75
264.964	225.75
265.197	226.75
265.429	221.75
265.661	240.75
265.894	213.75
266.126	228.75
266.358	236.75
266.591	242.75
266.823	241.75
267.055	230.75
267.287	247.75
267.52	239.75
267.752	245.75
267.984	237.75
268.216	248.75
268.448	266.75
268.681	266.75
268.913	262.75
269.145	272.75
269.377	303.75
269.609	305.75
269.841	303.75
270.073	308.75
270.306	304.75
270.538	334.75
270.77	322.75
271.002	314.75
271.234	307.75
271.466	318.75
271.698	321.75
271.93	338.75
272.162	335.75
272.394	328.75
272.626	307.75
272.858	295.75
273.09	274.75
273.322	299.75
273.553	286.75
273.785	285.75
274.017	297.75
274.249	282.75
274.481	285.75
274.713	262.75
274.945	295.75
275.176	277.75
275.408	278.75
275.64	293.75
275.872	276.75
276.104	278.75
276.335	276.75
276.567	315.75
276.799	312.75
277.031	309.75
277.262	335.75
277.494	331.75
277.726	315.75
277.957	296.75
278.189	317.75
278.421	278.75
278.652	293.75
278.884	296.75
279.115	291.75
279.347	289.75
279.579	291.75
279.81	293.75
280.042	280.75
280.273	279.75
280.505	283.75
280.736	280.75
280.968	312.75
281.199	317.75
281.431	285.75
281.662	300.75
281.894	295.75
282.125	289.75
282.356	305.75
282.588	310.75
282.819	318.75
283.051	318.75
283.282	295.75
283.513	300.75
283.745	314.75
283.976	301.75
284.207	321.75
284.439	302.75
284.67	301.75
284.901	314.75
285.132	319.75
285.364	314.75
285.595	305.75
285.826	310.75
286.057	301.75
286.288	319.75
286.52	322.75
286.751	305.75
286.982	327.75
287.213	298.75
287.444	309.75
287.675	325.75
287.906	343.75
288.138	358.75
288.369	329.75
288.6	321.75
288.831	340.75
289.062	326.75
289.293	330.75
289.524	318.75
289.755	313.75
289.986	320.75
290.217	327.75
290.448	305.75
290.679	312.75
290.91	322.75
291.141	331.75
291.371	314.75
291.602	333.75
291.833	321.75
292.064	335.75
292.295	323.75
292.526	349.75
292.757	313.75
292.987	336.75
293.218	310.75
293.449	324.75
293.68	324.75
293.91	332.75
294.141	314.75
294.372	334.75
294.603	333.75
294.833	319.75
295.064	331.75
295.295	316.75
295.525	327.75
295.756	338.75
295.987	342.75
296.217	350.75
296.448	346.75
296.679	315.75
296.909	346.75
297.14	341.75
297.37	351.75
297.601	345.75
297.831	327.75
298.062	333.75
298.292	351.75
298.523	339.75
298.753	340.75
298.984	357.75
299.214	331.75
299.445	338.75
299.675	331.75
299.905	351.75
300.136	349.75
300.366	363.75
300.597	364.75
300.827	359.75
301.057	374.75
301.288	361.75
301.518	345.75
301.748	362.75
301.979	377.75
302.209	369.75
302.439	370.75
302.669	372.75
302.9	392.75
303.13	360.75
303.36	353.75
303.59	375.75
303.82	361.75
304.051	361.75
304.281	366.75
304.511	363.75
304.741	359.75
304.971	336.75
305.201	373.75
305.431	360.75
305.661	344.75
305.891	345.75
306.121	378.75
306.352	381.75
306.582	362.75
306.812	360.75
307.042	366.75
307.272	368.75
307.502	380.75
307.731	345.75
307.961	369.75
308.191	357.75
308.421	347.75
308.651	371.75
308.881	381.75
309.111	366.75
309.341	387.75
309.571	391.75
309.8	382.75
310.03	379.75
310.26	391.75
310.49	387.75
310.72	392.75
310.949	415.75
311.179	439.75
311.409	410.75
311.639	403.75
311.868	392.75
312.098	399.75
312.328	400.75
312.557	424.75
312.787	440.75
313.017	427.75
313.246	428.75
313.476	405.75
313.706	411.75
313.935	403.75
314.165	422.75
314.394	414.75
314.624	424.75
314.853	427.75
315.083	393.75
315.312	413.75
315.542	408.75
315.771	405.75
316.001	406.75
316.23	404.75
316.46	398.75
316.689	406.75
316.919	420.75
317.148	431.75
317.377	404.75
317.607	406.75
317.836	408.75
318.065	399.75
318.295	411.75
318.524	399.75
318.753	407.75
318.983	406.75
319.212	401.75
319.441	413.75
319.67	424.75
319.9	395.75
320.129	414.75
320.358	413.75
320.587	435.75
320.816	439.75
321.046	443.75
321.275	428.75
321.504	395.75
321.733	435.75
321.962	447.75
322.191	457.75
322.42	469.75
322.649	470.75
322.878	467.75
323.108	457.75
323.337	469.75
323.566	505.75
323.795	527.75
324.024	542.75
324.253	635.75
324.482	871.75
324.71	1289.75
324.939	1934.75
325.168	1665.75
325.397	873.75
325.626	609.75
325.855	526.75
326.084	517.75
326.313	498.75
326.542	522.75
326.77	549.75
326.999	607.75
327.228	817.75
327.457	1175.75
327.686	1447.75
327.914	975.75
328.143	659.75
328.372	607.75
328.6	587.75
328.829	577.75
329.058	570.75
329.287	594.75
329.515	558.75
329.744	527.75
329.972	527.75
330.201	556.75
330.43	571.75
330.658	573.75
330.887	603.75
331.115	600.75
331.344	565.75
331.572	521.75
331.801	540.75
332.03	539.75
332.258	503.75
332.486	504.75
332.715	493.75
332.943	500.75
333.172	493.75
333.4	504.75
333.629	536.75
333.857	533.75
334.085	545.75
334.314	557.75
334.542	581.75
334.771	593.75
334.999	562.75
335.227	542.75
335.455	503.75
335.684	519.75
335.912	519.75
336.14	474.75
336.369	484.75
336.597	529.75
336.825	509.75
337.053	503.75
337.281	509.75
337.51	480.75
337.738	484.75
337.966	505.75
338.194	496.75
338.422	505.75
338.65	469.75
338.878	499.75
339.106	473.75
339.334	492.75
339.562	471.75
339.79	474.75
340.018	500.75
340.246	476.75
340.474	471.75
340.702	476.75
340.93	489.75
341.158	479.75
341.386	477.75
341.614	500.75
341.842	476.75
342.07	471.75
342.298	455.75
342.526	464.75
342.754	453.75
342.981	458.75
343.209	454.75
343.437	471.75
343.665	479.75
343.893	488.75
344.12	515.75
344.348	516.75
344.576	484.75
344.804	503.75
345.031	491.75
345.259	512.75
345.487	477.75
345.714	485.75
345.942	450.75
346.17	463.75
346.397	473.75
346.625	455.75
346.853	466.75
347.08	457.75
347.308	480.75
347.535	454.75
347.763	488.75
347.99	459.75
348.218	469.75
348.445	470.75
348.673	478.75
348.9	469.75
349.128	443.75
349.355	442.75
349.583	459.75
349.81	451.75
350.037	442.75
350.265	441.75
350.492	445.75
350.72	445.75
350.947	482.75
351.174	465.75
351.402	482.75
351.629	467.75
351.856	456.75
352.083	445.75
352.311	461.75
352.538	458.75
352.765	467.75
352.992	457.75
353.22	471.75
353.447	455.75
353.674	435.75
353.901	430.75
354.128	449.75
354.355	429.75
354.583	446.75
354.81	443.75
355.037	438.75
355.264	439.75
355.491	445.75
355.718	421.75
355.945	439.75
356.172	422.75
356.399	422.75
356.626	449.75
356.853	441.75
357.08	452.75
357.307	437.75
357.534	431.75
357.761	448.75
357.988	441.75
358.215	429.75
358.441	453.75
358.668	432.75
358.895	444.75
359.122	437.75
359.349	456.75
359.576	461.75
359.802	466.75
360.029	504.75
360.256	502.75
360.483	485.75
360.709	467.75
360.936	452.75
361.163	458.75
361.39	452.75
361.616	452.75
361.843	452.75
362.07	472.75
362.296	468.75
362.523	453.75
362.749	470.75
362.976	476.75
363.203	457.75
363.429	455.75
363.656	442.75
363.882	469.75
364.109	444.75
364.335	447.75
364.562	478.75
364.788	449.75
365.015	473.75
365.241	444.75
365.468	457.75
365.694	457.75
365.92	448.75
366.147	439.75
366.373	426.75
366.599	449.75
366.826	452.75
367.052	465.75
367.278	460.75
367.505	444.75
367.731	465.75
367.957	454.75
368.184	473.75
368.41	457.75
368.636	478.75
368.862	477.75
369.089	464.75
369.315	455.75
369.541	453.75
369.767	459.75
369.993	454.75
370.219	453.75
370.445	469.75
370.672	439.75
370.898	452.75
371.124	459.75
371.35	451.75
371.576	459.75
371.802	457.75
372.028	442.75
372.254	472.75
372.48	458.75
372.706	451.75
372.932	464.75
373.158	481.75
373.384	471.75
373.61	459.75
373.835	458.75
374.061	479.75
374.287	466.75
374.513	505.75
374.739	469.75
374.965	476.75
375.191	464.75
375.416	483.75
375.642	485.75
375.868	473.75
376.094	481.75
376.319	464.75
376.545	458.75
376.771	460.75
376.997	469.75
377.222	451.75
377.448	476.75
377.674	458.75
377.899	453.75
378.125	467.75
378.35	456.75
378.576	467.75
378.802	464.75
379.027	439.75
379.253	461.75
379.478	449.75
379.704	451.75
379.929	485.75
380.155	470.75
380.38	459.75
380.606	466.75
380.831	454.75
381.057	471.75
381.282	461.75
381.507	481.75
381.733	481.75
381.958	467.75
382.184	481.75
382.409	491.75
382.634	470.75
382.86	491.75
383.085	491.75
383.31	479.75
383.535	487.75
383.761	482.75
383.986	510.75
384.211	491.75
384.436	491.75
384.662	507.75
384.887	535.75
385.112	503.75
385.337	518.75
385.562	537.75
385.787	523.75
386.013	543.75
386.238	527.75
386.463	523.75
386.688	508.75
386.913	516.75
387.138	519.75
387.363	518.75
387.588	530.75
387.813	518.75
388.038	507.75
388.263	529.75
388.488	515.75
388.713	521.75
388.938	503.75
389.163	534.75
389.387	527.75
389.612	513.75
389.837	501.75
390.062	513.75
390.287	532.75
390.512	522.75
390.736	534.75
390.961	511.75
391.186	518.75
391.411	537.75
391.636	537.75
391.86	540.75
392.085	556.75
392.31	555.75
392.534	564.75
392.759	545.75
392.984	569.75
393.208	555.75
393.433	525.75
393.658	522.75
393.882	536.75
394.107	534.75
394.331	527.75
394.556	528.75
394.78	534.75
395.005	557.75
395.229	539.75
395.454	534.75
395.678	553.75
395.903	587.75
396.127	598.75
396.352	591.75
396.576	571.75
396.801	557.75
397.025	563.75
397.249	561.75
397.474	566.75
397.698	551.75
397.922	601.75
398.147	599.75
398.371	594.75
398.595	584.75
398.82	614.75
399.044	625.75
399.268	645.75
399.492	684.75
399.717	750.75
399.941	774.75
400.165	766.75
400.389	767.75
400.613	687.75
400.837	642.75
401.062	638.75
401.286	637.75
401.51	618.75
401.734	598.75
401.958	615.75
402.182	627.75
402.406	623.75
402.63	639.75
402.854	617.75
403.078	649.75
403.302	614.75
403.526	647.75
403.75	639.75
403.974	634.75
404.198	613.75
404.422	643.75
404.645	655.75
404.869	635.75
405.093	699.75
405.317	735.75
405.541	761.75
405.765	691.75
405.988	662.75
406.212	678.75
406.436	690.75
406.66	703.75
406.883	681.75
407.107	705.75
407.331	756.75
407.555	850.75
407.778	837.75
408.002	766.75
408.226	710.75
408.449	718.75
408.673	711.75
408.896	717.75
409.12	761.75
409.344	731.75
409.567	682.75
409.791	665.75
410.014	643.75
410.238	629.75
410.461	642.75
410.685	637.75
410.908	668.75
411.132	685.75
411.355	693.75
411.578	690.75
411.802	675.75
412.025	654.75
412.249	659.75
412.472	669.75
412.695	713.75
412.919	701.75
413.142	645.75
413.365	611.75
413.589	628.75
413.812	623.75
414.035	618.75
414.258	588.75
414.482	632.75
414.705	625.75
414.928	586.75
415.151	607.75
415.374	594.75
415.597	595.75
415.821	575.75
416.044	601.75
416.267	606.75
416.49	597.75
416.713	604.75
416.936	600.75
417.159	600.75
417.382	612.75
417.605	628.75
417.828	619.75
418.051	634.75
418.274	623.75
418.497	598.75
418.72	633.75
418.943	614.75
419.166	641.75
419.389	665.75
419.611	675.75
419.834	660.75
420.057	658.75
420.28	651.75
420.503	618.75
420.726	621.75
420.948	615.75
421.171	682.75
421.394	714.75
421.617	649.75
421.839	640.75
422.062	643.75
422.285	620.75
422.507	713.75
422.73	760.75
422.953	771.75
423.175	683.75
423.398	662.75
423.621	650.75
423.843	683.75
424.066	686.75
424.288	684.75
424.511	702.75
424.733	725.75
424.956	820.75
425.178	780.75
425.401	774.75
425.623	778.75
425.846	695.75
426.068	669.75
426.291	654.75
426.513	655.75
426.735	674.75
426.958	701.75
427.18	777.75
427.402	887.75
427.625	979.75
427.847	876.75
428.069	753.75
428.292	691.75
428.514	628.75
428.736	617.75
428.958	600.75
429.181	602.75
429.403	590.75
429.625	610.75
429.847	610.75
430.069	701.75
430.292	712.75
430.514	618.75
430.736	604.75
430.958	618.75
431.18	604.75
431.402	590.75
431.624	596.75
431.846	589.75
432.068	585.75
432.29	571.75
432.512	601.75
432.734	598.75
432.956	585.75
433.178	603.75
433.4	620.75
433.622	599.75
433.844	602.75
434.066	589.75
434.287	581.75
434.509	577.75
434.731	586.75
434.953	630.75
435.175	655.75
435.397	643.75
435.618	667.75
435.84	692.75
436.062	791.75
436.284	851.75
436.505	731.75
436.727	657.75
436.949	607.75
437.17	600.75
437.392	579.75
437.614	611.75
437.835	627.75
438.057	728.75
438.278	858.75
438.5	828.75
438.721	945.75
438.943	885.75
439.165	737.75
439.386	671.75
439.608	673.75
439.829	654.75
440.05	691.75
440.272	722.75
440.493	668.75
440.715	633.75
440.936	621.75
441.158	631.75
441.379	629.75
441.6	625.75
441.822	646.75
442.043	714.75
442.264	783.75
442.486	848.75
442.707	721.75
442.928	695.75
443.149	691.75
443.371	681.75
443.592	725.75
443.813	830.75
444.034	921.75
444.255	761.75
444.476	699.75
444.698	703.75
444.919	679.75
445.14	773.75
445.361	738.75
445.582	699.75
445.803	746.75
446.024	849.75
446.245	904.75
446.466	801.75
446.687	687.75
446.908	664.75
447.129	627.75
447.35	569.75
447.571	616.75
447.792	601.75
448.013	589.75
448.234	587.75
448.455	655.75
448.675	787.75
448.896	917.75
449.117	794.75
449.338	718.75
449.559	833.75
449.779	953.75
450	751.75
450.221	661.75
450.442	603.75
450.662	575.75
450.883	577.75
451.104	602.75
451.324	593.75
451.545	579.75
451.766	567.75
451.986	561.75
452.207	565.75
452.428	541.75
452.648	521.75
452.869	533.75
453.089	535.75
453.31	548.75
453.53	540.75
453.751	548.75
453.971	533.75
454.192	541.75
454.412	554.75
454.633	541.75
454.853	536.75
455.073	528.75
455.294	554.75
455.514	616.75
455.734	619.75
455.955	547.75
456.175	535.75
456.395	510.75
456.616	504.75
456.836	525.75
457.056	498.75
457.276	523.75
457.497	489.75
457.717	502.75
457.937	505.75
458.157	525.75
458.377	514.75
458.598	566.75
458.818	616.75
459.038	680.75
459.258	707.75
459.478	615.75
459.698	581.75
459.918	581.75
460.138	595.75
460.358	603.75
460.578	596.75
460.798	597.75
461.018	606.75
461.238	604.75
461.458	621.75
461.678	611.75
461.898	602.75
462.118	606.75
462.338	645.75
462.558	645.75
462.777	663.75
462.997	683.75
463.217	716.75
463.437	712.75
463.657	665.75
463.876	663.75
464.096	676.75
464.316	674.75
464.536	637.75
464.755	647.75
464.975	659.75
465.195	662.75
465.414	722.75
465.634	654.75
465.854	614.75
466.073	585.75
466.293	588.75
466.512	554.75
466.732	567.75
466.951	543.75
467.171	556.75
467.391	577.75
467.61	555.75
467.829	554.75
468.049	579.75
468.268	570.75
468.488	574.75
468.707	537.75
468.927	526.75
469.146	553.75
469.365	554.75
469.585	536.75
469.804	555.75
470.023	583.75
470.243	574.75
470.462	586.75
470.681	575.75
470.901	584.75
471.12	569.75
471.339	561.75
471.558	562.75
471.777	570.75
471.997	550.75
472.216	570.75
472.435	580.75
472.654	582.75
472.873	549.75
473.092	584.75
473.311	557.75
473.53	551.75
473.749	574.75
473.968	588.75
474.187	710.75
474.406	749.75
474.625	633.75
474.844	586.75
475.063	587.75
475.282	558.75
475.501	572.75
475.72	572.75
475.939	579.75
476.158	563.75
476.377	581.75
476.596	576.75
476.814	565.75
477.033	583.75
477.252	597.75
477.471	594.75
477.69	609.75
477.908	603.75
478.127	639.75
478.346	642.75
478.564	641.75
478.783	637.75
479.002	652.75
479.22	644.75
479.439	663.75
479.658	675.75
479.876	674.75
480.095	673.75
480.313	694.75
480.532	681.75
480.751	696.75
480.969	671.75
481.188	735.75
481.406	788.75
481.624	699.75
481.843	665.75
482.061	661.75
482.28	662.75
482.498	682.75
482.717	653.75
482.935	661.75
483.153	653.75
483.372	683.75
483.59	669.75
483.808	654.75
484.027	647.75
484.245	663.75
484.463	668.75
484.681	690.75
484.9	669.75
485.118	677.75
485.336	680.75
485.554	685.75
485.772	687.75
485.99	677.75
486.209	703.75
486.427	685.75
486.645	703.75
486.863	709.75
487.081	702.75
487.299	720.75
487.517	731.75
487.735	705.75
487.953	715.75
488.171	707.75
488.389	707.75
488.607	713.75
488.825	697.75
489.043	686.75
489.261	713.75
489.479	729.75
489.696	736.75
489.914	729.75
490.132	727.75
490.35	740.75
490.568	747.75
490.786	773.75
491.003	767.75
491.221	765.75
491.439	782.75
491.657	803.75
491.874	801.75
492.092	809.75
492.31	830.75
492.527	825.75
492.745	814.75
492.963	824.75
493.18	836.75
493.398	841.75
493.615	820.75
493.833	833.75
494.05	835.75
494.268	850.75
494.485	836.75
494.703	836.75
494.92	839.75
495.138	839.75
495.355	852.75
495.573	847.75
495.79	836.75
496.008	861.75
496.225	827.75
496.442	845.75
496.66	861.75
496.877	846.75
497.094	859.75
497.312	862.75
497.529	908.75
497.746	912.75
497.963	911.75
498.181	892.75
498.398	958.75
498.615	954.75
498.832	995.75
499.049	1029.75
499.267	1051.75
499.484	1098.75
499.701	1155.75
499.918	1220.75
500.135	1275.75
500.352	1346.75
500.569	1362.75
500.786	1398.75
501.003	1359.75
501.22	1301.75
501.437	1239.75
501.654	1153.75
501.871	1134.75
502.088	1109.75
502.305	1055.75
502.522	999.75
502.739	962.75
502.956	949.75
503.172	909.75
503.389	868.75
503.606	892.75
503.823	891.75
504.04	886.75
504.256	886.75
504.473	858.75
504.69	861.75
504.907	867.75
505.123	809.75
505.34	830.75
505.557	821.75
505.773	808.75
505.99	795.75
506.207	793.75
506.423	782.75
506.64	799.75
506.856	773.75
507.073	792.75
507.289	768.75
507.506	761.75
507.722	775.75
507.939	779.75
508.155	756.75
508.372	746.75
508.588	705.75
508.805	745.75
509.021	742.75
509.238	762.75
509.454	750.75
509.67	733.75
509.887	731.75
510.103	707.75
510.319	740.75
510.536	825.75
510.752	1151.75
510.968	1004.75
511.184	737.75
511.401	718.75
511.617	692.75
511.833	711.75
512.049	680.75
512.265	714.75
512.481	722.75
512.698	677.75
512.914	694.75
513.13	701.75
513.346	686.75
513.562	729.75
513.778	707.75
513.994	697.75
514.21	704.75
514.426	706.75
514.642	740.75
514.858	769.75
515.074	826.75
515.29	875.75
515.506	1149.75
515.721	1019.75
515.937	797.75
516.153	758.75
516.369	729.75
516.585	737.75
516.801	736.75
517.016	724.75
517.232	740.75
517.448	754.75
517.664	765.75
517.879	766.75
518.095	729.75
518.311	773.75
518.527	729.75
518.742	722.75
518.958	722.75
519.173	695.75
519.389	703.75
519.605	719.75
519.82	703.75
520.036	683.75
520.251	724.75
520.467	737.75
520.682	698.75
520.898	716.75
521.113	750.75
521.329	742.75
521.544	833.75
521.76	957.75
521.975	1431.75
522.19	1401.75
522.406	895.75
522.621	717.75
522.836	695.75
523.052	662.75
523.267	621.75
523.482	637.75
523.698	635.75
523.913	626.75
524.128	627.75
524.343	636.75
524.559	621.75
524.774	631.75
524.989	608.75
525.204	613.75
525.419	626.75
525.634	618.75
525.849	583.75
526.064	610.75
526.28	596.75
526.495	578.75
526.71	589.75
526.925	559.75
527.14	581.75
527.355	574.75
527.57	585.75
527.785	577.75
527.999	574.75
528.214	570.75
528.429	543.75
528.644	563.75
528.859	571.75
529.074	582.75
529.289	607.75
529.503	658.75
529.718	648.75
529.933	613.75
530.148	574.75
530.363	588.75
530.577	585.75
530.792	566.75
531.007	545.75
531.221	555.75
531.436	566.75
531.651	573.75
531.865	558.75
532.08	595.75
532.295	571.75
532.509	564.75
532.724	551.75
532.938	558.75
533.153	557.75
533.367	564.75
533.582	550.75
533.796	554.75
534.011	563.75
534.225	554.75
534.44	533.75
534.654	550.75
534.868	557.75
535.083	558.75
535.297	565.75
535.511	549.75
535.726	561.75
535.94	557.75
536.154	555.75
536.369	557.75
536.583	540.75
536.797	549.75
537.011	517.75
537.225	533.75
537.44	543.75
537.654	539.75
537.868	527.75
538.082	533.75
538.296	525.75
538.51	542.75
538.724	533.75
538.938	555.75
539.153	546.75
539.367	541.75
539.581	538.75
539.795	527.75
540.009	504.75
540.222	531.75
540.436	540.75
540.65	523.75
540.864	547.75
541.078	517.75
541.292	546.75
541.506	554.75
541.72	538.75
541.934	514.75
542.147	551.75
542.361	541.75
542.575	550.75
542.789	543.75
543.002	522.75
543.216	530.75
543.43	515.75
543.644	521.75
543.857	531.75
544.071	547.75
544.285	520.75
544.498	547.75
544.712	547.75
544.925	544.75
545.139	550.75
545.352	536.75
545.566	512.75
545.779	518.75
545.993	547.75
546.206	527.75
546.42	537.75
546.633	545.75
546.847	506.75
547.06	542.75
547.274	523.75
547.487	525.75
547.7	527.75
547.914	541.75
548.127	527.75
548.34	527.75
548.554	545.75
548.767	536.75
548.98	530.75
549.193	548.75
549.407	517.75
549.62	525.75
549.833	537.75
550.046	513.75
550.259	517.75
550.473	506.75
550.686	521.75
550.899	521.75
551.112	504.75
551.325	516.75
551.538	525.75
551.751	533.75
551.964	507.75
552.177	507.75
552.39	518.75
552.603	548.75
552.816	515.75
553.029	536.75
553.242	542.75
553.455	545.75
553.667	550.75
553.88	550.75
554.093	549.75
554.306	540.75
554.519	528.75
554.732	505.75
554.944	500.75
555.157	503.75
555.37	489.75
555.583	508.75
555.795	488.75
556.008	480.75
556.221	467.75
556.433	475.75
556.646	485.75
556.859	457.75
557.071	483.75
557.284	494.75
557.496	501.75
557.709	469.75
557.921	475.75
558.134	455.75
558.346	471.75
558.559	461.75
558.771	453.75
558.984	450.75
559.196	438.75
559.409	462.75
559.621	463.75
559.833	453.75
560.046	470.75
560.258	467.75
560.47	468.75
560.683	465.75
560.895	459.75
561.107	466.75
561.32	477.75
561.532	474.75
561.744	442.75
561.956	457.75
562.168	452.75
562.381	457.75
562.593	439.75
562.805	454.75
563.017	478.75
563.229	470.75
563.441	463.75
563.653	461.75
563.865	467.75
564.077	469.75
564.289	484.75
564.501	473.75
564.713	517.75
564.925	471.75
565.137	493.75
565.349	492.75
565.561	504.75
565.773	540.75
565.985	541.75
566.197	540.75
566.408	567.75
566.62	593.75
566.832	583.75
567.044	607.75
567.255	607.75
567.467	610.75
567.679	627.75
567.891	622.75
568.102	647.75
568.314	646.75
568.526	612.75
568.737	585.75
568.949	539.75
569.161	515.75
569.372	495.75
569.584	508.75
569.795	494.75
570.007	482.75
570.218	516.75
570.43	509.75
570.641	477.75
570.853	469.75
571.064	446.75
571.276	475.75
571.487	463.75
571.698	439.75
571.91	431.75
572.121	427.75
572.333	420.75
572.544	429.75
572.755	417.75
572.966	410.75
573.178	415.75
573.389	400.75
573.6	377.75
573.811	381.75
574.023	393.75
574.234	396.75
574.445	403.75
574.656	387.75
574.867	395.75
575.078	394.75
575.289	409.75
575.501	387.75
575.712	380.75
575.923	385.75
576.134	385.75
576.345	385.75
576.556	398.75
576.767	386.75
576.978	385.75
577.188	380.75
577.399	390.75
577.61	381.75
577.821	380.75
578.032	385.75
578.243	386.75
578.454	541.75
578.665	455.75
578.875	380.75
579.086	365.75
579.297	371.75
579.508	365.75
579.718	381.75
579.929	366.75
580.14	358.75
580.35	362.75
580.561	361.75
580.772	352.75
580.982	347.75
581.193	361.75
581.403	355.75
581.614	350.75
581.825	349.75
582.035	344.75
582.246	353.75
582.456	369.75
582.667	355.75
582.877	359.75
583.087	365.75
583.298	360.75
583.508	358.75
583.719	362.75
583.929	346.75
584.139	348.75
584.35	351.75
584.56	361.75
584.77	347.75
584.981	365.75
585.191	348.75
585.401	340.75
585.611	357.75
585.821	360.75
586.032	348.75
586.242	343.75
586.452	339.75
586.662	340.75
586.872	345.75
587.082	339.75
587.292	345.75
587.502	345.75
587.713	325.75
587.923	348.75
588.133	331.75
588.343	339.75
588.553	341.75
588.762	341.75
588.972	350.75
589.182	332.75
589.392	321.75
589.602	342.75
589.812	338.75
590.022	357.75
590.232	346.75
590.441	321.75
590.651	339.75
590.861	343.75
591.071	351.75
591.281	345.75
591.49	334.75
591.7	333.75
591.91	370.75
592.119	360.75
592.329	345.75
592.539	376.75
592.748	369.75
592.958	377.75
593.167	398.75
593.377	393.75
593.587	393.75
593.796	395.75
594.006	386.75
594.215	393.75
594.424	389.75
594.634	387.75
594.843	380.75
595.053	378.75
595.262	370.75
595.472	341.75
595.681	351.75
595.89	357.75
596.1	347.75
596.309	313.75
596.518	321.75
596.727	316.75
596.937	329.75
597.146	319.75
597.355	323.75
597.564	289.75
597.774	308.75
597.983	305.75
598.192	310.75
598.401	318.75
598.61	321.75
598.819	305.75
599.028	316.75
599.237	298.75
599.446	295.75
599.655	306.75
599.864	297.75
600.073	280.75
600.282	308.75
600.491	325.75
600.7	287.75
600.909	305.75
601.118	301.75
601.327	293.75
601.536	284.75
601.745	308.75
601.953	286.75
602.162	297.75
602.371	286.75
602.58	293.75
602.789	315.75
602.997	298.75
603.206	300.75
603.415	316.75
603.623	303.75
603.832	309.75
604.041	286.75
604.249	290.75
604.458	280.75
604.666	279.75
604.875	272.75
605.084	290.75
605.292	291.75
605.501	294.75
605.709	287.75
605.918	291.75
606.126	290.75
606.334	286.75
606.543	300.75
606.751	280.75
606.96	300.75
607.168	295.75
607.376	274.75
607.585	266.75
607.793	280.75
608.001	285.75
608.21	281.75
608.418	302.75
608.626	277.75
608.834	277.75
609.043	295.75
609.251	293.75
609.459	279.75
609.667	281.75
609.875	277.75
610.083	276.75
610.291	298.75
610.499	284.75
610.707	309.75
610.916	288.75
611.124	278.75
611.332	283.75
611.54	297.75
611.748	278.75
611.955	284.75
612.163	281.75
612.371	278.75
612.579	267.75
612.787	289.75
612.995	281.75
613.203	255.75
613.411	277.75
613.618	277.75
613.826	285.75
614.034	276.75
614.242	276.75
614.449	285.75
614.657	269.75
614.865	275.75
615.072	288.75
615.28	277.75
615.488	277.75
615.695	256.75
615.903	254.75
616.111	280.75
616.318	279.75
616.526	269.75
616.733	291.75
616.941	279.75
617.148	277.75
617.356	268.75
617.563	281.75
617.771	277.75
617.978	271.75
618.185	278.75
618.393	265.75
618.6	282.75
618.807	265.75
619.015	277.75
619.222	247.75
619.429	265.75
619.637	270.75
619.844	272.75
620.051	287.75
620.258	270.75
620.466	274.75
620.673	255.75
620.88	281.75
621.087	275.75
621.294	242.75
621.501	268.75
621.708	264.75
621.915	261.75
622.122	254.75
622.329	259.75
622.536	241.75
622.743	249.75
622.95	245.75
623.157	264.75
623.364	267.75
623.571	251.75
623.778	239.75
623.985	258.75
624.192	246.75
624.399	245.75
624.606	247.75
624.812	247.75
625.019	242.75
625.226	217.75
625.433	251.75
625.639	245.75
625.846	242.75
626.053	235.75
626.259	252.75
626.466	226.75
626.673	235.75
626.879	242.75
627.086	225.75
627.293	226.75
627.499	238.75
627.706	230.75
627.912	246.75
628.119	238.75
628.325	229.75
628.532	214.75
628.738	238.75
628.945	224.75
629.151	234.75
629.357	216.75
629.564	221.75
629.77	207.75
629.976	221.75
630.183	221.75
630.389	224.75
630.595	230.75
630.802	211.75
631.008	211.75
631.214	222.75
631.42	248.75
631.627	214.75
631.833	213.75
632.039	215.75
632.245	213.75
632.451	221.75
632.657	233.75
632.863	229.75
633.069	207.75
633.275	202.75
633.481	206.75
633.688	216.75
633.893	224.75
634.099	212.75
634.305	220.75
634.511	221.75
634.717	227.75
634.923	216.75
635.129	194.75
635.335	203.75
635.541	202.75
635.747	202.75
635.952	207.75
636.158	186.75
636.364	215.75
636.57	225.75
636.775	217.75
636.981	188.75
637.187	206.75
637.392	203.75
637.598	190.75
637.804	202.75
638.009	202.75
638.215	210.75
638.421	205.75
638.626	213.75
638.832	202.75
639.037	193.75
639.243	200.75
639.448	208.75
639.654	195.75
639.859	177.75
640.065	193.75
640.27	207.75
640.475	203.75
640.681	197.75
640.886	185.75
641.091	206.75
641.297	175.75
641.502	202.75
641.707	182.75
641.913	191.75
642.118	203.75
642.323	200.75
642.528	197.75
642.733	183.75
642.939	184.75
643.144	180.75
643.349	184.75
643.554	198.75
643.759	184.75
643.964	197.75
644.169	186.75
644.374	200.75
644.579	191.75
644.784	195.75
644.989	173.75
645.194	190.75
645.399	178.75
645.604	169.75
645.809	178.75
646.014	186.75
646.219	194.75
646.423	174.75
646.628	193.75
646.833	181.75
647.038	194.75
647.243	185.75
647.447	183.75
647.652	189.75
647.857	188.75
648.062	201.75
648.266	170.75
648.471	199.75
648.676	186.75
648.88	202.75
649.085	198.75
649.289	186.75
649.494	183.75
649.698	189.75
649.903	202.75
650.107	202.75
650.312	197.75
650.516	177.75
650.721	166.75
650.925	183.75
651.13	169.75
651.334	193.75
651.539	178.75
651.743	172.75
651.947	164.75
652.152	161.75
652.356	159.75
652.56	151.75
652.764	161.75
652.969	154.75
653.173	162.75
653.377	174.75
653.581	150.75
653.785	152.75
653.99	158.75
654.194	150.75
654.398	159.75
654.602	150.75
654.806	147.75
655.01	158.75
655.214	158.75
655.418	138.75
655.622	140.75
655.826	146.75
656.03	147.75
656.234	142.75
656.438	159.75
656.642	162.75
656.846	131.75
657.049	140.75
657.253	133.75
657.457	136.75
657.661	124.75
657.865	133.75
658.068	116.75
658.272	121.75
658.476	104.75
658.68	121.75
658.883	109.75
659.087	105.75
659.291	99.75
659.494	115.75
659.698	97.75
659.901	85.75
660.105	92.75
660.309	97.75
660.512	94.75
660.716	98.75
660.919	83.75
661.123	94.75
661.326	89.75
661.53	96.75
661.733	79.75
661.936	95.75
662.14	98.75
662.343	80.75
662.546	82.75
662.75	88.75
662.953	89.75
663.156	89.75
663.36	92.75
663.563	83.75
663.766	76.75
663.969	78.75
664.173	95.75
664.376	76.75
664.579	85.75
664.782	89.75
664.985	91.75
665.188	85.75
665.391	91.75
665.594	77.75
665.797	78.75
666	84.75
666.203	77.75
666.406	82.75
666.609	90.75
666.812	75.75
667.015	93.75
667.218	104.75
667.421	94.75
667.624	79.75
667.827	95.75
668.03	73.75
668.232	72.75
668.435	86.75
668.638	93.75
668.841	84.75
669.043	86.75
669.246	90.75
669.449	73.75
669.651	84.75
669.854	73.75
670.057	79.75
670.259	58.75
670.462	71.75
670.665	79.75
670.867	84.75
671.07	90.75
671.272	86.75
671.475	95.75
671.677	76.75
671.88	83.75
672.082	85.75
672.284	88.75
672.487	79.75
672.689	82.75
672.892	83.75
