Data from 1974.PennyLincolnUp.Lamp.En5.5.200Scan.071719.P1.Changed Mount._HRD10591_15-53-03-857.txt Node
Date: Thu Jul 18 15:53:03 EDT 2019
User: cochatt
Spectrometer: HR+D1059
Trigger mode: 1
Integration Time (sec): 1.000000E-1
Scans to average: 1
Electric dark correction enabled: true
Nonlinearity correction enabled: false
Boxcar width: 0
XAxis mode: Wavelengths
Number of Pixels in Spectrum: 2048
>>>>>Begin Spectral Data<<<<<
223.165	-1.19
223.4	-1.19
223.635	-1.19
223.869	-11.19
224.104	-25.19
224.338	-12.19
224.573	-19.19
224.808	-8.19
225.042	-2.19
225.277	-22.19
225.511	1.81
225.746	-0.19
225.98	4.81
226.215	14.81
226.449	20.81
226.683	14.81
226.918	18.81
227.152	25.81
227.387	32.81
227.621	28.81
227.856	30.81
228.09	44.81
228.324	38.81
228.559	43.81
228.793	59.81
229.027	101.81
229.262	98.81
229.496	116.81
229.73	146.81
229.964	153.81
230.199	116.81
230.433	103.81
230.667	91.81
230.901	113.81
231.136	104.81
231.37	112.81
231.604	105.81
231.838	103.81
232.072	132.81
232.306	131.81
232.541	106.81
232.775	116.81
233.009	126.81
233.243	110.81
233.477	90.81
233.711	120.81
233.945	119.81
234.179	120.81
234.413	118.81
234.647	124.81
234.881	120.81
235.115	113.81
235.349	124.81
235.583	122.81
235.817	130.81
236.051	139.81
236.285	126.81
236.519	135.81
236.753	130.81
236.987	129.81
237.221	167.81
237.455	223.81
237.689	177.81
237.922	138.81
238.156	127.81
238.39	135.81
238.624	117.81
238.858	130.81
239.091	135.81
239.325	121.81
239.559	127.81
239.793	127.81
240.027	139.81
240.26	142.81
240.494	158.81
240.728	168.81
240.961	153.81
241.195	161.81
241.429	148.81
241.662	154.81
241.896	150.81
242.13	131.81
242.363	133.81
242.597	151.81
242.83	142.81
243.064	152.81
243.298	148.81
243.531	137.81
243.765	154.81
243.998	148.81
244.232	151.81
244.465	154.81
244.699	149.81
244.932	160.81
245.166	149.81
245.399	138.81
245.633	155.81
245.866	160.81
246.099	167.81
246.333	161.81
246.566	165.81
246.8	146.81
247.033	156.81
247.266	165.81
247.5	173.81
247.733	176.81
247.966	177.81
248.2	176.81
248.433	191.81
248.666	161.81
248.899	189.81
249.133	212.81
249.366	216.81
249.599	203.81
249.832	177.81
250.066	196.81
250.299	200.81
250.532	197.81
250.765	196.81
250.998	220.81
251.231	220.81
251.465	219.81
251.698	203.81
251.931	205.81
252.164	193.81
252.397	177.81
252.63	214.81
252.863	212.81
253.096	214.81
253.329	225.81
253.562	230.81
253.795	239.81
254.028	230.81
254.261	217.81
254.494	233.81
254.727	255.81
254.96	300.81
255.193	269.81
255.426	260.81
255.659	232.81
255.892	223.81
256.124	239.81
256.357	243.81
256.59	234.81
256.823	229.81
257.056	230.81
257.289	217.81
257.521	224.81
257.754	233.81
257.987	212.81
258.22	217.81
258.452	207.81
258.685	213.81
258.918	216.81
259.151	235.81
259.383	235.81
259.616	231.81
259.849	228.81
260.081	233.81
260.314	238.81
260.547	270.81
260.779	243.81
261.012	247.81
261.244	253.81
261.477	222.81
261.71	248.81
261.942	230.81
262.175	250.81
262.407	244.81
262.64	228.81
262.872	215.81
263.105	223.81
263.337	233.81
263.57	224.81
263.802	234.81
264.035	229.81
264.267	225.81
264.499	221.81
264.732	228.81
264.964	234.81
265.197	220.81
265.429	225.81
265.661	223.81
265.894	225.81
266.126	234.81
266.358	248.81
266.591	245.81
266.823	256.81
267.055	256.81
267.287	228.81
267.52	239.81
267.752	230.81
267.984	229.81
268.216	247.81
268.448	267.81
268.681	253.81
268.913	258.81
269.145	276.81
269.377	293.81
269.609	280.81
269.841	262.81
270.073	265.81
270.306	298.81
270.538	321.81
270.77	323.81
271.002	313.81
271.234	291.81
271.466	291.81
271.698	318.81
271.93	318.81
272.162	312.81
272.394	316.81
272.626	321.81
272.858	303.81
273.09	309.81
273.322	288.81
273.553	294.81
273.785	271.81
274.017	294.81
274.249	264.81
274.481	276.81
274.713	276.81
274.945	291.81
275.176	285.81
275.408	295.81
275.64	296.81
275.872	264.81
276.104	275.81
276.335	293.81
276.567	280.81
276.799	284.81
277.031	319.81
277.262	339.81
277.494	348.81
277.726	313.81
277.957	295.81
278.189	281.81
278.421	288.81
278.652	289.81
278.884	283.81
279.115	283.81
279.347	278.81
279.579	278.81
279.81	282.81
280.042	276.81
280.273	302.81
280.505	283.81
280.736	285.81
280.968	281.81
281.199	291.81
281.431	289.81
281.662	292.81
281.894	300.81
282.125	277.81
282.356	289.81
282.588	306.81
282.819	308.81
283.051	308.81
283.282	283.81
283.513	279.81
283.745	305.81
283.976	295.81
284.207	297.81
284.439	315.81
284.67	290.81
284.901	300.81
285.132	310.81
285.364	304.81
285.595	311.81
285.826	304.81
286.057	298.81
286.288	286.81
286.52	318.81
286.751	304.81
286.982	300.81
287.213	298.81
287.444	314.81
287.675	313.81
287.906	333.81
288.138	324.81
288.369	334.81
288.6	323.81
288.831	318.81
289.062	319.81
289.293	314.81
289.524	301.81
289.755	303.81
289.986	316.81
290.217	308.81
290.448	316.81
290.679	320.81
290.91	308.81
291.141	316.81
291.371	330.81
291.602	310.81
291.833	302.81
292.064	315.81
292.295	319.81
292.526	321.81
292.757	309.81
292.987	324.81
293.218	313.81
293.449	322.81
293.68	339.81
293.91	326.81
294.141	325.81
294.372	326.81
294.603	310.81
294.833	312.81
295.064	322.81
295.295	327.81
295.525	335.81
295.756	330.81
295.987	324.81
296.217	334.81
296.448	341.81
296.679	321.81
296.909	329.81
297.14	327.81
297.37	316.81
297.601	322.81
297.831	318.81
298.062	332.81
298.292	329.81
298.523	338.81
298.753	333.81
298.984	333.81
299.214	328.81
299.445	333.81
299.675	346.81
299.905	333.81
300.136	346.81
300.366	336.81
300.597	334.81
300.827	346.81
301.057	344.81
301.288	370.81
301.518	360.81
301.748	348.81
301.979	340.81
302.209	344.81
302.439	342.81
302.669	355.81
302.9	336.81
303.13	365.81
303.36	338.81
303.59	374.81
303.82	345.81
304.051	365.81
304.281	368.81
304.511	346.81
304.741	344.81
304.971	360.81
305.201	343.81
305.431	361.81
305.661	336.81
305.891	357.81
306.121	353.81
306.352	365.81
306.582	352.81
306.812	342.81
307.042	359.81
307.272	358.81
307.502	349.81
307.731	364.81
307.961	365.81
308.191	350.81
308.421	361.81
308.651	357.81
308.881	371.81
309.111	366.81
309.341	346.81
309.571	345.81
309.8	372.81
310.03	382.81
310.26	383.81
310.49	399.81
310.72	382.81
310.949	394.81
311.179	418.81
311.409	410.81
311.639	387.81
311.868	403.81
312.098	385.81
312.328	373.81
312.557	421.81
312.787	414.81
313.017	440.81
313.246	415.81
313.476	380.81
313.706	398.81
313.935	399.81
314.165	407.81
314.394	414.81
314.624	395.81
314.853	400.81
315.083	420.81
315.312	403.81
315.542	385.81
315.771	394.81
316.001	384.81
316.23	389.81
316.46	395.81
316.689	407.81
316.919	422.81
317.148	407.81
317.377	423.81
317.607	418.81
317.836	408.81
318.065	396.81
318.295	389.81
318.524	408.81
318.753	392.81
318.983	408.81
319.212	394.81
319.441	407.81
319.67	394.81
319.9	439.81
320.129	415.81
320.358	405.81
320.587	416.81
320.816	414.81
321.046	420.81
321.275	407.81
321.504	432.81
321.733	429.81
321.962	434.81
322.191	435.81
322.42	435.81
322.649	442.81
322.878	447.81
323.108	446.81
323.337	466.81
323.566	509.81
323.795	516.81
324.024	545.81
324.253	608.81
324.482	849.81
324.71	1274.81
324.939	1890.81
325.168	1636.81
325.397	876.81
325.626	613.81
325.855	540.81
326.084	518.81
326.313	484.81
326.542	480.81
326.77	543.81
326.999	620.81
327.228	767.81
327.457	1166.81
327.686	1462.81
327.914	980.81
328.143	644.81
328.372	596.81
328.6	566.81
328.829	558.81
329.058	559.81
329.287	583.81
329.515	536.81
329.744	519.81
329.972	509.81
330.201	509.81
330.43	568.81
330.658	573.81
330.887	590.81
331.115	581.81
331.344	536.81
331.572	495.81
331.801	512.81
332.03	514.81
332.258	494.81
332.486	485.81
332.715	480.81
332.943	480.81
333.172	502.81
333.4	489.81
333.629	498.81
333.857	496.81
334.085	537.81
334.314	548.81
334.542	554.81
334.771	566.81
334.999	550.81
335.227	536.81
335.455	484.81
335.684	480.81
335.912	483.81
336.14	488.81
336.369	472.81
336.597	486.81
336.825	516.81
337.053	469.81
337.281	473.81
337.51	492.81
337.738	467.81
337.966	482.81
338.194	486.81
338.422	482.81
338.65	469.81
338.878	465.81
339.106	486.81
339.334	453.81
339.562	474.81
339.79	460.81
340.018	466.81
340.246	468.81
340.474	451.81
340.702	470.81
340.93	474.81
341.158	472.81
341.386	474.81
341.614	477.81
341.842	484.81
342.07	461.81
342.298	464.81
342.526	440.81
342.754	436.81
342.981	473.81
343.209	455.81
343.437	444.81
343.665	468.81
343.893	480.81
344.12	484.81
344.348	495.81
344.576	478.81
344.804	483.81
345.031	473.81
345.259	479.81
345.487	470.81
345.714	484.81
345.942	462.81
346.17	433.81
346.397	449.81
346.625	450.81
346.853	422.81
347.08	448.81
347.308	442.81
347.535	439.81
347.763	458.81
347.99	471.81
348.218	440.81
348.445	457.81
348.673	441.81
348.9	439.81
349.128	447.81
349.355	429.81
349.583	434.81
349.81	436.81
350.037	429.81
350.265	429.81
350.492	446.81
350.72	447.81
350.947	462.81
351.174	444.81
351.402	463.81
351.629	465.81
351.856	439.81
352.083	457.81
352.311	452.81
352.538	460.81
352.765	468.81
352.992	431.81
353.22	436.81
353.447	444.81
353.674	443.81
353.901	444.81
354.128	432.81
354.355	426.81
354.583	452.81
354.81	438.81
355.037	434.81
355.264	429.81
355.491	415.81
355.718	429.81
355.945	412.81
356.172	438.81
356.399	426.81
356.626	432.81
356.853	418.81
357.08	417.81
357.307	440.81
357.534	440.81
357.761	416.81
357.988	418.81
358.215	429.81
358.441	431.81
358.668	408.81
358.895	407.81
359.122	440.81
359.349	441.81
359.576	450.81
359.802	487.81
360.029	469.81
360.256	482.81
360.483	486.81
360.709	461.81
360.936	456.81
361.163	466.81
361.39	437.81
361.616	449.81
361.843	459.81
362.07	452.81
362.296	447.81
362.523	433.81
362.749	464.81
362.976	449.81
363.203	441.81
363.429	437.81
363.656	443.81
363.882	455.81
364.109	451.81
364.335	421.81
364.562	432.81
364.788	448.81
365.015	437.81
365.241	417.81
365.468	432.81
365.694	424.81
365.92	432.81
366.147	446.81
366.373	440.81
366.599	439.81
366.826	439.81
367.052	461.81
367.278	425.81
367.505	459.81
367.731	434.81
367.957	438.81
368.184	449.81
368.41	450.81
368.636	457.81
368.862	457.81
369.089	453.81
369.315	434.81
369.541	434.81
369.767	447.81
369.993	434.81
370.219	448.81
370.445	435.81
370.672	439.81
370.898	420.81
371.124	437.81
371.35	451.81
371.576	461.81
371.802	457.81
372.028	445.81
372.254	446.81
372.48	462.81
372.706	447.81
372.932	456.81
373.158	456.81
373.384	470.81
373.61	456.81
373.835	446.81
374.061	476.81
374.287	480.81
374.513	446.81
374.739	454.81
374.965	458.81
375.191	467.81
375.416	437.81
375.642	476.81
375.868	432.81
376.094	445.81
376.319	452.81
376.545	447.81
376.771	453.81
376.997	426.81
377.222	455.81
377.448	465.81
377.674	461.81
377.899	441.81
378.125	448.81
378.35	422.81
378.576	448.81
378.802	462.81
379.027	453.81
379.253	447.81
379.478	434.81
379.704	463.81
379.929	460.81
380.155	436.81
380.38	444.81
380.606	432.81
380.831	471.81
381.057	450.81
381.282	453.81
381.507	451.81
381.733	462.81
381.958	465.81
382.184	462.81
382.409	469.81
382.634	465.81
382.86	455.81
383.085	497.81
383.31	462.81
383.535	471.81
383.761	477.81
383.986	472.81
384.211	458.81
384.436	481.81
384.662	499.81
384.887	505.81
385.112	488.81
385.337	494.81
385.562	508.81
385.787	474.81
386.013	526.81
386.238	511.81
386.463	526.81
386.688	508.81
386.913	504.81
387.138	506.81
387.363	513.81
387.588	509.81
387.813	496.81
388.038	490.81
388.263	497.81
388.488	540.81
388.713	504.81
388.938	490.81
389.163	516.81
389.387	522.81
389.612	497.81
389.837	489.81
390.062	524.81
390.287	519.81
390.512	504.81
390.736	511.81
390.961	512.81
391.186	500.81
391.411	509.81
391.636	527.81
391.86	538.81
392.085	533.81
392.31	546.81
392.534	523.81
392.759	527.81
392.984	530.81
393.208	502.81
393.433	494.81
393.658	513.81
393.882	504.81
394.107	518.81
394.331	502.81
394.556	508.81
394.78	494.81
395.005	513.81
395.229	544.81
395.454	536.81
395.678	539.81
395.903	562.81
396.127	565.81
396.352	570.81
396.576	549.81
396.801	533.81
397.025	542.81
397.249	538.81
397.474	547.81
397.698	541.81
397.922	560.81
398.147	565.81
398.371	582.81
398.595	581.81
398.82	585.81
399.044	600.81
399.268	631.81
399.492	638.81
399.717	725.81
399.941	760.81
400.165	766.81
400.389	728.81
400.613	644.81
400.837	645.81
401.062	615.81
401.286	579.81
401.51	591.81
401.734	585.81
401.958	608.81
402.182	581.81
402.406	604.81
402.63	628.81
402.854	588.81
403.078	630.81
403.302	636.81
403.526	614.81
403.75	628.81
403.974	621.81
404.198	630.81
404.422	648.81
404.645	636.81
404.869	628.81
405.093	668.81
405.317	701.81
405.541	735.81
405.765	691.81
405.988	634.81
406.212	655.81
406.436	660.81
406.66	663.81
406.883	662.81
407.107	686.81
407.331	746.81
407.555	776.81
407.778	794.81
408.002	753.81
408.226	695.81
408.449	700.81
408.673	663.81
408.896	716.81
409.12	753.81
409.344	702.81
409.567	648.81
409.791	632.81
410.014	640.81
410.238	634.81
410.461	632.81
410.685	621.81
410.908	636.81
411.132	685.81
411.355	701.81
411.578	677.81
411.802	630.81
412.025	609.81
412.249	622.81
412.472	664.81
412.695	711.81
412.919	671.81
413.142	615.81
413.365	591.81
413.589	610.81
413.812	593.81
414.035	589.81
414.258	592.81
414.482	588.81
414.705	585.81
414.928	596.81
415.151	586.81
415.374	608.81
415.597	596.81
415.821	570.81
416.044	561.81
416.267	600.81
416.49	574.81
416.713	576.81
416.936	566.81
417.159	568.81
417.382	566.81
417.605	574.81
417.828	605.81
418.051	621.81
418.274	600.81
418.497	601.81
418.72	576.81
418.943	576.81
419.166	626.81
419.389	662.81
419.611	644.81
419.834	649.81
420.057	624.81
420.28	616.81
420.503	609.81
420.726	596.81
420.948	624.81
421.171	668.81
421.394	698.81
421.617	634.81
421.839	608.81
422.062	606.81
422.285	631.81
422.507	690.81
422.73	778.81
422.953	745.81
423.175	677.81
423.398	620.81
423.621	635.81
423.843	649.81
424.066	654.81
424.288	654.81
424.511	669.81
424.733	732.81
424.956	799.81
425.178	782.81
425.401	755.81
425.623	788.81
425.846	700.81
426.068	672.81
426.291	620.81
426.513	630.81
426.735	639.81
426.958	668.81
427.18	749.81
427.402	905.81
427.625	1001.81
427.847	854.81
428.069	774.81
428.292	694.81
428.514	614.81
428.736	608.81
428.958	616.81
429.181	573.81
429.403	602.81
429.625	606.81
429.847	628.81
430.069	702.81
430.292	688.81
430.514	609.81
430.736	579.81
430.958	575.81
431.18	575.81
431.402	597.81
431.624	570.81
431.846	557.81
432.068	576.81
432.29	566.81
432.512	572.81
432.734	586.81
432.956	577.81
433.178	576.81
433.4	593.81
433.622	589.81
433.844	590.81
434.066	574.81
434.287	571.81
434.509	564.81
434.731	615.81
434.953	605.81
435.175	628.81
435.397	623.81
435.618	638.81
435.84	684.81
436.062	796.81
436.284	846.81
436.505	719.81
436.727	642.81
436.949	596.81
437.17	606.81
437.392	597.81
437.614	602.81
437.835	626.81
438.057	744.81
438.278	833.81
438.5	839.81
438.721	909.81
438.943	892.81
439.165	684.81
439.386	655.81
439.608	642.81
439.829	657.81
440.05	657.81
440.272	707.81
440.493	670.81
440.715	634.81
440.936	586.81
441.158	595.81
441.379	602.81
441.6	617.81
441.822	652.81
442.043	680.81
442.264	791.81
442.486	805.81
442.707	702.81
442.928	628.81
443.149	654.81
443.371	653.81
443.592	705.81
443.813	840.81
444.034	935.81
444.255	745.81
444.476	681.81
444.698	677.81
444.919	670.81
445.14	750.81
445.361	724.81
445.582	698.81
445.803	751.81
446.024	842.81
446.245	883.81
446.466	793.81
446.687	679.81
446.908	633.81
447.129	610.81
447.35	604.81
447.571	577.81
447.792	566.81
448.013	590.81
448.234	586.81
448.455	638.81
448.675	784.81
448.896	896.81
449.117	740.81
449.338	713.81
449.559	852.81
449.779	942.81
450	756.81
450.221	639.81
450.442	576.81
450.662	584.81
450.883	579.81
451.104	605.81
451.324	585.81
451.545	553.81
451.766	529.81
451.986	550.81
452.207	536.81
452.428	510.81
452.648	525.81
452.869	514.81
453.089	550.81
453.31	533.81
453.53	545.81
453.751	530.81
453.971	516.81
454.192	541.81
454.412	540.81
454.633	529.81
454.853	515.81
455.073	511.81
455.294	530.81
455.514	629.81
455.734	584.81
455.955	534.81
456.175	516.81
456.395	498.81
456.616	511.81
456.836	484.81
457.056	517.81
457.276	476.81
457.497	490.81
457.717	496.81
457.937	510.81
458.157	519.81
458.377	532.81
458.598	571.81
458.818	554.81
459.038	660.81
459.258	685.81
459.478	634.81
459.698	565.81
459.918	562.81
460.138	606.81
460.358	588.81
460.578	593.81
460.798	594.81
461.018	605.81
461.238	609.81
461.458	596.81
461.678	564.81
461.898	576.81
462.118	596.81
462.338	598.81
462.558	639.81
462.777	653.81
462.997	633.81
463.217	670.81
463.437	680.81
463.657	652.81
463.876	656.81
464.096	662.81
464.316	644.81
464.536	667.81
464.755	640.81
464.975	613.81
465.195	647.81
465.414	697.81
465.634	638.81
465.854	598.81
466.073	590.81
466.293	545.81
466.512	559.81
466.732	532.81
466.951	564.81
467.171	533.81
467.391	552.81
467.61	541.81
467.829	523.81
468.049	543.81
468.268	542.81
468.488	532.81
468.707	546.81
468.927	540.81
469.146	508.81
469.365	518.81
469.585	521.81
469.804	558.81
470.023	535.81
470.243	545.81
470.462	564.81
470.681	580.81
470.901	553.81
471.12	536.81
471.339	540.81
471.558	555.81
471.777	539.81
471.997	548.81
472.216	551.81
472.435	594.81
472.654	540.81
472.873	556.81
473.092	521.81
473.311	549.81
473.53	537.81
473.749	559.81
473.968	605.81
474.187	694.81
474.406	690.81
474.625	597.81
474.844	560.81
475.063	568.81
475.282	545.81
475.501	570.81
475.72	565.81
475.939	558.81
476.158	554.81
476.377	551.81
476.596	551.81
476.814	581.81
477.033	592.81
477.252	581.81
477.471	596.81
477.69	581.81
477.908	598.81
478.127	610.81
478.346	620.81
478.564	620.81
478.783	603.81
479.002	620.81
479.22	650.81
479.439	651.81
479.658	650.81
479.876	650.81
480.095	673.81
480.313	713.81
480.532	687.81
480.751	708.81
480.969	691.81
481.188	708.81
481.406	741.81
481.624	690.81
481.843	672.81
482.061	682.81
482.28	662.81
482.498	651.81
482.717	644.81
482.935	662.81
483.153	665.81
483.372	649.81
483.59	663.81
483.808	654.81
484.027	645.81
484.245	638.81
484.463	651.81
484.681	648.81
484.9	652.81
485.118	672.81
485.336	648.81
485.554	672.81
485.772	666.81
485.99	652.81
486.209	675.81
486.427	671.81
486.645	677.81
486.863	705.81
487.081	673.81
487.299	698.81
487.517	688.81
487.735	664.81
487.953	698.81
488.171	682.81
488.389	694.81
488.607	705.81
488.825	708.81
489.043	713.81
489.261	697.81
489.479	697.81
489.696	724.81
489.914	708.81
490.132	729.81
490.35	706.81
490.568	733.81
490.786	744.81
491.003	788.81
491.221	774.81
491.439	792.81
491.657	768.81
491.874	794.81
492.092	788.81
492.31	791.81
492.527	797.81
492.745	804.81
492.963	801.81
493.18	831.81
493.398	820.81
493.615	837.81
493.833	812.81
494.05	828.81
494.268	846.81
494.485	833.81
494.703	820.81
494.92	806.81
495.138	838.81
495.355	834.81
495.573	831.81
495.79	830.81
496.008	832.81
496.225	855.81
496.442	830.81
496.66	830.81
496.877	855.81
497.094	820.81
497.312	849.81
497.529	844.81
497.746	879.81
497.963	914.81
498.181	892.81
498.398	891.81
498.615	944.81
498.832	960.81
499.049	970.81
499.267	1011.81
499.484	1063.81
499.701	1126.81
499.918	1166.81
500.135	1207.81
500.352	1336.81
500.569	1305.81
500.786	1303.81
501.003	1325.81
501.22	1262.81
501.437	1188.81
501.654	1117.81
501.871	1089.81
502.088	1055.81
502.305	1029.81
502.522	966.81
502.739	964.81
502.956	895.81
503.172	890.81
503.389	880.81
503.606	870.81
503.823	848.81
504.04	840.81
504.256	841.81
504.473	829.81
504.69	850.81
504.907	864.81
505.123	834.81
505.34	812.81
505.557	796.81
505.773	796.81
505.99	786.81
506.207	768.81
506.423	808.81
506.64	779.81
506.856	752.81
507.073	736.81
507.289	760.81
507.506	744.81
507.722	720.81
507.939	737.81
508.155	757.81
508.372	755.81
508.588	719.81
508.805	736.81
509.021	723.81
509.238	744.81
509.454	744.81
509.67	725.81
509.887	722.81
510.103	728.81
510.319	716.81
510.536	787.81
510.752	1135.81
510.968	983.81
511.184	705.81
511.401	710.81
511.617	705.81
511.833	706.81
512.049	693.81
512.265	693.81
512.481	674.81
512.698	682.81
512.914	675.81
513.13	704.81
513.346	665.81
513.562	641.81
513.778	664.81
513.994	690.81
514.21	688.81
514.426	707.81
514.642	719.81
514.858	735.81
515.074	786.81
515.29	889.81
515.506	1144.81
515.721	975.81
515.937	776.81
516.153	741.81
516.369	774.81
516.585	721.81
516.801	713.81
517.016	708.81
517.232	713.81
517.448	733.81
517.664	752.81
517.879	745.81
518.095	739.81
518.311	732.81
518.527	724.81
518.742	708.81
518.958	742.81
519.173	694.81
519.389	694.81
519.605	679.81
519.82	682.81
520.036	714.81
520.251	723.81
520.467	741.81
520.682	699.81
520.898	697.81
521.113	724.81
521.329	744.81
521.544	806.81
521.76	963.81
521.975	1390.81
522.19	1396.81
522.406	871.81
522.621	732.81
522.836	660.81
523.052	633.81
523.267	648.81
523.482	631.81
523.698	628.81
523.913	634.81
524.128	594.81
524.343	602.81
524.559	607.81
524.774	598.81
524.989	589.81
525.204	591.81
525.419	609.81
525.634	600.81
525.849	599.81
526.064	592.81
526.28	571.81
526.495	558.81
526.71	565.81
526.925	564.81
527.14	553.81
527.355	553.81
527.57	571.81
527.785	571.81
527.999	559.81
528.214	551.81
528.429	564.81
528.644	561.81
528.859	564.81
529.074	560.81
529.289	579.81
529.503	648.81
529.718	607.81
529.933	590.81
530.148	586.81
530.363	569.81
530.577	550.81
530.792	551.81
531.007	540.81
531.221	532.81
531.436	558.81
531.651	559.81
531.865	538.81
532.08	560.81
532.295	551.81
532.509	531.81
532.724	552.81
532.938	523.81
533.153	554.81
533.367	557.81
533.582	549.81
533.796	540.81
534.011	569.81
534.225	530.81
534.44	513.81
534.654	535.81
534.868	534.81
535.083	550.81
535.297	537.81
535.511	544.81
535.726	524.81
535.94	538.81
536.154	556.81
536.369	532.81
536.583	527.81
536.797	515.81
537.011	550.81
537.225	526.81
537.44	521.81
537.654	505.81
537.868	527.81
538.082	484.81
538.296	524.81
538.51	521.81
538.724	506.81
538.938	526.81
539.153	502.81
539.367	527.81
539.581	546.81
539.795	526.81
540.009	528.81
540.222	501.81
540.436	493.81
540.65	511.81
540.864	523.81
541.078	522.81
541.292	528.81
541.506	548.81
541.72	522.81
541.934	510.81
542.147	548.81
542.361	543.81
542.575	528.81
542.789	530.81
543.002	502.81
543.216	518.81
543.43	520.81
543.644	519.81
543.857	518.81
544.071	516.81
544.285	533.81
544.498	532.81
544.712	530.81
544.925	514.81
545.139	501.81
545.352	506.81
545.566	537.81
545.779	519.81
545.993	522.81
546.206	528.81
546.42	534.81
546.633	525.81
546.847	536.81
547.06	513.81
547.274	500.81
547.487	506.81
547.7	504.81
547.914	506.81
548.127	492.81
548.34	514.81
548.554	522.81
548.767	543.81
548.98	515.81
549.193	501.81
549.407	508.81
549.62	491.81
549.833	521.81
550.046	523.81
550.259	518.81
550.473	498.81
550.686	531.81
550.899	501.81
551.112	508.81
551.325	514.81
551.538	514.81
551.751	499.81
551.964	521.81
552.177	508.81
552.39	518.81
552.603	537.81
552.816	518.81
553.029	542.81
553.242	528.81
553.455	518.81
553.667	542.81
553.88	536.81
554.093	530.81
554.306	514.81
554.519	505.81
554.732	499.81
554.944	510.81
555.157	486.81
555.37	486.81
555.583	489.81
555.795	489.81
556.008	477.81
556.221	456.81
556.433	453.81
556.646	485.81
556.859	461.81
557.071	455.81
557.284	460.81
557.496	454.81
557.709	445.81
557.921	466.81
558.134	446.81
558.346	442.81
558.559	448.81
558.771	429.81
558.984	451.81
559.196	446.81
559.409	454.81
559.621	453.81
559.833	452.81
560.046	428.81
560.258	458.81
560.47	435.81
560.683	451.81
560.895	453.81
561.107	459.81
561.32	444.81
561.532	441.81
561.744	452.81
561.956	425.81
562.168	442.81
562.381	448.81
562.593	463.81
562.805	440.81
563.017	443.81
563.229	456.81
563.441	448.81
563.653	428.81
563.865	456.81
564.077	446.81
564.289	461.81
564.501	484.81
564.713	463.81
564.925	470.81
565.137	463.81
565.349	489.81
565.561	480.81
565.773	527.81
565.985	512.81
566.197	525.81
566.408	551.81
566.62	559.81
566.832	590.81
567.044	603.81
567.255	597.81
567.467	588.81
567.679	617.81
567.891	608.81
568.102	643.81
568.314	622.81
568.526	589.81
568.737	560.81
568.949	545.81
569.161	523.81
569.372	502.81
569.584	455.81
569.795	464.81
570.007	466.81
570.218	480.81
570.43	464.81
570.641	450.81
570.853	436.81
571.064	454.81
571.276	423.81
571.487	449.81
571.698	413.81
571.91	443.81
572.121	428.81
572.333	402.81
572.544	400.81
572.755	403.81
572.966	398.81
573.178	411.81
573.389	396.81
573.6	394.81
573.811	394.81
574.023	390.81
574.234	389.81
574.445	394.81
574.656	386.81
574.867	388.81
575.078	387.81
575.289	397.81
575.501	392.81
575.712	374.81
575.923	365.81
576.134	387.81
576.345	388.81
576.556	380.81
576.767	366.81
576.978	356.81
577.188	376.81
577.399	370.81
577.61	365.81
577.821	362.81
578.032	353.81
578.243	378.81
578.454	540.81
578.665	445.81
578.875	350.81
579.086	355.81
579.297	368.81
579.508	368.81
579.718	354.81
579.929	366.81
580.14	370.81
580.35	346.81
580.561	345.81
580.772	350.81
580.982	359.81
581.193	353.81
581.403	348.81
581.614	369.81
581.825	358.81
582.035	340.81
582.246	348.81
582.456	335.81
582.667	340.81
582.877	340.81
583.087	344.81
583.298	320.81
583.508	357.81
583.719	351.81
583.929	345.81
584.139	332.81
584.35	342.81
584.56	346.81
584.77	333.81
584.981	349.81
585.191	344.81
585.401	344.81
585.611	345.81
585.821	343.81
586.032	330.81
586.242	328.81
586.452	345.81
586.662	321.81
586.872	337.81
587.082	348.81
587.292	333.81
587.502	317.81
587.713	329.81
587.923	334.81
588.133	353.81
588.343	333.81
588.553	326.81
588.762	340.81
588.972	330.81
589.182	344.81
589.392	333.81
589.602	324.81
589.812	341.81
590.022	330.81
590.232	325.81
590.441	321.81
590.651	321.81
590.861	334.81
591.071	331.81
591.281	347.81
591.49	337.81
591.7	343.81
591.91	338.81
592.119	330.81
592.329	342.81
592.539	357.81
592.748	364.81
592.958	364.81
593.167	343.81
593.377	372.81
593.587	368.81
593.796	344.81
594.006	376.81
594.215	380.81
594.424	380.81
594.634	375.81
594.843	357.81
595.053	359.81
595.262	360.81
595.472	337.81
595.681	338.81
595.89	352.81
596.1	329.81
596.309	322.81
596.518	336.81
596.727	314.81
596.937	329.81
597.146	313.81
597.355	329.81
597.564	329.81
597.774	303.81
597.983	300.81
598.192	312.81
598.401	312.81
598.61	321.81
598.819	292.81
599.028	292.81
599.237	298.81
599.446	290.81
599.655	301.81
599.864	294.81
600.073	307.81
600.282	305.81
600.491	296.81
600.7	297.81
600.909	305.81
601.118	291.81
601.327	314.81
601.536	297.81
601.745	276.81
601.953	289.81
602.162	291.81
602.371	288.81
602.58	288.81
602.789	291.81
602.997	276.81
603.206	278.81
603.415	295.81
603.623	287.81
603.832	287.81
604.041	270.81
604.249	286.81
604.458	244.81
604.666	263.81
604.875	272.81
605.084	288.81
605.292	281.81
605.501	290.81
605.709	280.81
605.918	279.81
606.126	282.81
606.334	277.81
606.543	265.81
606.751	292.81
606.96	277.81
607.168	273.81
607.376	265.81
607.585	285.81
607.793	287.81
608.001	273.81
608.21	261.81
608.418	265.81
608.626	254.81
608.834	270.81
609.043	258.81
609.251	277.81
609.459	281.81
609.667	273.81
609.875	284.81
610.083	254.81
610.291	266.81
610.499	272.81
610.707	285.81
610.916	270.81
611.124	277.81
611.332	281.81
611.54	302.81
611.748	278.81
611.955	272.81
612.163	280.81
612.371	278.81
612.579	272.81
612.787	263.81
612.995	257.81
613.203	283.81
613.411	267.81
613.618	266.81
613.826	276.81
614.034	275.81
614.242	267.81
614.449	284.81
614.657	266.81
614.865	266.81
615.072	271.81
615.28	264.81
615.488	269.81
615.695	262.81
615.903	272.81
616.111	268.81
616.318	276.81
616.526	273.81
616.733	264.81
616.941	240.81
617.148	258.81
617.356	253.81
617.563	273.81
617.771	248.81
617.978	269.81
618.185	275.81
618.393	256.81
618.6	266.81
618.807	264.81
619.015	265.81
619.222	272.81
619.429	252.81
619.637	259.81
619.844	261.81
620.051	247.81
620.258	241.81
620.466	245.81
620.673	239.81
620.88	248.81
621.087	277.81
621.294	267.81
621.501	244.81
621.708	231.81
621.915	231.81
622.122	245.81
622.329	264.81
622.536	247.81
622.743	256.81
622.95	257.81
623.157	242.81
623.364	237.81
623.571	249.81
623.778	264.81
623.985	239.81
624.192	238.81
624.399	248.81
624.606	250.81
624.812	240.81
625.019	237.81
625.226	240.81
625.433	235.81
625.639	252.81
625.846	224.81
626.053	232.81
626.259	220.81
626.466	232.81
626.673	220.81
626.879	239.81
627.086	236.81
627.293	241.81
627.499	235.81
627.706	224.81
627.912	223.81
628.119	229.81
628.325	235.81
628.532	229.81
628.738	228.81
628.945	223.81
629.151	225.81
629.357	217.81
629.564	224.81
629.77	206.81
629.976	201.81
630.183	209.81
630.389	203.81
630.595	231.81
630.802	210.81
631.008	222.81
631.214	229.81
631.42	228.81
631.627	226.81
631.833	207.81
632.039	211.81
632.245	217.81
632.451	220.81
632.657	221.81
632.863	201.81
633.069	206.81
633.275	213.81
633.481	201.81
633.688	202.81
633.893	202.81
634.099	199.81
634.305	201.81
634.511	194.81
634.717	195.81
634.923	199.81
635.129	206.81
635.335	205.81
635.541	197.81
635.747	175.81
635.952	206.81
636.158	198.81
636.364	204.81
636.57	214.81
636.775	197.81
636.981	206.81
637.187	193.81
637.392	199.81
637.598	187.81
637.804	192.81
638.009	191.81
638.215	193.81
638.421	193.81
638.626	186.81
638.832	181.81
639.037	190.81
639.243	182.81
639.448	194.81
639.654	198.81
639.859	187.81
640.065	197.81
640.27	194.81
640.475	189.81
640.681	202.81
640.886	182.81
641.091	177.81
641.297	197.81
641.502	183.81
641.707	188.81
641.913	188.81
642.118	205.81
642.323	179.81
642.528	191.81
642.733	179.81
642.939	182.81
643.144	180.81
643.349	186.81
643.554	177.81
643.759	178.81
643.964	165.81
644.169	180.81
644.374	183.81
644.579	177.81
644.784	197.81
644.989	166.81
645.194	184.81
645.399	198.81
645.604	182.81
645.809	181.81
646.014	176.81
646.219	171.81
646.423	183.81
646.628	192.81
646.833	185.81
647.038	195.81
647.243	192.81
647.447	181.81
647.652	170.81
647.857	196.81
648.062	175.81
648.266	183.81
648.471	192.81
648.676	188.81
648.88	192.81
649.085	194.81
649.289	190.81
649.494	177.81
649.698	193.81
649.903	192.81
650.107	191.81
650.312	178.81
650.516	167.81
650.721	170.81
650.925	147.81
651.13	165.81
651.334	158.81
651.539	173.81
651.743	164.81
651.947	144.81
652.152	179.81
652.356	156.81
652.56	156.81
652.764	160.81
652.969	149.81
653.173	144.81
653.377	151.81
653.581	151.81
653.785	138.81
653.99	145.81
654.194	143.81
654.398	138.81
654.602	144.81
654.806	141.81
655.01	145.81
655.214	158.81
655.418	133.81
655.622	151.81
655.826	148.81
656.03	148.81
656.234	153.81
656.438	143.81
656.642	135.81
656.846	131.81
657.049	136.81
657.253	132.81
657.457	139.81
657.661	116.81
657.865	120.81
658.068	121.81
658.272	121.81
658.476	99.81
658.68	97.81
658.883	109.81
659.087	103.81
659.291	107.81
659.494	81.81
659.698	99.81
659.901	112.81
660.105	116.81
660.309	94.81
660.512	96.81
660.716	79.81
660.919	97.81
661.123	82.81
661.326	75.81
661.53	81.81
661.733	94.81
661.936	104.81
662.14	77.81
662.343	76.81
662.546	94.81
662.75	78.81
662.953	96.81
663.156	87.81
663.36	91.81
663.563	80.81
663.766	70.81
663.969	97.81
664.173	66.81
664.376	85.81
664.579	79.81
664.782	89.81
664.985	74.81
665.188	72.81
665.391	74.81
665.594	81.81
665.797	92.81
666	79.81
666.203	82.81
666.406	79.81
666.609	81.81
666.812	81.81
667.015	95.81
667.218	62.81
667.421	77.81
667.624	78.81
667.827	70.81
668.03	83.81
668.232	79.81
668.435	74.81
668.638	78.81
668.841	75.81
669.043	96.81
669.246	73.81
669.449	82.81
669.651	72.81
669.854	85.81
670.057	78.81
670.259	85.81
670.462	89.81
670.665	88.81
670.867	96.81
671.07	70.81
671.272	82.81
671.475	81.81
671.677	81.81
671.88	85.81
672.082	88.81
672.284	86.81
672.487	81.81
672.689	82.81
672.892	77.81
