Data from 1974.PennyLincolnUp.Lamp.En5.5.200Scan.071719.P1.Changed Mount._HRD10591_15-53-36-856.txt Node
Date: Thu Jul 18 15:53:36 EDT 2019
User: cochatt
Spectrometer: HR+D1059
Trigger mode: 1
Integration Time (sec): 1.000000E-1
Scans to average: 1
Electric dark correction enabled: true
Nonlinearity correction enabled: false
Boxcar width: 0
XAxis mode: Wavelengths
Number of Pixels in Spectrum: 2048
>>>>>Begin Spectral Data<<<<<
223.165	-3.94
223.4	-3.94
223.635	-3.94
223.869	-12.94
224.104	-16.94
224.338	-13.94
224.573	-14.94
224.808	-16.94
225.042	-4.94
225.277	-1.94
225.511	-12.94
225.746	5.06
225.98	18.06
226.215	2.06
226.449	5.06
226.683	15.06
226.918	23.06
227.152	31.06
227.387	26.06
227.621	42.06
227.856	43.06
228.09	39.06
228.324	41.06
228.559	53.06
228.793	70.06
229.027	119.06
229.262	108.06
229.496	100.06
229.73	107.06
229.964	155.06
230.199	114.06
230.433	115.06
230.667	117.06
230.901	110.06
231.136	110.06
231.37	113.06
231.604	116.06
231.838	112.06
232.072	114.06
232.306	118.06
232.541	111.06
232.775	115.06
233.009	115.06
233.243	111.06
233.477	122.06
233.711	123.06
233.945	118.06
234.179	123.06
234.413	120.06
234.647	121.06
234.881	112.06
235.115	125.06
235.349	119.06
235.583	118.06
235.817	124.06
236.051	126.06
236.285	139.06
236.519	131.06
236.753	126.06
236.987	159.06
237.221	202.06
237.455	236.06
237.689	195.06
237.922	155.06
238.156	125.06
238.39	150.06
238.624	127.06
238.858	140.06
239.091	131.06
239.325	135.06
239.559	133.06
239.793	142.06
240.027	145.06
240.26	132.06
240.494	167.06
240.728	161.06
240.961	175.06
241.195	164.06
241.429	144.06
241.662	128.06
241.896	132.06
242.13	125.06
242.363	144.06
242.597	144.06
242.83	138.06
243.064	147.06
243.298	162.06
243.531	147.06
243.765	153.06
243.998	156.06
244.232	144.06
244.465	140.06
244.699	149.06
244.932	145.06
245.166	158.06
245.399	138.06
245.633	150.06
245.866	151.06
246.099	125.06
246.333	167.06
246.566	164.06
246.8	169.06
247.033	178.06
247.266	170.06
247.5	178.06
247.733	168.06
247.966	183.06
248.2	186.06
248.433	179.06
248.666	190.06
248.899	204.06
249.133	200.06
249.366	208.06
249.599	209.06
249.832	186.06
250.066	190.06
250.299	187.06
250.532	194.06
250.765	205.06
250.998	231.06
251.231	244.06
251.465	239.06
251.698	225.06
251.931	213.06
252.164	196.06
252.397	188.06
252.63	205.06
252.863	197.06
253.096	225.06
253.329	225.06
253.562	235.06
253.795	222.06
254.028	240.06
254.261	230.06
254.494	236.06
254.727	235.06
254.96	280.06
255.193	286.06
255.426	257.06
255.659	249.06
255.892	239.06
256.124	242.06
256.357	235.06
256.59	239.06
256.823	224.06
257.056	223.06
257.289	233.06
257.521	214.06
257.754	231.06
257.987	226.06
258.22	219.06
258.452	223.06
258.685	209.06
258.918	218.06
259.151	219.06
259.383	214.06
259.616	256.06
259.849	241.06
260.081	235.06
260.314	256.06
260.547	282.06
260.779	256.06
261.012	233.06
261.244	244.06
261.477	231.06
261.71	213.06
261.942	235.06
262.175	239.06
262.407	252.06
262.64	230.06
262.872	229.06
263.105	231.06
263.337	239.06
263.57	220.06
263.802	241.06
264.035	212.06
264.267	230.06
264.499	219.06
264.732	245.06
264.964	250.06
265.197	223.06
265.429	227.06
265.661	235.06
265.894	239.06
266.126	244.06
266.358	230.06
266.591	232.06
266.823	236.06
267.055	233.06
267.287	237.06
267.52	240.06
267.752	239.06
267.984	229.06
268.216	226.06
268.448	242.06
268.681	240.06
268.913	268.06
269.145	298.06
269.377	304.06
269.609	299.06
269.841	295.06
270.073	280.06
270.306	312.06
270.538	329.06
270.77	341.06
271.002	313.06
271.234	320.06
271.466	303.06
271.698	358.06
271.93	332.06
272.162	314.06
272.394	338.06
272.626	304.06
272.858	316.06
273.09	299.06
273.322	300.06
273.553	290.06
273.785	287.06
274.017	290.06
274.249	288.06
274.481	287.06
274.713	290.06
274.945	293.06
275.176	284.06
275.408	286.06
275.64	294.06
275.872	276.06
276.104	273.06
276.335	266.06
276.567	293.06
276.799	291.06
277.031	313.06
277.262	326.06
277.494	323.06
277.726	328.06
277.957	308.06
278.189	306.06
278.421	296.06
278.652	289.06
278.884	293.06
279.115	309.06
279.347	289.06
279.579	289.06
279.81	296.06
280.042	284.06
280.273	292.06
280.505	300.06
280.736	282.06
280.968	270.06
281.199	299.06
281.431	292.06
281.662	301.06
281.894	303.06
282.125	296.06
282.356	325.06
282.588	307.06
282.819	316.06
283.051	306.06
283.282	312.06
283.513	306.06
283.745	294.06
283.976	294.06
284.207	309.06
284.439	305.06
284.67	287.06
284.901	298.06
285.132	298.06
285.364	303.06
285.595	310.06
285.826	281.06
286.057	308.06
286.288	301.06
286.52	319.06
286.751	294.06
286.982	314.06
287.213	300.06
287.444	315.06
287.675	314.06
287.906	331.06
288.138	330.06
288.369	322.06
288.6	309.06
288.831	317.06
289.062	314.06
289.293	322.06
289.524	319.06
289.755	315.06
289.986	309.06
290.217	321.06
290.448	311.06
290.679	307.06
290.91	320.06
291.141	315.06
291.371	313.06
291.602	307.06
291.833	306.06
292.064	291.06
292.295	296.06
292.526	315.06
292.757	308.06
292.987	323.06
293.218	305.06
293.449	318.06
293.68	331.06
293.91	321.06
294.141	321.06
294.372	320.06
294.603	312.06
294.833	324.06
295.064	325.06
295.295	294.06
295.525	320.06
295.756	320.06
295.987	341.06
296.217	342.06
296.448	360.06
296.679	333.06
296.909	322.06
297.14	333.06
297.37	344.06
297.601	313.06
297.831	332.06
298.062	324.06
298.292	324.06
298.523	328.06
298.753	335.06
298.984	325.06
299.214	343.06
299.445	347.06
299.675	352.06
299.905	342.06
300.136	341.06
300.366	350.06
300.597	336.06
300.827	364.06
301.057	359.06
301.288	348.06
301.518	330.06
301.748	371.06
301.979	341.06
302.209	353.06
302.439	343.06
302.669	358.06
302.9	355.06
303.13	355.06
303.36	368.06
303.59	361.06
303.82	379.06
304.051	366.06
304.281	357.06
304.511	360.06
304.741	354.06
304.971	343.06
305.201	342.06
305.431	355.06
305.661	360.06
305.891	351.06
306.121	349.06
306.352	350.06
306.582	371.06
306.812	362.06
307.042	364.06
307.272	359.06
307.502	360.06
307.731	371.06
307.961	357.06
308.191	364.06
308.421	358.06
308.651	359.06
308.881	376.06
309.111	363.06
309.341	369.06
309.571	382.06
309.8	385.06
310.03	388.06
310.26	411.06
310.49	389.06
310.72	410.06
310.949	423.06
311.179	424.06
311.409	408.06
311.639	405.06
311.868	399.06
312.098	413.06
312.328	396.06
312.557	404.06
312.787	425.06
313.017	415.06
313.246	399.06
313.476	388.06
313.706	392.06
313.935	420.06
314.165	423.06
314.394	416.06
314.624	416.06
314.853	403.06
315.083	403.06
315.312	411.06
315.542	400.06
315.771	387.06
316.001	406.06
316.23	405.06
316.46	390.06
316.689	407.06
316.919	423.06
317.148	414.06
317.377	408.06
317.607	418.06
317.836	393.06
318.065	405.06
318.295	404.06
318.524	391.06
318.753	383.06
318.983	421.06
319.212	418.06
319.441	411.06
319.67	402.06
319.9	392.06
320.129	422.06
320.358	427.06
320.587	435.06
320.816	417.06
321.046	417.06
321.275	428.06
321.504	419.06
321.733	417.06
321.962	423.06
322.191	441.06
322.42	431.06
322.649	454.06
322.878	441.06
323.108	473.06
323.337	463.06
323.566	498.06
323.795	525.06
324.024	529.06
324.253	623.06
324.482	864.06
324.71	1311.06
324.939	1899.06
325.168	1711.06
325.397	876.06
325.626	629.06
325.855	547.06
326.084	525.06
326.313	496.06
326.542	477.06
326.77	535.06
326.999	633.06
327.228	803.06
327.457	1191.06
327.686	1486.06
327.914	1003.06
328.143	664.06
328.372	598.06
328.6	565.06
328.829	553.06
329.058	563.06
329.287	571.06
329.515	539.06
329.744	531.06
329.972	531.06
330.201	532.06
330.43	568.06
330.658	571.06
330.887	604.06
331.115	597.06
331.344	544.06
331.572	513.06
331.801	521.06
332.03	517.06
332.258	474.06
332.486	500.06
332.715	483.06
332.943	484.06
333.172	488.06
333.4	511.06
333.629	504.06
333.857	538.06
334.085	536.06
334.314	529.06
334.542	560.06
334.771	549.06
334.999	552.06
335.227	519.06
335.455	495.06
335.684	504.06
335.912	475.06
336.14	510.06
336.369	499.06
336.597	492.06
336.825	485.06
337.053	474.06
337.281	488.06
337.51	497.06
337.738	488.06
337.966	476.06
338.194	504.06
338.422	474.06
338.65	476.06
338.878	482.06
339.106	469.06
339.334	477.06
339.562	466.06
339.79	466.06
340.018	481.06
340.246	453.06
340.474	452.06
340.702	469.06
340.93	439.06
341.158	455.06
341.386	454.06
341.614	460.06
341.842	483.06
342.07	466.06
342.298	449.06
342.526	449.06
342.754	481.06
342.981	466.06
343.209	459.06
343.437	449.06
343.665	468.06
343.893	480.06
344.12	499.06
344.348	483.06
344.576	481.06
344.804	487.06
345.031	484.06
345.259	483.06
345.487	474.06
345.714	480.06
345.942	460.06
346.17	448.06
346.397	461.06
346.625	445.06
346.853	458.06
347.08	464.06
347.308	453.06
347.535	470.06
347.763	444.06
347.99	455.06
348.218	456.06
348.445	466.06
348.673	461.06
348.9	433.06
349.128	444.06
349.355	443.06
349.583	439.06
349.81	436.06
350.037	460.06
350.265	436.06
350.492	452.06
350.72	453.06
350.947	451.06
351.174	477.06
351.402	461.06
351.629	446.06
351.856	457.06
352.083	464.06
352.311	488.06
352.538	451.06
352.765	467.06
352.992	443.06
353.22	445.06
353.447	431.06
353.674	448.06
353.901	436.06
354.128	445.06
354.355	435.06
354.583	432.06
354.81	448.06
355.037	432.06
355.264	438.06
355.491	426.06
355.718	425.06
355.945	435.06
356.172	419.06
356.399	433.06
356.626	421.06
356.853	427.06
357.08	430.06
357.307	422.06
357.534	420.06
357.761	443.06
357.988	442.06
358.215	426.06
358.441	438.06
358.668	445.06
358.895	438.06
359.122	434.06
359.349	459.06
359.576	453.06
359.802	475.06
360.029	483.06
360.256	483.06
360.483	493.06
360.709	457.06
360.936	468.06
361.163	452.06
361.39	453.06
361.616	477.06
361.843	456.06
362.07	441.06
362.296	467.06
362.523	456.06
362.749	463.06
362.976	455.06
363.203	442.06
363.429	433.06
363.656	439.06
363.882	438.06
364.109	457.06
364.335	430.06
364.562	449.06
364.788	435.06
365.015	448.06
365.241	442.06
365.468	451.06
365.694	453.06
365.92	463.06
366.147	449.06
366.373	455.06
366.599	428.06
366.826	433.06
367.052	428.06
367.278	437.06
367.505	411.06
367.731	426.06
367.957	443.06
368.184	441.06
368.41	451.06
368.636	437.06
368.862	464.06
369.089	456.06
369.315	432.06
369.541	432.06
369.767	441.06
369.993	438.06
370.219	445.06
370.445	452.06
370.672	444.06
370.898	438.06
371.124	459.06
371.35	462.06
371.576	439.06
371.802	457.06
372.028	451.06
372.254	457.06
372.48	444.06
372.706	441.06
372.932	470.06
373.158	449.06
373.384	436.06
373.61	460.06
373.835	442.06
374.061	449.06
374.287	463.06
374.513	447.06
374.739	467.06
374.965	472.06
375.191	466.06
375.416	461.06
375.642	458.06
375.868	459.06
376.094	449.06
376.319	451.06
376.545	450.06
376.771	460.06
376.997	453.06
377.222	443.06
377.448	442.06
377.674	459.06
377.899	460.06
378.125	467.06
378.35	436.06
378.576	434.06
378.802	434.06
379.027	432.06
379.253	465.06
379.478	443.06
379.704	464.06
379.929	451.06
380.155	476.06
380.38	456.06
380.606	454.06
380.831	460.06
381.057	460.06
381.282	448.06
381.507	460.06
381.733	451.06
381.958	470.06
382.184	460.06
382.409	465.06
382.634	466.06
382.86	482.06
383.085	465.06
383.31	465.06
383.535	497.06
383.761	462.06
383.986	488.06
384.211	499.06
384.436	465.06
384.662	476.06
384.887	492.06
385.112	477.06
385.337	490.06
385.562	518.06
385.787	505.06
386.013	511.06
386.238	537.06
386.463	520.06
386.688	515.06
386.913	491.06
387.138	511.06
387.363	507.06
387.588	501.06
387.813	492.06
388.038	507.06
388.263	500.06
388.488	516.06
388.713	513.06
388.938	517.06
389.163	508.06
389.387	532.06
389.612	505.06
389.837	515.06
390.062	499.06
390.287	484.06
390.512	517.06
390.736	520.06
390.961	526.06
391.186	513.06
391.411	533.06
391.636	531.06
391.86	511.06
392.085	563.06
392.31	538.06
392.534	525.06
392.759	525.06
392.984	532.06
393.208	507.06
393.433	537.06
393.658	516.06
393.882	518.06
394.107	483.06
394.331	508.06
394.556	519.06
394.78	516.06
395.005	521.06
395.229	527.06
395.454	549.06
395.678	544.06
395.903	553.06
396.127	570.06
396.352	563.06
396.576	541.06
396.801	536.06
397.025	547.06
397.249	543.06
397.474	552.06
397.698	545.06
397.922	569.06
398.147	554.06
398.371	588.06
398.595	595.06
398.82	585.06
399.044	592.06
399.268	617.06
399.492	664.06
399.717	731.06
399.941	741.06
400.165	752.06
400.389	744.06
400.613	663.06
400.837	608.06
401.062	614.06
401.286	603.06
401.51	594.06
401.734	575.06
401.958	608.06
402.182	615.06
402.406	613.06
402.63	586.06
402.854	599.06
403.078	602.06
403.302	632.06
403.526	627.06
403.75	630.06
403.974	645.06
404.198	618.06
404.422	615.06
404.645	644.06
404.869	619.06
405.093	657.06
405.317	729.06
405.541	753.06
405.765	667.06
405.988	654.06
406.212	634.06
406.436	661.06
406.66	678.06
406.883	663.06
407.107	722.06
407.331	743.06
407.555	818.06
407.778	812.06
408.002	743.06
408.226	699.06
408.449	696.06
408.673	680.06
408.896	709.06
409.12	739.06
409.344	709.06
409.567	657.06
409.791	625.06
410.014	608.06
410.238	608.06
410.461	629.06
410.685	619.06
410.908	652.06
411.132	694.06
411.355	699.06
411.578	692.06
411.802	651.06
412.025	621.06
412.249	626.06
412.472	661.06
412.695	697.06
412.919	681.06
413.142	639.06
413.365	637.06
413.589	611.06
413.812	598.06
414.035	579.06
414.258	605.06
414.482	597.06
414.705	572.06
414.928	576.06
415.151	589.06
415.374	595.06
415.597	589.06
415.821	568.06
416.044	589.06
416.267	595.06
416.49	593.06
416.713	588.06
416.936	555.06
417.159	590.06
417.382	608.06
417.605	602.06
417.828	613.06
418.051	622.06
418.274	604.06
418.497	595.06
418.72	579.06
418.943	597.06
419.166	601.06
419.389	632.06
419.611	626.06
419.834	632.06
420.057	631.06
420.28	602.06
420.503	640.06
420.726	625.06
420.948	617.06
421.171	653.06
421.394	707.06
421.617	630.06
421.839	617.06
422.062	647.06
422.285	627.06
422.507	680.06
422.73	753.06
422.953	743.06
423.175	651.06
423.398	636.06
423.621	643.06
423.843	652.06
424.066	681.06
424.288	657.06
424.511	688.06
424.733	701.06
424.956	798.06
425.178	755.06
425.401	752.06
425.623	786.06
425.846	688.06
426.068	643.06
426.291	638.06
426.513	631.06
426.735	659.06
426.958	689.06
427.18	745.06
427.402	906.06
427.625	972.06
427.847	856.06
428.069	728.06
428.292	687.06
428.514	642.06
428.736	612.06
428.958	616.06
429.181	598.06
429.403	588.06
429.625	601.06
429.847	629.06
430.069	715.06
430.292	712.06
430.514	613.06
430.736	612.06
430.958	586.06
431.18	583.06
431.402	538.06
431.624	556.06
431.846	583.06
432.068	576.06
432.29	577.06
432.512	584.06
432.734	598.06
432.956	571.06
433.178	581.06
433.4	587.06
433.622	576.06
433.844	557.06
434.066	576.06
434.287	569.06
434.509	595.06
434.731	590.06
434.953	605.06
435.175	613.06
435.397	643.06
435.618	635.06
435.84	675.06
436.062	765.06
436.284	863.06
436.505	698.06
436.727	659.06
436.949	609.06
437.17	610.06
437.392	616.06
437.614	624.06
437.835	641.06
438.057	714.06
438.278	857.06
438.5	835.06
438.721	900.06
438.943	896.06
439.165	709.06
439.386	641.06
439.608	649.06
439.829	652.06
440.05	680.06
440.272	687.06
440.493	673.06
440.715	627.06
440.936	633.06
441.158	609.06
441.379	625.06
441.6	630.06
441.822	641.06
442.043	678.06
442.264	766.06
442.486	823.06
442.707	717.06
442.928	654.06
443.149	694.06
443.371	705.06
443.592	723.06
443.813	815.06
444.034	929.06
444.255	760.06
444.476	722.06
444.698	696.06
444.919	687.06
445.14	760.06
445.361	702.06
445.582	681.06
445.803	741.06
446.024	849.06
446.245	859.06
446.466	799.06
446.687	684.06
446.908	667.06
447.129	644.06
447.35	587.06
447.571	581.06
447.792	569.06
448.013	597.06
448.234	624.06
448.455	654.06
448.675	781.06
448.896	923.06
449.117	760.06
449.338	698.06
449.559	815.06
449.779	938.06
450	738.06
450.221	624.06
450.442	583.06
450.662	586.06
450.883	586.06
451.104	589.06
451.324	599.06
451.545	557.06
451.766	551.06
451.986	543.06
452.207	521.06
452.428	525.06
452.648	533.06
452.869	512.06
453.089	539.06
453.31	562.06
453.53	551.06
453.751	520.06
453.971	527.06
454.192	536.06
454.412	533.06
454.633	520.06
454.853	504.06
455.073	532.06
455.294	533.06
455.514	610.06
455.734	589.06
455.955	537.06
456.175	529.06
456.395	517.06
456.616	491.06
456.836	501.06
457.056	488.06
457.276	489.06
457.497	489.06
457.717	496.06
457.937	509.06
458.157	526.06
458.377	523.06
458.598	533.06
458.818	582.06
459.038	664.06
459.258	700.06
459.478	607.06
459.698	580.06
459.918	560.06
460.138	589.06
460.358	585.06
460.578	592.06
460.798	596.06
461.018	612.06
461.238	608.06
461.458	595.06
461.678	585.06
461.898	595.06
462.118	609.06
462.338	636.06
462.558	625.06
462.777	627.06
462.997	634.06
463.217	655.06
463.437	680.06
463.657	658.06
463.876	655.06
464.096	637.06
464.316	627.06
464.536	658.06
464.755	665.06
464.975	660.06
465.195	639.06
465.414	703.06
465.634	654.06
465.854	590.06
466.073	564.06
466.293	568.06
466.512	582.06
466.732	556.06
466.951	561.06
467.171	564.06
467.391	559.06
467.61	554.06
467.829	519.06
468.049	551.06
468.268	555.06
468.488	520.06
468.707	527.06
468.927	531.06
469.146	541.06
469.365	538.06
469.585	529.06
469.804	527.06
470.023	552.06
470.243	545.06
470.462	579.06
470.681	588.06
470.901	598.06
471.12	552.06
471.339	565.06
471.558	550.06
471.777	545.06
471.997	554.06
472.216	561.06
472.435	563.06
472.654	552.06
472.873	532.06
473.092	548.06
473.311	545.06
473.53	547.06
473.749	537.06
473.968	568.06
474.187	669.06
474.406	714.06
474.625	582.06
474.844	555.06
475.063	540.06
475.282	557.06
475.501	563.06
475.72	561.06
475.939	555.06
476.158	566.06
476.377	575.06
476.596	555.06
476.814	568.06
477.033	554.06
477.252	577.06
477.471	607.06
477.69	614.06
477.908	612.06
478.127	613.06
478.346	620.06
478.564	635.06
478.783	635.06
479.002	639.06
479.22	625.06
479.439	645.06
479.658	655.06
479.876	654.06
480.095	668.06
480.313	716.06
480.532	693.06
480.751	677.06
480.969	691.06
481.188	715.06
481.406	774.06
481.624	672.06
481.843	683.06
482.061	663.06
482.28	651.06
482.498	648.06
482.717	644.06
482.935	661.06
483.153	652.06
483.372	684.06
483.59	649.06
483.808	654.06
484.027	651.06
484.245	639.06
484.463	661.06
484.681	641.06
484.9	659.06
485.118	663.06
485.336	643.06
485.554	656.06
485.772	655.06
485.99	674.06
486.209	647.06
486.427	673.06
486.645	704.06
486.863	693.06
487.081	693.06
487.299	697.06
487.517	693.06
487.735	690.06
487.953	709.06
488.171	678.06
488.389	680.06
488.607	689.06
488.825	699.06
489.043	706.06
489.261	699.06
489.479	731.06
489.696	717.06
489.914	717.06
490.132	715.06
490.35	724.06
490.568	732.06
490.786	746.06
491.003	753.06
491.221	753.06
491.439	778.06
491.657	777.06
491.874	787.06
492.092	789.06
492.31	821.06
492.527	811.06
492.745	793.06
492.963	787.06
493.18	827.06
493.398	832.06
493.615	856.06
493.833	849.06
494.05	819.06
494.268	842.06
494.485	821.06
494.703	807.06
494.92	824.06
495.138	837.06
495.355	825.06
495.573	824.06
495.79	823.06
496.008	828.06
496.225	824.06
496.442	836.06
496.66	817.06
496.877	844.06
497.094	860.06
497.312	853.06
497.529	879.06
497.746	868.06
497.963	868.06
498.181	915.06
498.398	939.06
498.615	946.06
498.832	977.06
499.049	962.06
499.267	1008.06
499.484	1069.06
499.701	1116.06
499.918	1160.06
500.135	1240.06
500.352	1299.06
500.569	1324.06
500.786	1312.06
501.003	1296.06
501.22	1234.06
501.437	1173.06
501.654	1168.06
501.871	1107.06
502.088	1064.06
502.305	987.06
502.522	967.06
502.739	945.06
502.956	917.06
503.172	883.06
503.389	889.06
503.606	871.06
503.823	885.06
504.04	863.06
504.256	839.06
504.473	868.06
504.69	831.06
504.907	823.06
505.123	834.06
505.34	827.06
505.557	801.06
505.773	783.06
505.99	801.06
506.207	790.06
506.423	788.06
506.64	786.06
506.856	776.06
507.073	755.06
507.289	757.06
507.506	762.06
507.722	778.06
507.939	784.06
508.155	751.06
508.372	763.06
508.588	746.06
508.805	716.06
509.021	743.06
509.238	734.06
509.454	729.06
509.67	733.06
509.887	724.06
510.103	717.06
510.319	730.06
510.536	773.06
510.752	1183.06
510.968	981.06
511.184	735.06
511.401	707.06
511.617	682.06
511.833	688.06
512.049	705.06
512.265	683.06
512.481	698.06
512.698	682.06
512.914	667.06
513.13	694.06
513.346	682.06
513.562	689.06
513.778	667.06
513.994	687.06
514.21	696.06
514.426	709.06
514.642	733.06
514.858	733.06
515.074	778.06
515.29	865.06
515.506	1197.06
515.721	963.06
515.937	777.06
516.153	744.06
516.369	712.06
516.585	729.06
516.801	715.06
517.016	725.06
517.232	733.06
517.448	755.06
517.664	756.06
517.879	736.06
518.095	749.06
518.311	732.06
518.527	751.06
518.742	691.06
518.958	711.06
519.173	703.06
519.389	692.06
519.605	681.06
519.82	672.06
520.036	711.06
520.251	721.06
520.467	742.06
520.682	715.06
520.898	728.06
521.113	721.06
521.329	776.06
521.544	811.06
521.76	937.06
521.975	1393.06
522.19	1406.06
522.406	906.06
522.621	697.06
522.836	693.06
523.052	653.06
523.267	643.06
523.482	620.06
523.698	625.06
523.913	619.06
524.128	635.06
524.343	588.06
524.559	603.06
524.774	618.06
524.989	595.06
525.204	597.06
525.419	585.06
525.634	591.06
525.849	592.06
526.064	586.06
526.28	561.06
526.495	579.06
526.71	560.06
526.925	542.06
527.14	575.06
527.355	551.06
527.57	594.06
527.785	592.06
527.999	545.06
528.214	582.06
528.429	594.06
528.644	571.06
528.859	578.06
529.074	573.06
529.289	573.06
529.503	649.06
529.718	636.06
529.933	573.06
530.148	584.06
530.363	566.06
530.577	564.06
530.792	554.06
531.007	553.06
531.221	557.06
531.436	550.06
531.651	548.06
531.865	557.06
532.08	549.06
532.295	567.06
532.509	562.06
532.724	548.06
532.938	561.06
533.153	535.06
533.367	537.06
533.582	543.06
533.796	534.06
534.011	551.06
534.225	548.06
534.44	517.06
534.654	525.06
534.868	528.06
535.083	559.06
535.297	532.06
535.511	545.06
535.726	563.06
535.94	552.06
536.154	551.06
536.369	550.06
536.583	549.06
536.797	521.06
537.011	497.06
537.225	543.06
537.44	525.06
537.654	519.06
537.868	512.06
538.082	535.06
538.296	518.06
538.51	519.06
538.724	541.06
538.938	524.06
539.153	520.06
539.367	555.06
539.581	532.06
539.795	529.06
540.009	501.06
540.222	507.06
540.436	523.06
540.65	520.06
540.864	524.06
541.078	541.06
541.292	528.06
541.506	530.06
541.72	517.06
541.934	531.06
542.147	554.06
542.361	529.06
542.575	525.06
542.789	511.06
543.002	511.06
543.216	546.06
543.43	528.06
543.644	517.06
543.857	505.06
544.071	518.06
544.285	543.06
544.498	543.06
544.712	532.06
544.925	515.06
545.139	512.06
545.352	535.06
545.566	524.06
545.779	521.06
545.993	540.06
546.206	547.06
546.42	516.06
546.633	509.06
546.847	525.06
547.06	506.06
547.274	499.06
547.487	507.06
547.7	495.06
547.914	525.06
548.127	530.06
548.34	513.06
548.554	500.06
548.767	514.06
548.98	512.06
549.193	509.06
549.407	517.06
549.62	502.06
549.833	509.06
550.046	493.06
550.259	495.06
550.473	513.06
550.686	513.06
550.899	487.06
551.112	473.06
551.325	498.06
551.538	487.06
551.751	481.06
551.964	497.06
552.177	519.06
552.39	505.06
552.603	507.06
552.816	521.06
553.029	515.06
553.242	514.06
553.455	519.06
553.667	522.06
553.88	530.06
554.093	540.06
554.306	519.06
554.519	525.06
554.732	493.06
554.944	495.06
555.157	485.06
555.37	511.06
555.583	484.06
555.795	482.06
556.008	470.06
556.221	476.06
556.433	471.06
556.646	467.06
556.859	456.06
557.071	450.06
557.284	451.06
557.496	470.06
557.709	449.06
557.921	467.06
558.134	459.06
558.346	442.06
558.559	437.06
558.771	452.06
558.984	436.06
559.196	451.06
559.409	443.06
559.621	454.06
559.833	449.06
560.046	419.06
560.258	461.06
560.47	435.06
560.683	439.06
560.895	439.06
561.107	428.06
561.32	453.06
561.532	431.06
561.744	434.06
561.956	472.06
562.168	417.06
562.381	431.06
562.593	443.06
562.805	464.06
563.017	439.06
563.229	436.06
563.441	440.06
563.653	457.06
563.865	458.06
564.077	468.06
564.289	467.06
564.501	475.06
564.713	482.06
564.925	471.06
565.137	477.06
565.349	498.06
565.561	493.06
565.773	511.06
565.985	526.06
566.197	519.06
566.408	549.06
566.62	557.06
566.832	585.06
567.044	604.06
567.255	583.06
567.467	575.06
567.679	599.06
567.891	620.06
568.102	634.06
568.314	620.06
568.526	596.06
568.737	579.06
568.949	543.06
569.161	506.06
569.372	502.06
569.584	460.06
569.795	464.06
570.007	451.06
570.218	453.06
570.43	460.06
570.641	445.06
570.853	459.06
571.064	451.06
571.276	449.06
571.487	430.06
571.698	417.06
571.91	409.06
572.121	411.06
572.333	411.06
572.544	412.06
572.755	397.06
572.966	412.06
573.178	420.06
573.389	427.06
573.6	388.06
573.811	391.06
574.023	387.06
574.234	391.06
574.445	405.06
574.656	389.06
574.867	381.06
575.078	392.06
575.289	390.06
575.501	393.06
575.712	396.06
575.923	369.06
576.134	379.06
576.345	382.06
576.556	387.06
576.767	379.06
576.978	382.06
577.188	372.06
577.399	392.06
577.61	393.06
577.821	380.06
578.032	374.06
578.243	386.06
578.454	546.06
578.665	450.06
578.875	373.06
579.086	355.06
579.297	372.06
579.508	357.06
579.718	364.06
579.929	344.06
580.14	347.06
580.35	353.06
580.561	351.06
580.772	359.06
580.982	333.06
581.193	345.06
581.403	343.06
581.614	347.06
581.825	353.06
582.035	365.06
582.246	331.06
582.456	345.06
582.667	344.06
582.877	337.06
583.087	338.06
583.298	340.06
583.508	351.06
583.719	345.06
583.929	352.06
584.139	346.06
584.35	359.06
584.56	325.06
584.77	341.06
584.981	334.06
585.191	339.06
585.401	340.06
585.611	351.06
585.821	340.06
586.032	342.06
586.242	336.06
586.452	343.06
586.662	325.06
586.872	308.06
587.082	341.06
587.292	319.06
587.502	331.06
587.713	340.06
587.923	343.06
588.133	334.06
588.343	334.06
588.553	307.06
588.762	335.06
588.972	339.06
589.182	334.06
589.392	305.06
589.602	336.06
589.812	333.06
590.022	337.06
590.232	329.06
590.441	353.06
590.651	321.06
590.861	326.06
591.071	339.06
591.281	344.06
591.49	351.06
591.7	337.06
591.91	348.06
592.119	357.06
592.329	368.06
592.539	365.06
592.748	360.06
592.958	365.06
593.167	369.06
593.377	377.06
593.587	384.06
593.796	387.06
594.006	357.06
594.215	375.06
594.424	369.06
594.634	357.06
594.843	363.06
595.053	343.06
595.262	353.06
595.472	335.06
595.681	343.06
595.89	349.06
596.1	324.06
596.309	322.06
596.518	319.06
596.727	321.06
596.937	293.06
597.146	314.06
597.355	320.06
597.564	313.06
597.774	304.06
597.983	305.06
598.192	300.06
598.401	288.06
598.61	303.06
598.819	307.06
599.028	317.06
599.237	305.06
599.446	287.06
599.655	287.06
599.864	284.06
600.073	291.06
600.282	309.06
600.491	307.06
600.7	300.06
600.909	293.06
601.118	299.06
601.327	300.06
601.536	276.06
601.745	287.06
601.953	296.06
602.162	283.06
602.371	289.06
602.58	306.06
602.789	288.06
602.997	298.06
603.206	288.06
603.415	279.06
603.623	269.06
603.832	278.06
604.041	294.06
604.249	290.06
604.458	287.06
604.666	275.06
604.875	285.06
605.084	273.06
605.292	280.06
605.501	289.06
605.709	278.06
605.918	287.06
606.126	269.06
606.334	272.06
606.543	277.06
606.751	282.06
606.96	281.06
607.168	277.06
607.376	258.06
607.585	263.06
607.793	279.06
608.001	276.06
608.21	261.06
608.418	281.06
608.626	289.06
608.834	283.06
609.043	292.06
609.251	280.06
609.459	287.06
609.667	276.06
609.875	279.06
610.083	269.06
610.291	281.06
610.499	267.06
610.707	263.06
610.916	284.06
611.124	283.06
611.332	281.06
611.54	294.06
611.748	291.06
611.955	292.06
612.163	279.06
612.371	271.06
612.579	261.06
612.787	272.06
612.995	269.06
613.203	276.06
613.411	263.06
613.618	253.06
613.826	285.06
614.034	266.06
614.242	276.06
614.449	285.06
614.657	268.06
614.865	277.06
615.072	264.06
615.28	271.06
615.488	257.06
615.695	254.06
615.903	274.06
616.111	280.06
616.318	269.06
616.526	261.06
616.733	283.06
616.941	265.06
617.148	262.06
617.356	266.06
617.563	260.06
617.771	261.06
617.978	252.06
618.185	265.06
618.393	283.06
618.6	280.06
618.807	267.06
619.015	279.06
619.222	250.06
619.429	252.06
619.637	263.06
619.844	250.06
620.051	242.06
620.258	242.06
620.466	249.06
620.673	245.06
620.88	237.06
621.087	254.06
621.294	257.06
621.501	255.06
621.708	252.06
621.915	255.06
622.122	266.06
622.329	249.06
622.536	257.06
622.743	258.06
622.95	255.06
623.157	253.06
623.364	244.06
623.571	243.06
623.778	260.06
623.985	261.06
624.192	236.06
624.399	252.06
624.606	256.06
624.812	245.06
625.019	247.06
625.226	247.06
625.433	242.06
625.639	240.06
625.846	208.06
626.053	236.06
626.259	225.06
626.466	234.06
626.673	218.06
626.879	221.06
627.086	224.06
627.293	225.06
627.499	211.06
627.706	223.06
627.912	237.06
628.119	222.06
628.325	231.06
628.532	241.06
628.738	232.06
628.945	230.06
629.151	231.06
629.357	217.06
629.564	226.06
629.77	211.06
629.976	219.06
630.183	214.06
630.389	232.06
630.595	216.06
630.802	204.06
631.008	221.06
631.214	205.06
631.42	234.06
631.627	222.06
631.833	201.06
632.039	218.06
632.245	207.06
632.451	213.06
632.657	211.06
632.863	219.06
633.069	198.06
633.275	218.06
633.481	199.06
633.688	202.06
633.893	224.06
634.099	199.06
634.305	198.06
634.511	215.06
634.717	201.06
634.923	201.06
635.129	190.06
635.335	206.06
635.541	201.06
635.747	205.06
635.952	200.06
636.158	210.06
636.364	196.06
636.57	186.06
636.775	192.06
636.981	187.06
637.187	211.06
637.392	207.06
637.598	211.06
637.804	205.06
638.009	203.06
638.215	187.06
638.421	193.06
638.626	181.06
638.832	192.06
639.037	203.06
639.243	214.06
639.448	183.06
639.654	194.06
639.859	195.06
640.065	200.06
640.27	201.06
640.475	192.06
640.681	191.06
640.886	197.06
641.091	177.06
641.297	192.06
641.502	183.06
641.707	177.06
641.913	182.06
642.118	202.06
642.323	192.06
642.528	191.06
642.733	173.06
642.939	213.06
643.144	173.06
643.349	181.06
643.554	183.06
643.759	184.06
643.964	176.06
644.169	183.06
644.374	188.06
644.579	181.06
644.784	178.06
644.989	180.06
645.194	190.06
645.399	187.06
645.604	177.06
645.809	184.06
646.014	177.06
646.219	188.06
646.423	177.06
646.628	182.06
646.833	179.06
647.038	179.06
647.243	176.06
647.447	187.06
647.652	196.06
647.857	184.06
648.062	180.06
648.266	198.06
648.471	189.06
648.676	191.06
648.88	180.06
649.085	183.06
649.289	195.06
649.494	171.06
649.698	204.06
649.903	202.06
650.107	172.06
650.312	176.06
650.516	175.06
650.721	180.06
650.925	170.06
651.13	165.06
651.334	177.06
651.539	157.06
651.743	167.06
651.947	185.06
652.152	167.06
652.356	152.06
652.56	155.06
652.764	135.06
652.969	151.06
653.173	139.06
653.377	149.06
653.581	149.06
653.785	148.06
653.99	159.06
654.194	136.06
654.398	155.06
654.602	133.06
654.806	159.06
655.01	146.06
655.214	159.06
655.418	142.06
655.622	142.06
655.826	145.06
656.03	136.06
656.234	154.06
656.438	149.06
656.642	123.06
656.846	136.06
657.049	152.06
657.253	128.06
657.457	135.06
657.661	138.06
657.865	140.06
658.068	118.06
658.272	116.06
658.476	116.06
658.68	123.06
658.883	123.06
659.087	107.06
659.291	105.06
659.494	109.06
659.698	91.06
659.901	78.06
660.105	92.06
660.309	90.06
660.512	103.06
660.716	100.06
660.919	90.06
661.123	109.06
661.326	94.06
661.53	99.06
661.733	97.06
661.936	77.06
662.14	89.06
662.343	90.06
662.546	81.06
662.75	88.06
662.953	86.06
663.156	90.06
663.36	79.06
663.563	76.06
663.766	83.06
663.969	81.06
664.173	80.06
664.376	81.06
664.579	90.06
664.782	86.06
664.985	85.06
665.188	82.06
665.391	80.06
665.594	98.06
665.797	96.06
666	95.06
666.203	89.06
666.406	86.06
666.609	80.06
666.812	84.06
667.015	90.06
667.218	85.06
667.421	86.06
667.624	75.06
667.827	77.06
668.03	75.06
668.232	75.06
668.435	77.06
668.638	76.06
668.841	75.06
669.043	76.06
669.246	81.06
669.449	80.06
669.651	88.06
669.854	88.06
670.057	94.06
670.259	79.06
670.462	85.06
670.665	85.06
670.867	78.06
671.07	81.06
671.272	92.06
671.475	90.06
671.677	78.06
671.88	66.06
672.082	98.06
672.284	93.06
672.487	95.06
672.689	75.06
672.892	88.06
