Data from 1974.PennyLincolnUp.Lamp.En5.5.200Scan.071719.P1.Changed Mount._HRD10591_15-53-18-857.txt Node
Date: Thu Jul 18 15:53:18 EDT 2019
User: cochatt
Spectrometer: HR+D1059
Trigger mode: 1
Integration Time (sec): 1.000000E-1
Scans to average: 1
Electric dark correction enabled: true
Nonlinearity correction enabled: false
Boxcar width: 0
XAxis mode: Wavelengths
Number of Pixels in Spectrum: 2048
>>>>>Begin Spectral Data<<<<<
223.165	-17.25
223.4	-17.25
223.635	-17.25
223.869	-14.25
224.104	-15.25
224.338	-18.25
224.573	-22.25
224.808	-18.25
225.042	-8.25
225.277	-2.25
225.511	0.75
225.746	-4.25
225.98	9.75
226.215	11.75
226.449	22.75
226.683	35.75
226.918	18.75
227.152	20.75
227.387	19.75
227.621	37.75
227.856	47.75
228.09	45.75
228.324	57.75
228.559	51.75
228.793	64.75
229.027	91.75
229.262	96.75
229.496	119.75
229.73	123.75
229.964	182.75
230.199	144.75
230.433	120.75
230.667	120.75
230.901	127.75
231.136	124.75
231.37	112.75
231.604	100.75
231.838	122.75
232.072	125.75
232.306	117.75
232.541	111.75
232.775	115.75
233.009	115.75
233.243	124.75
233.477	108.75
233.711	121.75
233.945	144.75
234.179	123.75
234.413	111.75
234.647	132.75
234.881	127.75
235.115	123.75
235.349	124.75
235.583	120.75
235.817	109.75
236.051	141.75
236.285	139.75
236.519	122.75
236.753	138.75
236.987	151.75
237.221	183.75
237.455	232.75
237.689	184.75
237.922	154.75
238.156	133.75
238.39	136.75
238.624	125.75
238.858	124.75
239.091	134.75
239.325	139.75
239.559	121.75
239.793	133.75
240.027	126.75
240.26	156.75
240.494	151.75
240.728	157.75
240.961	160.75
241.195	163.75
241.429	157.75
241.662	141.75
241.896	146.75
242.13	143.75
242.363	131.75
242.597	134.75
242.83	157.75
243.064	151.75
243.298	153.75
243.531	143.75
243.765	144.75
243.998	144.75
244.232	148.75
244.465	148.75
244.699	165.75
244.932	152.75
245.166	159.75
245.399	159.75
245.633	165.75
245.866	148.75
246.099	154.75
246.333	157.75
246.566	162.75
246.8	167.75
247.033	167.75
247.266	164.75
247.5	167.75
247.733	195.75
247.966	180.75
248.2	170.75
248.433	186.75
248.666	176.75
248.899	196.75
249.133	222.75
249.366	212.75
249.599	211.75
249.832	197.75
250.066	192.75
250.299	182.75
250.532	195.75
250.765	199.75
250.998	216.75
251.231	237.75
251.465	223.75
251.698	232.75
251.931	214.75
252.164	216.75
252.397	230.75
252.63	215.75
252.863	222.75
253.096	231.75
253.329	240.75
253.562	262.75
253.795	234.75
254.028	218.75
254.261	246.75
254.494	247.75
254.727	267.75
254.96	294.75
255.193	292.75
255.426	268.75
255.659	249.75
255.892	253.75
256.124	253.75
256.357	254.75
256.59	249.75
256.823	237.75
257.056	235.75
257.289	233.75
257.521	232.75
257.754	232.75
257.987	221.75
258.22	228.75
258.452	230.75
258.685	222.75
258.918	228.75
259.151	241.75
259.383	227.75
259.616	251.75
259.849	256.75
260.081	242.75
260.314	286.75
260.547	271.75
260.779	278.75
261.012	245.75
261.244	238.75
261.477	256.75
261.71	228.75
261.942	243.75
262.175	269.75
262.407	253.75
262.64	212.75
262.872	236.75
263.105	237.75
263.337	244.75
263.57	236.75
263.802	236.75
264.035	238.75
264.267	228.75
264.499	235.75
264.732	263.75
264.964	247.75
265.197	235.75
265.429	242.75
265.661	240.75
265.894	239.75
266.126	232.75
266.358	221.75
266.591	248.75
266.823	235.75
267.055	262.75
267.287	245.75
267.52	252.75
267.752	260.75
267.984	239.75
268.216	236.75
268.448	256.75
268.681	244.75
268.913	278.75
269.145	282.75
269.377	296.75
269.609	300.75
269.841	293.75
270.073	286.75
270.306	315.75
270.538	342.75
270.77	347.75
271.002	320.75
271.234	302.75
271.466	353.75
271.698	341.75
271.93	337.75
272.162	347.75
272.394	324.75
272.626	333.75
272.858	309.75
273.09	304.75
273.322	291.75
273.553	310.75
273.785	298.75
274.017	285.75
274.249	303.75
274.481	287.75
274.713	284.75
274.945	307.75
275.176	303.75
275.408	290.75
275.64	284.75
275.872	292.75
276.104	315.75
276.335	308.75
276.567	299.75
276.799	320.75
277.031	337.75
277.262	332.75
277.494	347.75
277.726	321.75
277.957	316.75
278.189	295.75
278.421	307.75
278.652	292.75
278.884	294.75
279.115	294.75
279.347	284.75
279.579	299.75
279.81	301.75
280.042	293.75
280.273	293.75
280.505	309.75
280.736	310.75
280.968	279.75
281.199	299.75
281.431	294.75
281.662	304.75
281.894	307.75
282.125	307.75
282.356	334.75
282.588	316.75
282.819	332.75
283.051	311.75
283.282	311.75
283.513	298.75
283.745	291.75
283.976	315.75
284.207	314.75
284.439	307.75
284.67	296.75
284.901	323.75
285.132	315.75
285.364	324.75
285.595	339.75
285.826	305.75
286.057	307.75
286.288	317.75
286.52	306.75
286.751	301.75
286.982	311.75
287.213	312.75
287.444	324.75
287.675	312.75
287.906	327.75
288.138	330.75
288.369	318.75
288.6	352.75
288.831	330.75
289.062	319.75
289.293	341.75
289.524	336.75
289.755	313.75
289.986	333.75
290.217	324.75
290.448	310.75
290.679	323.75
290.91	324.75
291.141	338.75
291.371	357.75
291.602	316.75
291.833	309.75
292.064	325.75
292.295	319.75
292.526	328.75
292.757	344.75
292.987	334.75
293.218	332.75
293.449	309.75
293.68	327.75
293.91	327.75
294.141	334.75
294.372	340.75
294.603	309.75
294.833	341.75
295.064	318.75
295.295	317.75
295.525	325.75
295.756	326.75
295.987	342.75
296.217	342.75
296.448	365.75
296.679	347.75
296.909	323.75
297.14	342.75
297.37	348.75
297.601	372.75
297.831	325.75
298.062	341.75
298.292	349.75
298.523	343.75
298.753	344.75
298.984	353.75
299.214	341.75
299.445	338.75
299.675	337.75
299.905	337.75
300.136	351.75
300.366	325.75
300.597	355.75
300.827	353.75
301.057	364.75
301.288	343.75
301.518	367.75
301.748	364.75
301.979	362.75
302.209	377.75
302.439	361.75
302.669	379.75
302.9	373.75
303.13	356.75
303.36	375.75
303.59	363.75
303.82	374.75
304.051	374.75
304.281	379.75
304.511	366.75
304.741	379.75
304.971	374.75
305.201	352.75
305.431	360.75
305.661	364.75
305.891	366.75
306.121	396.75
306.352	364.75
306.582	379.75
306.812	373.75
307.042	389.75
307.272	357.75
307.502	368.75
307.731	387.75
307.961	355.75
308.191	353.75
308.421	377.75
308.651	379.75
308.881	375.75
309.111	374.75
309.341	404.75
309.571	392.75
309.8	409.75
310.03	394.75
310.26	405.75
310.49	399.75
310.72	435.75
310.949	423.75
311.179	423.75
311.409	411.75
311.639	425.75
311.868	421.75
312.098	405.75
312.328	412.75
312.557	414.75
312.787	439.75
313.017	416.75
313.246	441.75
313.476	415.75
313.706	417.75
313.935	410.75
314.165	424.75
314.394	442.75
314.624	435.75
314.853	428.75
315.083	417.75
315.312	419.75
315.542	401.75
315.771	411.75
316.001	410.75
316.23	410.75
316.46	419.75
316.689	415.75
316.919	419.75
317.148	400.75
317.377	420.75
317.607	407.75
317.836	407.75
318.065	430.75
318.295	407.75
318.524	417.75
318.753	430.75
318.983	415.75
319.212	415.75
319.441	416.75
319.67	436.75
319.9	428.75
320.129	422.75
320.358	415.75
320.587	407.75
320.816	406.75
321.046	422.75
321.275	443.75
321.504	425.75
321.733	420.75
321.962	438.75
322.191	438.75
322.42	456.75
322.649	457.75
322.878	468.75
323.108	477.75
323.337	492.75
323.566	521.75
323.795	529.75
324.024	549.75
324.253	639.75
324.482	878.75
324.71	1316.75
324.939	1951.75
325.168	1717.75
325.397	903.75
325.626	631.75
325.855	545.75
326.084	527.75
326.313	515.75
326.542	501.75
326.77	579.75
326.999	604.75
327.228	829.75
327.457	1214.75
327.686	1525.75
327.914	1019.75
328.143	688.75
328.372	606.75
328.6	577.75
328.829	567.75
329.058	580.75
329.287	585.75
329.515	579.75
329.744	519.75
329.972	531.75
330.201	556.75
330.43	585.75
330.658	605.75
330.887	609.75
331.115	619.75
331.344	540.75
331.572	531.75
331.801	532.75
332.03	536.75
332.258	539.75
332.486	524.75
332.715	523.75
332.943	521.75
333.172	509.75
333.4	513.75
333.629	540.75
333.857	551.75
334.085	544.75
334.314	577.75
334.542	597.75
334.771	583.75
334.999	551.75
335.227	515.75
335.455	502.75
335.684	531.75
335.912	503.75
336.14	479.75
336.369	512.75
336.597	505.75
336.825	513.75
337.053	500.75
337.281	519.75
337.51	497.75
337.738	489.75
337.966	513.75
338.194	501.75
338.422	491.75
338.65	498.75
338.878	481.75
339.106	484.75
339.334	480.75
339.562	497.75
339.79	456.75
340.018	497.75
340.246	486.75
340.474	481.75
340.702	465.75
340.93	471.75
341.158	468.75
341.386	480.75
341.614	471.75
341.842	481.75
342.07	469.75
342.298	492.75
342.526	471.75
342.754	467.75
342.981	464.75
343.209	484.75
343.437	491.75
343.665	486.75
343.893	487.75
344.12	504.75
344.348	500.75
344.576	505.75
344.804	499.75
345.031	493.75
345.259	482.75
345.487	490.75
345.714	483.75
345.942	462.75
346.17	473.75
346.397	469.75
346.625	455.75
346.853	456.75
347.08	448.75
347.308	468.75
347.535	463.75
347.763	467.75
347.99	447.75
348.218	460.75
348.445	465.75
348.673	486.75
348.9	475.75
349.128	472.75
349.355	445.75
349.583	465.75
349.81	430.75
350.037	441.75
350.265	437.75
350.492	461.75
350.72	445.75
350.947	478.75
351.174	454.75
351.402	477.75
351.629	470.75
351.856	468.75
352.083	471.75
352.311	464.75
352.538	491.75
352.765	475.75
352.992	471.75
353.22	479.75
353.447	427.75
353.674	453.75
353.901	441.75
354.128	436.75
354.355	440.75
354.583	442.75
354.81	431.75
355.037	455.75
355.264	441.75
355.491	433.75
355.718	426.75
355.945	438.75
356.172	439.75
356.399	444.75
356.626	440.75
356.853	444.75
357.08	453.75
357.307	431.75
357.534	447.75
357.761	451.75
357.988	437.75
358.215	438.75
358.441	441.75
358.668	453.75
358.895	467.75
359.122	435.75
359.349	463.75
359.576	463.75
359.802	502.75
360.029	502.75
360.256	503.75
360.483	481.75
360.709	459.75
360.936	490.75
361.163	502.75
361.39	463.75
361.616	474.75
361.843	464.75
362.07	454.75
362.296	471.75
362.523	447.75
362.749	476.75
362.976	459.75
363.203	451.75
363.429	445.75
363.656	469.75
363.882	443.75
364.109	458.75
364.335	471.75
364.562	456.75
364.788	477.75
365.015	460.75
365.241	468.75
365.468	462.75
365.694	469.75
365.92	457.75
366.147	455.75
366.373	444.75
366.599	443.75
366.826	457.75
367.052	462.75
367.278	451.75
367.505	470.75
367.731	467.75
367.957	458.75
368.184	480.75
368.41	460.75
368.636	449.75
368.862	462.75
369.089	457.75
369.315	448.75
369.541	452.75
369.767	460.75
369.993	456.75
370.219	463.75
370.445	466.75
370.672	449.75
370.898	455.75
371.124	449.75
371.35	446.75
371.576	484.75
371.802	462.75
372.028	469.75
372.254	481.75
372.48	474.75
372.706	479.75
372.932	487.75
373.158	493.75
373.384	487.75
373.61	478.75
373.835	477.75
374.061	468.75
374.287	471.75
374.513	475.75
374.739	477.75
374.965	464.75
375.191	495.75
375.416	520.75
375.642	468.75
375.868	484.75
376.094	471.75
376.319	485.75
376.545	482.75
376.771	481.75
376.997	459.75
377.222	443.75
377.448	446.75
377.674	450.75
377.899	459.75
378.125	454.75
378.35	470.75
378.576	458.75
378.802	482.75
379.027	459.75
379.253	492.75
379.478	475.75
379.704	463.75
379.929	472.75
380.155	491.75
380.38	452.75
380.606	459.75
380.831	455.75
381.057	476.75
381.282	461.75
381.507	484.75
381.733	488.75
381.958	496.75
382.184	488.75
382.409	484.75
382.634	487.75
382.86	484.75
383.085	475.75
383.31	498.75
383.535	515.75
383.761	485.75
383.986	486.75
384.211	499.75
384.436	508.75
384.662	504.75
384.887	509.75
385.112	509.75
385.337	536.75
385.562	495.75
385.787	509.75
386.013	537.75
386.238	511.75
386.463	499.75
386.688	525.75
386.913	543.75
387.138	538.75
387.363	540.75
387.588	535.75
387.813	526.75
388.038	528.75
388.263	521.75
388.488	514.75
388.713	521.75
388.938	547.75
389.163	533.75
389.387	531.75
389.612	520.75
389.837	521.75
390.062	505.75
390.287	513.75
390.512	524.75
390.736	516.75
390.961	527.75
391.186	515.75
391.411	520.75
391.636	544.75
391.86	559.75
392.085	551.75
392.31	543.75
392.534	541.75
392.759	536.75
392.984	509.75
393.208	518.75
393.433	518.75
393.658	527.75
393.882	528.75
394.107	534.75
394.331	535.75
394.556	535.75
394.78	526.75
395.005	541.75
395.229	533.75
395.454	557.75
395.678	553.75
395.903	555.75
396.127	582.75
396.352	586.75
396.576	565.75
396.801	559.75
397.025	545.75
397.249	556.75
397.474	557.75
397.698	560.75
397.922	578.75
398.147	605.75
398.371	599.75
398.595	585.75
398.82	614.75
399.044	637.75
399.268	659.75
399.492	700.75
399.717	706.75
399.941	762.75
400.165	761.75
400.389	746.75
400.613	707.75
400.837	653.75
401.062	628.75
401.286	629.75
401.51	604.75
401.734	609.75
401.958	635.75
402.182	637.75
402.406	637.75
402.63	616.75
402.854	609.75
403.078	619.75
403.302	643.75
403.526	657.75
403.75	653.75
403.974	634.75
404.198	638.75
404.422	672.75
404.645	640.75
404.869	673.75
405.093	700.75
405.317	711.75
405.541	729.75
405.765	712.75
405.988	699.75
406.212	675.75
406.436	687.75
406.66	728.75
406.883	688.75
407.107	721.75
407.331	764.75
407.555	831.75
407.778	852.75
408.002	752.75
408.226	726.75
408.449	707.75
408.673	701.75
408.896	722.75
409.12	785.75
409.344	743.75
409.567	661.75
409.791	658.75
410.014	650.75
410.238	621.75
410.461	638.75
410.685	647.75
410.908	655.75
411.132	707.75
411.355	743.75
411.578	704.75
411.802	635.75
412.025	654.75
412.249	633.75
412.472	683.75
412.695	692.75
412.919	701.75
413.142	648.75
413.365	637.75
413.589	622.75
413.812	607.75
414.035	614.75
414.258	597.75
414.482	584.75
414.705	587.75
414.928	608.75
415.151	620.75
415.374	592.75
415.597	596.75
415.821	596.75
416.044	584.75
416.267	611.75
416.49	612.75
416.713	608.75
416.936	612.75
417.159	605.75
417.382	600.75
417.605	607.75
417.828	619.75
418.051	629.75
418.274	621.75
418.497	636.75
418.72	614.75
418.943	598.75
419.166	662.75
419.389	673.75
419.611	683.75
419.834	663.75
420.057	656.75
420.28	637.75
420.503	652.75
420.726	614.75
420.948	633.75
421.171	683.75
421.394	720.75
421.617	662.75
421.839	627.75
422.062	611.75
422.285	631.75
422.507	677.75
422.73	800.75
422.953	770.75
423.175	707.75
423.398	673.75
423.621	641.75
423.843	677.75
424.066	663.75
424.288	677.75
424.511	679.75
424.733	726.75
424.956	825.75
425.178	791.75
425.401	761.75
425.623	827.75
425.846	727.75
426.068	671.75
426.291	647.75
426.513	645.75
426.735	682.75
426.958	729.75
427.18	798.75
427.402	919.75
427.625	1013.75
427.847	864.75
428.069	781.75
428.292	696.75
428.514	663.75
428.736	637.75
428.958	625.75
429.181	600.75
429.403	616.75
429.625	628.75
429.847	659.75
430.069	687.75
430.292	695.75
430.514	613.75
430.736	605.75
430.958	604.75
431.18	601.75
431.402	608.75
431.624	595.75
431.846	584.75
432.068	582.75
432.29	600.75
432.512	591.75
432.734	601.75
432.956	582.75
433.178	604.75
433.4	616.75
433.622	601.75
433.844	563.75
434.066	571.75
434.287	605.75
434.509	599.75
434.731	609.75
434.953	603.75
435.175	619.75
435.397	658.75
435.618	648.75
435.84	692.75
436.062	779.75
436.284	865.75
436.505	724.75
436.727	673.75
436.949	637.75
437.17	616.75
437.392	629.75
437.614	624.75
437.835	648.75
438.057	743.75
438.278	864.75
438.5	844.75
438.721	945.75
438.943	897.75
439.165	744.75
439.386	683.75
439.608	667.75
439.829	662.75
440.05	695.75
440.272	716.75
440.493	703.75
440.715	658.75
440.936	647.75
441.158	612.75
441.379	601.75
441.6	634.75
441.822	656.75
442.043	717.75
442.264	798.75
442.486	848.75
442.707	729.75
442.928	685.75
443.149	686.75
443.371	721.75
443.592	743.75
443.813	858.75
444.034	951.75
444.255	797.75
444.476	736.75
444.698	721.75
444.919	731.75
445.14	777.75
445.361	729.75
445.582	720.75
445.803	773.75
446.024	855.75
446.245	868.75
446.466	830.75
446.687	711.75
446.908	657.75
447.129	644.75
447.35	636.75
447.571	593.75
447.792	599.75
448.013	579.75
448.234	612.75
448.455	675.75
448.675	789.75
448.896	927.75
449.117	797.75
449.338	716.75
449.559	854.75
449.779	967.75
450	763.75
450.221	667.75
450.442	631.75
450.662	611.75
450.883	602.75
451.104	579.75
451.324	572.75
451.545	574.75
451.766	573.75
451.986	550.75
452.207	537.75
452.428	546.75
452.648	546.75
452.869	535.75
453.089	535.75
453.31	546.75
453.53	551.75
453.751	522.75
453.971	529.75
454.192	567.75
454.412	569.75
454.633	539.75
454.853	537.75
455.073	532.75
455.294	570.75
455.514	645.75
455.734	651.75
455.955	559.75
456.175	527.75
456.395	514.75
456.616	515.75
456.836	526.75
457.056	520.75
457.276	522.75
457.497	519.75
457.717	519.75
457.937	529.75
458.157	554.75
458.377	551.75
458.598	565.75
458.818	600.75
459.038	693.75
459.258	725.75
459.478	643.75
459.698	585.75
459.918	588.75
460.138	597.75
460.358	629.75
460.578	631.75
460.798	614.75
461.018	634.75
461.238	604.75
461.458	623.75
461.678	611.75
461.898	638.75
462.118	625.75
462.338	628.75
462.558	655.75
462.777	631.75
462.997	693.75
463.217	700.75
463.437	688.75
463.657	689.75
463.876	679.75
464.096	671.75
464.316	656.75
464.536	674.75
464.755	649.75
464.975	641.75
465.195	666.75
465.414	706.75
465.634	666.75
465.854	605.75
466.073	619.75
466.293	575.75
466.512	581.75
466.732	549.75
466.951	556.75
467.171	554.75
467.391	582.75
467.61	563.75
467.829	555.75
468.049	589.75
468.268	569.75
468.488	557.75
468.707	537.75
468.927	541.75
469.146	528.75
469.365	531.75
469.585	544.75
469.804	559.75
470.023	558.75
470.243	561.75
470.462	584.75
470.681	578.75
470.901	600.75
471.12	573.75
471.339	558.75
471.558	545.75
471.777	579.75
471.997	538.75
472.216	556.75
472.435	591.75
472.654	579.75
472.873	582.75
473.092	581.75
473.311	579.75
473.53	564.75
473.749	552.75
473.968	599.75
474.187	696.75
474.406	722.75
474.625	615.75
474.844	586.75
475.063	576.75
475.282	582.75
475.501	576.75
475.72	577.75
475.939	574.75
476.158	593.75
476.377	610.75
476.596	588.75
476.814	580.75
477.033	579.75
477.252	602.75
477.471	603.75
477.69	636.75
477.908	604.75
478.127	630.75
478.346	652.75
478.564	640.75
478.783	635.75
479.002	643.75
479.22	656.75
479.439	685.75
479.658	686.75
479.876	682.75
480.095	689.75
480.313	738.75
480.532	748.75
480.751	698.75
480.969	726.75
481.188	765.75
481.406	793.75
481.624	715.75
481.843	674.75
482.061	683.75
482.28	677.75
482.498	651.75
482.717	661.75
482.935	663.75
483.153	658.75
483.372	673.75
483.59	652.75
483.808	680.75
484.027	665.75
484.245	675.75
484.463	678.75
484.681	679.75
484.9	701.75
485.118	708.75
485.336	665.75
485.554	670.75
485.772	667.75
485.99	692.75
486.209	686.75
486.427	693.75
486.645	721.75
486.863	711.75
487.081	711.75
487.299	689.75
487.517	697.75
487.735	729.75
487.953	700.75
488.171	702.75
488.389	695.75
488.607	721.75
488.825	710.75
489.043	708.75
489.261	719.75
489.479	741.75
489.696	765.75
489.914	745.75
490.132	767.75
490.35	758.75
490.568	759.75
490.786	766.75
491.003	772.75
491.221	801.75
491.439	825.75
491.657	805.75
491.874	804.75
492.092	804.75
492.31	827.75
492.527	840.75
492.745	846.75
492.963	830.75
493.18	840.75
493.398	850.75
493.615	857.75
493.833	849.75
494.05	827.75
494.268	837.75
494.485	844.75
494.703	846.75
494.92	853.75
495.138	843.75
495.355	833.75
495.573	833.75
495.79	866.75
496.008	890.75
496.225	861.75
496.442	864.75
496.66	861.75
496.877	861.75
497.094	886.75
497.312	850.75
497.529	881.75
497.746	893.75
497.963	887.75
498.181	911.75
498.398	966.75
498.615	976.75
498.832	992.75
499.049	1039.75
499.267	1079.75
499.484	1102.75
499.701	1144.75
499.918	1210.75
500.135	1269.75
500.352	1368.75
500.569	1355.75
500.786	1342.75
501.003	1359.75
501.22	1282.75
501.437	1234.75
501.654	1147.75
501.871	1155.75
502.088	1049.75
502.305	1047.75
502.522	965.75
502.739	970.75
502.956	921.75
503.172	924.75
503.389	891.75
503.606	910.75
503.823	903.75
504.04	883.75
504.256	864.75
504.473	846.75
504.69	863.75
504.907	856.75
505.123	841.75
505.34	826.75
505.557	821.75
505.773	823.75
505.99	796.75
506.207	817.75
506.423	807.75
506.64	777.75
506.856	771.75
507.073	781.75
507.289	780.75
507.506	770.75
507.722	771.75
507.939	798.75
508.155	774.75
508.372	766.75
508.588	748.75
508.805	745.75
509.021	778.75
509.238	749.75
509.454	767.75
509.67	759.75
509.887	733.75
510.103	764.75
510.319	751.75
510.536	807.75
510.752	1165.75
510.968	1016.75
511.184	747.75
511.401	720.75
511.617	714.75
511.833	708.75
512.049	720.75
512.265	698.75
512.481	731.75
512.698	703.75
512.914	707.75
513.13	686.75
513.346	699.75
513.562	709.75
513.778	716.75
513.994	692.75
514.21	720.75
514.426	745.75
514.642	760.75
514.858	791.75
515.074	796.75
515.29	875.75
515.506	1200.75
515.721	1047.75
515.937	817.75
516.153	741.75
516.369	751.75
516.585	771.75
516.801	744.75
517.016	740.75
517.232	767.75
517.448	747.75
517.664	751.75
517.879	737.75
518.095	762.75
518.311	775.75
518.527	743.75
518.742	741.75
518.958	728.75
519.173	706.75
519.389	707.75
519.605	687.75
519.82	723.75
520.036	718.75
520.251	727.75
520.467	741.75
520.682	716.75
520.898	751.75
521.113	738.75
521.329	779.75
521.544	824.75
521.76	959.75
521.975	1395.75
522.19	1423.75
522.406	889.75
522.621	718.75
522.836	719.75
523.052	663.75
523.267	653.75
523.482	633.75
523.698	640.75
523.913	645.75
524.128	634.75
524.343	625.75
524.559	614.75
524.774	615.75
524.989	615.75
525.204	606.75
525.419	638.75
525.634	599.75
525.849	605.75
526.064	594.75
526.28	583.75
526.495	589.75
526.71	588.75
526.925	599.75
527.14	583.75
527.355	572.75
527.57	586.75
527.785	600.75
527.999	576.75
528.214	575.75
528.429	574.75
528.644	600.75
528.859	595.75
529.074	606.75
529.289	617.75
529.503	649.75
529.718	639.75
529.933	604.75
530.148	591.75
530.363	573.75
530.577	594.75
530.792	582.75
531.007	574.75
531.221	571.75
531.436	589.75
531.651	580.75
531.865	557.75
532.08	556.75
532.295	566.75
532.509	552.75
532.724	549.75
532.938	560.75
533.153	555.75
533.367	561.75
533.582	580.75
533.796	561.75
534.011	571.75
534.225	535.75
534.44	553.75
534.654	556.75
534.868	530.75
535.083	544.75
535.297	549.75
535.511	553.75
535.726	565.75
535.94	544.75
536.154	561.75
536.369	582.75
536.583	535.75
536.797	551.75
537.011	553.75
537.225	523.75
537.44	529.75
537.654	542.75
537.868	545.75
538.082	558.75
538.296	563.75
538.51	544.75
538.724	539.75
538.938	523.75
539.153	540.75
539.367	556.75
539.581	550.75
539.795	539.75
540.009	518.75
540.222	523.75
540.436	522.75
540.65	538.75
540.864	552.75
541.078	547.75
541.292	537.75
541.506	537.75
541.72	521.75
541.934	552.75
542.147	560.75
542.361	526.75
542.575	547.75
542.789	533.75
543.002	565.75
543.216	518.75
543.43	543.75
543.644	542.75
543.857	547.75
544.071	571.75
544.285	540.75
544.498	560.75
544.712	530.75
544.925	543.75
545.139	549.75
545.352	568.75
545.566	553.75
545.779	525.75
545.993	542.75
546.206	536.75
546.42	547.75
546.633	530.75
546.847	542.75
547.06	541.75
547.274	511.75
547.487	516.75
547.7	549.75
547.914	534.75
548.127	565.75
548.34	522.75
548.554	523.75
548.767	529.75
548.98	550.75
549.193	508.75
549.407	518.75
549.62	547.75
549.833	517.75
550.046	538.75
550.259	539.75
550.473	500.75
550.686	524.75
550.899	543.75
551.112	510.75
551.325	500.75
551.538	517.75
551.751	528.75
551.964	498.75
552.177	522.75
552.39	533.75
552.603	537.75
552.816	544.75
553.029	563.75
553.242	542.75
553.455	549.75
553.667	563.75
553.88	536.75
554.093	548.75
554.306	540.75
554.519	547.75
554.732	519.75
554.944	517.75
555.157	516.75
555.37	520.75
555.583	497.75
555.795	503.75
556.008	484.75
556.221	467.75
556.433	501.75
556.646	485.75
556.859	478.75
557.071	468.75
557.284	472.75
557.496	464.75
557.709	488.75
557.921	469.75
558.134	467.75
558.346	481.75
558.559	488.75
558.771	475.75
558.984	460.75
559.196	479.75
559.409	453.75
559.621	454.75
559.833	462.75
560.046	447.75
560.258	469.75
560.47	449.75
560.683	447.75
560.895	438.75
561.107	476.75
561.32	456.75
561.532	467.75
561.744	475.75
561.956	451.75
562.168	456.75
562.381	468.75
562.593	470.75
562.805	456.75
563.017	468.75
563.229	462.75
563.441	465.75
563.653	473.75
563.865	486.75
564.077	464.75
564.289	460.75
564.501	473.75
564.713	471.75
564.925	490.75
565.137	500.75
565.349	500.75
565.561	511.75
565.773	531.75
565.985	525.75
566.197	558.75
566.408	569.75
566.62	578.75
566.832	581.75
567.044	623.75
567.255	601.75
567.467	639.75
567.679	636.75
567.891	662.75
568.102	639.75
568.314	639.75
568.526	631.75
568.737	573.75
568.949	561.75
569.161	514.75
569.372	486.75
569.584	496.75
569.795	483.75
570.007	469.75
570.218	501.75
570.43	500.75
570.641	452.75
570.853	467.75
571.064	469.75
571.276	485.75
571.487	446.75
571.698	418.75
571.91	422.75
572.121	425.75
572.333	432.75
572.544	411.75
572.755	430.75
572.966	429.75
573.178	416.75
573.389	406.75
573.6	393.75
573.811	403.75
574.023	401.75
574.234	402.75
574.445	401.75
574.656	407.75
574.867	398.75
575.078	402.75
575.289	381.75
575.501	403.75
575.712	387.75
575.923	384.75
576.134	395.75
576.345	388.75
576.556	371.75
576.767	391.75
576.978	361.75
577.188	389.75
577.399	386.75
577.61	382.75
577.821	384.75
578.032	369.75
578.243	407.75
578.454	557.75
578.665	453.75
578.875	381.75
579.086	350.75
579.297	368.75
579.508	384.75
579.718	376.75
579.929	376.75
580.14	360.75
580.35	360.75
580.561	371.75
580.772	374.75
580.982	365.75
581.193	363.75
581.403	364.75
581.614	347.75
581.825	369.75
582.035	354.75
582.246	372.75
582.456	341.75
582.667	339.75
582.877	346.75
583.087	349.75
583.298	356.75
583.508	346.75
583.719	345.75
583.929	351.75
584.139	343.75
584.35	347.75
584.56	357.75
584.77	363.75
584.981	347.75
585.191	353.75
585.401	367.75
585.611	364.75
585.821	345.75
586.032	358.75
586.242	340.75
586.452	326.75
586.662	349.75
586.872	345.75
587.082	355.75
587.292	352.75
587.502	348.75
587.713	346.75
587.923	345.75
588.133	325.75
588.343	353.75
588.553	351.75
588.762	356.75
588.972	348.75
589.182	316.75
589.392	344.75
589.602	337.75
589.812	323.75
590.022	337.75
590.232	350.75
590.441	344.75
590.651	360.75
590.861	330.75
591.071	353.75
591.281	353.75
591.49	344.75
591.7	355.75
591.91	349.75
592.119	353.75
592.329	347.75
592.539	379.75
592.748	364.75
592.958	375.75
593.167	377.75
593.377	361.75
593.587	375.75
593.796	392.75
594.006	385.75
594.215	391.75
594.424	350.75
594.634	343.75
594.843	368.75
595.053	383.75
595.262	373.75
595.472	351.75
595.681	349.75
595.89	359.75
596.1	356.75
596.309	347.75
596.518	327.75
596.727	321.75
596.937	331.75
597.146	316.75
597.355	334.75
597.564	335.75
597.774	305.75
597.983	305.75
598.192	324.75
598.401	311.75
598.61	299.75
598.819	304.75
599.028	296.75
599.237	305.75
599.446	305.75
599.655	315.75
599.864	310.75
600.073	297.75
600.282	307.75
600.491	300.75
600.7	293.75
600.909	296.75
601.118	323.75
601.327	311.75
601.536	301.75
601.745	298.75
601.953	304.75
602.162	297.75
602.371	291.75
602.58	292.75
602.789	307.75
602.997	289.75
603.206	298.75
603.415	287.75
603.623	292.75
603.832	294.75
604.041	311.75
604.249	292.75
604.458	269.75
604.666	279.75
604.875	285.75
605.084	279.75
605.292	272.75
605.501	300.75
605.709	308.75
605.918	291.75
606.126	292.75
606.334	292.75
606.543	294.75
606.751	285.75
606.96	283.75
607.168	285.75
607.376	283.75
607.585	303.75
607.793	284.75
608.001	293.75
608.21	289.75
608.418	284.75
608.626	288.75
608.834	299.75
609.043	281.75
609.251	299.75
609.459	267.75
609.667	283.75
609.875	290.75
610.083	291.75
610.291	268.75
610.499	295.75
610.707	268.75
610.916	280.75
611.124	273.75
611.332	281.75
611.54	270.75
611.748	278.75
611.955	289.75
612.163	281.75
612.371	291.75
612.579	281.75
612.787	267.75
612.995	272.75
613.203	288.75
613.411	293.75
613.618	284.75
613.826	284.75
614.034	267.75
614.242	277.75
614.449	288.75
614.657	293.75
614.865	292.75
615.072	273.75
615.28	283.75
615.488	291.75
615.695	274.75
615.903	262.75
616.111	283.75
616.318	278.75
616.526	273.75
616.733	283.75
616.941	265.75
617.148	283.75
617.356	257.75
617.563	273.75
617.771	264.75
617.978	268.75
618.185	284.75
618.393	263.75
618.6	267.75
618.807	281.75
619.015	260.75
619.222	262.75
619.429	241.75
619.637	243.75
619.844	269.75
620.051	263.75
620.258	255.75
620.466	268.75
620.673	239.75
620.88	261.75
621.087	221.75
621.294	268.75
621.501	263.75
621.708	269.75
621.915	255.75
622.122	246.75
622.329	263.75
622.536	262.75
622.743	254.75
622.95	256.75
623.157	277.75
623.364	234.75
623.571	249.75
623.778	251.75
623.985	245.75
624.192	247.75
624.399	239.75
624.606	237.75
624.812	248.75
625.019	257.75
625.226	244.75
625.433	249.75
625.639	237.75
625.846	257.75
626.053	233.75
626.259	245.75
626.466	238.75
626.673	247.75
626.879	229.75
627.086	240.75
627.293	230.75
627.499	238.75
627.706	227.75
627.912	237.75
628.119	235.75
628.325	238.75
628.532	223.75
628.738	220.75
628.945	221.75
629.151	224.75
629.357	217.75
629.564	215.75
629.77	238.75
629.976	225.75
630.183	243.75
630.389	229.75
630.595	232.75
630.802	227.75
631.008	233.75
631.214	234.75
631.42	225.75
631.627	231.75
631.833	217.75
632.039	213.75
632.245	212.75
632.451	209.75
632.657	209.75
632.863	218.75
633.069	219.75
633.275	215.75
633.481	212.75
633.688	228.75
633.893	223.75
634.099	221.75
634.305	207.75
634.511	214.75
634.717	235.75
634.923	187.75
635.129	196.75
635.335	205.75
635.541	202.75
635.747	206.75
635.952	213.75
636.158	207.75
636.364	215.75
636.57	211.75
636.775	210.75
636.981	209.75
637.187	203.75
637.392	200.75
637.598	193.75
637.804	203.75
638.009	210.75
638.215	214.75
638.421	208.75
638.626	205.75
638.832	205.75
639.037	197.75
639.243	201.75
639.448	205.75
639.654	199.75
639.859	187.75
640.065	197.75
640.27	206.75
640.475	198.75
640.681	195.75
640.886	193.75
641.091	194.75
641.297	203.75
641.502	195.75
641.707	206.75
641.913	205.75
642.118	207.75
642.323	201.75
642.528	183.75
642.733	191.75
642.939	183.75
643.144	174.75
643.349	185.75
643.554	177.75
643.759	189.75
643.964	169.75
644.169	170.75
644.374	192.75
644.579	183.75
644.784	181.75
644.989	193.75
645.194	191.75
645.399	184.75
645.604	186.75
645.809	198.75
646.014	181.75
646.219	189.75
646.423	209.75
646.628	186.75
646.833	202.75
647.038	190.75
647.243	197.75
647.447	201.75
647.652	189.75
647.857	198.75
648.062	194.75
648.266	209.75
648.471	197.75
648.676	188.75
648.88	196.75
649.085	201.75
649.289	192.75
649.494	196.75
649.698	199.75
649.903	212.75
650.107	195.75
650.312	175.75
650.516	182.75
650.721	179.75
650.925	186.75
651.13	176.75
651.334	169.75
651.539	169.75
651.743	160.75
651.947	171.75
652.152	143.75
652.356	158.75
652.56	166.75
652.764	153.75
652.969	145.75
653.173	151.75
653.377	150.75
653.581	155.75
653.785	133.75
653.99	171.75
654.194	156.75
654.398	163.75
654.602	166.75
654.806	144.75
655.01	156.75
655.214	167.75
655.418	141.75
655.622	151.75
655.826	152.75
656.03	145.75
656.234	155.75
656.438	135.75
656.642	132.75
656.846	151.75
657.049	153.75
657.253	141.75
657.457	135.75
657.661	121.75
657.865	121.75
658.068	128.75
658.272	125.75
658.476	115.75
658.68	117.75
658.883	101.75
659.087	111.75
659.291	104.75
659.494	91.75
659.698	115.75
659.901	105.75
660.105	91.75
660.309	102.75
660.512	100.75
660.716	103.75
660.919	99.75
661.123	102.75
661.326	97.75
661.53	90.75
661.733	103.75
661.936	93.75
662.14	80.75
662.343	88.75
662.546	97.75
662.75	98.75
662.953	89.75
663.156	96.75
663.36	90.75
663.563	100.75
663.766	88.75
663.969	82.75
664.173	75.75
664.376	96.75
664.579	81.75
664.782	85.75
664.985	77.75
665.188	99.75
665.391	82.75
665.594	70.75
665.797	82.75
666	86.75
666.203	85.75
666.406	80.75
666.609	78.75
666.812	68.75
667.015	83.75
667.218	87.75
667.421	76.75
667.624	83.75
667.827	87.75
668.03	83.75
668.232	76.75
668.435	80.75
668.638	86.75
668.841	92.75
669.043	90.75
669.246	91.75
669.449	80.75
669.651	86.75
669.854	94.75
670.057	77.75
670.259	88.75
670.462	73.75
670.665	80.75
670.867	101.75
671.07	95.75
671.272	92.75
671.475	88.75
671.677	84.75
671.88	86.75
672.082	87.75
672.284	77.75
672.487	88.75
672.689	82.75
672.892	75.75
