Data from 1974.PennyLincolnUp.Lamp.En5.5.200Scan.071719.P1.Changed Mount._HRD10591_15-51-33-855.txt Node
Date: Thu Jul 18 15:51:33 EDT 2019
User: cochatt
Spectrometer: HR+D1059
Trigger mode: 1
Integration Time (sec): 1.000000E-1
Scans to average: 1
Electric dark correction enabled: true
Nonlinearity correction enabled: false
Boxcar width: 0
XAxis mode: Wavelengths
Number of Pixels in Spectrum: 2048
>>>>>Begin Spectral Data<<<<<
223.165	-26.31
223.4	-26.31
223.635	-26.31
223.869	-11.31
224.104	-17.31
224.338	-12.31
224.573	-20.31
224.808	-12.31
225.042	-0.31
225.277	-6.31
225.511	-12.31
225.746	13.69
225.98	-5.31
226.215	17.69
226.449	19.69
226.683	14.69
226.918	22.69
227.152	35.69
227.387	17.69
227.621	24.69
227.856	35.69
228.09	41.69
228.324	40.69
228.559	35.69
228.793	63.69
229.027	95.69
229.262	106.69
229.496	101.69
229.73	123.69
229.964	131.69
230.199	115.69
230.433	109.69
230.667	99.69
230.901	115.69
231.136	117.69
231.37	114.69
231.604	117.69
231.838	129.69
232.072	118.69
232.306	111.69
232.541	120.69
232.775	133.69
233.009	127.69
233.243	115.69
233.477	123.69
233.711	115.69
233.945	114.69
234.179	120.69
234.413	110.69
234.647	116.69
234.881	113.69
235.115	121.69
235.349	115.69
235.583	119.69
235.817	118.69
236.051	133.69
236.285	126.69
236.519	118.69
236.753	120.69
236.987	129.69
237.221	177.69
237.455	223.69
237.689	172.69
237.922	129.69
238.156	126.69
238.39	117.69
238.624	130.69
238.858	130.69
239.091	107.69
239.325	109.69
239.559	115.69
239.793	124.69
240.027	142.69
240.26	150.69
240.494	143.69
240.728	139.69
240.961	151.69
241.195	142.69
241.429	143.69
241.662	141.69
241.896	141.69
242.13	135.69
242.363	148.69
242.597	137.69
242.83	138.69
243.064	164.69
243.298	146.69
243.531	134.69
243.765	139.69
243.998	141.69
244.232	151.69
244.465	152.69
244.699	151.69
244.932	136.69
245.166	155.69
245.399	147.69
245.633	143.69
245.866	145.69
246.099	148.69
246.333	143.69
246.566	149.69
246.8	170.69
247.033	165.69
247.266	171.69
247.5	164.69
247.733	171.69
247.966	169.69
248.2	192.69
248.433	179.69
248.666	181.69
248.899	201.69
249.133	190.69
249.366	198.69
249.599	194.69
249.832	180.69
250.066	187.69
250.299	182.69
250.532	193.69
250.765	213.69
250.998	219.69
251.231	222.69
251.465	207.69
251.698	198.69
251.931	203.69
252.164	199.69
252.397	214.69
252.63	204.69
252.863	181.69
253.096	202.69
253.329	203.69
253.562	215.69
253.795	208.69
254.028	220.69
254.261	220.69
254.494	196.69
254.727	234.69
254.96	277.69
255.193	248.69
255.426	235.69
255.659	233.69
255.892	226.69
256.124	236.69
256.357	212.69
256.59	240.69
256.823	206.69
257.056	207.69
257.289	197.69
257.521	193.69
257.754	205.69
257.987	213.69
258.22	220.69
258.452	201.69
258.685	217.69
258.918	206.69
259.151	203.69
259.383	227.69
259.616	237.69
259.849	209.69
260.081	221.69
260.314	238.69
260.547	242.69
260.779	241.69
261.012	214.69
261.244	222.69
261.477	230.69
261.71	215.69
261.942	233.69
262.175	217.69
262.407	206.69
262.64	221.69
262.872	225.69
263.105	223.69
263.337	210.69
263.57	225.69
263.802	207.69
264.035	209.69
264.267	210.69
264.499	220.69
264.732	215.69
264.964	220.69
265.197	213.69
265.429	214.69
265.661	212.69
265.894	227.69
266.126	220.69
266.358	200.69
266.591	220.69
266.823	222.69
267.055	218.69
267.287	239.69
267.52	226.69
267.752	233.69
267.984	228.69
268.216	231.69
268.448	226.69
268.681	243.69
268.913	242.69
269.145	258.69
269.377	257.69
269.609	254.69
269.841	264.69
270.073	260.69
270.306	281.69
270.538	301.69
270.77	301.69
271.002	300.69
271.234	290.69
271.466	280.69
271.698	286.69
271.93	323.69
272.162	297.69
272.394	309.69
272.626	291.69
272.858	295.69
273.09	269.69
273.322	269.69
273.553	283.69
273.785	270.69
274.017	271.69
274.249	251.69
274.481	266.69
274.713	260.69
274.945	268.69
275.176	266.69
275.408	270.69
275.64	269.69
275.872	262.69
276.104	262.69
276.335	259.69
276.567	267.69
276.799	274.69
277.031	313.69
277.262	308.69
277.494	321.69
277.726	297.69
277.957	276.69
278.189	275.69
278.421	277.69
278.652	271.69
278.884	275.69
279.115	267.69
279.347	260.69
279.579	269.69
279.81	280.69
280.042	271.69
280.273	267.69
280.505	280.69
280.736	282.69
280.968	270.69
281.199	262.69
281.431	269.69
281.662	277.69
281.894	280.69
282.125	245.69
282.356	284.69
282.588	311.69
282.819	289.69
283.051	287.69
283.282	285.69
283.513	280.69
283.745	289.69
283.976	295.69
284.207	296.69
284.439	291.69
284.67	282.69
284.901	259.69
285.132	264.69
285.364	263.69
285.595	259.69
285.826	302.69
286.057	292.69
286.288	293.69
286.52	281.69
286.751	294.69
286.982	307.69
287.213	277.69
287.444	281.69
287.675	279.69
287.906	299.69
288.138	320.69
288.369	313.69
288.6	305.69
288.831	299.69
289.062	324.69
289.293	302.69
289.524	308.69
289.755	289.69
289.986	289.69
290.217	294.69
290.448	281.69
290.679	283.69
290.91	309.69
291.141	292.69
291.371	295.69
291.602	285.69
291.833	306.69
292.064	309.69
292.295	295.69
292.526	316.69
292.757	291.69
292.987	307.69
293.218	289.69
293.449	308.69
293.68	314.69
293.91	307.69
294.141	289.69
294.372	291.69
294.603	299.69
294.833	298.69
295.064	294.69
295.295	283.69
295.525	309.69
295.756	309.69
295.987	309.69
296.217	309.69
296.448	343.69
296.679	306.69
296.909	307.69
297.14	295.69
297.37	312.69
297.601	318.69
297.831	294.69
298.062	313.69
298.292	311.69
298.523	305.69
298.753	329.69
298.984	295.69
299.214	315.69
299.445	309.69
299.675	318.69
299.905	317.69
300.136	313.69
300.366	296.69
300.597	325.69
300.827	325.69
301.057	331.69
301.288	314.69
301.518	319.69
301.748	319.69
301.979	330.69
302.209	315.69
302.439	325.69
302.669	321.69
302.9	350.69
303.13	307.69
303.36	329.69
303.59	341.69
303.82	333.69
304.051	335.69
304.281	335.69
304.511	324.69
304.741	332.69
304.971	326.69
305.201	332.69
305.431	344.69
305.661	338.69
305.891	333.69
306.121	315.69
306.352	330.69
306.582	323.69
306.812	326.69
307.042	316.69
307.272	320.69
307.502	321.69
307.731	341.69
307.961	334.69
308.191	315.69
308.421	339.69
308.651	318.69
308.881	335.69
309.111	344.69
309.341	345.69
309.571	348.69
309.8	340.69
310.03	362.69
310.26	353.69
310.49	345.69
310.72	386.69
310.949	379.69
311.179	402.69
311.409	367.69
311.639	356.69
311.868	358.69
312.098	372.69
312.328	361.69
312.557	371.69
312.787	383.69
313.017	377.69
313.246	373.69
313.476	352.69
313.706	360.69
313.935	369.69
314.165	379.69
314.394	372.69
314.624	391.69
314.853	376.69
315.083	387.69
315.312	381.69
315.542	366.69
315.771	366.69
316.001	359.69
316.23	388.69
316.46	358.69
316.689	380.69
316.919	382.69
317.148	358.69
317.377	368.69
317.607	377.69
317.836	386.69
318.065	376.69
318.295	377.69
318.524	369.69
318.753	357.69
318.983	370.69
319.212	350.69
319.441	379.69
319.67	374.69
319.9	358.69
320.129	397.69
320.358	391.69
320.587	382.69
320.816	392.69
321.046	407.69
321.275	409.69
321.504	388.69
321.733	376.69
321.962	393.69
322.191	389.69
322.42	404.69
322.649	409.69
322.878	411.69
323.108	414.69
323.337	429.69
323.566	441.69
323.795	460.69
324.024	506.69
324.253	539.69
324.482	712.69
324.71	1113.69
324.939	1664.69
325.168	1429.69
325.397	746.69
325.626	523.69
325.855	469.69
326.084	433.69
326.313	428.69
326.542	443.69
326.77	482.69
326.999	537.69
327.228	681.69
327.457	993.69
327.686	1238.69
327.914	822.69
328.143	566.69
328.372	521.69
328.6	491.69
328.829	489.69
329.058	494.69
329.287	496.69
329.515	491.69
329.744	473.69
329.972	447.69
330.201	483.69
330.43	519.69
330.658	509.69
330.887	527.69
331.115	501.69
331.344	458.69
331.572	479.69
331.801	472.69
332.03	456.69
332.258	459.69
332.486	453.69
332.715	460.69
332.943	433.69
333.172	456.69
333.4	470.69
333.629	480.69
333.857	461.69
334.085	489.69
334.314	493.69
334.542	487.69
334.771	514.69
334.999	474.69
335.227	483.69
335.455	459.69
335.684	455.69
335.912	463.69
336.14	470.69
336.369	474.69
336.597	441.69
336.825	448.69
337.053	457.69
337.281	458.69
337.51	445.69
337.738	441.69
337.966	443.69
338.194	441.69
338.422	437.69
338.65	426.69
338.878	429.69
339.106	431.69
339.334	441.69
339.562	417.69
339.79	411.69
340.018	397.69
340.246	413.69
340.474	439.69
340.702	432.69
340.93	432.69
341.158	433.69
341.386	430.69
341.614	417.69
341.842	435.69
342.07	423.69
342.298	415.69
342.526	439.69
342.754	411.69
342.981	427.69
343.209	431.69
343.437	409.69
343.665	440.69
343.893	450.69
344.12	476.69
344.348	450.69
344.576	459.69
344.804	455.69
345.031	435.69
345.259	433.69
345.487	427.69
345.714	423.69
345.942	422.69
346.17	410.69
346.397	411.69
346.625	413.69
346.853	424.69
347.08	414.69
347.308	396.69
347.535	418.69
347.763	451.69
347.99	399.69
348.218	406.69
348.445	407.69
348.673	431.69
348.9	425.69
349.128	403.69
349.355	406.69
349.583	425.69
349.81	404.69
350.037	386.69
350.265	408.69
350.492	412.69
350.72	408.69
350.947	403.69
351.174	418.69
351.402	418.69
351.629	423.69
351.856	422.69
352.083	412.69
352.311	437.69
352.538	429.69
352.765	443.69
352.992	413.69
353.22	417.69
353.447	420.69
353.674	421.69
353.901	397.69
354.128	411.69
354.355	395.69
354.583	403.69
354.81	389.69
355.037	428.69
355.264	394.69
355.491	404.69
355.718	400.69
355.945	406.69
356.172	404.69
356.399	411.69
356.626	399.69
356.853	401.69
357.08	379.69
357.307	418.69
357.534	391.69
357.761	410.69
357.988	405.69
358.215	405.69
358.441	404.69
358.668	406.69
358.895	412.69
359.122	420.69
359.349	409.69
359.576	400.69
359.802	421.69
360.029	459.69
360.256	452.69
360.483	442.69
360.709	415.69
360.936	413.69
361.163	411.69
361.39	432.69
361.616	427.69
361.843	399.69
362.07	410.69
362.296	412.69
362.523	433.69
362.749	408.69
362.976	397.69
363.203	437.69
363.429	422.69
363.656	414.69
363.882	398.69
364.109	395.69
364.335	405.69
364.562	415.69
364.788	413.69
365.015	411.69
365.241	435.69
365.468	409.69
365.694	409.69
365.92	411.69
366.147	415.69
366.373	416.69
366.599	415.69
366.826	401.69
367.052	409.69
367.278	403.69
367.505	407.69
367.731	422.69
367.957	390.69
368.184	404.69
368.41	421.69
368.636	430.69
368.862	414.69
369.089	408.69
369.315	413.69
369.541	417.69
369.767	404.69
369.993	427.69
370.219	408.69
370.445	422.69
370.672	387.69
370.898	420.69
371.124	399.69
371.35	412.69
371.576	433.69
371.802	426.69
372.028	424.69
372.254	406.69
372.48	419.69
372.706	428.69
372.932	426.69
373.158	427.69
373.384	437.69
373.61	428.69
373.835	427.69
374.061	417.69
374.287	427.69
374.513	428.69
374.739	421.69
374.965	438.69
375.191	427.69
375.416	459.69
375.642	421.69
375.868	430.69
376.094	440.69
376.319	426.69
376.545	419.69
376.771	421.69
376.997	424.69
377.222	436.69
377.448	407.69
377.674	412.69
377.899	417.69
378.125	425.69
378.35	424.69
378.576	411.69
378.802	417.69
379.027	426.69
379.253	435.69
379.478	411.69
379.704	409.69
379.929	422.69
380.155	429.69
380.38	427.69
380.606	435.69
380.831	427.69
381.057	425.69
381.282	430.69
381.507	429.69
381.733	419.69
381.958	452.69
382.184	450.69
382.409	436.69
382.634	438.69
382.86	437.69
383.085	430.69
383.31	423.69
383.535	435.69
383.761	447.69
383.986	455.69
384.211	429.69
384.436	455.69
384.662	457.69
384.887	457.69
385.112	460.69
385.337	499.69
385.562	457.69
385.787	458.69
386.013	478.69
386.238	484.69
386.463	473.69
386.688	482.69
386.913	473.69
387.138	479.69
387.363	462.69
387.588	472.69
387.813	476.69
388.038	491.69
388.263	478.69
388.488	480.69
388.713	481.69
388.938	474.69
389.163	488.69
389.387	479.69
389.612	471.69
389.837	470.69
390.062	490.69
390.287	465.69
390.512	455.69
390.736	459.69
390.961	475.69
391.186	474.69
391.411	481.69
391.636	499.69
391.86	488.69
392.085	497.69
392.31	497.69
392.534	507.69
392.759	495.69
392.984	481.69
393.208	485.69
393.433	497.69
393.658	480.69
393.882	466.69
394.107	485.69
394.331	500.69
394.556	468.69
394.78	480.69
395.005	490.69
395.229	500.69
395.454	494.69
395.678	510.69
395.903	494.69
396.127	526.69
396.352	550.69
396.576	513.69
396.801	502.69
397.025	504.69
397.249	510.69
397.474	490.69
397.698	502.69
397.922	513.69
398.147	531.69
398.371	530.69
398.595	549.69
398.82	557.69
399.044	557.69
399.268	583.69
399.492	621.69
399.717	665.69
399.941	690.69
400.165	707.69
400.389	678.69
400.613	619.69
400.837	599.69
401.062	567.69
401.286	580.69
401.51	551.69
401.734	557.69
401.958	568.69
402.182	567.69
402.406	556.69
402.63	563.69
402.854	590.69
403.078	551.69
403.302	571.69
403.526	599.69
403.75	593.69
403.974	592.69
404.198	587.69
404.422	597.69
404.645	589.69
404.869	597.69
405.093	631.69
405.317	659.69
405.541	682.69
405.765	641.69
405.988	619.69
406.212	599.69
406.436	600.69
406.66	608.69
406.883	613.69
407.107	658.69
407.331	680.69
407.555	761.69
407.778	754.69
408.002	690.69
408.226	643.69
408.449	649.69
408.673	625.69
408.896	669.69
409.12	693.69
409.344	653.69
409.567	599.69
409.791	605.69
410.014	570.69
410.238	570.69
410.461	590.69
410.685	571.69
410.908	600.69
411.132	653.69
411.355	664.69
411.578	633.69
411.802	599.69
412.025	571.69
412.249	589.69
412.472	605.69
412.695	629.69
412.919	617.69
413.142	600.69
413.365	581.69
413.589	575.69
413.812	556.69
414.035	561.69
414.258	559.69
414.482	558.69
414.705	542.69
414.928	555.69
415.151	578.69
415.374	561.69
415.597	526.69
415.821	539.69
416.044	521.69
416.267	532.69
416.49	548.69
416.713	551.69
416.936	539.69
417.159	543.69
417.382	560.69
417.605	550.69
417.828	563.69
418.051	570.69
418.274	564.69
418.497	561.69
418.72	535.69
418.943	533.69
419.166	574.69
419.389	597.69
419.611	594.69
419.834	585.69
420.057	579.69
420.28	572.69
420.503	565.69
420.726	561.69
420.948	577.69
421.171	611.69
421.394	655.69
421.617	589.69
421.839	563.69
422.062	574.69
422.285	576.69
422.507	634.69
422.73	713.69
422.953	690.69
423.175	611.69
423.398	604.69
423.621	604.69
423.843	617.69
424.066	614.69
424.288	612.69
424.511	629.69
424.733	648.69
424.956	764.69
425.178	728.69
425.401	704.69
425.623	731.69
425.846	647.69
426.068	607.69
426.291	576.69
426.513	589.69
426.735	598.69
426.958	651.69
427.18	719.69
427.402	834.69
427.625	925.69
427.847	765.69
428.069	691.69
428.292	627.69
428.514	590.69
428.736	576.69
428.958	562.69
429.181	559.69
429.403	536.69
429.625	539.69
429.847	590.69
430.069	654.69
430.292	669.69
430.514	563.69
430.736	558.69
430.958	539.69
431.18	527.69
431.402	529.69
431.624	539.69
431.846	518.69
432.068	519.69
432.29	535.69
432.512	526.69
432.734	543.69
432.956	527.69
433.178	534.69
433.4	541.69
433.622	549.69
433.844	521.69
434.066	532.69
434.287	524.69
434.509	524.69
434.731	539.69
434.953	545.69
435.175	565.69
435.397	613.69
435.618	584.69
435.84	647.69
436.062	721.69
436.284	793.69
436.505	647.69
436.727	608.69
436.949	582.69
437.17	561.69
437.392	567.69
437.614	549.69
437.835	576.69
438.057	657.69
438.278	766.69
438.5	761.69
438.721	849.69
438.943	813.69
439.165	656.69
439.386	610.69
439.608	599.69
439.829	600.69
440.05	606.69
440.272	627.69
440.493	623.69
440.715	602.69
440.936	587.69
441.158	549.69
441.379	553.69
441.6	577.69
441.822	605.69
442.043	619.69
442.264	719.69
442.486	757.69
442.707	627.69
442.928	618.69
443.149	617.69
443.371	605.69
443.592	671.69
443.813	783.69
444.034	858.69
444.255	701.69
444.476	641.69
444.698	621.69
444.919	615.69
445.14	731.69
445.361	672.69
445.582	664.69
445.803	671.69
446.024	756.69
446.245	757.69
446.466	729.69
446.687	605.69
446.908	588.69
447.129	566.69
447.35	552.69
447.571	563.69
447.792	539.69
448.013	547.69
448.234	545.69
448.455	605.69
448.675	716.69
448.896	819.69
449.117	709.69
449.338	653.69
449.559	753.69
449.779	885.69
450	696.69
450.221	614.69
450.442	559.69
450.662	521.69
450.883	529.69
451.104	515.69
451.324	520.69
451.545	513.69
451.766	528.69
451.986	486.69
452.207	484.69
452.428	471.69
452.648	493.69
452.869	481.69
453.089	525.69
453.31	499.69
453.53	473.69
453.751	466.69
453.971	494.69
454.192	492.69
454.412	470.69
454.633	497.69
454.853	482.69
455.073	486.69
455.294	502.69
455.514	562.69
455.734	570.69
455.955	490.69
456.175	462.69
456.395	466.69
456.616	446.69
456.836	477.69
457.056	446.69
457.276	462.69
457.497	485.69
457.717	466.69
457.937	475.69
458.157	479.69
458.377	478.69
458.598	502.69
458.818	546.69
459.038	604.69
459.258	631.69
459.478	547.69
459.698	519.69
459.918	541.69
460.138	546.69
460.358	533.69
460.578	537.69
460.798	549.69
461.018	559.69
461.238	546.69
461.458	558.69
461.678	546.69
461.898	546.69
462.118	570.69
462.338	561.69
462.558	569.69
462.777	602.69
462.997	611.69
463.217	634.69
463.437	636.69
463.657	629.69
463.876	606.69
464.096	622.69
464.316	608.69
464.536	619.69
464.755	595.69
464.975	589.69
465.195	577.69
465.414	649.69
465.634	602.69
465.854	537.69
466.073	519.69
466.293	521.69
466.512	503.69
466.732	526.69
466.951	499.69
467.171	501.69
467.391	514.69
467.61	526.69
467.829	527.69
468.049	523.69
468.268	503.69
468.488	487.69
468.707	518.69
468.927	508.69
469.146	502.69
469.365	520.69
469.585	492.69
469.804	507.69
470.023	510.69
470.243	528.69
470.462	521.69
470.681	525.69
470.901	509.69
471.12	515.69
471.339	546.69
471.558	535.69
471.777	521.69
471.997	506.69
472.216	527.69
472.435	533.69
472.654	525.69
472.873	504.69
473.092	518.69
473.311	497.69
473.53	517.69
473.749	503.69
473.968	563.69
474.187	644.69
474.406	652.69
474.625	566.69
474.844	519.69
475.063	513.69
475.282	523.69
475.501	528.69
475.72	532.69
475.939	557.69
476.158	546.69
476.377	515.69
476.596	516.69
476.814	547.69
477.033	556.69
477.252	528.69
477.471	545.69
477.69	544.69
477.908	556.69
478.127	571.69
478.346	566.69
478.564	556.69
478.783	591.69
479.002	599.69
479.22	593.69
479.439	601.69
479.658	628.69
479.876	613.69
480.095	635.69
480.313	648.69
480.532	652.69
480.751	635.69
480.969	654.69
481.188	646.69
481.406	669.69
481.624	643.69
481.843	639.69
482.061	610.69
482.28	615.69
482.498	611.69
482.717	589.69
482.935	607.69
483.153	599.69
483.372	593.69
483.59	565.69
483.808	589.69
484.027	585.69
484.245	614.69
484.463	606.69
484.681	623.69
484.9	620.69
485.118	591.69
485.336	635.69
485.554	633.69
485.772	635.69
485.99	605.69
486.209	627.69
486.427	640.69
486.645	645.69
486.863	641.69
487.081	631.69
487.299	634.69
487.517	622.69
487.735	619.69
487.953	615.69
488.171	642.69
488.389	670.69
488.607	638.69
488.825	635.69
489.043	626.69
489.261	661.69
489.479	666.69
489.696	657.69
489.914	675.69
490.132	650.69
490.35	660.69
490.568	677.69
490.786	682.69
491.003	709.69
491.221	719.69
491.439	714.69
491.657	717.69
491.874	713.69
492.092	745.69
492.31	744.69
492.527	729.69
492.745	737.69
492.963	758.69
493.18	769.69
493.398	773.69
493.615	787.69
493.833	753.69
494.05	767.69
494.268	767.69
494.485	759.69
494.703	729.69
494.92	739.69
495.138	753.69
495.355	750.69
495.573	755.69
495.79	765.69
496.008	751.69
496.225	745.69
496.442	788.69
496.66	781.69
496.877	783.69
497.094	786.69
497.312	795.69
497.529	794.69
497.746	813.69
497.963	797.69
498.181	805.69
498.398	859.69
498.615	855.69
498.832	902.69
499.049	903.69
499.267	926.69
499.484	995.69
499.701	1034.69
499.918	1075.69
500.135	1150.69
500.352	1204.69
500.569	1231.69
500.786	1221.69
501.003	1219.69
501.22	1123.69
501.437	1083.69
501.654	1066.69
501.871	1030.69
502.088	975.69
502.305	950.69
502.522	886.69
502.739	857.69
502.956	867.69
503.172	833.69
503.389	813.69
503.606	826.69
503.823	807.69
504.04	782.69
504.256	781.69
504.473	784.69
504.69	775.69
504.907	756.69
505.123	740.69
505.34	733.69
505.557	750.69
505.773	725.69
505.99	736.69
506.207	733.69
506.423	726.69
506.64	705.69
506.856	710.69
507.073	692.69
507.289	691.69
507.506	711.69
507.722	691.69
507.939	701.69
508.155	665.69
508.372	679.69
508.588	671.69
508.805	650.69
509.021	684.69
509.238	674.69
509.454	674.69
509.67	694.69
509.887	679.69
510.103	656.69
510.319	658.69
510.536	721.69
510.752	967.69
510.968	874.69
511.184	652.69
511.401	648.69
511.617	609.69
511.833	622.69
512.049	609.69
512.265	628.69
512.481	599.69
512.698	591.69
512.914	619.69
513.13	609.69
513.346	622.69
513.562	620.69
513.778	630.69
513.994	637.69
514.21	639.69
514.426	683.69
514.642	672.69
514.858	676.69
515.074	698.69
515.29	778.69
515.506	964.69
515.721	873.69
515.937	707.69
516.153	670.69
516.369	666.69
516.585	667.69
516.801	680.69
517.016	664.69
517.232	668.69
517.448	679.69
517.664	687.69
517.879	701.69
518.095	696.69
518.311	671.69
518.527	650.69
518.742	650.69
518.958	670.69
519.173	645.69
519.389	631.69
519.605	626.69
519.82	614.69
520.036	629.69
520.251	652.69
520.467	662.69
520.682	638.69
520.898	650.69
521.113	664.69
521.329	662.69
521.544	708.69
521.76	807.69
521.975	1144.69
522.19	1147.69
522.406	781.69
522.621	655.69
522.836	600.69
523.052	587.69
523.267	581.69
523.482	567.69
523.698	587.69
523.913	587.69
524.128	568.69
524.343	571.69
524.559	552.69
524.774	579.69
524.989	554.69
525.204	579.69
525.419	548.69
525.634	561.69
525.849	550.69
526.064	547.69
526.28	539.69
526.495	511.69
526.71	539.69
526.925	513.69
527.14	508.69
527.355	520.69
527.57	505.69
527.785	538.69
527.999	515.69
528.214	504.69
528.429	499.69
528.644	522.69
528.859	525.69
529.074	539.69
529.289	537.69
529.503	577.69
529.718	566.69
529.933	553.69
530.148	537.69
530.363	528.69
530.577	514.69
530.792	519.69
531.007	504.69
531.221	524.69
531.436	529.69
531.651	531.69
531.865	526.69
532.08	510.69
532.295	510.69
532.509	516.69
532.724	503.69
532.938	517.69
533.153	503.69
533.367	499.69
533.582	531.69
533.796	518.69
534.011	501.69
534.225	489.69
534.44	494.69
534.654	488.69
534.868	494.69
535.083	503.69
535.297	517.69
535.511	507.69
535.726	512.69
535.94	510.69
536.154	504.69
536.369	499.69
536.583	492.69
536.797	509.69
537.011	481.69
537.225	500.69
537.44	497.69
537.654	502.69
537.868	485.69
538.082	485.69
538.296	490.69
538.51	507.69
538.724	497.69
538.938	491.69
539.153	479.69
539.367	476.69
539.581	511.69
539.795	498.69
540.009	492.69
540.222	475.69
540.436	465.69
540.65	478.69
540.864	492.69
541.078	496.69
541.292	498.69
541.506	488.69
541.72	469.69
541.934	495.69
542.147	481.69
542.361	475.69
542.575	486.69
542.789	459.69
543.002	481.69
543.216	491.69
543.43	491.69
543.644	489.69
543.857	478.69
544.071	486.69
544.285	502.69
544.498	507.69
544.712	513.69
544.925	482.69
545.139	481.69
545.352	490.69
545.566	475.69
545.779	467.69
545.993	496.69
546.206	463.69
546.42	485.69
546.633	471.69
546.847	482.69
547.06	478.69
547.274	470.69
547.487	463.69
547.7	476.69
547.914	497.69
548.127	462.69
548.34	473.69
548.554	472.69
548.767	468.69
548.98	467.69
549.193	489.69
549.407	498.69
549.62	478.69
549.833	487.69
550.046	504.69
550.259	483.69
550.473	482.69
550.686	486.69
550.899	482.69
551.112	454.69
551.325	474.69
551.538	460.69
551.751	476.69
551.964	483.69
552.177	463.69
552.39	473.69
552.603	466.69
552.816	477.69
553.029	513.69
553.242	493.69
553.455	494.69
553.667	497.69
553.88	494.69
554.093	501.69
554.306	497.69
554.519	483.69
554.732	475.69
554.944	450.69
555.157	459.69
555.37	462.69
555.583	477.69
555.795	490.69
556.008	442.69
556.221	453.69
556.433	451.69
556.646	445.69
556.859	429.69
557.071	446.69
557.284	437.69
557.496	450.69
557.709	434.69
557.921	446.69
558.134	415.69
558.346	410.69
558.559	427.69
558.771	447.69
558.984	418.69
559.196	442.69
559.409	427.69
559.621	428.69
559.833	426.69
560.046	408.69
560.258	414.69
560.47	431.69
560.683	424.69
560.895	425.69
561.107	413.69
561.32	435.69
561.532	418.69
561.744	399.69
561.956	411.69
562.168	428.69
562.381	437.69
562.593	426.69
562.805	426.69
563.017	424.69
563.229	428.69
563.441	450.69
563.653	452.69
563.865	421.69
564.077	412.69
564.289	454.69
564.501	454.69
564.713	453.69
564.925	440.69
565.137	470.69
565.349	478.69
565.561	487.69
565.773	482.69
565.985	476.69
566.197	505.69
566.408	492.69
566.62	545.69
566.832	561.69
567.044	568.69
567.255	541.69
567.467	563.69
567.679	571.69
567.891	586.69
568.102	601.69
568.314	574.69
568.526	553.69
568.737	523.69
568.949	516.69
569.161	505.69
569.372	456.69
569.584	463.69
569.795	467.69
570.007	457.69
570.218	444.69
570.43	445.69
570.641	419.69
570.853	421.69
571.064	425.69
571.276	422.69
571.487	399.69
571.698	425.69
571.91	389.69
572.121	396.69
572.333	374.69
572.544	378.69
572.755	387.69
572.966	379.69
573.178	379.69
573.389	356.69
573.6	378.69
573.811	377.69
574.023	389.69
574.234	367.69
574.445	392.69
574.656	364.69
574.867	355.69
575.078	369.69
575.289	365.69
575.501	366.69
575.712	335.69
575.923	336.69
576.134	379.69
576.345	370.69
576.556	366.69
576.767	347.69
576.978	353.69
577.188	359.69
577.399	341.69
577.61	367.69
577.821	370.69
578.032	345.69
578.243	346.69
578.454	478.69
578.665	407.69
578.875	343.69
579.086	322.69
579.297	339.69
579.508	334.69
579.718	350.69
579.929	357.69
580.14	329.69
580.35	344.69
580.561	361.69
580.772	331.69
580.982	325.69
581.193	351.69
581.403	330.69
581.614	338.69
581.825	333.69
582.035	327.69
582.246	331.69
582.456	322.69
582.667	327.69
582.877	320.69
583.087	324.69
583.298	325.69
583.508	334.69
583.719	325.69
583.929	312.69
584.139	313.69
584.35	330.69
584.56	314.69
584.77	328.69
584.981	336.69
585.191	346.69
585.401	312.69
585.611	312.69
585.821	334.69
586.032	330.69
586.242	303.69
586.452	316.69
586.662	301.69
586.872	310.69
587.082	345.69
587.292	313.69
587.502	322.69
587.713	326.69
587.923	320.69
588.133	310.69
588.343	344.69
588.553	299.69
588.762	325.69
588.972	330.69
589.182	335.69
589.392	324.69
589.602	324.69
589.812	331.69
590.022	322.69
590.232	307.69
590.441	308.69
590.651	316.69
590.861	335.69
591.071	332.69
591.281	330.69
591.49	339.69
591.7	329.69
591.91	348.69
592.119	333.69
592.329	346.69
592.539	340.69
592.748	367.69
592.958	359.69
593.167	362.69
593.377	343.69
593.587	356.69
593.796	354.69
594.006	339.69
594.215	346.69
594.424	352.69
594.634	361.69
594.843	338.69
595.053	359.69
595.262	323.69
595.472	332.69
595.681	329.69
595.89	316.69
596.1	304.69
596.309	326.69
596.518	297.69
596.727	317.69
596.937	318.69
597.146	305.69
597.355	312.69
597.564	292.69
597.774	299.69
597.983	294.69
598.192	286.69
598.401	290.69
598.61	310.69
598.819	294.69
599.028	293.69
599.237	290.69
599.446	277.69
599.655	282.69
599.864	299.69
600.073	312.69
600.282	274.69
600.491	280.69
600.7	277.69
600.909	286.69
601.118	281.69
601.327	277.69
601.536	283.69
601.745	277.69
601.953	275.69
602.162	271.69
602.371	266.69
602.58	285.69
602.789	279.69
602.997	280.69
603.206	264.69
603.415	271.69
603.623	261.69
603.832	272.69
604.041	265.69
604.249	253.69
604.458	256.69
604.666	282.69
604.875	276.69
605.084	266.69
605.292	277.69
605.501	273.69
605.709	270.69
605.918	276.69
606.126	250.69
606.334	277.69
606.543	265.69
606.751	266.69
606.96	283.69
607.168	280.69
607.376	265.69
607.585	268.69
607.793	271.69
608.001	263.69
608.21	267.69
608.418	281.69
608.626	262.69
608.834	259.69
609.043	259.69
609.251	268.69
609.459	263.69
609.667	261.69
609.875	251.69
610.083	272.69
610.291	266.69
610.499	269.69
610.707	271.69
610.916	275.69
611.124	284.69
611.332	269.69
611.54	280.69
611.748	272.69
611.955	283.69
612.163	259.69
612.371	286.69
612.579	249.69
612.787	267.69
612.995	265.69
613.203	283.69
613.411	251.69
613.618	258.69
613.826	270.69
614.034	262.69
614.242	278.69
614.449	266.69
614.657	261.69
614.865	251.69
615.072	262.69
615.28	258.69
615.488	239.69
615.695	268.69
615.903	266.69
616.111	249.69
616.318	268.69
616.526	266.69
616.733	261.69
616.941	246.69
617.148	279.69
617.356	262.69
617.563	265.69
617.771	266.69
617.978	258.69
618.185	266.69
618.393	250.69
618.6	260.69
618.807	268.69
619.015	262.69
619.222	246.69
619.429	239.69
619.637	238.69
619.844	250.69
620.051	246.69
620.258	249.69
620.466	247.69
620.673	247.69
620.88	236.69
621.087	245.69
621.294	261.69
621.501	235.69
621.708	241.69
621.915	240.69
622.122	248.69
622.329	246.69
622.536	238.69
622.743	235.69
622.95	226.69
623.157	237.69
623.364	248.69
623.571	237.69
623.778	244.69
623.985	246.69
624.192	237.69
624.399	234.69
624.606	232.69
624.812	253.69
625.019	236.69
625.226	235.69
625.433	242.69
625.639	222.69
625.846	222.69
626.053	236.69
626.259	210.69
626.466	221.69
626.673	242.69
626.879	204.69
627.086	222.69
627.293	231.69
627.499	211.69
627.706	222.69
627.912	222.69
628.119	207.69
628.325	209.69
628.532	233.69
628.738	218.69
628.945	208.69
629.151	232.69
629.357	215.69
629.564	215.69
629.77	229.69
629.976	207.69
630.183	199.69
630.389	199.69
630.595	216.69
630.802	225.69
631.008	213.69
631.214	203.69
631.42	203.69
631.627	205.69
631.833	212.69
632.039	190.69
632.245	203.69
632.451	225.69
632.657	209.69
632.863	206.69
633.069	211.69
633.275	214.69
633.481	196.69
633.688	189.69
633.893	199.69
634.099	203.69
634.305	210.69
634.511	196.69
634.717	182.69
634.923	194.69
635.129	191.69
635.335	202.69
635.541	186.69
635.747	206.69
635.952	210.69
636.158	194.69
636.364	198.69
636.57	207.69
636.775	201.69
636.981	196.69
637.187	211.69
637.392	185.69
637.598	204.69
637.804	204.69
638.009	187.69
638.215	182.69
638.421	190.69
638.626	210.69
638.832	197.69
639.037	209.69
639.243	182.69
639.448	192.69
639.654	196.69
639.859	172.69
640.065	193.69
640.27	179.69
640.475	186.69
640.681	179.69
640.886	169.69
641.091	180.69
641.297	184.69
641.502	190.69
641.707	183.69
641.913	175.69
642.118	188.69
642.323	181.69
642.528	193.69
642.733	185.69
642.939	193.69
643.144	177.69
643.349	188.69
643.554	185.69
643.759	168.69
643.964	196.69
644.169	191.69
644.374	182.69
644.579	186.69
644.784	174.69
644.989	190.69
645.194	172.69
645.399	177.69
645.604	186.69
645.809	175.69
646.014	173.69
646.219	185.69
646.423	171.69
646.628	183.69
646.833	172.69
647.038	168.69
647.243	173.69
647.447	192.69
647.652	178.69
647.857	199.69
648.062	179.69
648.266	183.69
648.471	191.69
648.676	195.69
648.88	197.69
649.085	182.69
649.289	190.69
649.494	176.69
649.698	203.69
649.903	202.69
650.107	181.69
650.312	173.69
650.516	177.69
650.721	167.69
650.925	143.69
651.13	148.69
651.334	164.69
651.539	152.69
651.743	147.69
651.947	160.69
652.152	150.69
652.356	142.69
652.56	164.69
652.764	149.69
652.969	148.69
653.173	143.69
653.377	138.69
653.581	167.69
653.785	135.69
653.99	152.69
654.194	157.69
654.398	145.69
654.602	150.69
654.806	140.69
655.01	147.69
655.214	149.69
655.418	151.69
655.622	133.69
655.826	142.69
656.03	150.69
656.234	151.69
656.438	137.69
656.642	131.69
656.846	126.69
657.049	133.69
657.253	131.69
657.457	134.69
657.661	127.69
657.865	118.69
658.068	117.69
658.272	121.69
658.476	118.69
658.68	110.69
658.883	109.69
659.087	102.69
659.291	92.69
659.494	106.69
659.698	97.69
659.901	106.69
660.105	99.69
660.309	104.69
660.512	99.69
660.716	95.69
660.919	99.69
661.123	93.69
661.326	93.69
661.53	92.69
661.733	89.69
661.936	89.69
662.14	90.69
662.343	102.69
662.546	81.69
662.75	95.69
662.953	84.69
663.156	90.69
663.36	90.69
663.563	93.69
663.766	85.69
663.969	97.69
664.173	87.69
664.376	99.69
664.579	92.69
664.782	82.69
664.985	77.69
665.188	73.69
665.391	90.69
665.594	78.69
665.797	76.69
666	92.69
666.203	78.69
666.406	82.69
666.609	92.69
666.812	89.69
667.015	78.69
667.218	96.69
667.421	88.69
667.624	77.69
667.827	93.69
668.03	94.69
668.232	88.69
668.435	78.69
668.638	74.69
668.841	82.69
669.043	85.69
669.246	70.69
669.449	76.69
669.651	92.69
669.854	84.69
670.057	90.69
670.259	82.69
670.462	93.69
670.665	91.69
670.867	91.69
671.07	107.69
671.272	92.69
671.475	81.69
671.677	93.69
671.88	86.69
672.082	96.69
672.284	94.69
672.487	84.69
672.689	84.69
672.892	78.69
