Data from 1974.PennyLincolnUp.Lamp.En5.5.200Scan.071719.P1.Changed Mount._HRD10591_15-53-05-857.txt Node
Date: Thu Jul 18 15:53:05 EDT 2019
User: cochatt
Spectrometer: HR+D1059
Trigger mode: 1
Integration Time (sec): 1.000000E-1
Scans to average: 1
Electric dark correction enabled: true
Nonlinearity correction enabled: false
Boxcar width: 0
XAxis mode: Wavelengths
Number of Pixels in Spectrum: 2048
>>>>>Begin Spectral Data<<<<<
223.165	-18.12
223.4	-18.12
223.635	-18.12
223.869	-24.12
224.104	-12.12
224.338	-23.12
224.573	-5.12
224.808	-4.12
225.042	2.88
225.277	-4.12
225.511	1.88
225.746	12.88
225.98	-12.12
226.215	10.88
226.449	15.88
226.683	25.88
226.918	7.88
227.152	24.88
227.387	13.88
227.621	40.88
227.856	42.88
228.09	48.88
228.324	55.88
228.559	38.88
228.793	58.88
229.027	89.88
229.262	98.88
229.496	128.88
229.73	130.88
229.964	164.88
230.199	140.88
230.433	120.88
230.667	116.88
230.901	128.88
231.136	102.88
231.37	119.88
231.604	118.88
231.838	117.88
232.072	120.88
232.306	113.88
232.541	111.88
232.775	123.88
233.009	115.88
233.243	121.88
233.477	122.88
233.711	117.88
233.945	129.88
234.179	134.88
234.413	135.88
234.647	113.88
234.881	104.88
235.115	112.88
235.349	140.88
235.583	135.88
235.817	140.88
236.051	130.88
236.285	130.88
236.519	129.88
236.753	126.88
236.987	147.88
237.221	198.88
237.455	229.88
237.689	206.88
237.922	148.88
238.156	144.88
238.39	135.88
238.624	126.88
238.858	130.88
239.091	126.88
239.325	130.88
239.559	118.88
239.793	131.88
240.027	133.88
240.26	153.88
240.494	165.88
240.728	164.88
240.961	159.88
241.195	156.88
241.429	157.88
241.662	138.88
241.896	150.88
242.13	149.88
242.363	152.88
242.597	155.88
242.83	143.88
243.064	158.88
243.298	153.88
243.531	149.88
243.765	146.88
243.998	146.88
244.232	142.88
244.465	157.88
244.699	149.88
244.932	154.88
245.166	153.88
245.399	153.88
245.633	167.88
245.866	163.88
246.099	162.88
246.333	161.88
246.566	170.88
246.8	164.88
247.033	170.88
247.266	162.88
247.5	168.88
247.733	180.88
247.966	179.88
248.2	185.88
248.433	177.88
248.666	185.88
248.899	202.88
249.133	212.88
249.366	200.88
249.599	190.88
249.832	198.88
250.066	174.88
250.299	203.88
250.532	199.88
250.765	212.88
250.998	239.88
251.231	247.88
251.465	232.88
251.698	240.88
251.931	206.88
252.164	194.88
252.397	203.88
252.63	206.88
252.863	224.88
253.096	243.88
253.329	258.88
253.562	230.88
253.795	234.88
254.028	220.88
254.261	230.88
254.494	219.88
254.727	259.88
254.96	308.88
255.193	290.88
255.426	248.88
255.659	246.88
255.892	240.88
256.124	251.88
256.357	236.88
256.59	234.88
256.823	242.88
257.056	228.88
257.289	222.88
257.521	225.88
257.754	210.88
257.987	219.88
258.22	222.88
258.452	221.88
258.685	197.88
258.918	228.88
259.151	237.88
259.383	242.88
259.616	233.88
259.849	234.88
260.081	270.88
260.314	252.88
260.547	281.88
260.779	274.88
261.012	253.88
261.244	260.88
261.477	238.88
261.71	258.88
261.942	226.88
262.175	239.88
262.407	253.88
262.64	232.88
262.872	246.88
263.105	237.88
263.337	217.88
263.57	211.88
263.802	238.88
264.035	224.88
264.267	223.88
264.499	238.88
264.732	244.88
264.964	234.88
265.197	221.88
265.429	242.88
265.661	245.88
265.894	244.88
266.126	237.88
266.358	240.88
266.591	240.88
266.823	243.88
267.055	249.88
267.287	249.88
267.52	234.88
267.752	241.88
267.984	260.88
268.216	258.88
268.448	259.88
268.681	276.88
268.913	267.88
269.145	272.88
269.377	310.88
269.609	272.88
269.841	292.88
270.073	294.88
270.306	318.88
270.538	319.88
270.77	329.88
271.002	340.88
271.234	302.88
271.466	340.88
271.698	346.88
271.93	322.88
272.162	333.88
272.394	347.88
272.626	328.88
272.858	317.88
273.09	284.88
273.322	294.88
273.553	299.88
273.785	290.88
274.017	317.88
274.249	305.88
274.481	292.88
274.713	283.88
274.945	271.88
275.176	296.88
275.408	312.88
275.64	288.88
275.872	293.88
276.104	299.88
276.335	300.88
276.567	309.88
276.799	310.88
277.031	337.88
277.262	326.88
277.494	344.88
277.726	339.88
277.957	318.88
278.189	318.88
278.421	296.88
278.652	301.88
278.884	310.88
279.115	294.88
279.347	307.88
279.579	296.88
279.81	299.88
280.042	294.88
280.273	287.88
280.505	272.88
280.736	277.88
280.968	305.88
281.199	290.88
281.431	310.88
281.662	294.88
281.894	277.88
282.125	301.88
282.356	309.88
282.588	331.88
282.819	331.88
283.051	314.88
283.282	318.88
283.513	294.88
283.745	299.88
283.976	313.88
284.207	308.88
284.439	318.88
284.67	325.88
284.901	304.88
285.132	304.88
285.364	314.88
285.595	316.88
285.826	306.88
286.057	310.88
286.288	300.88
286.52	316.88
286.751	275.88
286.982	328.88
287.213	309.88
287.444	312.88
287.675	322.88
287.906	333.88
288.138	321.88
288.369	345.88
288.6	324.88
288.831	340.88
289.062	363.88
289.293	341.88
289.524	298.88
289.755	331.88
289.986	340.88
290.217	330.88
290.448	336.88
290.679	310.88
290.91	305.88
291.141	333.88
291.371	327.88
291.602	325.88
291.833	322.88
292.064	317.88
292.295	330.88
292.526	324.88
292.757	336.88
292.987	324.88
293.218	311.88
293.449	338.88
293.68	313.88
293.91	322.88
294.141	303.88
294.372	325.88
294.603	324.88
294.833	337.88
295.064	321.88
295.295	329.88
295.525	334.88
295.756	322.88
295.987	309.88
296.217	354.88
296.448	360.88
296.679	339.88
296.909	332.88
297.14	326.88
297.37	330.88
297.601	342.88
297.831	349.88
298.062	348.88
298.292	343.88
298.523	356.88
298.753	360.88
298.984	365.88
299.214	335.88
299.445	358.88
299.675	342.88
299.905	343.88
300.136	346.88
300.366	344.88
300.597	339.88
300.827	341.88
301.057	361.88
301.288	353.88
301.518	356.88
301.748	350.88
301.979	353.88
302.209	369.88
302.439	350.88
302.669	368.88
302.9	375.88
303.13	362.88
303.36	350.88
303.59	360.88
303.82	371.88
304.051	389.88
304.281	377.88
304.511	354.88
304.741	361.88
304.971	376.88
305.201	375.88
305.431	359.88
305.661	363.88
305.891	357.88
306.121	362.88
306.352	366.88
306.582	381.88
306.812	365.88
307.042	379.88
307.272	375.88
307.502	374.88
307.731	377.88
307.961	364.88
308.191	380.88
308.421	354.88
308.651	382.88
308.881	361.88
309.111	354.88
309.341	362.88
309.571	400.88
309.8	390.88
310.03	393.88
310.26	406.88
310.49	380.88
310.72	400.88
310.949	416.88
311.179	435.88
311.409	394.88
311.639	406.88
311.868	389.88
312.098	400.88
312.328	388.88
312.557	420.88
312.787	439.88
313.017	444.88
313.246	430.88
313.476	411.88
313.706	408.88
313.935	409.88
314.165	436.88
314.394	429.88
314.624	420.88
314.853	416.88
315.083	416.88
315.312	410.88
315.542	401.88
315.771	400.88
316.001	398.88
316.23	412.88
316.46	398.88
316.689	408.88
316.919	414.88
317.148	429.88
317.377	414.88
317.607	419.88
317.836	412.88
318.065	424.88
318.295	426.88
318.524	423.88
318.753	393.88
318.983	404.88
319.212	410.88
319.441	415.88
319.67	400.88
319.9	409.88
320.129	391.88
320.358	434.88
320.587	412.88
320.816	423.88
321.046	421.88
321.275	446.88
321.504	416.88
321.733	435.88
321.962	440.88
322.191	433.88
322.42	458.88
322.649	455.88
322.878	470.88
323.108	473.88
323.337	467.88
323.566	504.88
323.795	522.88
324.024	552.88
324.253	636.88
324.482	862.88
324.71	1304.88
324.939	1976.88
325.168	1719.88
325.397	895.88
325.626	630.88
325.855	550.88
326.084	520.88
326.313	512.88
326.542	523.88
326.77	557.88
326.999	606.88
327.228	791.88
327.457	1204.88
327.686	1483.88
327.914	994.88
328.143	685.88
328.372	585.88
328.6	578.88
328.829	569.88
329.058	571.88
329.287	582.88
329.515	520.88
329.744	545.88
329.972	520.88
330.201	526.88
330.43	584.88
330.658	594.88
330.887	616.88
331.115	598.88
331.344	526.88
331.572	512.88
331.801	552.88
332.03	534.88
332.258	505.88
332.486	494.88
332.715	496.88
332.943	491.88
333.172	505.88
333.4	528.88
333.629	540.88
333.857	540.88
334.085	572.88
334.314	544.88
334.542	579.88
334.771	604.88
334.999	553.88
335.227	522.88
335.455	527.88
335.684	514.88
335.912	501.88
336.14	518.88
336.369	508.88
336.597	510.88
336.825	492.88
337.053	478.88
337.281	476.88
337.51	470.88
337.738	489.88
337.966	501.88
338.194	504.88
338.422	518.88
338.65	500.88
338.878	483.88
339.106	486.88
339.334	480.88
339.562	460.88
339.79	485.88
340.018	479.88
340.246	511.88
340.474	471.88
340.702	461.88
340.93	487.88
341.158	478.88
341.386	462.88
341.614	464.88
341.842	492.88
342.07	472.88
342.298	473.88
342.526	453.88
342.754	464.88
342.981	448.88
343.209	469.88
343.437	474.88
343.665	487.88
343.893	501.88
344.12	509.88
344.348	503.88
344.576	502.88
344.804	490.88
345.031	499.88
345.259	489.88
345.487	501.88
345.714	491.88
345.942	470.88
346.17	483.88
346.397	464.88
346.625	462.88
346.853	461.88
347.08	469.88
347.308	456.88
347.535	473.88
347.763	485.88
347.99	472.88
348.218	472.88
348.445	454.88
348.673	471.88
348.9	482.88
349.128	471.88
349.355	448.88
349.583	452.88
349.81	433.88
350.037	439.88
350.265	436.88
350.492	437.88
350.72	450.88
350.947	456.88
351.174	448.88
351.402	460.88
351.629	441.88
351.856	470.88
352.083	469.88
352.311	451.88
352.538	490.88
352.765	459.88
352.992	459.88
353.22	472.88
353.447	465.88
353.674	446.88
353.901	453.88
354.128	443.88
354.355	434.88
354.583	448.88
354.81	454.88
355.037	461.88
355.264	448.88
355.491	421.88
355.718	422.88
355.945	449.88
356.172	445.88
356.399	434.88
356.626	444.88
356.853	448.88
357.08	454.88
357.307	426.88
357.534	444.88
357.761	442.88
357.988	458.88
358.215	439.88
358.441	456.88
358.668	434.88
358.895	442.88
359.122	443.88
359.349	464.88
359.576	458.88
359.802	461.88
360.029	490.88
360.256	533.88
360.483	489.88
360.709	468.88
360.936	468.88
361.163	461.88
361.39	455.88
361.616	466.88
361.843	458.88
362.07	454.88
362.296	455.88
362.523	462.88
362.749	472.88
362.976	463.88
363.203	449.88
363.429	457.88
363.656	457.88
363.882	443.88
364.109	452.88
364.335	451.88
364.562	482.88
364.788	453.88
365.015	453.88
365.241	447.88
365.468	461.88
365.694	440.88
365.92	460.88
366.147	447.88
366.373	460.88
366.599	460.88
366.826	462.88
367.052	443.88
367.278	438.88
367.505	445.88
367.731	476.88
367.957	464.88
368.184	441.88
368.41	478.88
368.636	445.88
368.862	474.88
369.089	480.88
369.315	465.88
369.541	458.88
369.767	460.88
369.993	456.88
370.219	476.88
370.445	470.88
370.672	456.88
370.898	464.88
371.124	459.88
371.35	459.88
371.576	478.88
371.802	488.88
372.028	448.88
372.254	453.88
372.48	468.88
372.706	475.88
372.932	465.88
373.158	465.88
373.384	456.88
373.61	462.88
373.835	464.88
374.061	452.88
374.287	488.88
374.513	469.88
374.739	488.88
374.965	485.88
375.191	477.88
375.416	472.88
375.642	467.88
375.868	489.88
376.094	450.88
376.319	477.88
376.545	460.88
376.771	467.88
376.997	471.88
377.222	433.88
377.448	461.88
377.674	461.88
377.899	458.88
378.125	446.88
378.35	455.88
378.576	448.88
378.802	481.88
379.027	466.88
379.253	450.88
379.478	457.88
379.704	485.88
379.929	453.88
380.155	445.88
380.38	474.88
380.606	462.88
380.831	451.88
381.057	476.88
381.282	450.88
381.507	463.88
381.733	445.88
381.958	488.88
382.184	461.88
382.409	490.88
382.634	474.88
382.86	480.88
383.085	470.88
383.31	484.88
383.535	479.88
383.761	477.88
383.986	478.88
384.211	504.88
384.436	508.88
384.662	505.88
384.887	488.88
385.112	494.88
385.337	541.88
385.562	493.88
385.787	505.88
386.013	522.88
386.238	532.88
386.463	531.88
386.688	525.88
386.913	510.88
387.138	500.88
387.363	518.88
387.588	514.88
387.813	526.88
388.038	516.88
388.263	501.88
388.488	508.88
388.713	515.88
388.938	530.88
389.163	526.88
389.387	522.88
389.612	516.88
389.837	539.88
390.062	510.88
390.287	514.88
390.512	519.88
390.736	525.88
390.961	538.88
391.186	539.88
391.411	531.88
391.636	545.88
391.86	562.88
392.085	533.88
392.31	552.88
392.534	530.88
392.759	533.88
392.984	534.88
393.208	496.88
393.433	527.88
393.658	526.88
393.882	508.88
394.107	518.88
394.331	526.88
394.556	502.88
394.78	523.88
395.005	521.88
395.229	544.88
395.454	528.88
395.678	556.88
395.903	553.88
396.127	613.88
396.352	579.88
396.576	532.88
396.801	564.88
397.025	541.88
397.249	554.88
397.474	548.88
397.698	552.88
397.922	557.88
398.147	568.88
398.371	590.88
398.595	598.88
398.82	612.88
399.044	637.88
399.268	653.88
399.492	685.88
399.717	738.88
399.941	779.88
400.165	782.88
400.389	778.88
400.613	710.88
400.837	620.88
401.062	621.88
401.286	606.88
401.51	609.88
401.734	612.88
401.958	617.88
402.182	626.88
402.406	634.88
402.63	645.88
402.854	611.88
403.078	630.88
403.302	644.88
403.526	637.88
403.75	631.88
403.974	634.88
404.198	633.88
404.422	657.88
404.645	639.88
404.869	640.88
405.093	675.88
405.317	740.88
405.541	769.88
405.765	724.88
405.988	670.88
406.212	661.88
406.436	677.88
406.66	712.88
406.883	690.88
407.107	718.88
407.331	749.88
407.555	855.88
407.778	863.88
408.002	772.88
408.226	712.88
408.449	704.88
408.673	682.88
408.896	718.88
409.12	758.88
409.344	718.88
409.567	660.88
409.791	620.88
410.014	646.88
410.238	646.88
410.461	638.88
410.685	643.88
410.908	650.88
411.132	672.88
411.355	723.88
411.578	701.88
411.802	636.88
412.025	647.88
412.249	662.88
412.472	692.88
412.695	737.88
412.919	696.88
413.142	634.88
413.365	624.88
413.589	637.88
413.812	613.88
414.035	618.88
414.258	602.88
414.482	603.88
414.705	591.88
414.928	587.88
415.151	596.88
415.374	605.88
415.597	578.88
415.821	591.88
416.044	597.88
416.267	608.88
416.49	586.88
416.713	594.88
416.936	593.88
417.159	581.88
417.382	587.88
417.605	605.88
417.828	614.88
418.051	628.88
418.274	629.88
418.497	633.88
418.72	605.88
418.943	598.88
419.166	648.88
419.389	639.88
419.611	634.88
419.834	644.88
420.057	664.88
420.28	638.88
420.503	632.88
420.726	625.88
420.948	647.88
421.171	683.88
421.394	726.88
421.617	679.88
421.839	638.88
422.062	624.88
422.285	646.88
422.507	707.88
422.73	772.88
422.953	778.88
423.175	658.88
423.398	659.88
423.621	654.88
423.843	699.88
424.066	651.88
424.288	664.88
424.511	694.88
424.733	735.88
424.956	837.88
425.178	786.88
425.401	762.88
425.623	797.88
425.846	693.88
426.068	665.88
426.291	643.88
426.513	638.88
426.735	659.88
426.958	720.88
427.18	794.88
427.402	933.88
427.625	1018.88
427.847	872.88
428.069	754.88
428.292	705.88
428.514	644.88
428.736	622.88
428.958	644.88
429.181	600.88
429.403	607.88
429.625	629.88
429.847	654.88
430.069	724.88
430.292	685.88
430.514	617.88
430.736	608.88
430.958	597.88
431.18	581.88
431.402	576.88
431.624	582.88
431.846	586.88
432.068	573.88
432.29	577.88
432.512	591.88
432.734	604.88
432.956	608.88
433.178	600.88
433.4	619.88
433.622	590.88
433.844	581.88
434.066	584.88
434.287	588.88
434.509	582.88
434.731	596.88
434.953	615.88
435.175	620.88
435.397	692.88
435.618	655.88
435.84	694.88
436.062	803.88
436.284	876.88
436.505	712.88
436.727	663.88
436.949	631.88
437.17	634.88
437.392	596.88
437.614	616.88
437.835	653.88
438.057	731.88
438.278	845.88
438.5	839.88
438.721	962.88
438.943	912.88
439.165	725.88
439.386	662.88
439.608	668.88
439.829	662.88
440.05	672.88
440.272	720.88
440.493	670.88
440.715	634.88
440.936	633.88
441.158	610.88
441.379	617.88
441.6	627.88
441.822	650.88
442.043	696.88
442.264	794.88
442.486	844.88
442.707	720.88
442.928	673.88
443.149	655.88
443.371	730.88
443.592	725.88
443.813	849.88
444.034	898.88
444.255	775.88
444.476	700.88
444.698	701.88
444.919	672.88
445.14	722.88
445.361	710.88
445.582	675.88
445.803	772.88
446.024	860.88
446.245	876.88
446.466	809.88
446.687	702.88
446.908	660.88
447.129	636.88
447.35	612.88
447.571	604.88
447.792	605.88
448.013	600.88
448.234	604.88
448.455	656.88
448.675	801.88
448.896	918.88
449.117	757.88
449.338	724.88
449.559	858.88
449.779	954.88
450	793.88
450.221	666.88
450.442	590.88
450.662	594.88
450.883	599.88
451.104	594.88
451.324	556.88
451.545	566.88
451.766	569.88
451.986	544.88
452.207	523.88
452.428	566.88
452.648	549.88
452.869	543.88
453.089	543.88
453.31	544.88
453.53	565.88
453.751	544.88
453.971	552.88
454.192	538.88
454.412	545.88
454.633	526.88
454.853	525.88
455.073	541.88
455.294	560.88
455.514	614.88
455.734	620.88
455.955	563.88
456.175	517.88
456.395	498.88
456.616	512.88
456.836	502.88
457.056	520.88
457.276	514.88
457.497	531.88
457.717	507.88
457.937	515.88
458.157	524.88
458.377	530.88
458.598	560.88
458.818	584.88
459.038	659.88
459.258	699.88
459.478	626.88
459.698	600.88
459.918	601.88
460.138	578.88
460.358	614.88
460.578	604.88
460.798	618.88
461.018	612.88
461.238	606.88
461.458	589.88
461.678	635.88
461.898	601.88
462.118	598.88
462.338	628.88
462.558	637.88
462.777	635.88
462.997	683.88
463.217	676.88
463.437	693.88
463.657	652.88
463.876	650.88
464.096	666.88
464.316	665.88
464.536	657.88
464.755	636.88
464.975	674.88
465.195	660.88
465.414	730.88
465.634	631.88
465.854	621.88
466.073	590.88
466.293	575.88
466.512	568.88
466.732	567.88
466.951	571.88
467.171	572.88
467.391	567.88
467.61	569.88
467.829	588.88
468.049	576.88
468.268	565.88
468.488	546.88
468.707	563.88
468.927	546.88
469.146	552.88
469.365	535.88
469.585	541.88
469.804	532.88
470.023	567.88
470.243	562.88
470.462	584.88
470.681	577.88
470.901	573.88
471.12	573.88
471.339	544.88
471.558	586.88
471.777	562.88
471.997	563.88
472.216	573.88
472.435	582.88
472.654	598.88
472.873	578.88
473.092	536.88
473.311	553.88
473.53	554.88
473.749	577.88
473.968	613.88
474.187	704.88
474.406	721.88
474.625	622.88
474.844	587.88
475.063	570.88
475.282	580.88
475.501	567.88
475.72	583.88
475.939	579.88
476.158	580.88
476.377	599.88
476.596	586.88
476.814	584.88
477.033	581.88
477.252	618.88
477.471	622.88
477.69	616.88
477.908	628.88
478.127	617.88
478.346	621.88
478.564	661.88
478.783	645.88
479.002	659.88
479.22	638.88
479.439	654.88
479.658	660.88
479.876	678.88
480.095	684.88
480.313	729.88
480.532	724.88
480.751	706.88
480.969	711.88
481.188	745.88
481.406	761.88
481.624	690.88
481.843	692.88
482.061	658.88
482.28	654.88
482.498	656.88
482.717	681.88
482.935	682.88
483.153	648.88
483.372	644.88
483.59	661.88
483.808	668.88
484.027	658.88
484.245	664.88
484.463	668.88
484.681	663.88
484.9	653.88
485.118	677.88
485.336	692.88
485.554	695.88
485.772	699.88
485.99	702.88
486.209	677.88
486.427	684.88
486.645	683.88
486.863	707.88
487.081	716.88
487.299	701.88
487.517	701.88
487.735	701.88
487.953	703.88
488.171	709.88
488.389	725.88
488.607	707.88
488.825	712.88
489.043	732.88
489.261	707.88
489.479	713.88
489.696	707.88
489.914	724.88
490.132	750.88
490.35	750.88
490.568	762.88
490.786	775.88
491.003	767.88
491.221	788.88
491.439	800.88
491.657	813.88
491.874	835.88
492.092	798.88
492.31	812.88
492.527	826.88
492.745	832.88
492.963	816.88
493.18	836.88
493.398	830.88
493.615	872.88
493.833	852.88
494.05	836.88
494.268	838.88
494.485	852.88
494.703	839.88
494.92	848.88
495.138	832.88
495.355	855.88
495.573	834.88
495.79	870.88
496.008	851.88
496.225	872.88
496.442	873.88
496.66	861.88
496.877	849.88
497.094	853.88
497.312	889.88
497.529	899.88
497.746	892.88
497.963	890.88
498.181	934.88
498.398	947.88
498.615	957.88
498.832	987.88
499.049	1016.88
499.267	1036.88
499.484	1145.88
499.701	1156.88
499.918	1202.88
500.135	1272.88
500.352	1332.88
500.569	1373.88
500.786	1377.88
501.003	1339.88
501.22	1293.88
501.437	1226.88
501.654	1193.88
501.871	1124.88
502.088	1074.88
502.305	985.88
502.522	1012.88
502.739	988.88
502.956	941.88
503.172	913.88
503.389	904.88
503.606	881.88
503.823	872.88
504.04	867.88
504.256	846.88
504.473	838.88
504.69	866.88
504.907	867.88
505.123	825.88
505.34	818.88
505.557	815.88
505.773	792.88
505.99	821.88
506.207	796.88
506.423	816.88
506.64	813.88
506.856	780.88
507.073	781.88
507.289	774.88
507.506	769.88
507.722	773.88
507.939	756.88
508.155	772.88
508.372	752.88
508.588	742.88
508.805	756.88
509.021	747.88
509.238	770.88
509.454	758.88
509.67	745.88
509.887	747.88
510.103	723.88
510.319	739.88
510.536	812.88
510.752	1168.88
510.968	1020.88
511.184	732.88
511.401	692.88
511.617	717.88
511.833	716.88
512.049	709.88
512.265	686.88
512.481	694.88
512.698	709.88
512.914	689.88
513.13	685.88
513.346	700.88
513.562	698.88
513.778	712.88
513.994	707.88
514.21	705.88
514.426	739.88
514.642	765.88
514.858	780.88
515.074	795.88
515.29	898.88
515.506	1188.88
515.721	1012.88
515.937	811.88
516.153	766.88
516.369	768.88
516.585	728.88
516.801	726.88
517.016	753.88
517.232	718.88
517.448	756.88
517.664	770.88
517.879	754.88
518.095	769.88
518.311	745.88
518.527	749.88
518.742	740.88
518.958	745.88
519.173	713.88
519.389	690.88
519.605	722.88
519.82	711.88
520.036	710.88
520.251	726.88
520.467	731.88
520.682	731.88
520.898	756.88
521.113	749.88
521.329	769.88
521.544	812.88
521.76	932.88
521.975	1468.88
522.19	1410.88
522.406	895.88
522.621	742.88
522.836	691.88
523.052	676.88
523.267	663.88
523.482	652.88
523.698	617.88
523.913	642.88
524.128	636.88
524.343	613.88
524.559	628.88
524.774	604.88
524.989	593.88
525.204	618.88
525.419	589.88
525.634	572.88
525.849	608.88
526.064	593.88
526.28	605.88
526.495	601.88
526.71	574.88
526.925	571.88
527.14	567.88
527.355	582.88
527.57	562.88
527.785	604.88
527.999	568.88
528.214	571.88
528.429	588.88
528.644	584.88
528.859	592.88
529.074	598.88
529.289	623.88
529.503	644.88
529.718	626.88
529.933	608.88
530.148	584.88
530.363	563.88
530.577	555.88
530.792	556.88
531.007	565.88
531.221	584.88
531.436	564.88
531.651	584.88
531.865	569.88
532.08	572.88
532.295	546.88
532.509	545.88
532.724	557.88
532.938	555.88
533.153	557.88
533.367	567.88
533.582	564.88
533.796	566.88
534.011	556.88
534.225	564.88
534.44	537.88
534.654	552.88
534.868	526.88
535.083	527.88
535.297	551.88
535.511	554.88
535.726	563.88
535.94	576.88
536.154	544.88
536.369	538.88
536.583	563.88
536.797	537.88
537.011	546.88
537.225	529.88
537.44	532.88
537.654	522.88
537.868	533.88
538.082	523.88
538.296	535.88
538.51	551.88
538.724	537.88
538.938	533.88
539.153	545.88
539.367	577.88
539.581	546.88
539.795	526.88
540.009	526.88
540.222	527.88
540.436	550.88
540.65	531.88
540.864	526.88
541.078	552.88
541.292	546.88
541.506	535.88
541.72	563.88
541.934	537.88
542.147	554.88
542.361	538.88
542.575	507.88
542.789	515.88
543.002	536.88
543.216	549.88
543.43	540.88
543.644	560.88
543.857	560.88
544.071	525.88
544.285	544.88
544.498	526.88
544.712	533.88
544.925	521.88
545.139	531.88
545.352	536.88
545.566	527.88
545.779	512.88
545.993	535.88
546.206	542.88
546.42	539.88
546.633	531.88
546.847	520.88
547.06	499.88
547.274	533.88
547.487	528.88
547.7	550.88
547.914	525.88
548.127	529.88
548.34	524.88
548.554	514.88
548.767	522.88
548.98	526.88
549.193	536.88
549.407	520.88
549.62	554.88
549.833	538.88
550.046	538.88
550.259	508.88
550.473	499.88
550.686	521.88
550.899	503.88
551.112	521.88
551.325	526.88
551.538	505.88
551.751	477.88
551.964	492.88
552.177	516.88
552.39	540.88
552.603	540.88
552.816	519.88
553.029	551.88
553.242	530.88
553.455	558.88
553.667	570.88
553.88	562.88
554.093	538.88
554.306	542.88
554.519	532.88
554.732	522.88
554.944	509.88
555.157	515.88
555.37	498.88
555.583	497.88
555.795	508.88
556.008	501.88
556.221	479.88
556.433	486.88
556.646	485.88
556.859	464.88
557.071	454.88
557.284	454.88
557.496	473.88
557.709	462.88
557.921	484.88
558.134	467.88
558.346	454.88
558.559	472.88
558.771	482.88
558.984	467.88
559.196	470.88
559.409	464.88
559.621	444.88
559.833	467.88
560.046	439.88
560.258	443.88
560.47	475.88
560.683	464.88
560.895	443.88
561.107	446.88
561.32	428.88
561.532	452.88
561.744	464.88
561.956	470.88
562.168	454.88
562.381	470.88
562.593	441.88
562.805	483.88
563.017	467.88
563.229	486.88
563.441	470.88
563.653	458.88
563.865	445.88
564.077	457.88
564.289	469.88
564.501	485.88
564.713	481.88
564.925	498.88
565.137	511.88
565.349	507.88
565.561	518.88
565.773	534.88
565.985	530.88
566.197	549.88
566.408	547.88
566.62	596.88
566.832	621.88
567.044	611.88
567.255	604.88
567.467	624.88
567.679	621.88
567.891	631.88
568.102	672.88
568.314	631.88
568.526	583.88
568.737	562.88
568.949	569.88
569.161	519.88
569.372	515.88
569.584	498.88
569.795	480.88
570.007	464.88
570.218	501.88
570.43	472.88
570.641	462.88
570.853	444.88
571.064	463.88
571.276	482.88
571.487	430.88
571.698	437.88
571.91	422.88
572.121	436.88
572.333	424.88
572.544	398.88
572.755	410.88
572.966	414.88
573.178	402.88
573.389	394.88
573.6	401.88
573.811	393.88
574.023	412.88
574.234	407.88
574.445	422.88
574.656	389.88
574.867	386.88
575.078	404.88
575.289	400.88
575.501	392.88
575.712	374.88
575.923	378.88
576.134	377.88
576.345	401.88
576.556	387.88
576.767	384.88
576.978	372.88
577.188	380.88
577.399	370.88
577.61	386.88
577.821	379.88
578.032	374.88
578.243	385.88
578.454	545.88
578.665	456.88
578.875	371.88
579.086	370.88
579.297	358.88
579.508	362.88
579.718	385.88
579.929	349.88
580.14	347.88
580.35	355.88
580.561	388.88
580.772	355.88
580.982	374.88
581.193	354.88
581.403	342.88
581.614	354.88
581.825	353.88
582.035	359.88
582.246	354.88
582.456	356.88
582.667	353.88
582.877	346.88
583.087	359.88
583.298	359.88
583.508	355.88
583.719	361.88
583.929	333.88
584.139	353.88
584.35	354.88
584.56	360.88
584.77	353.88
584.981	361.88
585.191	356.88
585.401	338.88
585.611	358.88
585.821	376.88
586.032	340.88
586.242	345.88
586.452	345.88
586.662	340.88
586.872	322.88
587.082	329.88
587.292	336.88
587.502	343.88
587.713	339.88
587.923	355.88
588.133	343.88
588.343	336.88
588.553	347.88
588.762	326.88
588.972	334.88
589.182	324.88
589.392	328.88
589.602	338.88
589.812	348.88
590.022	357.88
590.232	342.88
590.441	345.88
590.651	334.88
590.861	332.88
591.071	344.88
591.281	333.88
591.49	343.88
591.7	348.88
591.91	356.88
592.119	342.88
592.329	356.88
592.539	362.88
592.748	380.88
592.958	375.88
593.167	364.88
593.377	388.88
593.587	400.88
593.796	376.88
594.006	387.88
594.215	392.88
594.424	366.88
594.634	376.88
594.843	380.88
595.053	361.88
595.262	352.88
595.472	351.88
595.681	338.88
595.89	357.88
596.1	344.88
596.309	338.88
596.518	323.88
596.727	325.88
596.937	333.88
597.146	326.88
597.355	320.88
597.564	323.88
597.774	314.88
597.983	322.88
598.192	312.88
598.401	301.88
598.61	315.88
598.819	302.88
599.028	324.88
599.237	304.88
599.446	309.88
599.655	318.88
599.864	310.88
600.073	308.88
600.282	323.88
600.491	307.88
600.7	305.88
600.909	302.88
601.118	300.88
601.327	299.88
601.536	301.88
601.745	289.88
601.953	310.88
602.162	306.88
602.371	298.88
602.58	301.88
602.789	295.88
602.997	293.88
603.206	308.88
603.415	302.88
603.623	295.88
603.832	283.88
604.041	301.88
604.249	306.88
604.458	269.88
604.666	282.88
604.875	281.88
605.084	285.88
605.292	285.88
605.501	292.88
605.709	290.88
605.918	308.88
606.126	290.88
606.334	285.88
606.543	284.88
606.751	288.88
606.96	297.88
607.168	300.88
607.376	278.88
607.585	285.88
607.793	287.88
608.001	293.88
608.21	283.88
608.418	299.88
608.626	268.88
608.834	269.88
609.043	278.88
609.251	288.88
609.459	267.88
609.667	266.88
609.875	275.88
610.083	298.88
610.291	276.88
610.499	292.88
610.707	271.88
610.916	274.88
611.124	297.88
611.332	281.88
611.54	294.88
611.748	286.88
611.955	278.88
612.163	284.88
612.371	275.88
612.579	287.88
612.787	270.88
612.995	260.88
613.203	260.88
613.411	282.88
613.618	288.88
613.826	286.88
614.034	289.88
614.242	269.88
614.449	279.88
614.657	283.88
614.865	269.88
615.072	271.88
615.28	267.88
615.488	282.88
615.695	269.88
615.903	278.88
616.111	276.88
616.318	288.88
616.526	299.88
616.733	287.88
616.941	289.88
617.148	290.88
617.356	271.88
617.563	282.88
617.771	272.88
617.978	259.88
618.185	263.88
618.393	268.88
618.6	281.88
618.807	261.88
619.015	291.88
619.222	268.88
619.429	268.88
619.637	273.88
619.844	273.88
620.051	262.88
620.258	247.88
620.466	254.88
620.673	269.88
620.88	247.88
621.087	268.88
621.294	261.88
621.501	238.88
621.708	271.88
621.915	243.88
622.122	245.88
622.329	234.88
622.536	264.88
622.743	234.88
622.95	256.88
623.157	244.88
623.364	242.88
623.571	236.88
623.778	258.88
623.985	264.88
624.192	255.88
624.399	229.88
624.606	233.88
624.812	260.88
625.019	249.88
625.226	245.88
625.433	242.88
625.639	243.88
625.846	230.88
626.053	264.88
626.259	248.88
626.466	256.88
626.673	238.88
626.879	240.88
627.086	227.88
627.293	256.88
627.499	232.88
627.706	258.88
627.912	220.88
628.119	248.88
628.325	244.88
628.532	250.88
628.738	222.88
628.945	231.88
629.151	230.88
629.357	229.88
629.564	228.88
629.77	222.88
629.976	218.88
630.183	220.88
630.389	218.88
630.595	220.88
630.802	218.88
631.008	216.88
631.214	219.88
631.42	213.88
631.627	225.88
631.833	197.88
632.039	204.88
632.245	220.88
632.451	204.88
632.657	215.88
632.863	213.88
633.069	217.88
633.275	224.88
633.481	218.88
633.688	221.88
633.893	228.88
634.099	221.88
634.305	205.88
634.511	204.88
634.717	219.88
634.923	208.88
635.129	209.88
635.335	203.88
635.541	191.88
635.747	186.88
635.952	217.88
636.158	209.88
636.364	233.88
636.57	208.88
636.775	214.88
636.981	209.88
637.187	208.88
637.392	213.88
637.598	201.88
637.804	197.88
638.009	196.88
638.215	196.88
638.421	194.88
638.626	211.88
638.832	210.88
639.037	190.88
639.243	199.88
639.448	207.88
639.654	193.88
639.859	198.88
640.065	196.88
640.27	197.88
640.475	192.88
640.681	197.88
640.886	196.88
641.091	201.88
641.297	200.88
641.502	194.88
641.707	195.88
641.913	203.88
642.118	187.88
642.323	190.88
642.528	196.88
642.733	205.88
642.939	182.88
643.144	187.88
643.349	195.88
643.554	191.88
643.759	189.88
643.964	177.88
644.169	199.88
644.374	180.88
644.579	186.88
644.784	195.88
644.989	198.88
645.194	201.88
645.399	196.88
645.604	170.88
645.809	184.88
646.014	186.88
646.219	187.88
646.423	173.88
646.628	171.88
646.833	195.88
647.038	191.88
647.243	191.88
647.447	192.88
647.652	189.88
647.857	187.88
648.062	195.88
648.266	182.88
648.471	198.88
648.676	204.88
648.88	211.88
649.085	200.88
649.289	194.88
649.494	190.88
649.698	212.88
649.903	187.88
650.107	196.88
650.312	205.88
650.516	193.88
650.721	183.88
650.925	168.88
651.13	184.88
651.334	171.88
651.539	167.88
651.743	163.88
651.947	160.88
652.152	153.88
652.356	174.88
652.56	164.88
652.764	157.88
652.969	161.88
653.173	152.88
653.377	159.88
653.581	152.88
653.785	153.88
653.99	169.88
654.194	153.88
654.398	141.88
654.602	148.88
654.806	152.88
655.01	157.88
655.214	148.88
655.418	151.88
655.622	155.88
655.826	134.88
656.03	146.88
656.234	161.88
656.438	137.88
656.642	137.88
656.846	133.88
657.049	143.88
657.253	143.88
657.457	135.88
657.661	132.88
657.865	122.88
658.068	123.88
658.272	110.88
658.476	114.88
658.68	96.88
658.883	99.88
659.087	101.88
659.291	99.88
659.494	112.88
659.698	110.88
659.901	99.88
660.105	85.88
660.309	104.88
660.512	101.88
660.716	93.88
660.919	100.88
661.123	91.88
661.326	96.88
661.53	95.88
661.733	83.88
661.936	77.88
662.14	71.88
662.343	85.88
662.546	81.88
662.75	97.88
662.953	88.88
663.156	89.88
663.36	81.88
663.563	75.88
663.766	84.88
663.969	73.88
664.173	81.88
664.376	79.88
664.579	93.88
664.782	76.88
664.985	82.88
665.188	87.88
665.391	81.88
665.594	78.88
665.797	87.88
666	75.88
666.203	90.88
666.406	82.88
666.609	78.88
666.812	93.88
667.015	71.88
667.218	88.88
667.421	88.88
667.624	81.88
667.827	73.88
668.03	71.88
668.232	76.88
668.435	80.88
668.638	69.88
668.841	83.88
669.043	87.88
669.246	80.88
669.449	95.88
669.651	78.88
669.854	67.88
670.057	81.88
670.259	97.88
670.462	86.88
670.665	89.88
670.867	82.88
671.07	89.88
671.272	79.88
671.475	78.88
671.677	89.88
671.88	89.88
672.082	77.88
672.284	80.88
672.487	86.88
672.689	84.88
672.892	64.88
