Data from 1974.PennyLincolnUp.Lamp.En5.5.200Scan.071719.P1.Changed Mount._HRD10591_15-52-59-857.txt Node
Date: Thu Jul 18 15:52:59 EDT 2019
User: cochatt
Spectrometer: HR+D1059
Trigger mode: 1
Integration Time (sec): 1.000000E-1
Scans to average: 1
Electric dark correction enabled: true
Nonlinearity correction enabled: false
Boxcar width: 0
XAxis mode: Wavelengths
Number of Pixels in Spectrum: 2048
>>>>>Begin Spectral Data<<<<<
223.165	-16.75
223.4	-16.75
223.635	-16.75
223.869	-12.75
224.104	-21.75
224.338	-14.75
224.573	-10.75
224.808	-5.75
225.042	-16.75
225.277	-9.75
225.511	-3.75
225.746	8.25
225.98	-5.75
226.215	11.25
226.449	17.25
226.683	20.25
226.918	29.25
227.152	32.25
227.387	36.25
227.621	38.25
227.856	38.25
228.09	41.25
228.324	57.25
228.559	39.25
228.793	81.25
229.027	101.25
229.262	99.25
229.496	106.25
229.73	128.25
229.964	149.25
230.199	131.25
230.433	116.25
230.667	123.25
230.901	122.25
231.136	100.25
231.37	117.25
231.604	119.25
231.838	106.25
232.072	113.25
232.306	125.25
232.541	112.25
232.775	130.25
233.009	119.25
233.243	115.25
233.477	114.25
233.711	121.25
233.945	119.25
234.179	110.25
234.413	113.25
234.647	129.25
234.881	126.25
235.115	126.25
235.349	114.25
235.583	125.25
235.817	133.25
236.051	124.25
236.285	115.25
236.519	125.25
236.753	138.25
236.987	153.25
237.221	179.25
237.455	222.25
237.689	189.25
237.922	151.25
238.156	143.25
238.39	124.25
238.624	116.25
238.858	139.25
239.091	126.25
239.325	125.25
239.559	138.25
239.793	143.25
240.027	134.25
240.26	163.25
240.494	169.25
240.728	146.25
240.961	158.25
241.195	142.25
241.429	155.25
241.662	141.25
241.896	144.25
242.13	141.25
242.363	143.25
242.597	141.25
242.83	151.25
243.064	139.25
243.298	160.25
243.531	158.25
243.765	143.25
243.998	149.25
244.232	147.25
244.465	158.25
244.699	167.25
244.932	159.25
245.166	153.25
245.399	151.25
245.633	169.25
245.866	138.25
246.099	141.25
246.333	149.25
246.566	172.25
246.8	151.25
247.033	168.25
247.266	163.25
247.5	173.25
247.733	174.25
247.966	173.25
248.2	177.25
248.433	199.25
248.666	187.25
248.899	194.25
249.133	191.25
249.366	224.25
249.599	198.25
249.832	177.25
250.066	202.25
250.299	190.25
250.532	199.25
250.765	214.25
250.998	228.25
251.231	261.25
251.465	222.25
251.698	222.25
251.931	213.25
252.164	211.25
252.397	209.25
252.63	206.25
252.863	222.25
253.096	215.25
253.329	235.25
253.562	235.25
253.795	229.25
254.028	232.25
254.261	241.25
254.494	249.25
254.727	274.25
254.96	288.25
255.193	295.25
255.426	263.25
255.659	250.25
255.892	228.25
256.124	241.25
256.357	239.25
256.59	228.25
256.823	207.25
257.056	224.25
257.289	218.25
257.521	238.25
257.754	219.25
257.987	230.25
258.22	234.25
258.452	217.25
258.685	216.25
258.918	237.25
259.151	222.25
259.383	236.25
259.616	237.25
259.849	236.25
260.081	254.25
260.314	252.25
260.547	271.25
260.779	263.25
261.012	238.25
261.244	238.25
261.477	254.25
261.71	252.25
261.942	241.25
262.175	233.25
262.407	252.25
262.64	227.25
262.872	226.25
263.105	230.25
263.337	228.25
263.57	233.25
263.802	221.25
264.035	236.25
264.267	231.25
264.499	232.25
264.732	239.25
264.964	230.25
265.197	221.25
265.429	238.25
265.661	218.25
265.894	212.25
266.126	228.25
266.358	232.25
266.591	237.25
266.823	223.25
267.055	231.25
267.287	260.25
267.52	263.25
267.752	243.25
267.984	243.25
268.216	247.25
268.448	255.25
268.681	269.25
268.913	261.25
269.145	278.25
269.377	291.25
269.609	290.25
269.841	286.25
270.073	293.25
270.306	297.25
270.538	336.25
270.77	339.25
271.002	325.25
271.234	291.25
271.466	306.25
271.698	314.25
271.93	317.25
272.162	309.25
272.394	319.25
272.626	308.25
272.858	298.25
273.09	293.25
273.322	272.25
273.553	287.25
273.785	289.25
274.017	274.25
274.249	282.25
274.481	280.25
274.713	277.25
274.945	284.25
275.176	276.25
275.408	269.25
275.64	293.25
275.872	281.25
276.104	289.25
276.335	294.25
276.567	280.25
276.799	310.25
277.031	311.25
277.262	311.25
277.494	325.25
277.726	329.25
277.957	321.25
278.189	324.25
278.421	296.25
278.652	283.25
278.884	299.25
279.115	297.25
279.347	299.25
279.579	293.25
279.81	291.25
280.042	295.25
280.273	292.25
280.505	274.25
280.736	285.25
280.968	282.25
281.199	288.25
281.431	283.25
281.662	296.25
281.894	298.25
282.125	292.25
282.356	320.25
282.588	325.25
282.819	318.25
283.051	304.25
283.282	291.25
283.513	302.25
283.745	293.25
283.976	307.25
284.207	321.25
284.439	316.25
284.67	307.25
284.901	311.25
285.132	311.25
285.364	309.25
285.595	309.25
285.826	313.25
286.057	318.25
286.288	303.25
286.52	310.25
286.751	301.25
286.982	305.25
287.213	313.25
287.444	295.25
287.675	319.25
287.906	317.25
288.138	322.25
288.369	336.25
288.6	341.25
288.831	325.25
289.062	320.25
289.293	329.25
289.524	323.25
289.755	332.25
289.986	317.25
290.217	305.25
290.448	320.25
290.679	307.25
290.91	307.25
291.141	328.25
291.371	305.25
291.602	333.25
291.833	323.25
292.064	309.25
292.295	333.25
292.526	319.25
292.757	316.25
292.987	297.25
293.218	313.25
293.449	328.25
293.68	321.25
293.91	313.25
294.141	331.25
294.372	307.25
294.603	322.25
294.833	330.25
295.064	340.25
295.295	321.25
295.525	317.25
295.756	314.25
295.987	324.25
296.217	345.25
296.448	362.25
296.679	351.25
296.909	326.25
297.14	319.25
297.37	330.25
297.601	331.25
297.831	318.25
298.062	323.25
298.292	319.25
298.523	347.25
298.753	350.25
298.984	330.25
299.214	355.25
299.445	326.25
299.675	328.25
299.905	340.25
300.136	357.25
300.366	325.25
300.597	358.25
300.827	349.25
301.057	346.25
301.288	329.25
301.518	362.25
301.748	355.25
301.979	346.25
302.209	347.25
302.439	356.25
302.669	366.25
302.9	359.25
303.13	363.25
303.36	351.25
303.59	363.25
303.82	369.25
304.051	358.25
304.281	379.25
304.511	369.25
304.741	354.25
304.971	382.25
305.201	361.25
305.431	349.25
305.661	344.25
305.891	374.25
306.121	357.25
306.352	357.25
306.582	342.25
306.812	365.25
307.042	372.25
307.272	353.25
307.502	362.25
307.731	364.25
307.961	362.25
308.191	360.25
308.421	343.25
308.651	379.25
308.881	383.25
309.111	381.25
309.341	386.25
309.571	399.25
309.8	377.25
310.03	394.25
310.26	374.25
310.49	405.25
310.72	396.25
310.949	419.25
311.179	414.25
311.409	407.25
311.639	402.25
311.868	404.25
312.098	393.25
312.328	415.25
312.557	425.25
312.787	434.25
313.017	405.25
313.246	426.25
313.476	382.25
313.706	399.25
313.935	407.25
314.165	410.25
314.394	417.25
314.624	411.25
314.853	408.25
315.083	396.25
315.312	402.25
315.542	406.25
315.771	410.25
316.001	382.25
316.23	398.25
316.46	393.25
316.689	417.25
316.919	401.25
317.148	413.25
317.377	425.25
317.607	418.25
317.836	417.25
318.065	417.25
318.295	400.25
318.524	402.25
318.753	418.25
318.983	430.25
319.212	396.25
319.441	412.25
319.67	414.25
319.9	421.25
320.129	396.25
320.358	407.25
320.587	410.25
320.816	420.25
321.046	422.25
321.275	425.25
321.504	419.25
321.733	423.25
321.962	428.25
322.191	437.25
322.42	450.25
322.649	457.25
322.878	470.25
323.108	469.25
323.337	490.25
323.566	494.25
323.795	511.25
324.024	538.25
324.253	623.25
324.482	855.25
324.71	1299.25
324.939	1917.25
325.168	1671.25
325.397	859.25
325.626	619.25
325.855	527.25
326.084	467.25
326.313	502.25
326.542	486.25
326.77	546.25
326.999	621.25
327.228	785.25
327.457	1173.25
327.686	1424.25
327.914	979.25
328.143	649.25
328.372	586.25
328.6	565.25
328.829	526.25
329.058	555.25
329.287	602.25
329.515	531.25
329.744	511.25
329.972	504.25
330.201	536.25
330.43	585.25
330.658	578.25
330.887	577.25
331.115	601.25
331.344	529.25
331.572	507.25
331.801	525.25
332.03	496.25
332.258	487.25
332.486	533.25
332.715	485.25
332.943	489.25
333.172	512.25
333.4	525.25
333.629	530.25
333.857	544.25
334.085	543.25
334.314	551.25
334.542	550.25
334.771	598.25
334.999	574.25
335.227	510.25
335.455	510.25
335.684	491.25
335.912	512.25
336.14	485.25
336.369	492.25
336.597	511.25
336.825	523.25
337.053	484.25
337.281	476.25
337.51	481.25
337.738	473.25
337.966	467.25
338.194	483.25
338.422	487.25
338.65	488.25
338.878	492.25
339.106	469.25
339.334	494.25
339.562	486.25
339.79	474.25
340.018	476.25
340.246	461.25
340.474	476.25
340.702	462.25
340.93	466.25
341.158	460.25
341.386	464.25
341.614	449.25
341.842	486.25
342.07	463.25
342.298	466.25
342.526	459.25
342.754	467.25
342.981	474.25
343.209	452.25
343.437	470.25
343.665	491.25
343.893	495.25
344.12	507.25
344.348	486.25
344.576	483.25
344.804	483.25
345.031	466.25
345.259	502.25
345.487	483.25
345.714	487.25
345.942	444.25
346.17	471.25
346.397	449.25
346.625	472.25
346.853	457.25
347.08	468.25
347.308	446.25
347.535	450.25
347.763	488.25
347.99	463.25
348.218	475.25
348.445	477.25
348.673	483.25
348.9	463.25
349.128	458.25
349.355	441.25
349.583	467.25
349.81	435.25
350.037	445.25
350.265	439.25
350.492	453.25
350.72	441.25
350.947	451.25
351.174	443.25
351.402	459.25
351.629	454.25
351.856	454.25
352.083	460.25
352.311	471.25
352.538	468.25
352.765	492.25
352.992	461.25
353.22	433.25
353.447	456.25
353.674	446.25
353.901	432.25
354.128	444.25
354.355	457.25
354.583	444.25
354.81	437.25
355.037	427.25
355.264	434.25
355.491	421.25
355.718	413.25
355.945	435.25
356.172	424.25
356.399	447.25
356.626	431.25
356.853	455.25
357.08	419.25
357.307	421.25
357.534	427.25
357.761	407.25
357.988	429.25
358.215	439.25
358.441	444.25
358.668	459.25
358.895	445.25
359.122	446.25
359.349	427.25
359.576	474.25
359.802	511.25
360.029	479.25
360.256	483.25
360.483	490.25
360.709	457.25
360.936	451.25
361.163	454.25
361.39	456.25
361.616	451.25
361.843	449.25
362.07	462.25
362.296	451.25
362.523	460.25
362.749	451.25
362.976	453.25
363.203	453.25
363.429	451.25
363.656	472.25
363.882	451.25
364.109	465.25
364.335	426.25
364.562	422.25
364.788	459.25
365.015	445.25
365.241	425.25
365.468	454.25
365.694	459.25
365.92	466.25
366.147	460.25
366.373	463.25
366.599	445.25
366.826	458.25
367.052	428.25
367.278	445.25
367.505	441.25
367.731	444.25
367.957	460.25
368.184	468.25
368.41	454.25
368.636	485.25
368.862	484.25
369.089	461.25
369.315	459.25
369.541	450.25
369.767	459.25
369.993	459.25
370.219	439.25
370.445	439.25
370.672	460.25
370.898	457.25
371.124	472.25
371.35	443.25
371.576	451.25
371.802	439.25
372.028	446.25
372.254	463.25
372.48	447.25
372.706	449.25
372.932	446.25
373.158	479.25
373.384	450.25
373.61	466.25
373.835	465.25
374.061	452.25
374.287	457.25
374.513	455.25
374.739	461.25
374.965	461.25
375.191	491.25
375.416	479.25
375.642	455.25
375.868	470.25
376.094	466.25
376.319	446.25
376.545	455.25
376.771	456.25
376.997	452.25
377.222	456.25
377.448	459.25
377.674	453.25
377.899	454.25
378.125	459.25
378.35	443.25
378.576	460.25
378.802	461.25
379.027	449.25
379.253	457.25
379.478	451.25
379.704	439.25
379.929	484.25
380.155	448.25
380.38	478.25
380.606	466.25
380.831	456.25
381.057	458.25
381.282	457.25
381.507	474.25
381.733	461.25
381.958	466.25
382.184	461.25
382.409	468.25
382.634	469.25
382.86	479.25
383.085	452.25
383.31	488.25
383.535	461.25
383.761	473.25
383.986	497.25
384.211	494.25
384.436	486.25
384.662	506.25
384.887	503.25
385.112	517.25
385.337	497.25
385.562	511.25
385.787	482.25
386.013	511.25
386.238	507.25
386.463	532.25
386.688	525.25
386.913	506.25
387.138	506.25
387.363	479.25
387.588	529.25
387.813	512.25
388.038	519.25
388.263	523.25
388.488	539.25
388.713	521.25
388.938	522.25
389.163	525.25
389.387	528.25
389.612	502.25
389.837	508.25
390.062	501.25
390.287	516.25
390.512	506.25
390.736	520.25
390.961	520.25
391.186	512.25
391.411	533.25
391.636	538.25
391.86	515.25
392.085	556.25
392.31	523.25
392.534	528.25
392.759	537.25
392.984	534.25
393.208	529.25
393.433	514.25
393.658	530.25
393.882	517.25
394.107	542.25
394.331	550.25
394.556	533.25
394.78	526.25
395.005	521.25
395.229	534.25
395.454	554.25
395.678	556.25
395.903	578.25
396.127	588.25
396.352	575.25
396.576	571.25
396.801	536.25
397.025	527.25
397.249	535.25
397.474	540.25
397.698	545.25
397.922	567.25
398.147	581.25
398.371	591.25
398.595	579.25
398.82	571.25
399.044	603.25
399.268	647.25
399.492	682.25
399.717	739.25
399.941	758.25
400.165	749.25
400.389	769.25
400.613	697.25
400.837	664.25
401.062	619.25
401.286	615.25
401.51	589.25
401.734	604.25
401.958	621.25
402.182	580.25
402.406	626.25
402.63	615.25
402.854	612.25
403.078	637.25
403.302	618.25
403.526	620.25
403.75	656.25
403.974	619.25
404.198	628.25
404.422	649.25
404.645	664.25
404.869	655.25
405.093	693.25
405.317	721.25
405.541	738.25
405.765	710.25
405.988	667.25
406.212	660.25
406.436	668.25
406.66	671.25
406.883	679.25
407.107	730.25
407.331	727.25
407.555	803.25
407.778	837.25
408.002	742.25
408.226	695.25
408.449	705.25
408.673	712.25
408.896	727.25
409.12	745.25
409.344	710.25
409.567	659.25
409.791	649.25
410.014	642.25
410.238	646.25
410.461	619.25
410.685	643.25
410.908	667.25
411.132	671.25
411.355	685.25
411.578	695.25
411.802	629.25
412.025	620.25
412.249	635.25
412.472	635.25
412.695	700.25
412.919	686.25
413.142	631.25
413.365	639.25
413.589	616.25
413.812	624.25
414.035	596.25
414.258	607.25
414.482	576.25
414.705	605.25
414.928	592.25
415.151	590.25
415.374	601.25
415.597	586.25
415.821	596.25
416.044	588.25
416.267	616.25
416.49	583.25
416.713	592.25
416.936	591.25
417.159	584.25
417.382	608.25
417.605	606.25
417.828	616.25
418.051	619.25
418.274	604.25
418.497	603.25
418.72	612.25
418.943	585.25
419.166	601.25
419.389	666.25
419.611	659.25
419.834	643.25
420.057	647.25
420.28	621.25
420.503	637.25
420.726	633.25
420.948	647.25
421.171	669.25
421.394	704.25
421.617	654.25
421.839	631.25
422.062	608.25
422.285	627.25
422.507	675.25
422.73	762.25
422.953	747.25
423.175	657.25
423.398	645.25
423.621	673.25
423.843	652.25
424.066	673.25
424.288	661.25
424.511	701.25
424.733	723.25
424.956	813.25
425.178	787.25
425.401	786.25
425.623	815.25
425.846	702.25
426.068	666.25
426.291	642.25
426.513	649.25
426.735	644.25
426.958	694.25
427.18	755.25
427.402	895.25
427.625	975.25
427.847	833.25
428.069	726.25
428.292	687.25
428.514	645.25
428.736	627.25
428.958	619.25
429.181	597.25
429.403	582.25
429.625	595.25
429.847	651.25
430.069	701.25
430.292	689.25
430.514	609.25
430.736	590.25
430.958	602.25
431.18	580.25
431.402	575.25
431.624	564.25
431.846	573.25
432.068	575.25
432.29	578.25
432.512	589.25
432.734	580.25
432.956	593.25
433.178	603.25
433.4	586.25
433.622	584.25
433.844	578.25
434.066	564.25
434.287	565.25
434.509	603.25
434.731	611.25
434.953	598.25
435.175	636.25
435.397	664.25
435.618	660.25
435.84	699.25
436.062	745.25
436.284	851.25
436.505	721.25
436.727	648.25
436.949	630.25
437.17	583.25
437.392	611.25
437.614	605.25
437.835	621.25
438.057	727.25
438.278	831.25
438.5	802.25
438.721	945.25
438.943	875.25
439.165	699.25
439.386	660.25
439.608	659.25
439.829	647.25
440.05	663.25
440.272	702.25
440.493	656.25
440.715	617.25
440.936	632.25
441.158	612.25
441.379	603.25
441.6	632.25
441.822	659.25
442.043	697.25
442.264	764.25
442.486	808.25
442.707	715.25
442.928	654.25
443.149	637.25
443.371	700.25
443.592	728.25
443.813	812.25
444.034	892.25
444.255	780.25
444.476	702.25
444.698	659.25
444.919	675.25
445.14	785.25
445.361	723.25
445.582	719.25
445.803	745.25
446.024	857.25
446.245	845.25
446.466	791.25
446.687	670.25
446.908	654.25
447.129	621.25
447.35	601.25
447.571	585.25
447.792	593.25
448.013	591.25
448.234	611.25
448.455	667.25
448.675	761.25
448.896	930.25
449.117	763.25
449.338	744.25
449.559	828.25
449.779	929.25
450	759.25
450.221	634.25
450.442	587.25
450.662	582.25
450.883	578.25
451.104	583.25
451.324	603.25
451.545	555.25
451.766	534.25
451.986	522.25
452.207	530.25
452.428	524.25
452.648	537.25
452.869	519.25
453.089	560.25
453.31	553.25
453.53	541.25
453.751	525.25
453.971	519.25
454.192	539.25
454.412	548.25
454.633	520.25
454.853	521.25
455.073	517.25
455.294	553.25
455.514	635.25
455.734	590.25
455.955	533.25
456.175	513.25
456.395	492.25
456.616	503.25
456.836	519.25
457.056	526.25
457.276	505.25
457.497	516.25
457.717	517.25
457.937	494.25
458.157	530.25
458.377	537.25
458.598	544.25
458.818	599.25
459.038	667.25
459.258	685.25
459.478	617.25
459.698	594.25
459.918	580.25
460.138	585.25
460.358	607.25
460.578	601.25
460.798	598.25
461.018	615.25
461.238	592.25
461.458	609.25
461.678	597.25
461.898	610.25
462.118	606.25
462.338	634.25
462.558	625.25
462.777	625.25
462.997	675.25
463.217	699.25
463.437	694.25
463.657	675.25
463.876	653.25
464.096	633.25
464.316	627.25
464.536	630.25
464.755	658.25
464.975	658.25
465.195	677.25
465.414	685.25
465.634	647.25
465.854	605.25
466.073	583.25
466.293	571.25
466.512	575.25
466.732	556.25
466.951	576.25
467.171	547.25
467.391	552.25
467.61	564.25
467.829	559.25
468.049	567.25
468.268	561.25
468.488	553.25
468.707	526.25
468.927	536.25
469.146	545.25
469.365	539.25
469.585	548.25
469.804	554.25
470.023	556.25
470.243	567.25
470.462	577.25
470.681	584.25
470.901	603.25
471.12	562.25
471.339	558.25
471.558	557.25
471.777	573.25
471.997	568.25
472.216	557.25
472.435	576.25
472.654	544.25
472.873	548.25
473.092	549.25
473.311	542.25
473.53	558.25
473.749	536.25
473.968	596.25
474.187	679.25
474.406	714.25
474.625	592.25
474.844	565.25
475.063	558.25
475.282	545.25
475.501	553.25
475.72	582.25
475.939	575.25
476.158	565.25
476.377	565.25
476.596	585.25
476.814	595.25
477.033	584.25
477.252	595.25
477.471	581.25
477.69	585.25
477.908	628.25
478.127	617.25
478.346	602.25
478.564	627.25
478.783	619.25
479.002	648.25
479.22	648.25
479.439	655.25
479.658	658.25
479.876	686.25
480.095	678.25
480.313	720.25
480.532	723.25
480.751	692.25
480.969	692.25
481.188	724.25
481.406	734.25
481.624	708.25
481.843	681.25
482.061	681.25
482.28	658.25
482.498	636.25
482.717	663.25
482.935	675.25
483.153	659.25
483.372	647.25
483.59	654.25
483.808	626.25
484.027	655.25
484.245	664.25
484.463	634.25
484.681	665.25
484.9	684.25
485.118	687.25
485.336	694.25
485.554	667.25
485.772	686.25
485.99	672.25
486.209	666.25
486.427	696.25
486.645	677.25
486.863	686.25
487.081	696.25
487.299	701.25
487.517	681.25
487.735	683.25
487.953	705.25
488.171	702.25
488.389	693.25
488.607	708.25
488.825	705.25
489.043	708.25
489.261	736.25
489.479	707.25
489.696	720.25
489.914	726.25
490.132	750.25
490.35	733.25
490.568	738.25
490.786	763.25
491.003	757.25
491.221	775.25
491.439	802.25
491.657	789.25
491.874	794.25
492.092	815.25
492.31	805.25
492.527	811.25
492.745	815.25
492.963	820.25
493.18	817.25
493.398	836.25
493.615	833.25
493.833	819.25
494.05	822.25
494.268	838.25
494.485	837.25
494.703	821.25
494.92	837.25
495.138	806.25
495.355	857.25
495.573	833.25
495.79	825.25
496.008	813.25
496.225	835.25
496.442	853.25
496.66	839.25
496.877	842.25
497.094	866.25
497.312	854.25
497.529	891.25
497.746	892.25
497.963	878.25
498.181	917.25
498.398	916.25
498.615	943.25
498.832	982.25
499.049	997.25
499.267	1043.25
499.484	1093.25
499.701	1118.25
499.918	1172.25
500.135	1229.25
500.352	1324.25
500.569	1336.25
500.786	1343.25
501.003	1326.25
501.22	1287.25
501.437	1219.25
501.654	1148.25
501.871	1111.25
502.088	1063.25
502.305	997.25
502.522	979.25
502.739	971.25
502.956	912.25
503.172	918.25
503.389	897.25
503.606	871.25
503.823	860.25
504.04	860.25
504.256	855.25
504.473	858.25
504.69	853.25
504.907	846.25
505.123	828.25
505.34	801.25
505.557	800.25
505.773	830.25
505.99	803.25
506.207	793.25
506.423	772.25
506.64	760.25
506.856	757.25
507.073	751.25
507.289	744.25
507.506	756.25
507.722	766.25
507.939	733.25
508.155	753.25
508.372	726.25
508.588	737.25
508.805	748.25
509.021	721.25
509.238	738.25
509.454	710.25
509.67	737.25
509.887	743.25
510.103	722.25
510.319	712.25
510.536	808.25
510.752	1154.25
510.968	998.25
511.184	732.25
511.401	714.25
511.617	686.25
511.833	665.25
512.049	692.25
512.265	687.25
512.481	699.25
512.698	695.25
512.914	678.25
513.13	692.25
513.346	689.25
513.562	692.25
513.778	689.25
513.994	669.25
514.21	690.25
514.426	692.25
514.642	742.25
514.858	753.25
515.074	779.25
515.29	853.25
515.506	1161.25
515.721	989.25
515.937	750.25
516.153	736.25
516.369	715.25
516.585	728.25
516.801	704.25
517.016	721.25
517.232	766.25
517.448	739.25
517.664	771.25
517.879	748.25
518.095	738.25
518.311	736.25
518.527	746.25
518.742	748.25
518.958	722.25
519.173	710.25
519.389	718.25
519.605	678.25
519.82	683.25
520.036	703.25
520.251	714.25
520.467	725.25
520.682	734.25
520.898	735.25
521.113	734.25
521.329	731.25
521.544	801.25
521.76	930.25
521.975	1422.25
522.19	1390.25
522.406	871.25
522.621	727.25
522.836	661.25
523.052	653.25
523.267	644.25
523.482	649.25
523.698	628.25
523.913	627.25
524.128	633.25
524.343	628.25
524.559	603.25
524.774	598.25
524.989	590.25
525.204	609.25
525.419	593.25
525.634	590.25
525.849	550.25
526.064	581.25
526.28	571.25
526.495	575.25
526.71	579.25
526.925	582.25
527.14	557.25
527.355	568.25
527.57	563.25
527.785	579.25
527.999	567.25
528.214	568.25
528.429	585.25
528.644	563.25
528.859	573.25
529.074	574.25
529.289	593.25
529.503	660.25
529.718	641.25
529.933	587.25
530.148	587.25
530.363	596.25
530.577	574.25
530.792	567.25
531.007	562.25
531.221	545.25
531.436	539.25
531.651	558.25
531.865	565.25
532.08	569.25
532.295	563.25
532.509	545.25
532.724	548.25
532.938	546.25
533.153	566.25
533.367	549.25
533.582	573.25
533.796	555.25
534.011	553.25
534.225	540.25
534.44	537.25
534.654	545.25
534.868	540.25
535.083	554.25
535.297	546.25
535.511	539.25
535.726	533.25
535.94	565.25
536.154	566.25
536.369	550.25
536.583	542.25
536.797	537.25
537.011	530.25
537.225	518.25
537.44	508.25
537.654	550.25
537.868	526.25
538.082	536.25
538.296	540.25
538.51	507.25
538.724	509.25
538.938	527.25
539.153	522.25
539.367	540.25
539.581	543.25
539.795	538.25
540.009	517.25
540.222	526.25
540.436	526.25
540.65	538.25
540.864	515.25
541.078	529.25
541.292	535.25
541.506	545.25
541.72	528.25
541.934	522.25
542.147	533.25
542.361	561.25
542.575	518.25
542.789	525.25
543.002	525.25
543.216	550.25
543.43	542.25
543.644	514.25
543.857	531.25
544.071	525.25
544.285	561.25
544.498	529.25
544.712	522.25
544.925	522.25
545.139	550.25
545.352	547.25
545.566	517.25
545.779	513.25
545.993	505.25
546.206	545.25
546.42	520.25
546.633	514.25
546.847	527.25
547.06	516.25
547.274	506.25
547.487	548.25
547.7	527.25
547.914	520.25
548.127	518.25
548.34	522.25
548.554	517.25
548.767	520.25
548.98	561.25
549.193	534.25
549.407	532.25
549.62	522.25
549.833	548.25
550.046	534.25
550.259	508.25
550.473	494.25
550.686	520.25
550.899	493.25
551.112	505.25
551.325	497.25
551.538	499.25
551.751	494.25
551.964	513.25
552.177	521.25
552.39	502.25
552.603	513.25
552.816	515.25
553.029	533.25
553.242	525.25
553.455	532.25
553.667	551.25
553.88	536.25
554.093	531.25
554.306	545.25
554.519	515.25
554.732	530.25
554.944	535.25
555.157	514.25
555.37	502.25
555.583	491.25
555.795	521.25
556.008	491.25
556.221	490.25
556.433	450.25
556.646	458.25
556.859	490.25
557.071	482.25
557.284	484.25
557.496	488.25
557.709	471.25
557.921	463.25
558.134	462.25
558.346	453.25
558.559	442.25
558.771	447.25
558.984	453.25
559.196	461.25
559.409	451.25
559.621	469.25
559.833	456.25
560.046	442.25
560.258	443.25
560.47	450.25
560.683	436.25
560.895	457.25
561.107	445.25
561.32	450.25
561.532	477.25
561.744	471.25
561.956	462.25
562.168	453.25
562.381	445.25
562.593	466.25
562.805	458.25
563.017	449.25
563.229	463.25
563.441	451.25
563.653	463.25
563.865	476.25
564.077	482.25
564.289	484.25
564.501	481.25
564.713	459.25
564.925	464.25
565.137	502.25
565.349	482.25
565.561	518.25
565.773	511.25
565.985	506.25
566.197	556.25
566.408	526.25
566.62	562.25
566.832	611.25
567.044	627.25
567.255	591.25
567.467	611.25
567.679	645.25
567.891	654.25
568.102	637.25
568.314	629.25
568.526	587.25
568.737	577.25
568.949	558.25
569.161	497.25
569.372	502.25
569.584	494.25
569.795	493.25
570.007	461.25
570.218	503.25
570.43	491.25
570.641	453.25
570.853	454.25
571.064	466.25
571.276	441.25
571.487	455.25
571.698	429.25
571.91	417.25
572.121	422.25
572.333	429.25
572.544	430.25
572.755	409.25
572.966	397.25
573.178	419.25
573.389	412.25
573.6	414.25
573.811	395.25
574.023	387.25
574.234	377.25
574.445	384.25
574.656	385.25
574.867	385.25
575.078	399.25
575.289	379.25
575.501	393.25
575.712	378.25
575.923	390.25
576.134	404.25
576.345	361.25
576.556	376.25
576.767	377.25
576.978	381.25
577.188	381.25
577.399	356.25
577.61	370.25
577.821	360.25
578.032	383.25
578.243	387.25
578.454	550.25
578.665	443.25
578.875	387.25
579.086	369.25
579.297	372.25
579.508	359.25
579.718	379.25
579.929	366.25
580.14	360.25
580.35	358.25
580.561	361.25
580.772	353.25
580.982	336.25
581.193	348.25
581.403	360.25
581.614	362.25
581.825	333.25
582.035	342.25
582.246	355.25
582.456	362.25
582.667	358.25
582.877	361.25
583.087	355.25
583.298	354.25
583.508	354.25
583.719	344.25
583.929	366.25
584.139	355.25
584.35	346.25
584.56	363.25
584.77	353.25
584.981	356.25
585.191	348.25
585.401	346.25
585.611	326.25
585.821	343.25
586.032	347.25
586.242	326.25
586.452	339.25
586.662	332.25
586.872	334.25
587.082	352.25
587.292	338.25
587.502	358.25
587.713	329.25
587.923	366.25
588.133	335.25
588.343	334.25
588.553	335.25
588.762	325.25
588.972	341.25
589.182	347.25
589.392	332.25
589.602	343.25
589.812	332.25
590.022	334.25
590.232	346.25
590.441	361.25
590.651	335.25
590.861	325.25
591.071	348.25
591.281	337.25
591.49	338.25
591.7	358.25
591.91	354.25
592.119	343.25
592.329	349.25
592.539	357.25
592.748	358.25
592.958	372.25
593.167	376.25
593.377	378.25
593.587	398.25
593.796	364.25
594.006	382.25
594.215	385.25
594.424	389.25
594.634	382.25
594.843	365.25
595.053	357.25
595.262	358.25
595.472	349.25
595.681	333.25
595.89	341.25
596.1	342.25
596.309	336.25
596.518	333.25
596.727	331.25
596.937	349.25
597.146	317.25
597.355	328.25
597.564	305.25
597.774	309.25
597.983	312.25
598.192	307.25
598.401	306.25
598.61	298.25
598.819	310.25
599.028	301.25
599.237	309.25
599.446	309.25
599.655	301.25
599.864	307.25
600.073	310.25
600.282	305.25
600.491	301.25
600.7	289.25
600.909	315.25
601.118	307.25
601.327	301.25
601.536	293.25
601.745	292.25
601.953	305.25
602.162	310.25
602.371	298.25
602.58	296.25
602.789	309.25
602.997	291.25
603.206	317.25
603.415	285.25
603.623	283.25
603.832	293.25
604.041	294.25
604.249	269.25
604.458	281.25
604.666	289.25
604.875	258.25
605.084	287.25
605.292	281.25
605.501	283.25
605.709	297.25
605.918	285.25
606.126	289.25
606.334	298.25
606.543	284.25
606.751	286.25
606.96	286.25
607.168	289.25
607.376	287.25
607.585	278.25
607.793	294.25
608.001	289.25
608.21	278.25
608.418	278.25
608.626	276.25
608.834	290.25
609.043	288.25
609.251	293.25
609.459	272.25
609.667	263.25
609.875	272.25
610.083	277.25
610.291	275.25
610.499	281.25
610.707	266.25
610.916	273.25
611.124	287.25
611.332	284.25
611.54	293.25
611.748	285.25
611.955	273.25
612.163	284.25
612.371	291.25
612.579	285.25
612.787	289.25
612.995	276.25
613.203	262.25
613.411	279.25
613.618	273.25
613.826	276.25
614.034	298.25
614.242	271.25
614.449	262.25
614.657	269.25
614.865	265.25
615.072	263.25
615.28	265.25
615.488	274.25
615.695	262.25
615.903	261.25
616.111	267.25
616.318	283.25
616.526	272.25
616.733	271.25
616.941	289.25
617.148	270.25
617.356	273.25
617.563	277.25
617.771	260.25
617.978	280.25
618.185	279.25
618.393	268.25
618.6	259.25
618.807	268.25
619.015	290.25
619.222	271.25
619.429	269.25
619.637	266.25
619.844	242.25
620.051	258.25
620.258	256.25
620.466	257.25
620.673	266.25
620.88	261.25
621.087	251.25
621.294	251.25
621.501	259.25
621.708	247.25
621.915	247.25
622.122	274.25
622.329	268.25
622.536	265.25
622.743	266.25
622.95	262.25
623.157	272.25
623.364	251.25
623.571	266.25
623.778	263.25
623.985	258.25
624.192	241.25
624.399	249.25
624.606	246.25
624.812	243.25
625.019	233.25
625.226	222.25
625.433	245.25
625.639	228.25
625.846	241.25
626.053	244.25
626.259	249.25
626.466	238.25
626.673	241.25
626.879	236.25
627.086	228.25
627.293	229.25
627.499	233.25
627.706	233.25
627.912	219.25
628.119	246.25
628.325	229.25
628.532	242.25
628.738	227.25
628.945	221.25
629.151	232.25
629.357	229.25
629.564	241.25
629.77	209.25
629.976	227.25
630.183	239.25
630.389	226.25
630.595	230.25
630.802	221.25
631.008	222.25
631.214	226.25
631.42	229.25
631.627	230.25
631.833	216.25
632.039	225.25
632.245	208.25
632.451	213.25
632.657	231.25
632.863	221.25
633.069	218.25
633.275	218.25
633.481	228.25
633.688	217.25
633.893	217.25
634.099	198.25
634.305	216.25
634.511	207.25
634.717	213.25
634.923	182.25
635.129	195.25
635.335	190.25
635.541	212.25
635.747	208.25
635.952	218.25
636.158	221.25
636.364	234.25
636.57	215.25
636.775	212.25
636.981	197.25
637.187	212.25
637.392	202.25
637.598	216.25
637.804	213.25
638.009	206.25
638.215	201.25
638.421	187.25
638.626	201.25
638.832	220.25
639.037	193.25
639.243	195.25
639.448	194.25
639.654	201.25
639.859	203.25
640.065	193.25
640.27	209.25
640.475	215.25
640.681	204.25
640.886	191.25
641.091	196.25
641.297	190.25
641.502	188.25
641.707	202.25
641.913	183.25
642.118	196.25
642.323	205.25
642.528	208.25
642.733	185.25
642.939	189.25
643.144	200.25
643.349	171.25
643.554	182.25
643.759	189.25
643.964	184.25
644.169	185.25
644.374	176.25
644.579	182.25
644.784	195.25
644.989	203.25
645.194	171.25
645.399	199.25
645.604	162.25
645.809	189.25
646.014	181.25
646.219	177.25
646.423	187.25
646.628	193.25
646.833	194.25
647.038	200.25
647.243	196.25
647.447	179.25
647.652	195.25
647.857	201.25
648.062	184.25
648.266	184.25
648.471	201.25
648.676	210.25
648.88	189.25
649.085	196.25
649.289	179.25
649.494	177.25
649.698	195.25
649.903	191.25
650.107	195.25
650.312	174.25
650.516	166.25
650.721	162.25
650.925	161.25
651.13	163.25
651.334	159.25
651.539	154.25
651.743	168.25
651.947	178.25
652.152	167.25
652.356	172.25
652.56	166.25
652.764	168.25
652.969	161.25
653.173	148.25
653.377	156.25
653.581	138.25
653.785	149.25
653.99	135.25
654.194	157.25
654.398	153.25
654.602	149.25
654.806	158.25
655.01	154.25
655.214	161.25
655.418	143.25
655.622	151.25
655.826	151.25
656.03	141.25
656.234	159.25
656.438	141.25
656.642	153.25
656.846	150.25
657.049	133.25
657.253	139.25
657.457	129.25
657.661	131.25
657.865	126.25
658.068	125.25
658.272	111.25
658.476	133.25
658.68	104.25
658.883	106.25
659.087	118.25
659.291	105.25
659.494	109.25
659.698	106.25
659.901	105.25
660.105	89.25
660.309	109.25
660.512	91.25
660.716	85.25
660.919	104.25
661.123	97.25
661.326	90.25
661.53	88.25
661.733	103.25
661.936	100.25
662.14	106.25
662.343	92.25
662.546	97.25
662.75	99.25
662.953	93.25
663.156	90.25
663.36	87.25
663.563	89.25
663.766	89.25
663.969	81.25
664.173	74.25
664.376	92.25
664.579	101.25
664.782	92.25
664.985	89.25
665.188	90.25
665.391	70.25
665.594	79.25
665.797	93.25
666	81.25
666.203	71.25
666.406	87.25
666.609	74.25
666.812	92.25
667.015	81.25
667.218	89.25
667.421	90.25
667.624	70.25
667.827	85.25
668.03	78.25
668.232	87.25
668.435	83.25
668.638	88.25
668.841	93.25
669.043	87.25
669.246	84.25
669.449	94.25
669.651	99.25
669.854	98.25
670.057	89.25
670.259	85.25
670.462	79.25
670.665	87.25
670.867	91.25
671.07	97.25
671.272	104.25
671.475	78.25
671.677	97.25
671.88	81.25
672.082	86.25
672.284	98.25
672.487	73.25
672.689	73.25
672.892	91.25
