Data from 1974.PennyLincolnUp.Lamp.En5.5.200Scan.071719.P1.Changed Mount._HRD10591_15-51-31-855.txt Node
Date: Thu Jul 18 15:51:31 EDT 2019
User: cochatt
Spectrometer: HR+D1059
Trigger mode: 1
Integration Time (sec): 1.000000E-1
Scans to average: 1
Electric dark correction enabled: true
Nonlinearity correction enabled: false
Boxcar width: 0
XAxis mode: Wavelengths
Number of Pixels in Spectrum: 2048
>>>>>Begin Spectral Data<<<<<
223.165	-26.25
223.4	-26.25
223.635	-26.25
223.869	-8.25
224.104	-27.25
224.338	-7.25
224.573	-6.25
224.808	-17.25
225.042	-2.25
225.277	3.75
225.511	-0.25
225.746	-0.25
225.98	8.75
226.215	-1.25
226.449	12.75
226.683	30.75
226.918	11.75
227.152	28.75
227.387	30.75
227.621	35.75
227.856	39.75
228.09	44.75
228.324	63.75
228.559	60.75
228.793	73.75
229.027	108.75
229.262	97.75
229.496	120.75
229.73	115.75
229.964	157.75
230.199	122.75
230.433	117.75
230.667	99.75
230.901	111.75
231.136	131.75
231.37	115.75
231.604	101.75
231.838	115.75
232.072	119.75
232.306	93.75
232.541	104.75
232.775	114.75
233.009	110.75
233.243	119.75
233.477	119.75
233.711	115.75
233.945	119.75
234.179	127.75
234.413	113.75
234.647	129.75
234.881	119.75
235.115	115.75
235.349	117.75
235.583	129.75
235.817	120.75
236.051	127.75
236.285	141.75
236.519	124.75
236.753	130.75
236.987	144.75
237.221	168.75
237.455	223.75
237.689	194.75
237.922	142.75
238.156	143.75
238.39	139.75
238.624	134.75
238.858	121.75
239.091	128.75
239.325	125.75
239.559	113.75
239.793	124.75
240.027	140.75
240.26	140.75
240.494	161.75
240.728	156.75
240.961	155.75
241.195	146.75
241.429	141.75
241.662	133.75
241.896	136.75
242.13	141.75
242.363	140.75
242.597	143.75
242.83	146.75
243.064	143.75
243.298	137.75
243.531	143.75
243.765	146.75
243.998	163.75
244.232	161.75
244.465	151.75
244.699	150.75
244.932	147.75
245.166	140.75
245.399	158.75
245.633	151.75
245.866	150.75
246.099	148.75
246.333	153.75
246.566	158.75
246.8	154.75
247.033	153.75
247.266	161.75
247.5	172.75
247.733	179.75
247.966	194.75
248.2	163.75
248.433	159.75
248.666	169.75
248.899	184.75
249.133	189.75
249.366	196.75
249.599	194.75
249.832	188.75
250.066	206.75
250.299	191.75
250.532	189.75
250.765	199.75
250.998	221.75
251.231	221.75
251.465	203.75
251.698	209.75
251.931	206.75
252.164	193.75
252.397	205.75
252.63	195.75
252.863	208.75
253.096	190.75
253.329	200.75
253.562	222.75
253.795	219.75
254.028	227.75
254.261	224.75
254.494	225.75
254.727	246.75
254.96	249.75
255.193	251.75
255.426	260.75
255.659	218.75
255.892	216.75
256.124	214.75
256.357	224.75
256.59	214.75
256.823	218.75
257.056	205.75
257.289	213.75
257.521	212.75
257.754	207.75
257.987	198.75
258.22	191.75
258.452	211.75
258.685	211.75
258.918	206.75
259.151	211.75
259.383	215.75
259.616	216.75
259.849	227.75
260.081	228.75
260.314	239.75
260.547	258.75
260.779	243.75
261.012	250.75
261.244	238.75
261.477	234.75
261.71	212.75
261.942	213.75
262.175	231.75
262.407	238.75
262.64	215.75
262.872	228.75
263.105	220.75
263.337	209.75
263.57	230.75
263.802	224.75
264.035	215.75
264.267	214.75
264.499	219.75
264.732	215.75
264.964	218.75
265.197	215.75
265.429	204.75
265.661	221.75
265.894	221.75
266.126	229.75
266.358	230.75
266.591	227.75
266.823	215.75
267.055	234.75
267.287	215.75
267.52	224.75
267.752	241.75
267.984	244.75
268.216	220.75
268.448	222.75
268.681	240.75
268.913	241.75
269.145	268.75
269.377	264.75
269.609	270.75
269.841	265.75
270.073	259.75
270.306	268.75
270.538	303.75
270.77	285.75
271.002	272.75
271.234	283.75
271.466	282.75
271.698	298.75
271.93	288.75
272.162	297.75
272.394	290.75
272.626	272.75
272.858	280.75
273.09	245.75
273.322	277.75
273.553	269.75
273.785	247.75
274.017	267.75
274.249	282.75
274.481	268.75
274.713	261.75
274.945	288.75
275.176	255.75
275.408	275.75
275.64	277.75
275.872	261.75
276.104	275.75
276.335	264.75
276.567	271.75
276.799	278.75
277.031	277.75
277.262	308.75
277.494	317.75
277.726	301.75
277.957	280.75
278.189	273.75
278.421	280.75
278.652	285.75
278.884	265.75
279.115	274.75
279.347	262.75
279.579	260.75
279.81	269.75
280.042	258.75
280.273	275.75
280.505	260.75
280.736	268.75
280.968	272.75
281.199	283.75
281.431	282.75
281.662	271.75
281.894	275.75
282.125	269.75
282.356	293.75
282.588	305.75
282.819	301.75
283.051	285.75
283.282	270.75
283.513	274.75
283.745	270.75
283.976	291.75
284.207	285.75
284.439	287.75
284.67	293.75
284.901	292.75
285.132	271.75
285.364	299.75
285.595	310.75
285.826	286.75
286.057	282.75
286.288	272.75
286.52	286.75
286.751	295.75
286.982	283.75
287.213	298.75
287.444	288.75
287.675	279.75
287.906	287.75
288.138	280.75
288.369	320.75
288.6	303.75
288.831	283.75
289.062	292.75
289.293	311.75
289.524	291.75
289.755	297.75
289.986	301.75
290.217	291.75
290.448	291.75
290.679	300.75
290.91	299.75
291.141	300.75
291.371	308.75
291.602	305.75
291.833	279.75
292.064	300.75
292.295	299.75
292.526	302.75
292.757	301.75
292.987	310.75
293.218	301.75
293.449	295.75
293.68	287.75
293.91	307.75
294.141	316.75
294.372	286.75
294.603	299.75
294.833	328.75
295.064	300.75
295.295	308.75
295.525	292.75
295.756	307.75
295.987	323.75
296.217	314.75
296.448	304.75
296.679	308.75
296.909	298.75
297.14	318.75
297.37	320.75
297.601	294.75
297.831	294.75
298.062	300.75
298.292	319.75
298.523	319.75
298.753	325.75
298.984	318.75
299.214	296.75
299.445	327.75
299.675	319.75
299.905	312.75
300.136	341.75
300.366	326.75
300.597	326.75
300.827	327.75
301.057	320.75
301.288	329.75
301.518	330.75
301.748	327.75
301.979	337.75
302.209	333.75
302.439	332.75
302.669	339.75
302.9	310.75
303.13	321.75
303.36	343.75
303.59	332.75
303.82	337.75
304.051	352.75
304.281	352.75
304.511	341.75
304.741	352.75
304.971	330.75
305.201	354.75
305.431	340.75
305.661	357.75
305.891	344.75
306.121	326.75
306.352	332.75
306.582	344.75
306.812	342.75
307.042	334.75
307.272	328.75
307.502	341.75
307.731	327.75
307.961	320.75
308.191	330.75
308.421	324.75
308.651	338.75
308.881	357.75
309.111	327.75
309.341	343.75
309.571	374.75
309.8	361.75
310.03	354.75
310.26	357.75
310.49	380.75
310.72	365.75
310.949	377.75
311.179	364.75
311.409	375.75
311.639	373.75
311.868	367.75
312.098	357.75
312.328	364.75
312.557	382.75
312.787	366.75
313.017	380.75
313.246	383.75
313.476	347.75
313.706	359.75
313.935	373.75
314.165	389.75
314.394	384.75
314.624	396.75
314.853	368.75
315.083	384.75
315.312	379.75
315.542	373.75
315.771	360.75
316.001	365.75
316.23	358.75
316.46	371.75
316.689	378.75
316.919	376.75
317.148	378.75
317.377	387.75
317.607	379.75
317.836	377.75
318.065	384.75
318.295	373.75
318.524	367.75
318.753	400.75
318.983	368.75
319.212	361.75
319.441	364.75
319.67	367.75
319.9	373.75
320.129	387.75
320.358	392.75
320.587	382.75
320.816	394.75
321.046	390.75
321.275	395.75
321.504	384.75
321.733	370.75
321.962	389.75
322.191	389.75
322.42	406.75
322.649	429.75
322.878	417.75
323.108	428.75
323.337	450.75
323.566	445.75
323.795	459.75
324.024	486.75
324.253	566.75
324.482	714.75
324.71	1108.75
324.939	1587.75
325.168	1417.75
325.397	756.75
325.626	539.75
325.855	471.75
326.084	465.75
326.313	471.75
326.542	463.75
326.77	472.75
326.999	544.75
327.228	688.75
327.457	996.75
327.686	1205.75
327.914	831.75
328.143	563.75
328.372	528.75
328.6	495.75
328.829	491.75
329.058	500.75
329.287	520.75
329.515	480.75
329.744	473.75
329.972	461.75
330.201	451.75
330.43	477.75
330.658	514.75
330.887	533.75
331.115	522.75
331.344	505.75
331.572	472.75
331.801	459.75
332.03	437.75
332.258	440.75
332.486	438.75
332.715	444.75
332.943	444.75
333.172	458.75
333.4	478.75
333.629	470.75
333.857	479.75
334.085	481.75
334.314	485.75
334.542	502.75
334.771	509.75
334.999	491.75
335.227	474.75
335.455	457.75
335.684	481.75
335.912	463.75
336.14	454.75
336.369	452.75
336.597	445.75
336.825	451.75
337.053	465.75
337.281	441.75
337.51	417.75
337.738	450.75
337.966	457.75
338.194	437.75
338.422	433.75
338.65	444.75
338.878	445.75
339.106	448.75
339.334	446.75
339.562	440.75
339.79	423.75
340.018	415.75
340.246	445.75
340.474	439.75
340.702	449.75
340.93	447.75
341.158	443.75
341.386	426.75
341.614	435.75
341.842	442.75
342.07	430.75
342.298	432.75
342.526	428.75
342.754	413.75
342.981	426.75
343.209	425.75
343.437	430.75
343.665	452.75
343.893	455.75
344.12	470.75
344.348	467.75
344.576	454.75
344.804	481.75
345.031	468.75
345.259	455.75
345.487	420.75
345.714	444.75
345.942	440.75
346.17	453.75
346.397	408.75
346.625	423.75
346.853	403.75
347.08	411.75
347.308	411.75
347.535	417.75
347.763	441.75
347.99	431.75
348.218	429.75
348.445	429.75
348.673	422.75
348.9	432.75
349.128	414.75
349.355	401.75
349.583	402.75
349.81	415.75
350.037	420.75
350.265	401.75
350.492	401.75
350.72	402.75
350.947	407.75
351.174	421.75
351.402	417.75
351.629	414.75
351.856	433.75
352.083	435.75
352.311	403.75
352.538	426.75
352.765	431.75
352.992	412.75
353.22	418.75
353.447	413.75
353.674	431.75
353.901	398.75
354.128	421.75
354.355	403.75
354.583	409.75
354.81	392.75
355.037	381.75
355.264	396.75
355.491	375.75
355.718	398.75
355.945	399.75
356.172	397.75
356.399	411.75
356.626	380.75
356.853	407.75
357.08	422.75
357.307	410.75
357.534	417.75
357.761	411.75
357.988	409.75
358.215	408.75
358.441	423.75
358.668	416.75
358.895	414.75
359.122	409.75
359.349	397.75
359.576	428.75
359.802	403.75
360.029	429.75
360.256	461.75
360.483	461.75
360.709	431.75
360.936	401.75
361.163	416.75
361.39	417.75
361.616	413.75
361.843	426.75
362.07	416.75
362.296	428.75
362.523	439.75
362.749	424.75
362.976	440.75
363.203	429.75
363.429	404.75
363.656	428.75
363.882	404.75
364.109	407.75
364.335	395.75
364.562	418.75
364.788	425.75
365.015	433.75
365.241	431.75
365.468	428.75
365.694	414.75
365.92	414.75
366.147	414.75
366.373	405.75
366.599	407.75
366.826	419.75
367.052	401.75
367.278	432.75
367.505	415.75
367.731	427.75
367.957	399.75
368.184	432.75
368.41	439.75
368.636	412.75
368.862	454.75
369.089	433.75
369.315	389.75
369.541	420.75
369.767	409.75
369.993	398.75
370.219	423.75
370.445	411.75
370.672	412.75
370.898	430.75
371.124	444.75
371.35	445.75
371.576	439.75
371.802	422.75
372.028	425.75
372.254	431.75
372.48	418.75
372.706	433.75
372.932	424.75
373.158	421.75
373.384	448.75
373.61	435.75
373.835	432.75
374.061	431.75
374.287	450.75
374.513	452.75
374.739	423.75
374.965	451.75
375.191	460.75
375.416	455.75
375.642	448.75
375.868	454.75
376.094	427.75
376.319	419.75
376.545	435.75
376.771	455.75
376.997	428.75
377.222	438.75
377.448	424.75
377.674	416.75
377.899	432.75
378.125	402.75
378.35	399.75
378.576	447.75
378.802	414.75
379.027	423.75
379.253	421.75
379.478	416.75
379.704	433.75
379.929	422.75
380.155	451.75
380.38	445.75
380.606	435.75
380.831	443.75
381.057	429.75
381.282	405.75
381.507	438.75
381.733	439.75
381.958	422.75
382.184	430.75
382.409	455.75
382.634	435.75
382.86	422.75
383.085	454.75
383.31	452.75
383.535	440.75
383.761	464.75
383.986	449.75
384.211	451.75
384.436	453.75
384.662	468.75
384.887	475.75
385.112	475.75
385.337	486.75
385.562	492.75
385.787	480.75
386.013	479.75
386.238	471.75
386.463	478.75
386.688	474.75
386.913	517.75
387.138	472.75
387.363	500.75
387.588	482.75
387.813	475.75
388.038	482.75
388.263	501.75
388.488	494.75
388.713	472.75
388.938	479.75
389.163	476.75
389.387	472.75
389.612	463.75
389.837	477.75
390.062	497.75
390.287	486.75
390.512	477.75
390.736	460.75
390.961	469.75
391.186	483.75
391.411	492.75
391.636	513.75
391.86	492.75
392.085	492.75
392.31	512.75
392.534	490.75
392.759	491.75
392.984	494.75
393.208	495.75
393.433	489.75
393.658	509.75
393.882	485.75
394.107	480.75
394.331	476.75
394.556	487.75
394.78	503.75
395.005	506.75
395.229	498.75
395.454	492.75
395.678	505.75
395.903	508.75
396.127	523.75
396.352	520.75
396.576	519.75
396.801	519.75
397.025	519.75
397.249	525.75
397.474	525.75
397.698	509.75
397.922	548.75
398.147	552.75
398.371	561.75
398.595	530.75
398.82	575.75
399.044	590.75
399.268	618.75
399.492	617.75
399.717	660.75
399.941	696.75
400.165	701.75
400.389	697.75
400.613	632.75
400.837	598.75
401.062	579.75
401.286	565.75
401.51	581.75
401.734	553.75
401.958	571.75
402.182	557.75
402.406	571.75
402.63	569.75
402.854	582.75
403.078	594.75
403.302	578.75
403.526	593.75
403.75	593.75
403.974	596.75
404.198	558.75
404.422	584.75
404.645	593.75
404.869	605.75
405.093	627.75
405.317	648.75
405.541	693.75
405.765	635.75
405.988	610.75
406.212	622.75
406.436	608.75
406.66	636.75
406.883	623.75
407.107	656.75
407.331	697.75
407.555	791.75
407.778	748.75
408.002	687.75
408.226	668.75
408.449	625.75
408.673	633.75
408.896	672.75
409.12	721.75
409.344	675.75
409.567	609.75
409.791	596.75
410.014	582.75
410.238	575.75
410.461	568.75
410.685	589.75
410.908	606.75
411.132	603.75
411.355	640.75
411.578	624.75
411.802	587.75
412.025	582.75
412.249	606.75
412.472	591.75
412.695	622.75
412.919	628.75
413.142	599.75
413.365	559.75
413.589	597.75
413.812	563.75
414.035	557.75
414.258	568.75
414.482	551.75
414.705	570.75
414.928	551.75
415.151	571.75
415.374	571.75
415.597	558.75
415.821	550.75
416.044	580.75
416.267	555.75
416.49	558.75
416.713	546.75
416.936	558.75
417.159	572.75
417.382	565.75
417.605	547.75
417.828	546.75
418.051	566.75
418.274	572.75
418.497	554.75
418.72	569.75
418.943	568.75
419.166	592.75
419.389	608.75
419.611	597.75
419.834	574.75
420.057	580.75
420.28	597.75
420.503	563.75
420.726	575.75
420.948	588.75
421.171	602.75
421.394	662.75
421.617	601.75
421.839	573.75
422.062	579.75
422.285	589.75
422.507	637.75
422.73	718.75
422.953	713.75
423.175	636.75
423.398	605.75
423.621	617.75
423.843	598.75
424.066	615.75
424.288	625.75
424.511	640.75
424.733	696.75
424.956	768.75
425.178	724.75
425.401	719.75
425.623	735.75
425.846	656.75
426.068	592.75
426.291	585.75
426.513	590.75
426.735	602.75
426.958	636.75
427.18	720.75
427.402	855.75
427.625	935.75
427.847	773.75
428.069	709.75
428.292	653.75
428.514	592.75
428.736	583.75
428.958	551.75
429.181	539.75
429.403	537.75
429.625	571.75
429.847	594.75
430.069	622.75
430.292	647.75
430.514	564.75
430.736	571.75
430.958	544.75
431.18	531.75
431.402	543.75
431.624	530.75
431.846	548.75
432.068	501.75
432.29	534.75
432.512	561.75
432.734	547.75
432.956	531.75
433.178	554.75
433.4	552.75
433.622	572.75
433.844	549.75
434.066	535.75
434.287	536.75
434.509	559.75
434.731	555.75
434.953	565.75
435.175	567.75
435.397	610.75
435.618	609.75
435.84	638.75
436.062	705.75
436.284	779.75
436.505	685.75
436.727	611.75
436.949	598.75
437.17	560.75
437.392	564.75
437.614	553.75
437.835	592.75
438.057	671.75
438.278	776.75
438.5	760.75
438.721	864.75
438.943	809.75
439.165	643.75
439.386	628.75
439.608	618.75
439.829	592.75
440.05	599.75
440.272	669.75
440.493	630.75
440.715	657.75
440.936	579.75
441.158	569.75
441.379	568.75
441.6	575.75
441.822	613.75
442.043	647.75
442.264	713.75
442.486	757.75
442.707	638.75
442.928	624.75
443.149	635.75
443.371	655.75
443.592	665.75
443.813	776.75
444.034	832.75
444.255	686.75
444.476	632.75
444.698	619.75
444.919	619.75
445.14	751.75
445.361	685.75
445.582	664.75
445.803	703.75
446.024	781.75
446.245	810.75
446.466	720.75
446.687	601.75
446.908	606.75
447.129	573.75
447.35	569.75
447.571	551.75
447.792	556.75
448.013	529.75
448.234	544.75
448.455	622.75
448.675	696.75
448.896	808.75
449.117	694.75
449.338	660.75
449.559	771.75
449.779	891.75
450	686.75
450.221	578.75
450.442	543.75
450.662	499.75
450.883	513.75
451.104	566.75
451.324	536.75
451.545	515.75
451.766	508.75
451.986	488.75
452.207	523.75
452.428	481.75
452.648	480.75
452.869	482.75
453.089	491.75
453.31	512.75
453.53	495.75
453.751	492.75
453.971	491.75
454.192	524.75
454.412	490.75
454.633	493.75
454.853	455.75
455.073	458.75
455.294	491.75
455.514	573.75
455.734	563.75
455.955	516.75
456.175	473.75
456.395	473.75
456.616	468.75
456.836	492.75
457.056	462.75
457.276	466.75
457.497	480.75
457.717	473.75
457.937	478.75
458.157	468.75
458.377	471.75
458.598	480.75
458.818	538.75
459.038	600.75
459.258	638.75
459.478	562.75
459.698	533.75
459.918	534.75
460.138	555.75
460.358	556.75
460.578	567.75
460.798	565.75
461.018	566.75
461.238	547.75
461.458	567.75
461.678	571.75
461.898	564.75
462.118	565.75
462.338	583.75
462.558	601.75
462.777	608.75
462.997	601.75
463.217	631.75
463.437	615.75
463.657	591.75
463.876	599.75
464.096	617.75
464.316	597.75
464.536	614.75
464.755	607.75
464.975	591.75
465.195	611.75
465.414	633.75
465.634	598.75
465.854	577.75
466.073	554.75
466.293	514.75
466.512	527.75
466.732	515.75
466.951	519.75
467.171	508.75
467.391	515.75
467.61	525.75
467.829	507.75
468.049	519.75
468.268	532.75
468.488	495.75
468.707	485.75
468.927	515.75
469.146	503.75
469.365	515.75
469.585	496.75
469.804	513.75
470.023	538.75
470.243	523.75
470.462	520.75
470.681	528.75
470.901	534.75
471.12	505.75
471.339	527.75
471.558	516.75
471.777	517.75
471.997	516.75
472.216	519.75
472.435	539.75
472.654	520.75
472.873	507.75
473.092	519.75
473.311	509.75
473.53	513.75
473.749	499.75
473.968	542.75
474.187	654.75
474.406	654.75
474.625	560.75
474.844	522.75
475.063	524.75
475.282	529.75
475.501	515.75
475.72	525.75
475.939	522.75
476.158	541.75
476.377	553.75
476.596	513.75
476.814	560.75
477.033	532.75
477.252	546.75
477.471	574.75
477.69	553.75
477.908	555.75
478.127	582.75
478.346	549.75
478.564	584.75
478.783	587.75
479.002	594.75
479.22	619.75
479.439	601.75
479.658	602.75
479.876	634.75
480.095	652.75
480.313	659.75
480.532	682.75
480.751	646.75
480.969	617.75
481.188	655.75
481.406	665.75
481.624	647.75
481.843	622.75
482.061	605.75
482.28	641.75
482.498	618.75
482.717	603.75
482.935	609.75
483.153	604.75
483.372	618.75
483.59	591.75
483.808	587.75
484.027	585.75
484.245	617.75
484.463	627.75
484.681	604.75
484.9	601.75
485.118	637.75
485.336	616.75
485.554	640.75
485.772	650.75
485.99	617.75
486.209	645.75
486.427	612.75
486.645	656.75
486.863	645.75
487.081	645.75
487.299	653.75
487.517	647.75
487.735	630.75
487.953	647.75
488.171	625.75
488.389	659.75
488.607	651.75
488.825	650.75
489.043	661.75
489.261	667.75
489.479	646.75
489.696	651.75
489.914	676.75
490.132	679.75
490.35	668.75
490.568	691.75
490.786	686.75
491.003	698.75
491.221	747.75
491.439	742.75
491.657	745.75
491.874	727.75
492.092	727.75
492.31	744.75
492.527	744.75
492.745	745.75
492.963	753.75
493.18	763.75
493.398	751.75
493.615	768.75
493.833	746.75
494.05	766.75
494.268	771.75
494.485	755.75
494.703	749.75
494.92	777.75
495.138	786.75
495.355	752.75
495.573	775.75
495.79	773.75
496.008	761.75
496.225	780.75
496.442	766.75
496.66	789.75
496.877	763.75
497.094	769.75
497.312	779.75
497.529	806.75
497.746	806.75
497.963	829.75
498.181	817.75
498.398	854.75
498.615	869.75
498.832	894.75
499.049	921.75
499.267	938.75
499.484	990.75
499.701	1035.75
499.918	1083.75
500.135	1156.75
500.352	1214.75
500.569	1229.75
500.786	1239.75
501.003	1254.75
501.22	1173.75
501.437	1105.75
501.654	1063.75
501.871	1021.75
502.088	990.75
502.305	943.75
502.522	914.75
502.739	894.75
502.956	856.75
503.172	810.75
503.389	805.75
503.606	835.75
503.823	830.75
504.04	833.75
504.256	798.75
504.473	787.75
504.69	775.75
504.907	791.75
505.123	765.75
505.34	777.75
505.557	752.75
505.773	726.75
505.99	709.75
506.207	711.75
506.423	718.75
506.64	727.75
506.856	720.75
507.073	701.75
507.289	693.75
507.506	672.75
507.722	707.75
507.939	700.75
508.155	696.75
508.372	665.75
508.588	649.75
508.805	678.75
509.021	657.75
509.238	686.75
509.454	694.75
509.67	648.75
509.887	660.75
510.103	667.75
510.319	679.75
510.536	733.75
510.752	967.75
510.968	864.75
511.184	643.75
511.401	667.75
511.617	649.75
511.833	639.75
512.049	606.75
512.265	629.75
512.481	603.75
512.698	619.75
512.914	617.75
513.13	620.75
513.346	616.75
513.562	614.75
513.778	624.75
513.994	631.75
514.21	631.75
514.426	642.75
514.642	661.75
514.858	679.75
515.074	700.75
515.29	763.75
515.506	940.75
515.721	870.75
515.937	695.75
516.153	665.75
516.369	665.75
516.585	649.75
516.801	660.75
517.016	691.75
517.232	681.75
517.448	677.75
517.664	685.75
517.879	704.75
518.095	691.75
518.311	682.75
518.527	684.75
518.742	674.75
518.958	645.75
519.173	641.75
519.389	623.75
519.605	620.75
519.82	652.75
520.036	637.75
520.251	639.75
520.467	691.75
520.682	663.75
520.898	656.75
521.113	661.75
521.329	671.75
521.544	726.75
521.76	821.75
521.975	1140.75
522.19	1163.75
522.406	783.75
522.621	643.75
522.836	631.75
523.052	593.75
523.267	591.75
523.482	596.75
523.698	577.75
523.913	584.75
524.128	576.75
524.343	559.75
524.559	541.75
524.774	563.75
524.989	563.75
525.204	544.75
525.419	532.75
525.634	541.75
525.849	559.75
526.064	552.75
526.28	558.75
526.495	539.75
526.71	527.75
526.925	531.75
527.14	511.75
527.355	542.75
527.57	545.75
527.785	533.75
527.999	545.75
528.214	545.75
528.429	537.75
528.644	518.75
528.859	517.75
529.074	543.75
529.289	552.75
529.503	587.75
529.718	583.75
529.933	557.75
530.148	534.75
530.363	520.75
530.577	522.75
530.792	535.75
531.007	507.75
531.221	529.75
531.436	527.75
531.651	519.75
531.865	519.75
532.08	507.75
532.295	519.75
532.509	505.75
532.724	524.75
532.938	513.75
533.153	525.75
533.367	513.75
533.582	527.75
533.796	516.75
534.011	518.75
534.225	502.75
534.44	489.75
534.654	483.75
534.868	492.75
535.083	509.75
535.297	522.75
535.511	521.75
535.726	509.75
535.94	509.75
536.154	505.75
536.369	512.75
536.583	507.75
536.797	474.75
537.011	491.75
537.225	471.75
537.44	488.75
537.654	502.75
537.868	493.75
538.082	479.75
538.296	484.75
538.51	492.75
538.724	485.75
538.938	499.75
539.153	488.75
539.367	490.75
539.581	490.75
539.795	460.75
540.009	490.75
540.222	489.75
540.436	480.75
540.65	470.75
540.864	490.75
541.078	508.75
541.292	510.75
541.506	493.75
541.72	492.75
541.934	469.75
542.147	485.75
542.361	486.75
542.575	505.75
542.789	491.75
543.002	473.75
543.216	505.75
543.43	499.75
543.644	477.75
543.857	510.75
544.071	487.75
544.285	517.75
544.498	489.75
544.712	480.75
544.925	492.75
545.139	483.75
545.352	503.75
545.566	488.75
545.779	477.75
545.993	508.75
546.206	507.75
546.42	493.75
546.633	501.75
546.847	499.75
547.06	469.75
547.274	505.75
547.487	491.75
547.7	480.75
547.914	484.75
548.127	476.75
548.34	469.75
548.554	490.75
548.767	492.75
548.98	480.75
549.193	493.75
549.407	477.75
549.62	491.75
549.833	494.75
550.046	470.75
550.259	486.75
550.473	469.75
550.686	480.75
550.899	492.75
551.112	468.75
551.325	470.75
551.538	484.75
551.751	460.75
551.964	503.75
552.177	490.75
552.39	469.75
552.603	491.75
552.816	500.75
553.029	483.75
553.242	501.75
553.455	465.75
553.667	520.75
553.88	503.75
554.093	495.75
554.306	496.75
554.519	506.75
554.732	469.75
554.944	461.75
555.157	472.75
555.37	448.75
555.583	448.75
555.795	464.75
556.008	465.75
556.221	448.75
556.433	432.75
556.646	427.75
556.859	424.75
557.071	448.75
557.284	448.75
557.496	441.75
557.709	423.75
557.921	459.75
558.134	447.75
558.346	443.75
558.559	436.75
558.771	435.75
558.984	429.75
559.196	430.75
559.409	425.75
559.621	422.75
559.833	427.75
560.046	413.75
560.258	419.75
560.47	445.75
560.683	429.75
560.895	411.75
561.107	420.75
561.32	445.75
561.532	437.75
561.744	405.75
561.956	437.75
562.168	432.75
562.381	413.75
562.593	428.75
562.805	458.75
563.017	441.75
563.229	426.75
563.441	429.75
563.653	437.75
563.865	435.75
564.077	423.75
564.289	437.75
564.501	452.75
564.713	462.75
564.925	432.75
565.137	450.75
565.349	469.75
565.561	488.75
565.773	490.75
565.985	471.75
566.197	487.75
566.408	509.75
566.62	524.75
566.832	555.75
567.044	564.75
567.255	584.75
567.467	581.75
567.679	590.75
567.891	601.75
568.102	593.75
568.314	589.75
568.526	549.75
568.737	525.75
568.949	510.75
569.161	505.75
569.372	485.75
569.584	465.75
569.795	439.75
570.007	453.75
570.218	465.75
570.43	446.75
570.641	419.75
570.853	444.75
571.064	419.75
571.276	419.75
571.487	423.75
571.698	422.75
571.91	407.75
572.121	381.75
572.333	382.75
572.544	393.75
572.755	386.75
572.966	398.75
573.178	385.75
573.389	369.75
573.6	391.75
573.811	363.75
574.023	381.75
574.234	377.75
574.445	359.75
574.656	377.75
574.867	378.75
575.078	379.75
575.289	382.75
575.501	375.75
575.712	360.75
575.923	361.75
576.134	374.75
576.345	367.75
576.556	367.75
576.767	352.75
576.978	349.75
577.188	371.75
577.399	361.75
577.61	363.75
577.821	355.75
578.032	340.75
578.243	363.75
578.454	489.75
578.665	400.75
578.875	355.75
579.086	364.75
579.297	340.75
579.508	335.75
579.718	346.75
579.929	335.75
580.14	348.75
580.35	326.75
580.561	345.75
580.772	341.75
580.982	341.75
581.193	341.75
581.403	346.75
581.614	331.75
581.825	337.75
582.035	332.75
582.246	331.75
582.456	324.75
582.667	336.75
582.877	335.75
583.087	326.75
583.298	333.75
583.508	320.75
583.719	331.75
583.929	321.75
584.139	330.75
584.35	339.75
584.56	333.75
584.77	318.75
584.981	315.75
585.191	325.75
585.401	339.75
585.611	332.75
585.821	338.75
586.032	315.75
586.242	341.75
586.452	327.75
586.662	307.75
586.872	340.75
587.082	311.75
587.292	320.75
587.502	300.75
587.713	305.75
587.923	319.75
588.133	325.75
588.343	326.75
588.553	335.75
588.762	333.75
588.972	312.75
589.182	326.75
589.392	335.75
589.602	333.75
589.812	326.75
590.022	317.75
590.232	324.75
590.441	318.75
590.651	339.75
590.861	340.75
591.071	333.75
591.281	322.75
591.49	321.75
591.7	347.75
591.91	325.75
592.119	330.75
592.329	344.75
592.539	360.75
592.748	321.75
592.958	336.75
593.167	363.75
593.377	347.75
593.587	363.75
593.796	333.75
594.006	331.75
594.215	355.75
594.424	340.75
594.634	356.75
594.843	355.75
595.053	337.75
595.262	344.75
595.472	321.75
595.681	305.75
595.89	323.75
596.1	314.75
596.309	313.75
596.518	316.75
596.727	315.75
596.937	284.75
597.146	307.75
597.355	314.75
597.564	308.75
597.774	291.75
597.983	318.75
598.192	307.75
598.401	303.75
598.61	300.75
598.819	292.75
599.028	287.75
599.237	285.75
599.446	294.75
599.655	285.75
599.864	276.75
600.073	276.75
600.282	296.75
600.491	296.75
600.7	274.75
600.909	278.75
601.118	280.75
601.327	299.75
601.536	291.75
601.745	274.75
601.953	280.75
602.162	286.75
602.371	279.75
602.58	295.75
602.789	287.75
602.997	293.75
603.206	287.75
603.415	286.75
603.623	277.75
603.832	278.75
604.041	263.75
604.249	273.75
604.458	277.75
604.666	266.75
604.875	270.75
605.084	277.75
605.292	283.75
605.501	262.75
605.709	278.75
605.918	259.75
606.126	290.75
606.334	259.75
606.543	268.75
606.751	278.75
606.96	259.75
607.168	265.75
607.376	262.75
607.585	280.75
607.793	296.75
608.001	272.75
608.21	269.75
608.418	251.75
608.626	270.75
608.834	274.75
609.043	276.75
609.251	274.75
609.459	259.75
609.667	289.75
609.875	279.75
610.083	263.75
610.291	257.75
610.499	271.75
610.707	271.75
610.916	279.75
611.124	258.75
611.332	277.75
611.54	268.75
611.748	305.75
611.955	280.75
612.163	283.75
612.371	263.75
612.579	270.75
612.787	268.75
612.995	271.75
613.203	250.75
613.411	269.75
613.618	273.75
613.826	263.75
614.034	270.75
614.242	262.75
614.449	270.75
614.657	254.75
614.865	270.75
615.072	283.75
615.28	251.75
615.488	260.75
615.695	269.75
615.903	265.75
616.111	273.75
616.318	271.75
616.526	270.75
616.733	262.75
616.941	250.75
617.148	253.75
617.356	248.75
617.563	265.75
617.771	261.75
617.978	260.75
618.185	267.75
618.393	250.75
618.6	252.75
618.807	265.75
619.015	265.75
619.222	230.75
619.429	257.75
619.637	259.75
619.844	252.75
620.051	264.75
620.258	232.75
620.466	247.75
620.673	236.75
620.88	231.75
621.087	243.75
621.294	257.75
621.501	243.75
621.708	246.75
621.915	243.75
622.122	257.75
622.329	246.75
622.536	243.75
622.743	251.75
622.95	240.75
623.157	234.75
623.364	243.75
623.571	242.75
623.778	237.75
623.985	239.75
624.192	235.75
624.399	236.75
624.606	232.75
624.812	235.75
625.019	232.75
625.226	234.75
625.433	237.75
625.639	232.75
625.846	248.75
626.053	219.75
626.259	232.75
626.466	221.75
626.673	215.75
626.879	216.75
627.086	229.75
627.293	229.75
627.499	232.75
627.706	222.75
627.912	222.75
628.119	232.75
628.325	227.75
628.532	211.75
628.738	244.75
628.945	221.75
629.151	220.75
629.357	231.75
629.564	213.75
629.77	239.75
629.976	224.75
630.183	214.75
630.389	224.75
630.595	216.75
630.802	211.75
631.008	209.75
631.214	203.75
631.42	218.75
631.627	212.75
631.833	193.75
632.039	203.75
632.245	200.75
632.451	218.75
632.657	192.75
632.863	208.75
633.069	212.75
633.275	200.75
633.481	197.75
633.688	205.75
633.893	215.75
634.099	220.75
634.305	199.75
634.511	194.75
634.717	207.75
634.923	212.75
635.129	213.75
635.335	203.75
635.541	202.75
635.747	205.75
635.952	205.75
636.158	200.75
636.364	222.75
636.57	199.75
636.775	201.75
636.981	212.75
637.187	193.75
637.392	213.75
637.598	206.75
637.804	204.75
638.009	195.75
638.215	221.75
638.421	177.75
638.626	188.75
638.832	193.75
639.037	200.75
639.243	193.75
639.448	203.75
639.654	189.75
639.859	189.75
640.065	174.75
640.27	192.75
640.475	194.75
640.681	182.75
640.886	176.75
641.091	186.75
641.297	189.75
641.502	189.75
641.707	200.75
641.913	195.75
642.118	199.75
642.323	188.75
642.528	185.75
642.733	175.75
642.939	193.75
643.144	190.75
643.349	184.75
643.554	196.75
643.759	181.75
643.964	167.75
644.169	196.75
644.374	187.75
644.579	188.75
644.784	200.75
644.989	187.75
645.194	202.75
645.399	194.75
645.604	193.75
645.809	185.75
646.014	194.75
646.219	179.75
646.423	195.75
646.628	197.75
646.833	197.75
647.038	174.75
647.243	179.75
647.447	179.75
647.652	204.75
647.857	196.75
648.062	184.75
648.266	190.75
648.471	171.75
648.676	187.75
648.88	201.75
649.085	195.75
649.289	183.75
649.494	192.75
649.698	216.75
649.903	188.75
650.107	203.75
650.312	187.75
650.516	168.75
650.721	159.75
650.925	160.75
651.13	163.75
651.334	161.75
651.539	175.75
651.743	159.75
651.947	164.75
652.152	166.75
652.356	182.75
652.56	158.75
652.764	159.75
652.969	146.75
653.173	149.75
653.377	157.75
653.581	139.75
653.785	171.75
653.99	160.75
654.194	155.75
654.398	155.75
654.602	151.75
654.806	154.75
655.01	145.75
655.214	146.75
655.418	149.75
655.622	129.75
655.826	150.75
656.03	168.75
656.234	153.75
656.438	162.75
656.642	154.75
656.846	138.75
657.049	149.75
657.253	146.75
657.457	123.75
657.661	119.75
657.865	121.75
658.068	129.75
658.272	131.75
658.476	119.75
658.68	104.75
658.883	117.75
659.087	84.75
659.291	94.75
659.494	102.75
659.698	116.75
659.901	96.75
660.105	111.75
660.309	102.75
660.512	101.75
660.716	104.75
660.919	93.75
661.123	94.75
661.326	102.75
661.53	106.75
661.733	100.75
661.936	90.75
662.14	92.75
662.343	101.75
662.546	93.75
662.75	100.75
662.953	78.75
663.156	84.75
663.36	90.75
663.563	61.75
663.766	70.75
663.969	88.75
664.173	87.75
664.376	88.75
664.579	75.75
664.782	81.75
664.985	88.75
665.188	83.75
665.391	80.75
665.594	78.75
665.797	91.75
666	86.75
666.203	85.75
666.406	89.75
666.609	82.75
666.812	98.75
667.015	95.75
667.218	94.75
667.421	89.75
667.624	78.75
667.827	92.75
668.03	80.75
668.232	91.75
668.435	92.75
668.638	98.75
668.841	88.75
669.043	83.75
669.246	81.75
669.449	86.75
669.651	87.75
669.854	85.75
670.057	84.75
670.259	88.75
670.462	81.75
670.665	90.75
670.867	91.75
671.07	87.75
671.272	85.75
671.475	80.75
671.677	97.75
671.88	84.75
672.082	96.75
672.284	100.75
672.487	94.75
672.689	90.75
672.892	97.75
