Data from 1974.PennyLincolnUp.Lamp.En5.5.200Scan.071719.P1.Changed Mount._HRD10591_15-52-09-856.txt Node
Date: Thu Jul 18 15:52:09 EDT 2019
User: cochatt
Spectrometer: HR+D1059
Trigger mode: 1
Integration Time (sec): 1.000000E-1
Scans to average: 1
Electric dark correction enabled: true
Nonlinearity correction enabled: false
Boxcar width: 0
XAxis mode: Wavelengths
Number of Pixels in Spectrum: 2048
>>>>>Begin Spectral Data<<<<<
223.165	-15.94
223.4	-15.94
223.635	-15.94
223.869	-24.94
224.104	-15.94
224.338	-19.94
224.573	-29.94
224.808	-15.94
225.042	-1.94
225.277	-0.94
225.511	0.06
225.746	3.06
225.98	-6.94
226.215	13.06
226.449	6.06
226.683	38.06
226.918	34.06
227.152	38.06
227.387	37.06
227.621	44.06
227.856	49.06
228.09	54.06
228.324	56.06
228.559	68.06
228.793	73.06
229.027	84.06
229.262	107.06
229.496	124.06
229.73	133.06
229.964	148.06
230.199	127.06
230.433	110.06
230.667	119.06
230.901	118.06
231.136	104.06
231.37	107.06
231.604	119.06
231.838	130.06
232.072	110.06
232.306	114.06
232.541	113.06
232.775	117.06
233.009	110.06
233.243	116.06
233.477	104.06
233.711	110.06
233.945	125.06
234.179	120.06
234.413	128.06
234.647	117.06
234.881	120.06
235.115	122.06
235.349	125.06
235.583	114.06
235.817	122.06
236.051	121.06
236.285	137.06
236.519	121.06
236.753	127.06
236.987	136.06
237.221	168.06
237.455	214.06
237.689	186.06
237.922	150.06
238.156	136.06
238.39	135.06
238.624	126.06
238.858	126.06
239.091	129.06
239.325	133.06
239.559	135.06
239.793	141.06
240.027	140.06
240.26	148.06
240.494	176.06
240.728	163.06
240.961	164.06
241.195	134.06
241.429	146.06
241.662	133.06
241.896	154.06
242.13	136.06
242.363	142.06
242.597	132.06
242.83	142.06
243.064	148.06
243.298	146.06
243.531	141.06
243.765	142.06
243.998	152.06
244.232	145.06
244.465	153.06
244.699	141.06
244.932	152.06
245.166	163.06
245.399	150.06
245.633	155.06
245.866	148.06
246.099	155.06
246.333	150.06
246.566	155.06
246.8	164.06
247.033	165.06
247.266	168.06
247.5	178.06
247.733	169.06
247.966	154.06
248.2	178.06
248.433	180.06
248.666	172.06
248.899	183.06
249.133	190.06
249.366	212.06
249.599	190.06
249.832	186.06
250.066	181.06
250.299	189.06
250.532	186.06
250.765	195.06
250.998	229.06
251.231	233.06
251.465	241.06
251.698	198.06
251.931	213.06
252.164	198.06
252.397	206.06
252.63	197.06
252.863	207.06
253.096	230.06
253.329	230.06
253.562	226.06
253.795	208.06
254.028	218.06
254.261	228.06
254.494	208.06
254.727	264.06
254.96	269.06
255.193	271.06
255.426	241.06
255.659	237.06
255.892	223.06
256.124	228.06
256.357	244.06
256.59	231.06
256.823	213.06
257.056	209.06
257.289	221.06
257.521	220.06
257.754	212.06
257.987	213.06
258.22	229.06
258.452	222.06
258.685	217.06
258.918	222.06
259.151	230.06
259.383	230.06
259.616	219.06
259.849	236.06
260.081	226.06
260.314	259.06
260.547	274.06
260.779	256.06
261.012	222.06
261.244	214.06
261.477	227.06
261.71	226.06
261.942	220.06
262.175	222.06
262.407	255.06
262.64	232.06
262.872	220.06
263.105	214.06
263.337	229.06
263.57	224.06
263.802	240.06
264.035	221.06
264.267	225.06
264.499	213.06
264.732	237.06
264.964	232.06
265.197	232.06
265.429	217.06
265.661	221.06
265.894	226.06
266.126	230.06
266.358	244.06
266.591	236.06
266.823	244.06
267.055	233.06
267.287	231.06
267.52	252.06
267.752	231.06
267.984	218.06
268.216	250.06
268.448	248.06
268.681	235.06
268.913	253.06
269.145	268.06
269.377	296.06
269.609	269.06
269.841	266.06
270.073	282.06
270.306	308.06
270.538	300.06
270.77	311.06
271.002	308.06
271.234	309.06
271.466	289.06
271.698	310.06
271.93	326.06
272.162	321.06
272.394	312.06
272.626	305.06
272.858	307.06
273.09	282.06
273.322	279.06
273.553	273.06
273.785	278.06
274.017	282.06
274.249	277.06
274.481	278.06
274.713	281.06
274.945	289.06
275.176	280.06
275.408	256.06
275.64	267.06
275.872	288.06
276.104	295.06
276.335	288.06
276.567	285.06
276.799	293.06
277.031	300.06
277.262	327.06
277.494	341.06
277.726	317.06
277.957	285.06
278.189	290.06
278.421	315.06
278.652	293.06
278.884	291.06
279.115	291.06
279.347	278.06
279.579	290.06
279.81	258.06
280.042	277.06
280.273	298.06
280.505	286.06
280.736	289.06
280.968	264.06
281.199	298.06
281.431	298.06
281.662	285.06
281.894	277.06
282.125	296.06
282.356	298.06
282.588	315.06
282.819	328.06
283.051	301.06
283.282	288.06
283.513	278.06
283.745	311.06
283.976	300.06
284.207	285.06
284.439	304.06
284.67	304.06
284.901	296.06
285.132	309.06
285.364	294.06
285.595	308.06
285.826	308.06
286.057	288.06
286.288	300.06
286.52	314.06
286.751	319.06
286.982	300.06
287.213	311.06
287.444	297.06
287.675	286.06
287.906	314.06
288.138	329.06
288.369	323.06
288.6	311.06
288.831	308.06
289.062	304.06
289.293	305.06
289.524	308.06
289.755	300.06
289.986	307.06
290.217	323.06
290.448	306.06
290.679	298.06
290.91	304.06
291.141	316.06
291.371	321.06
291.602	313.06
291.833	316.06
292.064	321.06
292.295	314.06
292.526	333.06
292.757	324.06
292.987	303.06
293.218	311.06
293.449	320.06
293.68	313.06
293.91	317.06
294.141	305.06
294.372	308.06
294.603	311.06
294.833	298.06
295.064	304.06
295.295	330.06
295.525	322.06
295.756	324.06
295.987	312.06
296.217	354.06
296.448	363.06
296.679	305.06
296.909	320.06
297.14	318.06
297.37	321.06
297.601	330.06
297.831	321.06
298.062	329.06
298.292	325.06
298.523	332.06
298.753	332.06
298.984	327.06
299.214	344.06
299.445	327.06
299.675	324.06
299.905	333.06
300.136	337.06
300.366	326.06
300.597	339.06
300.827	334.06
301.057	332.06
301.288	358.06
301.518	358.06
301.748	340.06
301.979	337.06
302.209	353.06
302.439	358.06
302.669	353.06
302.9	357.06
303.13	376.06
303.36	368.06
303.59	357.06
303.82	359.06
304.051	369.06
304.281	356.06
304.511	331.06
304.741	360.06
304.971	362.06
305.201	353.06
305.431	347.06
305.661	344.06
305.891	342.06
306.121	339.06
306.352	376.06
306.582	345.06
306.812	356.06
307.042	380.06
307.272	363.06
307.502	368.06
307.731	346.06
307.961	359.06
308.191	363.06
308.421	351.06
308.651	366.06
308.881	366.06
309.111	360.06
309.341	362.06
309.571	379.06
309.8	382.06
310.03	391.06
310.26	373.06
310.49	390.06
310.72	374.06
310.949	377.06
311.179	402.06
311.409	378.06
311.639	386.06
311.868	409.06
312.098	376.06
312.328	379.06
312.557	399.06
312.787	414.06
313.017	429.06
313.246	385.06
313.476	392.06
313.706	417.06
313.935	396.06
314.165	403.06
314.394	380.06
314.624	410.06
314.853	414.06
315.083	401.06
315.312	407.06
315.542	388.06
315.771	357.06
316.001	376.06
316.23	403.06
316.46	390.06
316.689	383.06
316.919	396.06
317.148	391.06
317.377	412.06
317.607	402.06
317.836	414.06
318.065	381.06
318.295	395.06
318.524	419.06
318.753	399.06
318.983	395.06
319.212	406.06
319.441	397.06
319.67	383.06
319.9	416.06
320.129	390.06
320.358	416.06
320.587	411.06
320.816	392.06
321.046	407.06
321.275	422.06
321.504	417.06
321.733	405.06
321.962	418.06
322.191	432.06
322.42	430.06
322.649	426.06
322.878	452.06
323.108	448.06
323.337	491.06
323.566	476.06
323.795	511.06
324.024	532.06
324.253	624.06
324.482	832.06
324.71	1224.06
324.939	1842.06
325.168	1582.06
325.397	850.06
325.626	625.06
325.855	522.06
326.084	502.06
326.313	494.06
326.542	477.06
326.77	500.06
326.999	562.06
327.228	761.06
327.457	1119.06
327.686	1381.06
327.914	910.06
328.143	654.06
328.372	566.06
328.6	554.06
328.829	523.06
329.058	542.06
329.287	537.06
329.515	518.06
329.744	506.06
329.972	491.06
330.201	517.06
330.43	560.06
330.658	576.06
330.887	574.06
331.115	594.06
331.344	523.06
331.572	496.06
331.801	520.06
332.03	482.06
332.258	472.06
332.486	470.06
332.715	485.06
332.943	467.06
333.172	498.06
333.4	488.06
333.629	520.06
333.857	504.06
334.085	513.06
334.314	525.06
334.542	569.06
334.771	560.06
334.999	536.06
335.227	522.06
335.455	503.06
335.684	499.06
335.912	485.06
336.14	459.06
336.369	496.06
336.597	479.06
336.825	480.06
337.053	476.06
337.281	468.06
337.51	471.06
337.738	455.06
337.966	467.06
338.194	478.06
338.422	470.06
338.65	462.06
338.878	452.06
339.106	455.06
339.334	444.06
339.562	448.06
339.79	475.06
340.018	464.06
340.246	471.06
340.474	454.06
340.702	482.06
340.93	458.06
341.158	459.06
341.386	462.06
341.614	454.06
341.842	451.06
342.07	446.06
342.298	462.06
342.526	449.06
342.754	450.06
342.981	459.06
343.209	451.06
343.437	454.06
343.665	455.06
343.893	507.06
344.12	502.06
344.348	480.06
344.576	463.06
344.804	468.06
345.031	468.06
345.259	481.06
345.487	474.06
345.714	441.06
345.942	457.06
346.17	450.06
346.397	451.06
346.625	443.06
346.853	441.06
347.08	419.06
347.308	422.06
347.535	434.06
347.763	466.06
347.99	458.06
348.218	450.06
348.445	454.06
348.673	469.06
348.9	459.06
349.128	467.06
349.355	437.06
349.583	434.06
349.81	425.06
350.037	430.06
350.265	421.06
350.492	445.06
350.72	438.06
350.947	434.06
351.174	441.06
351.402	444.06
351.629	448.06
351.856	415.06
352.083	442.06
352.311	450.06
352.538	476.06
352.765	445.06
352.992	445.06
353.22	444.06
353.447	436.06
353.674	449.06
353.901	418.06
354.128	437.06
354.355	412.06
354.583	439.06
354.81	409.06
355.037	429.06
355.264	424.06
355.491	410.06
355.718	417.06
355.945	428.06
356.172	428.06
356.399	422.06
356.626	423.06
356.853	425.06
357.08	427.06
357.307	421.06
357.534	415.06
357.761	442.06
357.988	428.06
358.215	424.06
358.441	436.06
358.668	441.06
358.895	426.06
359.122	443.06
359.349	426.06
359.576	454.06
359.802	457.06
360.029	462.06
360.256	463.06
360.483	477.06
360.709	447.06
360.936	458.06
361.163	461.06
361.39	444.06
361.616	431.06
361.843	433.06
362.07	432.06
362.296	436.06
362.523	445.06
362.749	448.06
362.976	454.06
363.203	442.06
363.429	436.06
363.656	447.06
363.882	436.06
364.109	437.06
364.335	437.06
364.562	444.06
364.788	428.06
365.015	436.06
365.241	423.06
365.468	437.06
365.694	437.06
365.92	433.06
366.147	432.06
366.373	398.06
366.599	442.06
366.826	438.06
367.052	422.06
367.278	440.06
367.505	444.06
367.731	441.06
367.957	432.06
368.184	438.06
368.41	432.06
368.636	452.06
368.862	455.06
369.089	451.06
369.315	444.06
369.541	433.06
369.767	433.06
369.993	440.06
370.219	434.06
370.445	427.06
370.672	459.06
370.898	434.06
371.124	419.06
371.35	438.06
371.576	441.06
371.802	441.06
372.028	433.06
372.254	422.06
372.48	428.06
372.706	451.06
372.932	469.06
373.158	468.06
373.384	421.06
373.61	457.06
373.835	457.06
374.061	444.06
374.287	469.06
374.513	445.06
374.739	472.06
374.965	461.06
375.191	460.06
375.416	466.06
375.642	435.06
375.868	451.06
376.094	457.06
376.319	446.06
376.545	445.06
376.771	441.06
376.997	453.06
377.222	439.06
377.448	440.06
377.674	437.06
377.899	436.06
378.125	454.06
378.35	450.06
378.576	461.06
378.802	442.06
379.027	455.06
379.253	453.06
379.478	450.06
379.704	436.06
379.929	457.06
380.155	458.06
380.38	450.06
380.606	444.06
380.831	467.06
381.057	448.06
381.282	465.06
381.507	453.06
381.733	461.06
381.958	472.06
382.184	460.06
382.409	480.06
382.634	466.06
382.86	449.06
383.085	470.06
383.31	474.06
383.535	468.06
383.761	472.06
383.986	462.06
384.211	478.06
384.436	481.06
384.662	484.06
384.887	502.06
385.112	488.06
385.337	498.06
385.562	484.06
385.787	488.06
386.013	512.06
386.238	508.06
386.463	502.06
386.688	500.06
386.913	492.06
387.138	518.06
387.363	529.06
387.588	503.06
387.813	526.06
388.038	507.06
388.263	520.06
388.488	500.06
388.713	493.06
388.938	491.06
389.163	487.06
389.387	513.06
389.612	516.06
389.837	493.06
390.062	502.06
390.287	516.06
390.512	490.06
390.736	518.06
390.961	498.06
391.186	492.06
391.411	497.06
391.636	509.06
391.86	518.06
392.085	525.06
392.31	536.06
392.534	520.06
392.759	538.06
392.984	512.06
393.208	514.06
393.433	525.06
393.658	525.06
393.882	515.06
394.107	525.06
394.331	520.06
394.556	499.06
394.78	514.06
395.005	523.06
395.229	532.06
395.454	505.06
395.678	533.06
395.903	571.06
396.127	571.06
396.352	570.06
396.576	533.06
396.801	518.06
397.025	540.06
397.249	521.06
397.474	538.06
397.698	542.06
397.922	555.06
398.147	600.06
398.371	568.06
398.595	580.06
398.82	585.06
399.044	610.06
399.268	628.06
399.492	666.06
399.717	678.06
399.941	724.06
400.165	745.06
400.389	711.06
400.613	679.06
400.837	629.06
401.062	609.06
401.286	609.06
401.51	573.06
401.734	591.06
401.958	587.06
402.182	600.06
402.406	603.06
402.63	607.06
402.854	613.06
403.078	612.06
403.302	617.06
403.526	605.06
403.75	596.06
403.974	587.06
404.198	619.06
404.422	604.06
404.645	620.06
404.869	613.06
405.093	644.06
405.317	668.06
405.541	724.06
405.765	670.06
405.988	636.06
406.212	645.06
406.436	671.06
406.66	682.06
406.883	663.06
407.107	699.06
407.331	754.06
407.555	823.06
407.778	796.06
408.002	732.06
408.226	689.06
408.449	652.06
408.673	671.06
408.896	683.06
409.12	733.06
409.344	685.06
409.567	626.06
409.791	626.06
410.014	621.06
410.238	594.06
410.461	593.06
410.685	624.06
410.908	637.06
411.132	657.06
411.355	692.06
411.578	680.06
411.802	626.06
412.025	586.06
412.249	645.06
412.472	666.06
412.695	652.06
412.919	671.06
413.142	616.06
413.365	605.06
413.589	592.06
413.812	582.06
414.035	582.06
414.258	595.06
414.482	590.06
414.705	567.06
414.928	597.06
415.151	596.06
415.374	577.06
415.597	600.06
415.821	582.06
416.044	582.06
416.267	593.06
416.49	606.06
416.713	573.06
416.936	571.06
417.159	565.06
417.382	580.06
417.605	585.06
417.828	596.06
418.051	603.06
418.274	588.06
418.497	576.06
418.72	607.06
418.943	588.06
419.166	588.06
419.389	642.06
419.611	624.06
419.834	612.06
420.057	620.06
420.28	597.06
420.503	617.06
420.726	609.06
420.948	628.06
421.171	650.06
421.394	669.06
421.617	634.06
421.839	623.06
422.062	610.06
422.285	624.06
422.507	691.06
422.73	742.06
422.953	704.06
423.175	646.06
423.398	629.06
423.621	616.06
423.843	663.06
424.066	645.06
424.288	656.06
424.511	644.06
424.733	704.06
424.956	797.06
425.178	747.06
425.401	753.06
425.623	778.06
425.846	677.06
426.068	638.06
426.291	646.06
426.513	633.06
426.735	643.06
426.958	688.06
427.18	753.06
427.402	884.06
427.625	936.06
427.847	857.06
428.069	747.06
428.292	680.06
428.514	624.06
428.736	601.06
428.958	603.06
429.181	582.06
429.403	581.06
429.625	580.06
429.847	619.06
430.069	679.06
430.292	667.06
430.514	612.06
430.736	590.06
430.958	574.06
431.18	574.06
431.402	553.06
431.624	568.06
431.846	558.06
432.068	545.06
432.29	583.06
432.512	563.06
432.734	542.06
432.956	562.06
433.178	575.06
433.4	572.06
433.622	580.06
433.844	578.06
434.066	538.06
434.287	562.06
434.509	583.06
434.731	578.06
434.953	596.06
435.175	596.06
435.397	660.06
435.618	637.06
435.84	668.06
436.062	749.06
436.284	841.06
436.505	720.06
436.727	645.06
436.949	620.06
437.17	589.06
437.392	594.06
437.614	598.06
437.835	636.06
438.057	694.06
438.278	804.06
438.5	814.06
438.721	893.06
438.943	859.06
439.165	645.06
439.386	652.06
439.608	641.06
439.829	626.06
440.05	632.06
440.272	700.06
440.493	667.06
440.715	608.06
440.936	598.06
441.158	592.06
441.379	580.06
441.6	606.06
441.822	644.06
442.043	641.06
442.264	779.06
442.486	834.06
442.707	702.06
442.928	652.06
443.149	650.06
443.371	678.06
443.592	715.06
443.813	802.06
444.034	884.06
444.255	739.06
444.476	669.06
444.698	655.06
444.919	652.06
445.14	785.06
445.361	691.06
445.582	672.06
445.803	713.06
446.024	831.06
446.245	858.06
446.466	794.06
446.687	667.06
446.908	639.06
447.129	641.06
447.35	602.06
447.571	592.06
447.792	560.06
448.013	567.06
448.234	603.06
448.455	648.06
448.675	741.06
448.896	866.06
449.117	758.06
449.338	710.06
449.559	818.06
449.779	909.06
450	722.06
450.221	616.06
450.442	561.06
450.662	552.06
450.883	554.06
451.104	579.06
451.324	549.06
451.545	547.06
451.766	540.06
451.986	520.06
452.207	536.06
452.428	506.06
452.648	520.06
452.869	538.06
453.089	525.06
453.31	546.06
453.53	525.06
453.751	520.06
453.971	504.06
454.192	537.06
454.412	537.06
454.633	531.06
454.853	530.06
455.073	504.06
455.294	532.06
455.514	603.06
455.734	595.06
455.955	524.06
456.175	498.06
456.395	487.06
456.616	475.06
456.836	480.06
457.056	495.06
457.276	464.06
457.497	484.06
457.717	502.06
457.937	500.06
458.157	510.06
458.377	512.06
458.598	528.06
458.818	553.06
459.038	639.06
459.258	674.06
459.478	590.06
459.698	548.06
459.918	571.06
460.138	544.06
460.358	575.06
460.578	576.06
460.798	581.06
461.018	591.06
461.238	598.06
461.458	588.06
461.678	582.06
461.898	592.06
462.118	584.06
462.338	634.06
462.558	600.06
462.777	634.06
462.997	650.06
463.217	664.06
463.437	667.06
463.657	651.06
463.876	654.06
464.096	629.06
464.316	637.06
464.536	607.06
464.755	644.06
464.975	622.06
465.195	622.06
465.414	679.06
465.634	608.06
465.854	587.06
466.073	577.06
466.293	570.06
466.512	546.06
466.732	535.06
466.951	535.06
467.171	530.06
467.391	540.06
467.61	525.06
467.829	530.06
468.049	545.06
468.268	545.06
468.488	518.06
468.707	510.06
468.927	533.06
469.146	523.06
469.365	536.06
469.585	533.06
469.804	552.06
470.023	544.06
470.243	548.06
470.462	557.06
470.681	552.06
470.901	538.06
471.12	563.06
471.339	546.06
471.558	540.06
471.777	553.06
471.997	528.06
472.216	540.06
472.435	582.06
472.654	564.06
472.873	531.06
473.092	549.06
473.311	550.06
473.53	554.06
473.749	537.06
473.968	558.06
474.187	688.06
474.406	690.06
474.625	579.06
474.844	554.06
475.063	553.06
475.282	557.06
475.501	580.06
475.72	563.06
475.939	547.06
476.158	563.06
476.377	552.06
476.596	538.06
476.814	547.06
477.033	552.06
477.252	577.06
477.471	589.06
477.69	567.06
477.908	607.06
478.127	611.06
478.346	579.06
478.564	621.06
478.783	629.06
479.002	608.06
479.22	638.06
479.439	651.06
479.658	645.06
479.876	667.06
480.095	681.06
480.313	696.06
480.532	694.06
480.751	688.06
480.969	670.06
481.188	721.06
481.406	740.06
481.624	677.06
481.843	681.06
482.061	650.06
482.28	643.06
482.498	631.06
482.717	634.06
482.935	628.06
483.153	659.06
483.372	632.06
483.59	651.06
483.808	643.06
484.027	638.06
484.245	640.06
484.463	633.06
484.681	641.06
484.9	648.06
485.118	631.06
485.336	682.06
485.554	675.06
485.772	662.06
485.99	655.06
486.209	675.06
486.427	644.06
486.645	683.06
486.863	672.06
487.081	677.06
487.299	685.06
487.517	677.06
487.735	674.06
487.953	664.06
488.171	683.06
488.389	700.06
488.607	663.06
488.825	697.06
489.043	693.06
489.261	707.06
489.479	692.06
489.696	705.06
489.914	724.06
490.132	694.06
490.35	720.06
490.568	732.06
490.786	741.06
491.003	731.06
491.221	752.06
491.439	774.06
491.657	765.06
491.874	762.06
492.092	770.06
492.31	795.06
492.527	804.06
492.745	793.06
492.963	805.06
493.18	806.06
493.398	805.06
493.615	812.06
493.833	811.06
494.05	810.06
494.268	781.06
494.485	823.06
494.703	801.06
494.92	802.06
495.138	787.06
495.355	793.06
495.573	830.06
495.79	779.06
496.008	803.06
496.225	816.06
496.442	820.06
496.66	827.06
496.877	803.06
497.094	853.06
497.312	839.06
497.529	829.06
497.746	818.06
497.963	876.06
498.181	898.06
498.398	909.06
498.615	932.06
498.832	947.06
499.049	966.06
499.267	1018.06
499.484	1021.06
499.701	1112.06
499.918	1148.06
500.135	1200.06
500.352	1287.06
500.569	1304.06
500.786	1325.06
501.003	1300.06
501.22	1195.06
501.437	1188.06
501.654	1145.06
501.871	1109.06
502.088	1057.06
502.305	999.06
502.522	947.06
502.739	940.06
502.956	896.06
503.172	868.06
503.389	885.06
503.606	874.06
503.823	845.06
504.04	831.06
504.256	845.06
504.473	836.06
504.69	827.06
504.907	834.06
505.123	820.06
505.34	796.06
505.557	749.06
505.773	769.06
505.99	777.06
506.207	742.06
506.423	772.06
506.64	746.06
506.856	749.06
507.073	747.06
507.289	738.06
507.506	745.06
507.722	744.06
507.939	748.06
508.155	725.06
508.372	701.06
508.588	713.06
508.805	703.06
509.021	724.06
509.238	712.06
509.454	726.06
509.67	707.06
509.887	716.06
510.103	685.06
510.319	696.06
510.536	776.06
510.752	1126.06
510.968	950.06
511.184	706.06
511.401	673.06
511.617	676.06
511.833	676.06
512.049	674.06
512.265	663.06
512.481	650.06
512.698	631.06
512.914	676.06
513.13	692.06
513.346	679.06
513.562	671.06
513.778	678.06
513.994	678.06
514.21	699.06
514.426	707.06
514.642	732.06
514.858	758.06
515.074	765.06
515.29	861.06
515.506	1154.06
515.721	995.06
515.937	776.06
516.153	728.06
516.369	713.06
516.585	715.06
516.801	734.06
517.016	712.06
517.232	706.06
517.448	715.06
517.664	752.06
517.879	733.06
518.095	744.06
518.311	708.06
518.527	733.06
518.742	713.06
518.958	682.06
519.173	672.06
519.389	680.06
519.605	665.06
519.82	678.06
520.036	692.06
520.251	681.06
520.467	702.06
520.682	696.06
520.898	711.06
521.113	750.06
521.329	716.06
521.544	790.06
521.76	941.06
521.975	1395.06
522.19	1385.06
522.406	845.06
522.621	683.06
522.836	672.06
523.052	626.06
523.267	610.06
523.482	634.06
523.698	605.06
523.913	619.06
524.128	610.06
524.343	590.06
524.559	589.06
524.774	608.06
524.989	582.06
525.204	594.06
525.419	599.06
525.634	582.06
525.849	580.06
526.064	591.06
526.28	588.06
526.495	569.06
526.71	561.06
526.925	547.06
527.14	571.06
527.355	563.06
527.57	547.06
527.785	560.06
527.999	575.06
528.214	561.06
528.429	579.06
528.644	578.06
528.859	577.06
529.074	565.06
529.289	594.06
529.503	657.06
529.718	618.06
529.933	563.06
530.148	572.06
530.363	573.06
530.577	573.06
530.792	547.06
531.007	552.06
531.221	550.06
531.436	569.06
531.651	553.06
531.865	544.06
532.08	547.06
532.295	551.06
532.509	564.06
532.724	546.06
532.938	536.06
533.153	534.06
533.367	547.06
533.582	556.06
533.796	541.06
534.011	534.06
534.225	529.06
534.44	519.06
534.654	502.06
534.868	539.06
535.083	548.06
535.297	520.06
535.511	549.06
535.726	534.06
535.94	538.06
536.154	520.06
536.369	524.06
536.583	533.06
536.797	498.06
537.011	514.06
537.225	545.06
537.44	538.06
537.654	528.06
537.868	524.06
538.082	517.06
538.296	520.06
538.51	524.06
538.724	520.06
538.938	497.06
539.153	556.06
539.367	516.06
539.581	514.06
539.795	521.06
540.009	503.06
540.222	528.06
540.436	500.06
540.65	508.06
540.864	501.06
541.078	508.06
541.292	538.06
541.506	521.06
541.72	523.06
541.934	534.06
542.147	512.06
542.361	525.06
542.575	505.06
542.789	508.06
543.002	516.06
543.216	522.06
543.43	517.06
543.644	520.06
543.857	521.06
544.071	503.06
544.285	535.06
544.498	504.06
544.712	516.06
544.925	520.06
545.139	528.06
545.352	508.06
545.566	525.06
545.779	525.06
545.993	490.06
546.206	510.06
546.42	514.06
546.633	513.06
546.847	509.06
547.06	503.06
547.274	498.06
547.487	538.06
547.7	500.06
547.914	509.06
548.127	533.06
548.34	509.06
548.554	509.06
548.767	506.06
548.98	515.06
549.193	483.06
549.407	501.06
549.62	509.06
549.833	507.06
550.046	486.06
550.259	512.06
550.473	497.06
550.686	491.06
550.899	503.06
551.112	490.06
551.325	485.06
551.538	497.06
551.751	500.06
551.964	480.06
552.177	470.06
552.39	490.06
552.603	522.06
552.816	506.06
553.029	493.06
553.242	532.06
553.455	524.06
553.667	528.06
553.88	526.06
554.093	530.06
554.306	534.06
554.519	509.06
554.732	505.06
554.944	514.06
555.157	477.06
555.37	475.06
555.583	492.06
555.795	469.06
556.008	467.06
556.221	458.06
556.433	467.06
556.646	457.06
556.859	468.06
557.071	445.06
557.284	436.06
557.496	465.06
557.709	457.06
557.921	456.06
558.134	454.06
558.346	450.06
558.559	455.06
558.771	446.06
558.984	441.06
559.196	464.06
559.409	462.06
559.621	452.06
559.833	444.06
560.046	434.06
560.258	440.06
560.47	449.06
560.683	444.06
560.895	446.06
561.107	449.06
561.32	435.06
561.532	449.06
561.744	442.06
561.956	471.06
562.168	423.06
562.381	442.06
562.593	429.06
562.805	461.06
563.017	458.06
563.229	429.06
563.441	437.06
563.653	436.06
563.865	464.06
564.077	468.06
564.289	458.06
564.501	470.06
564.713	456.06
564.925	478.06
565.137	491.06
565.349	481.06
565.561	470.06
565.773	481.06
565.985	515.06
566.197	525.06
566.408	528.06
566.62	536.06
566.832	578.06
567.044	602.06
567.255	593.06
567.467	606.06
567.679	601.06
567.891	637.06
568.102	625.06
568.314	614.06
568.526	574.06
568.737	563.06
568.949	533.06
569.161	538.06
569.372	484.06
569.584	458.06
569.795	462.06
570.007	484.06
570.218	489.06
570.43	466.06
570.641	445.06
570.853	448.06
571.064	449.06
571.276	449.06
571.487	443.06
571.698	427.06
571.91	418.06
572.121	419.06
572.333	421.06
572.544	411.06
572.755	395.06
572.966	412.06
573.178	385.06
573.389	386.06
573.6	390.06
573.811	394.06
574.023	366.06
574.234	388.06
574.445	379.06
574.656	379.06
574.867	386.06
575.078	382.06
575.289	386.06
575.501	373.06
575.712	368.06
575.923	372.06
576.134	379.06
576.345	386.06
576.556	390.06
576.767	380.06
576.978	370.06
577.188	389.06
577.399	369.06
577.61	364.06
577.821	382.06
578.032	372.06
578.243	384.06
578.454	533.06
578.665	440.06
578.875	370.06
579.086	360.06
579.297	363.06
579.508	363.06
579.718	351.06
579.929	340.06
580.14	346.06
580.35	356.06
580.561	363.06
580.772	355.06
580.982	348.06
581.193	340.06
581.403	346.06
581.614	343.06
581.825	346.06
582.035	356.06
582.246	350.06
582.456	349.06
582.667	332.06
582.877	334.06
583.087	340.06
583.298	360.06
583.508	327.06
583.719	345.06
583.929	339.06
584.139	336.06
584.35	332.06
584.56	340.06
584.77	342.06
584.981	332.06
585.191	341.06
585.401	348.06
585.611	333.06
585.821	318.06
586.032	324.06
586.242	342.06
586.452	325.06
586.662	327.06
586.872	329.06
587.082	325.06
587.292	322.06
587.502	329.06
587.713	327.06
587.923	322.06
588.133	331.06
588.343	324.06
588.553	315.06
588.762	308.06
588.972	317.06
589.182	330.06
589.392	334.06
589.602	333.06
589.812	327.06
590.022	340.06
590.232	329.06
590.441	342.06
590.651	338.06
590.861	333.06
591.071	318.06
591.281	326.06
591.49	349.06
591.7	342.06
591.91	370.06
592.119	336.06
592.329	347.06
592.539	348.06
592.748	360.06
592.958	353.06
593.167	363.06
593.377	378.06
593.587	355.06
593.796	368.06
594.006	385.06
594.215	374.06
594.424	365.06
594.634	380.06
594.843	380.06
595.053	373.06
595.262	353.06
595.472	354.06
595.681	325.06
595.89	331.06
596.1	347.06
596.309	328.06
596.518	332.06
596.727	330.06
596.937	302.06
597.146	308.06
597.355	319.06
597.564	305.06
597.774	299.06
597.983	309.06
598.192	307.06
598.401	282.06
598.61	304.06
598.819	293.06
599.028	285.06
599.237	302.06
599.446	308.06
599.655	290.06
599.864	292.06
600.073	293.06
600.282	308.06
600.491	294.06
600.7	294.06
600.909	292.06
601.118	286.06
601.327	285.06
601.536	298.06
601.745	302.06
601.953	288.06
602.162	289.06
602.371	292.06
602.58	289.06
602.789	292.06
602.997	269.06
603.206	281.06
603.415	287.06
603.623	276.06
603.832	292.06
604.041	285.06
604.249	275.06
604.458	282.06
604.666	284.06
604.875	266.06
605.084	263.06
605.292	272.06
605.501	272.06
605.709	272.06
605.918	286.06
606.126	271.06
606.334	273.06
606.543	261.06
606.751	275.06
606.96	274.06
607.168	289.06
607.376	275.06
607.585	290.06
607.793	284.06
608.001	276.06
608.21	273.06
608.418	251.06
608.626	289.06
608.834	278.06
609.043	272.06
609.251	277.06
609.459	254.06
609.667	278.06
609.875	285.06
610.083	288.06
610.291	273.06
610.499	266.06
610.707	287.06
610.916	292.06
611.124	278.06
611.332	269.06
611.54	267.06
611.748	287.06
611.955	275.06
612.163	268.06
612.371	278.06
612.579	278.06
612.787	246.06
612.995	265.06
613.203	273.06
613.411	275.06
613.618	282.06
613.826	279.06
614.034	274.06
614.242	273.06
614.449	253.06
614.657	267.06
614.865	259.06
615.072	265.06
615.28	245.06
615.488	267.06
615.695	272.06
615.903	276.06
616.111	264.06
616.318	288.06
616.526	262.06
616.733	288.06
616.941	283.06
617.148	265.06
617.356	285.06
617.563	267.06
617.771	261.06
617.978	252.06
618.185	244.06
618.393	273.06
618.6	278.06
618.807	265.06
619.015	253.06
619.222	276.06
619.429	258.06
619.637	250.06
619.844	252.06
620.051	263.06
620.258	245.06
620.466	246.06
620.673	241.06
620.88	248.06
621.087	260.06
621.294	241.06
621.501	252.06
621.708	260.06
621.915	245.06
622.122	256.06
622.329	267.06
622.536	254.06
622.743	249.06
622.95	237.06
623.157	242.06
623.364	250.06
623.571	244.06
623.778	236.06
623.985	233.06
624.192	241.06
624.399	245.06
624.606	273.06
624.812	247.06
625.019	250.06
625.226	235.06
625.433	250.06
625.639	234.06
625.846	245.06
626.053	243.06
626.259	222.06
626.466	232.06
626.673	222.06
626.879	235.06
627.086	231.06
627.293	240.06
627.499	223.06
627.706	221.06
627.912	218.06
628.119	231.06
628.325	230.06
628.532	212.06
628.738	228.06
628.945	230.06
629.151	220.06
629.357	238.06
629.564	214.06
629.77	222.06
629.976	230.06
630.183	204.06
630.389	205.06
630.595	232.06
630.802	231.06
631.008	219.06
631.214	217.06
631.42	216.06
631.627	229.06
631.833	196.06
632.039	199.06
632.245	219.06
632.451	214.06
632.657	228.06
632.863	212.06
633.069	198.06
633.275	218.06
633.481	183.06
633.688	205.06
633.893	215.06
634.099	224.06
634.305	198.06
634.511	198.06
634.717	204.06
634.923	203.06
635.129	205.06
635.335	198.06
635.541	208.06
635.747	221.06
635.952	196.06
636.158	203.06
636.364	206.06
636.57	211.06
636.775	194.06
636.981	209.06
637.187	199.06
637.392	186.06
637.598	215.06
637.804	204.06
638.009	188.06
638.215	197.06
638.421	200.06
638.626	189.06
638.832	203.06
639.037	195.06
639.243	200.06
639.448	192.06
639.654	188.06
639.859	189.06
640.065	204.06
640.27	203.06
640.475	204.06
640.681	190.06
640.886	190.06
641.091	200.06
641.297	193.06
641.502	181.06
641.707	193.06
641.913	184.06
642.118	184.06
642.323	198.06
642.528	201.06
642.733	186.06
642.939	176.06
643.144	194.06
643.349	188.06
643.554	197.06
643.759	176.06
643.964	180.06
644.169	181.06
644.374	179.06
644.579	193.06
644.784	184.06
644.989	169.06
645.194	188.06
645.399	196.06
645.604	187.06
645.809	195.06
646.014	184.06
646.219	177.06
646.423	176.06
646.628	199.06
646.833	194.06
647.038	180.06
647.243	188.06
647.447	188.06
647.652	176.06
647.857	190.06
648.062	184.06
648.266	190.06
648.471	191.06
648.676	185.06
648.88	202.06
649.085	196.06
649.289	186.06
649.494	179.06
649.698	195.06
649.903	193.06
650.107	187.06
650.312	177.06
650.516	164.06
650.721	192.06
650.925	195.06
651.13	185.06
651.334	175.06
651.539	156.06
651.743	176.06
651.947	162.06
652.152	154.06
652.356	170.06
652.56	158.06
652.764	153.06
652.969	158.06
653.173	163.06
653.377	150.06
653.581	146.06
653.785	155.06
653.99	142.06
654.194	148.06
654.398	140.06
654.602	138.06
654.806	153.06
655.01	168.06
655.214	147.06
655.418	134.06
655.622	144.06
655.826	148.06
656.03	125.06
656.234	144.06
656.438	126.06
656.642	146.06
656.846	143.06
657.049	131.06
657.253	138.06
657.457	131.06
657.661	116.06
657.865	121.06
658.068	110.06
658.272	120.06
658.476	114.06
658.68	103.06
658.883	109.06
659.087	113.06
659.291	110.06
659.494	107.06
659.698	104.06
659.901	116.06
660.105	106.06
660.309	90.06
660.512	94.06
660.716	108.06
660.919	95.06
661.123	92.06
661.326	98.06
661.53	93.06
661.733	94.06
661.936	88.06
662.14	94.06
662.343	97.06
662.546	78.06
662.75	84.06
662.953	75.06
663.156	96.06
663.36	77.06
663.563	88.06
663.766	75.06
663.969	80.06
664.173	80.06
664.376	90.06
664.579	85.06
664.782	92.06
664.985	90.06
665.188	81.06
665.391	105.06
665.594	84.06
665.797	96.06
666	82.06
666.203	73.06
666.406	77.06
666.609	77.06
666.812	82.06
667.015	83.06
667.218	94.06
667.421	94.06
667.624	88.06
667.827	93.06
668.03	70.06
668.232	79.06
668.435	83.06
668.638	94.06
668.841	82.06
669.043	79.06
669.246	69.06
669.449	76.06
669.651	81.06
669.854	72.06
670.057	67.06
670.259	79.06
670.462	84.06
670.665	86.06
670.867	85.06
671.07	81.06
671.272	98.06
671.475	74.06
671.677	88.06
671.88	93.06
672.082	79.06
672.284	72.06
672.487	81.06
672.689	76.06
672.892	86.06
