Data from 1974.PennyLincolnUp.Lamp.En5.5.200Scan.071719.P1.Changed Mount._HRD10591_15-52-48-857.txt Node
Date: Thu Jul 18 15:52:48 EDT 2019
User: cochatt
Spectrometer: HR+D1059
Trigger mode: 1
Integration Time (sec): 1.000000E-1
Scans to average: 1
Electric dark correction enabled: true
Nonlinearity correction enabled: false
Boxcar width: 0
XAxis mode: Wavelengths
Number of Pixels in Spectrum: 2048
>>>>>Begin Spectral Data<<<<<
223.165	-14.19
223.4	-14.19
223.635	-14.19
223.869	-28.19
224.104	-10.19
224.338	-13.19
224.573	-29.19
224.808	-7.19
225.042	-6.19
225.277	-1.19
225.511	-5.19
225.746	3.81
225.98	6.81
226.215	2.81
226.449	34.81
226.683	16.81
226.918	23.81
227.152	25.81
227.387	40.81
227.621	33.81
227.856	48.81
228.09	41.81
228.324	54.81
228.559	59.81
228.793	64.81
229.027	81.81
229.262	99.81
229.496	113.81
229.73	118.81
229.964	154.81
230.199	130.81
230.433	120.81
230.667	137.81
230.901	128.81
231.136	117.81
231.37	100.81
231.604	108.81
231.838	113.81
232.072	114.81
232.306	117.81
232.541	139.81
232.775	127.81
233.009	116.81
233.243	120.81
233.477	107.81
233.711	105.81
233.945	113.81
234.179	122.81
234.413	124.81
234.647	130.81
234.881	117.81
235.115	108.81
235.349	107.81
235.583	111.81
235.817	131.81
236.051	127.81
236.285	124.81
236.519	143.81
236.753	132.81
236.987	132.81
237.221	169.81
237.455	216.81
237.689	180.81
237.922	141.81
238.156	138.81
238.39	133.81
238.624	137.81
238.858	136.81
239.091	132.81
239.325	127.81
239.559	135.81
239.793	133.81
240.027	133.81
240.26	147.81
240.494	146.81
240.728	148.81
240.961	155.81
241.195	165.81
241.429	143.81
241.662	130.81
241.896	130.81
242.13	141.81
242.363	153.81
242.597	157.81
242.83	158.81
243.064	133.81
243.298	149.81
243.531	144.81
243.765	155.81
243.998	155.81
244.232	144.81
244.465	145.81
244.699	156.81
244.932	164.81
245.166	150.81
245.399	155.81
245.633	150.81
245.866	142.81
246.099	148.81
246.333	146.81
246.566	162.81
246.8	162.81
247.033	177.81
247.266	188.81
247.5	160.81
247.733	157.81
247.966	183.81
248.2	168.81
248.433	171.81
248.666	171.81
248.899	209.81
249.133	206.81
249.366	197.81
249.599	180.81
249.832	193.81
250.066	186.81
250.299	192.81
250.532	201.81
250.765	210.81
250.998	206.81
251.231	242.81
251.465	227.81
251.698	205.81
251.931	198.81
252.164	205.81
252.397	200.81
252.63	205.81
252.863	213.81
253.096	218.81
253.329	240.81
253.562	242.81
253.795	225.81
254.028	219.81
254.261	234.81
254.494	213.81
254.727	248.81
254.96	281.81
255.193	296.81
255.426	268.81
255.659	241.81
255.892	227.81
256.124	244.81
256.357	238.81
256.59	251.81
256.823	235.81
257.056	217.81
257.289	210.81
257.521	223.81
257.754	225.81
257.987	210.81
258.22	231.81
258.452	214.81
258.685	210.81
258.918	225.81
259.151	231.81
259.383	226.81
259.616	232.81
259.849	232.81
260.081	241.81
260.314	265.81
260.547	277.81
260.779	268.81
261.012	237.81
261.244	250.81
261.477	246.81
261.71	231.81
261.942	230.81
262.175	255.81
262.407	231.81
262.64	233.81
262.872	212.81
263.105	229.81
263.337	213.81
263.57	219.81
263.802	209.81
264.035	228.81
264.267	214.81
264.499	235.81
264.732	219.81
264.964	220.81
265.197	217.81
265.429	221.81
265.661	214.81
265.894	230.81
266.126	217.81
266.358	229.81
266.591	232.81
266.823	242.81
267.055	236.81
267.287	253.81
267.52	251.81
267.752	257.81
267.984	250.81
268.216	263.81
268.448	256.81
268.681	239.81
268.913	239.81
269.145	267.81
269.377	293.81
269.609	286.81
269.841	274.81
270.073	292.81
270.306	298.81
270.538	322.81
270.77	328.81
271.002	317.81
271.234	295.81
271.466	293.81
271.698	316.81
271.93	330.81
272.162	328.81
272.394	310.81
272.626	312.81
272.858	298.81
273.09	278.81
273.322	272.81
273.553	289.81
273.785	283.81
274.017	276.81
274.249	277.81
274.481	275.81
274.713	279.81
274.945	282.81
275.176	277.81
275.408	286.81
275.64	282.81
275.872	281.81
276.104	265.81
276.335	283.81
276.567	302.81
276.799	278.81
277.031	306.81
277.262	328.81
277.494	329.81
277.726	314.81
277.957	308.81
278.189	305.81
278.421	284.81
278.652	289.81
278.884	284.81
279.115	294.81
279.347	286.81
279.579	295.81
279.81	274.81
280.042	282.81
280.273	282.81
280.505	298.81
280.736	284.81
280.968	281.81
281.199	293.81
281.431	293.81
281.662	286.81
281.894	281.81
282.125	292.81
282.356	311.81
282.588	306.81
282.819	300.81
283.051	287.81
283.282	286.81
283.513	279.81
283.745	286.81
283.976	298.81
284.207	315.81
284.439	309.81
284.67	304.81
284.901	286.81
285.132	301.81
285.364	314.81
285.595	297.81
285.826	300.81
286.057	290.81
286.288	291.81
286.52	308.81
286.751	308.81
286.982	304.81
287.213	308.81
287.444	308.81
287.675	294.81
287.906	334.81
288.138	328.81
288.369	335.81
288.6	310.81
288.831	324.81
289.062	309.81
289.293	306.81
289.524	329.81
289.755	294.81
289.986	282.81
290.217	294.81
290.448	310.81
290.679	306.81
290.91	319.81
291.141	311.81
291.371	309.81
291.602	321.81
291.833	320.81
292.064	312.81
292.295	305.81
292.526	315.81
292.757	311.81
292.987	320.81
293.218	308.81
293.449	309.81
293.68	320.81
293.91	311.81
294.141	316.81
294.372	326.81
294.603	325.81
294.833	322.81
295.064	314.81
295.295	325.81
295.525	306.81
295.756	330.81
295.987	319.81
296.217	320.81
296.448	338.81
296.679	320.81
296.909	310.81
297.14	325.81
297.37	330.81
297.601	313.81
297.831	317.81
298.062	327.81
298.292	320.81
298.523	330.81
298.753	333.81
298.984	328.81
299.214	334.81
299.445	330.81
299.675	323.81
299.905	334.81
300.136	347.81
300.366	340.81
300.597	358.81
300.827	348.81
301.057	341.81
301.288	342.81
301.518	339.81
301.748	345.81
301.979	362.81
302.209	372.81
302.439	372.81
302.669	345.81
302.9	356.81
303.13	348.81
303.36	370.81
303.59	337.81
303.82	360.81
304.051	369.81
304.281	353.81
304.511	326.81
304.741	345.81
304.971	369.81
305.201	344.81
305.431	348.81
305.661	352.81
305.891	354.81
306.121	337.81
306.352	360.81
306.582	362.81
306.812	342.81
307.042	355.81
307.272	358.81
307.502	356.81
307.731	375.81
307.961	357.81
308.191	351.81
308.421	350.81
308.651	366.81
308.881	348.81
309.111	365.81
309.341	347.81
309.571	377.81
309.8	366.81
310.03	376.81
310.26	386.81
310.49	381.81
310.72	387.81
310.949	377.81
311.179	423.81
311.409	385.81
311.639	395.81
311.868	392.81
312.098	383.81
312.328	394.81
312.557	393.81
312.787	399.81
313.017	429.81
313.246	403.81
313.476	379.81
313.706	397.81
313.935	407.81
314.165	404.81
314.394	427.81
314.624	410.81
314.853	414.81
315.083	389.81
315.312	389.81
315.542	397.81
315.771	398.81
316.001	381.81
316.23	398.81
316.46	378.81
316.689	390.81
316.919	404.81
317.148	427.81
317.377	390.81
317.607	410.81
317.836	401.81
318.065	384.81
318.295	412.81
318.524	400.81
318.753	409.81
318.983	399.81
319.212	381.81
319.441	396.81
319.67	422.81
319.9	403.81
320.129	400.81
320.358	413.81
320.587	402.81
320.816	395.81
321.046	386.81
321.275	416.81
321.504	418.81
321.733	421.81
321.962	433.81
322.191	428.81
322.42	432.81
322.649	432.81
322.878	462.81
323.108	451.81
323.337	483.81
323.566	475.81
323.795	513.81
324.024	518.81
324.253	619.81
324.482	826.81
324.71	1222.81
324.939	1798.81
325.168	1628.81
325.397	853.81
325.626	591.81
325.855	506.81
326.084	491.81
326.313	485.81
326.542	484.81
326.77	525.81
326.999	608.81
327.228	754.81
327.457	1116.81
327.686	1390.81
327.914	949.81
328.143	640.81
328.372	566.81
328.6	564.81
328.829	557.81
329.058	555.81
329.287	568.81
329.515	555.81
329.744	518.81
329.972	505.81
330.201	524.81
330.43	539.81
330.658	561.81
330.887	569.81
331.115	563.81
331.344	512.81
331.572	496.81
331.801	501.81
332.03	499.81
332.258	491.81
332.486	493.81
332.715	493.81
332.943	484.81
333.172	488.81
333.4	476.81
333.629	499.81
333.857	507.81
334.085	532.81
334.314	520.81
334.542	542.81
334.771	563.81
334.999	531.81
335.227	509.81
335.455	489.81
335.684	483.81
335.912	508.81
336.14	482.81
336.369	470.81
336.597	500.81
336.825	500.81
337.053	493.81
337.281	493.81
337.51	453.81
337.738	483.81
337.966	462.81
338.194	488.81
338.422	454.81
338.65	477.81
338.878	481.81
339.106	463.81
339.334	471.81
339.562	473.81
339.79	463.81
340.018	470.81
340.246	449.81
340.474	461.81
340.702	478.81
340.93	469.81
341.158	462.81
341.386	460.81
341.614	473.81
341.842	450.81
342.07	450.81
342.298	448.81
342.526	447.81
342.754	450.81
342.981	440.81
343.209	449.81
343.437	444.81
343.665	463.81
343.893	469.81
344.12	475.81
344.348	481.81
344.576	478.81
344.804	466.81
345.031	484.81
345.259	496.81
345.487	458.81
345.714	440.81
345.942	442.81
346.17	474.81
346.397	463.81
346.625	444.81
346.853	458.81
347.08	453.81
347.308	432.81
347.535	465.81
347.763	444.81
347.99	456.81
348.218	450.81
348.445	462.81
348.673	445.81
348.9	434.81
349.128	432.81
349.355	434.81
349.583	413.81
349.81	429.81
350.037	431.81
350.265	442.81
350.492	418.81
350.72	434.81
350.947	439.81
351.174	440.81
351.402	449.81
351.629	456.81
351.856	440.81
352.083	424.81
352.311	440.81
352.538	442.81
352.765	438.81
352.992	450.81
353.22	437.81
353.447	461.81
353.674	448.81
353.901	432.81
354.128	441.81
354.355	418.81
354.583	452.81
354.81	436.81
355.037	433.81
355.264	413.81
355.491	436.81
355.718	418.81
355.945	411.81
356.172	416.81
356.399	428.81
356.626	429.81
356.853	425.81
357.08	412.81
357.307	418.81
357.534	416.81
357.761	434.81
357.988	438.81
358.215	434.81
358.441	424.81
358.668	414.81
358.895	443.81
359.122	422.81
359.349	434.81
359.576	448.81
359.802	459.81
360.029	475.81
360.256	468.81
360.483	455.81
360.709	450.81
360.936	459.81
361.163	450.81
361.39	459.81
361.616	459.81
361.843	443.81
362.07	467.81
362.296	453.81
362.523	437.81
362.749	427.81
362.976	442.81
363.203	436.81
363.429	446.81
363.656	437.81
363.882	435.81
364.109	455.81
364.335	434.81
364.562	420.81
364.788	443.81
365.015	443.81
365.241	444.81
365.468	446.81
365.694	443.81
365.92	444.81
366.147	438.81
366.373	423.81
366.599	436.81
366.826	409.81
367.052	424.81
367.278	429.81
367.505	440.81
367.731	426.81
367.957	452.81
368.184	444.81
368.41	452.81
368.636	461.81
368.862	466.81
369.089	444.81
369.315	443.81
369.541	442.81
369.767	440.81
369.993	437.81
370.219	446.81
370.445	452.81
370.672	426.81
370.898	444.81
371.124	452.81
371.35	432.81
371.576	428.81
371.802	448.81
372.028	443.81
372.254	435.81
372.48	436.81
372.706	452.81
372.932	447.81
373.158	442.81
373.384	445.81
373.61	435.81
373.835	452.81
374.061	437.81
374.287	439.81
374.513	437.81
374.739	471.81
374.965	473.81
375.191	463.81
375.416	465.81
375.642	471.81
375.868	451.81
376.094	454.81
376.319	434.81
376.545	457.81
376.771	458.81
376.997	429.81
377.222	437.81
377.448	435.81
377.674	457.81
377.899	443.81
378.125	446.81
378.35	438.81
378.576	442.81
378.802	450.81
379.027	461.81
379.253	443.81
379.478	448.81
379.704	448.81
379.929	451.81
380.155	428.81
380.38	452.81
380.606	451.81
380.831	465.81
381.057	439.81
381.282	457.81
381.507	453.81
381.733	454.81
381.958	463.81
382.184	476.81
382.409	448.81
382.634	471.81
382.86	465.81
383.085	460.81
383.31	485.81
383.535	489.81
383.761	489.81
383.986	472.81
384.211	474.81
384.436	472.81
384.662	470.81
384.887	496.81
385.112	488.81
385.337	480.81
385.562	487.81
385.787	494.81
386.013	507.81
386.238	521.81
386.463	508.81
386.688	508.81
386.913	480.81
387.138	485.81
387.363	488.81
387.588	501.81
387.813	475.81
388.038	513.81
388.263	512.81
388.488	499.81
388.713	488.81
388.938	491.81
389.163	499.81
389.387	526.81
389.612	492.81
389.837	501.81
390.062	491.81
390.287	508.81
390.512	493.81
390.736	496.81
390.961	492.81
391.186	527.81
391.411	520.81
391.636	522.81
391.86	515.81
392.085	514.81
392.31	534.81
392.534	535.81
392.759	533.81
392.984	506.81
393.208	514.81
393.433	526.81
393.658	516.81
393.882	517.81
394.107	541.81
394.331	496.81
394.556	525.81
394.78	522.81
395.005	540.81
395.229	525.81
395.454	513.81
395.678	540.81
395.903	518.81
396.127	564.81
396.352	550.81
396.576	518.81
396.801	535.81
397.025	526.81
397.249	545.81
397.474	543.81
397.698	538.81
397.922	571.81
398.147	558.81
398.371	570.81
398.595	581.81
398.82	576.81
399.044	582.81
399.268	637.81
399.492	674.81
399.717	698.81
399.941	728.81
400.165	726.81
400.389	722.81
400.613	682.81
400.837	638.81
401.062	611.81
401.286	591.81
401.51	598.81
401.734	556.81
401.958	608.81
402.182	593.81
402.406	602.81
402.63	622.81
402.854	621.81
403.078	594.81
403.302	609.81
403.526	619.81
403.75	616.81
403.974	606.81
404.198	626.81
404.422	624.81
404.645	601.81
404.869	658.81
405.093	663.81
405.317	690.81
405.541	731.81
405.765	676.81
405.988	639.81
406.212	643.81
406.436	639.81
406.66	682.81
406.883	629.81
407.107	700.81
407.331	699.81
407.555	804.81
407.778	805.81
408.002	736.81
408.226	675.81
408.449	688.81
408.673	662.81
408.896	688.81
409.12	739.81
409.344	704.81
409.567	628.81
409.791	626.81
410.014	640.81
410.238	630.81
410.461	626.81
410.685	628.81
410.908	627.81
411.132	661.81
411.355	706.81
411.578	682.81
411.802	646.81
412.025	597.81
412.249	617.81
412.472	628.81
412.695	654.81
412.919	667.81
413.142	606.81
413.365	612.81
413.589	627.81
413.812	604.81
414.035	606.81
414.258	585.81
414.482	576.81
414.705	569.81
414.928	567.81
415.151	567.81
415.374	579.81
415.597	578.81
415.821	569.81
416.044	568.81
416.267	577.81
416.49	573.81
416.713	570.81
416.936	566.81
417.159	585.81
417.382	583.81
417.605	578.81
417.828	592.81
418.051	602.81
418.274	595.81
418.497	580.81
418.72	586.81
418.943	594.81
419.166	601.81
419.389	629.81
419.611	633.81
419.834	608.81
420.057	641.81
420.28	605.81
420.503	601.81
420.726	615.81
420.948	605.81
421.171	681.81
421.394	680.81
421.617	642.81
421.839	629.81
422.062	593.81
422.285	620.81
422.507	644.81
422.73	774.81
422.953	728.81
423.175	675.81
423.398	628.81
423.621	636.81
423.843	645.81
424.066	654.81
424.288	646.81
424.511	637.81
424.733	724.81
424.956	794.81
425.178	762.81
425.401	754.81
425.623	783.81
425.846	674.81
426.068	618.81
426.291	652.81
426.513	622.81
426.735	626.81
426.958	662.81
427.18	764.81
427.402	873.81
427.625	952.81
427.847	832.81
428.069	742.81
428.292	659.81
428.514	620.81
428.736	605.81
428.958	607.81
429.181	588.81
429.403	574.81
429.625	599.81
429.847	649.81
430.069	682.81
430.292	702.81
430.514	610.81
430.736	574.81
430.958	572.81
431.18	572.81
431.402	547.81
431.624	573.81
431.846	565.81
432.068	564.81
432.29	561.81
432.512	571.81
432.734	592.81
432.956	572.81
433.178	591.81
433.4	590.81
433.622	566.81
433.844	572.81
434.066	550.81
434.287	568.81
434.509	552.81
434.731	572.81
434.953	582.81
435.175	614.81
435.397	628.81
435.618	636.81
435.84	662.81
436.062	774.81
436.284	844.81
436.505	698.81
436.727	616.81
436.949	619.81
437.17	583.81
437.392	582.81
437.614	593.81
437.835	616.81
438.057	731.81
438.278	830.81
438.5	826.81
438.721	854.81
438.943	877.81
439.165	683.81
439.386	624.81
439.608	628.81
439.829	630.81
440.05	633.81
440.272	667.81
440.493	648.81
440.715	619.81
440.936	572.81
441.158	611.81
441.379	578.81
441.6	617.81
441.822	649.81
442.043	672.81
442.264	752.81
442.486	803.81
442.707	706.81
442.928	646.81
443.149	661.81
443.371	636.81
443.592	702.81
443.813	820.81
444.034	866.81
444.255	754.81
444.476	688.81
444.698	657.81
444.919	681.81
445.14	762.81
445.361	714.81
445.582	676.81
445.803	726.81
446.024	810.81
446.245	858.81
446.466	765.81
446.687	644.81
446.908	642.81
447.129	609.81
447.35	588.81
447.571	589.81
447.792	539.81
448.013	573.81
448.234	589.81
448.455	648.81
448.675	764.81
448.896	888.81
449.117	734.81
449.338	712.81
449.559	806.81
449.779	897.81
450	754.81
450.221	629.81
450.442	569.81
450.662	588.81
450.883	561.81
451.104	564.81
451.324	575.81
451.545	545.81
451.766	518.81
451.986	537.81
452.207	532.81
452.428	518.81
452.648	509.81
452.869	508.81
453.089	538.81
453.31	548.81
453.53	505.81
453.751	527.81
453.971	524.81
454.192	526.81
454.412	525.81
454.633	513.81
454.853	522.81
455.073	529.81
455.294	550.81
455.514	604.81
455.734	605.81
455.955	521.81
456.175	526.81
456.395	493.81
456.616	463.81
456.836	488.81
457.056	489.81
457.276	496.81
457.497	489.81
457.717	506.81
457.937	498.81
458.157	493.81
458.377	492.81
458.598	513.81
458.818	574.81
459.038	632.81
459.258	662.81
459.478	603.81
459.698	571.81
459.918	527.81
460.138	556.81
460.358	561.81
460.578	598.81
460.798	608.81
461.018	597.81
461.238	587.81
461.458	590.81
461.678	584.81
461.898	600.81
462.118	577.81
462.338	607.81
462.558	612.81
462.777	628.81
462.997	631.81
463.217	674.81
463.437	700.81
463.657	634.81
463.876	633.81
464.096	649.81
464.316	622.81
464.536	630.81
464.755	642.81
464.975	622.81
465.195	646.81
465.414	720.81
465.634	626.81
465.854	610.81
466.073	566.81
466.293	560.81
466.512	537.81
466.732	544.81
466.951	540.81
467.171	556.81
467.391	546.81
467.61	567.81
467.829	544.81
468.049	532.81
468.268	540.81
468.488	535.81
468.707	522.81
468.927	534.81
469.146	530.81
469.365	527.81
469.585	540.81
469.804	529.81
470.023	552.81
470.243	566.81
470.462	564.81
470.681	562.81
470.901	553.81
471.12	566.81
471.339	545.81
471.558	538.81
471.777	534.81
471.997	542.81
472.216	553.81
472.435	579.81
472.654	546.81
472.873	567.81
473.092	532.81
473.311	532.81
473.53	541.81
473.749	524.81
473.968	582.81
474.187	661.81
474.406	707.81
474.625	631.81
474.844	547.81
475.063	532.81
475.282	553.81
475.501	530.81
475.72	557.81
475.939	554.81
476.158	585.81
476.377	560.81
476.596	548.81
476.814	562.81
477.033	572.81
477.252	565.81
477.471	587.81
477.69	566.81
477.908	610.81
478.127	607.81
478.346	600.81
478.564	620.81
478.783	618.81
479.002	602.81
479.22	649.81
479.439	655.81
479.658	666.81
479.876	677.81
480.095	661.81
480.313	696.81
480.532	680.81
480.751	695.81
480.969	683.81
481.188	734.81
481.406	770.81
481.624	666.81
481.843	655.81
482.061	642.81
482.28	640.81
482.498	633.81
482.717	647.81
482.935	626.81
483.153	632.81
483.372	651.81
483.59	662.81
483.808	642.81
484.027	642.81
484.245	645.81
484.463	652.81
484.681	648.81
484.9	662.81
485.118	642.81
485.336	645.81
485.554	650.81
485.772	662.81
485.99	663.81
486.209	663.81
486.427	674.81
486.645	661.81
486.863	692.81
487.081	690.81
487.299	658.81
487.517	665.81
487.735	678.81
487.953	696.81
488.171	685.81
488.389	693.81
488.607	674.81
488.825	692.81
489.043	711.81
489.261	693.81
489.479	722.81
489.696	710.81
489.914	704.81
490.132	706.81
490.35	734.81
490.568	720.81
490.786	737.81
491.003	728.81
491.221	741.81
491.439	772.81
491.657	790.81
491.874	787.81
492.092	804.81
492.31	808.81
492.527	781.81
492.745	790.81
492.963	806.81
493.18	825.81
493.398	799.81
493.615	806.81
493.833	836.81
494.05	806.81
494.268	807.81
494.485	826.81
494.703	809.81
494.92	797.81
495.138	838.81
495.355	813.81
495.573	821.81
495.79	840.81
496.008	816.81
496.225	835.81
496.442	821.81
496.66	826.81
496.877	849.81
497.094	837.81
497.312	846.81
497.529	843.81
497.746	836.81
497.963	857.81
498.181	910.81
498.398	916.81
498.615	931.81
498.832	931.81
499.049	998.81
499.267	1023.81
499.484	1086.81
499.701	1111.81
499.918	1152.81
500.135	1178.81
500.352	1284.81
500.569	1282.81
500.786	1301.81
501.003	1272.81
501.22	1225.81
501.437	1186.81
501.654	1102.81
501.871	1082.81
502.088	1041.81
502.305	992.81
502.522	932.81
502.739	918.81
502.956	893.81
503.172	883.81
503.389	856.81
503.606	876.81
503.823	859.81
504.04	860.81
504.256	841.81
504.473	852.81
504.69	848.81
504.907	838.81
505.123	810.81
505.34	816.81
505.557	780.81
505.773	792.81
505.99	761.81
506.207	792.81
506.423	786.81
506.64	769.81
506.856	734.81
507.073	757.81
507.289	745.81
507.506	717.81
507.722	718.81
507.939	753.81
508.155	734.81
508.372	723.81
508.588	717.81
508.805	700.81
509.021	717.81
509.238	743.81
509.454	727.81
509.67	706.81
509.887	695.81
510.103	702.81
510.319	725.81
510.536	774.81
510.752	1106.81
510.968	946.81
511.184	713.81
511.401	706.81
511.617	681.81
511.833	681.81
512.049	673.81
512.265	660.81
512.481	678.81
512.698	666.81
512.914	659.81
513.13	643.81
513.346	679.81
513.562	645.81
513.778	660.81
513.994	663.81
514.21	706.81
514.426	690.81
514.642	707.81
514.858	731.81
515.074	765.81
515.29	840.81
515.506	1120.81
515.721	982.81
515.937	766.81
516.153	699.81
516.369	691.81
516.585	688.81
516.801	688.81
517.016	710.81
517.232	723.81
517.448	724.81
517.664	740.81
517.879	721.81
518.095	740.81
518.311	723.81
518.527	736.81
518.742	708.81
518.958	693.81
519.173	697.81
519.389	663.81
519.605	667.81
519.82	670.81
520.036	671.81
520.251	694.81
520.467	694.81
520.682	698.81
520.898	690.81
521.113	706.81
521.329	753.81
521.544	808.81
521.76	918.81
521.975	1355.81
522.19	1366.81
522.406	866.81
522.621	691.81
522.836	650.81
523.052	640.81
523.267	635.81
523.482	613.81
523.698	601.81
523.913	624.81
524.128	610.81
524.343	599.81
524.559	587.81
524.774	607.81
524.989	589.81
525.204	593.81
525.419	592.81
525.634	594.81
525.849	577.81
526.064	582.81
526.28	584.81
526.495	576.81
526.71	568.81
526.925	569.81
527.14	563.81
527.355	564.81
527.57	551.81
527.785	562.81
527.999	558.81
528.214	566.81
528.429	552.81
528.644	550.81
528.859	552.81
529.074	571.81
529.289	585.81
529.503	632.81
529.718	629.81
529.933	578.81
530.148	588.81
530.363	566.81
530.577	566.81
530.792	532.81
531.007	549.81
531.221	550.81
531.436	539.81
531.651	530.81
531.865	542.81
532.08	529.81
532.295	541.81
532.509	534.81
532.724	555.81
532.938	536.81
533.153	544.81
533.367	554.81
533.582	556.81
533.796	539.81
534.011	542.81
534.225	545.81
534.44	523.81
534.654	525.81
534.868	535.81
535.083	541.81
535.297	501.81
535.511	549.81
535.726	550.81
535.94	529.81
536.154	536.81
536.369	523.81
536.583	557.81
536.797	525.81
537.011	523.81
537.225	484.81
537.44	504.81
537.654	499.81
537.868	499.81
538.082	511.81
538.296	535.81
538.51	525.81
538.724	515.81
538.938	522.81
539.153	512.81
539.367	549.81
539.581	522.81
539.795	523.81
540.009	525.81
540.222	505.81
540.436	516.81
540.65	507.81
540.864	522.81
541.078	531.81
541.292	542.81
541.506	501.81
541.72	504.81
541.934	493.81
542.147	534.81
542.361	526.81
542.575	502.81
542.789	525.81
543.002	524.81
543.216	526.81
543.43	522.81
543.644	517.81
543.857	507.81
544.071	537.81
544.285	533.81
544.498	513.81
544.712	507.81
544.925	526.81
545.139	517.81
545.352	522.81
545.566	510.81
545.779	497.81
545.993	536.81
546.206	522.81
546.42	526.81
546.633	526.81
546.847	514.81
547.06	509.81
547.274	514.81
547.487	484.81
547.7	525.81
547.914	517.81
548.127	525.81
548.34	525.81
548.554	487.81
548.767	521.81
548.98	508.81
549.193	513.81
549.407	506.81
549.62	518.81
549.833	518.81
550.046	502.81
550.259	496.81
550.473	500.81
550.686	502.81
550.899	516.81
551.112	510.81
551.325	493.81
551.538	498.81
551.751	491.81
551.964	475.81
552.177	499.81
552.39	521.81
552.603	515.81
552.816	526.81
553.029	505.81
553.242	517.81
553.455	537.81
553.667	537.81
553.88	535.81
554.093	527.81
554.306	491.81
554.519	494.81
554.732	508.81
554.944	500.81
555.157	482.81
555.37	485.81
555.583	471.81
555.795	470.81
556.008	470.81
556.221	472.81
556.433	458.81
556.646	460.81
556.859	470.81
557.071	466.81
557.284	465.81
557.496	448.81
557.709	453.81
557.921	455.81
558.134	432.81
558.346	474.81
558.559	457.81
558.771	456.81
558.984	445.81
559.196	438.81
559.409	437.81
559.621	458.81
559.833	438.81
560.046	422.81
560.258	402.81
560.47	451.81
560.683	440.81
560.895	453.81
561.107	473.81
561.32	451.81
561.532	434.81
561.744	431.81
561.956	448.81
562.168	439.81
562.381	427.81
562.593	446.81
562.805	446.81
563.017	453.81
563.229	460.81
563.441	442.81
563.653	456.81
563.865	445.81
564.077	439.81
564.289	468.81
564.501	465.81
564.713	462.81
564.925	495.81
565.137	506.81
565.349	501.81
565.561	484.81
565.773	493.81
565.985	516.81
566.197	530.81
566.408	529.81
566.62	547.81
566.832	590.81
567.044	588.81
567.255	580.81
567.467	598.81
567.679	613.81
567.891	629.81
568.102	615.81
568.314	601.81
568.526	562.81
568.737	560.81
568.949	544.81
569.161	502.81
569.372	482.81
569.584	463.81
569.795	453.81
570.007	447.81
570.218	465.81
570.43	480.81
570.641	435.81
570.853	443.81
571.064	441.81
571.276	424.81
571.487	440.81
571.698	441.81
571.91	423.81
572.121	420.81
572.333	398.81
572.544	381.81
572.755	422.81
572.966	383.81
573.178	376.81
573.389	403.81
573.6	406.81
573.811	391.81
574.023	412.81
574.234	386.81
574.445	374.81
574.656	388.81
574.867	362.81
575.078	380.81
575.289	386.81
575.501	373.81
575.712	373.81
575.923	396.81
576.134	381.81
576.345	394.81
576.556	372.81
576.767	381.81
576.978	384.81
577.188	373.81
577.399	362.81
577.61	359.81
577.821	376.81
578.032	364.81
578.243	394.81
578.454	534.81
578.665	427.81
578.875	365.81
579.086	362.81
579.297	353.81
579.508	357.81
579.718	347.81
579.929	344.81
580.14	358.81
580.35	348.81
580.561	348.81
580.772	331.81
580.982	333.81
581.193	366.81
581.403	338.81
581.614	357.81
581.825	347.81
582.035	347.81
582.246	333.81
582.456	333.81
582.667	349.81
582.877	339.81
583.087	330.81
583.298	323.81
583.508	344.81
583.719	342.81
583.929	336.81
584.139	323.81
584.35	325.81
584.56	325.81
584.77	339.81
584.981	339.81
585.191	321.81
585.401	329.81
585.611	347.81
585.821	315.81
586.032	325.81
586.242	322.81
586.452	333.81
586.662	339.81
586.872	354.81
587.082	331.81
587.292	338.81
587.502	335.81
587.713	343.81
587.923	354.81
588.133	322.81
588.343	326.81
588.553	326.81
588.762	348.81
588.972	335.81
589.182	321.81
589.392	327.81
589.602	340.81
589.812	321.81
590.022	330.81
590.232	328.81
590.441	318.81
590.651	326.81
590.861	322.81
591.071	322.81
591.281	330.81
591.49	342.81
591.7	325.81
591.91	340.81
592.119	347.81
592.329	331.81
592.539	356.81
592.748	378.81
592.958	362.81
593.167	337.81
593.377	362.81
593.587	388.81
593.796	373.81
594.006	354.81
594.215	382.81
594.424	376.81
594.634	357.81
594.843	363.81
595.053	360.81
595.262	349.81
595.472	350.81
595.681	338.81
595.89	346.81
596.1	313.81
596.309	321.81
596.518	338.81
596.727	328.81
596.937	319.81
597.146	320.81
597.355	312.81
597.564	330.81
597.774	294.81
597.983	316.81
598.192	303.81
598.401	303.81
598.61	310.81
598.819	301.81
599.028	294.81
599.237	301.81
599.446	304.81
599.655	276.81
599.864	284.81
600.073	273.81
600.282	276.81
600.491	299.81
600.7	285.81
600.909	291.81
601.118	307.81
601.327	286.81
601.536	281.81
601.745	295.81
601.953	290.81
602.162	300.81
602.371	294.81
602.58	289.81
602.789	289.81
602.997	304.81
603.206	288.81
603.415	301.81
603.623	281.81
603.832	290.81
604.041	270.81
604.249	278.81
604.458	290.81
604.666	289.81
604.875	266.81
605.084	272.81
605.292	265.81
605.501	283.81
605.709	276.81
605.918	274.81
606.126	284.81
606.334	266.81
606.543	275.81
606.751	280.81
606.96	264.81
607.168	276.81
607.376	270.81
607.585	266.81
607.793	283.81
608.001	286.81
608.21	263.81
608.418	269.81
608.626	286.81
608.834	275.81
609.043	277.81
609.251	265.81
609.459	270.81
609.667	277.81
609.875	282.81
610.083	271.81
610.291	264.81
610.499	285.81
610.707	279.81
610.916	263.81
611.124	270.81
611.332	296.81
611.54	288.81
611.748	282.81
611.955	265.81
612.163	257.81
612.371	272.81
612.579	280.81
612.787	267.81
612.995	281.81
613.203	272.81
613.411	257.81
613.618	262.81
613.826	268.81
614.034	252.81
614.242	267.81
614.449	259.81
614.657	256.81
614.865	258.81
615.072	264.81
615.28	261.81
615.488	270.81
615.695	262.81
615.903	265.81
616.111	265.81
616.318	283.81
616.526	264.81
616.733	263.81
616.941	281.81
617.148	258.81
617.356	265.81
617.563	293.81
617.771	245.81
617.978	262.81
618.185	263.81
618.393	245.81
618.6	263.81
618.807	266.81
619.015	273.81
619.222	257.81
619.429	254.81
619.637	258.81
619.844	276.81
620.051	252.81
620.258	265.81
620.466	227.81
620.673	237.81
620.88	230.81
621.087	264.81
621.294	252.81
621.501	238.81
621.708	256.81
621.915	262.81
622.122	263.81
622.329	236.81
622.536	254.81
622.743	236.81
622.95	237.81
623.157	254.81
623.364	250.81
623.571	249.81
623.778	235.81
623.985	238.81
624.192	247.81
624.399	240.81
624.606	235.81
624.812	218.81
625.019	235.81
625.226	242.81
625.433	230.81
625.639	227.81
625.846	231.81
626.053	228.81
626.259	226.81
626.466	226.81
626.673	221.81
626.879	228.81
627.086	224.81
627.293	218.81
627.499	235.81
627.706	221.81
627.912	227.81
628.119	212.81
628.325	234.81
628.532	217.81
628.738	227.81
628.945	227.81
629.151	217.81
629.357	214.81
629.564	233.81
629.77	221.81
629.976	224.81
630.183	234.81
630.389	217.81
630.595	206.81
630.802	228.81
631.008	217.81
631.214	205.81
631.42	225.81
631.627	228.81
631.833	206.81
632.039	219.81
632.245	206.81
632.451	213.81
632.657	201.81
632.863	214.81
633.069	208.81
633.275	210.81
633.481	210.81
633.688	209.81
633.893	203.81
634.099	203.81
634.305	222.81
634.511	226.81
634.717	190.81
634.923	209.81
635.129	190.81
635.335	205.81
635.541	208.81
635.747	200.81
635.952	213.81
636.158	199.81
636.364	213.81
636.57	200.81
636.775	192.81
636.981	209.81
637.187	181.81
637.392	190.81
637.598	196.81
637.804	194.81
638.009	200.81
638.215	181.81
638.421	194.81
638.626	186.81
638.832	199.81
639.037	185.81
639.243	190.81
639.448	180.81
639.654	185.81
639.859	184.81
640.065	197.81
640.27	208.81
640.475	164.81
640.681	187.81
640.886	188.81
641.091	194.81
641.297	178.81
641.502	186.81
641.707	191.81
641.913	183.81
642.118	188.81
642.323	197.81
642.528	205.81
642.733	206.81
642.939	195.81
643.144	173.81
643.349	180.81
643.554	188.81
643.759	170.81
643.964	167.81
644.169	186.81
644.374	172.81
644.579	178.81
644.784	181.81
644.989	186.81
645.194	173.81
645.399	183.81
645.604	181.81
645.809	173.81
646.014	177.81
646.219	188.81
646.423	183.81
646.628	192.81
646.833	174.81
647.038	190.81
647.243	195.81
647.447	183.81
647.652	181.81
647.857	194.81
648.062	182.81
648.266	170.81
648.471	178.81
648.676	185.81
648.88	191.81
649.085	197.81
649.289	181.81
649.494	195.81
649.698	183.81
649.903	201.81
650.107	184.81
650.312	186.81
650.516	176.81
650.721	179.81
650.925	176.81
651.13	170.81
651.334	163.81
651.539	166.81
651.743	154.81
651.947	163.81
652.152	162.81
652.356	141.81
652.56	168.81
652.764	152.81
652.969	149.81
653.173	144.81
653.377	159.81
653.581	160.81
653.785	139.81
653.99	141.81
654.194	154.81
654.398	149.81
654.602	142.81
654.806	146.81
655.01	155.81
655.214	134.81
655.418	127.81
655.622	132.81
655.826	146.81
656.03	149.81
656.234	149.81
656.438	139.81
656.642	142.81
656.846	148.81
657.049	115.81
657.253	121.81
657.457	124.81
657.661	121.81
657.865	115.81
658.068	121.81
658.272	110.81
658.476	123.81
658.68	117.81
658.883	96.81
659.087	96.81
659.291	113.81
659.494	99.81
659.698	85.81
659.901	101.81
660.105	112.81
660.309	104.81
660.512	99.81
660.716	92.81
660.919	94.81
661.123	105.81
661.326	94.81
661.53	92.81
661.733	96.81
661.936	94.81
662.14	93.81
662.343	102.81
662.546	90.81
662.75	87.81
662.953	87.81
663.156	90.81
663.36	91.81
663.563	85.81
663.766	74.81
663.969	96.81
664.173	101.81
664.376	79.81
664.579	82.81
664.782	96.81
664.985	69.81
665.188	88.81
665.391	84.81
665.594	80.81
665.797	70.81
666	85.81
666.203	84.81
666.406	96.81
666.609	81.81
666.812	76.81
667.015	79.81
667.218	75.81
667.421	77.81
667.624	67.81
667.827	88.81
668.03	85.81
668.232	85.81
668.435	87.81
668.638	76.81
668.841	86.81
669.043	93.81
669.246	73.81
669.449	85.81
669.651	89.81
669.854	84.81
670.057	88.81
670.259	81.81
670.462	90.81
670.665	84.81
670.867	83.81
671.07	82.81
671.272	86.81
671.475	88.81
671.677	75.81
671.88	90.81
672.082	80.81
672.284	87.81
672.487	85.81
672.689	72.81
672.892	92.81
