Data from 1974.PennyLincolnUp.Lamp.En5.5.200Scan.071719.P1.Changed Mount._HRD10591_15-51-11-855.txt Node
Date: Thu Jul 18 15:51:11 EDT 2019
User: cochatt
Spectrometer: HR+D1059
Trigger mode: 1
Integration Time (sec): 1.000000E-1
Scans to average: 1
Electric dark correction enabled: true
Nonlinearity correction enabled: false
Boxcar width: 0
XAxis mode: Wavelengths
Number of Pixels in Spectrum: 2048
>>>>>Begin Spectral Data<<<<<
223.165	-24.31
223.4	-24.31
223.635	-24.31
223.869	-35.31
224.104	-25.31
224.338	-13.31
224.573	3.69
224.808	-21.31
225.042	-5.31
225.277	3.69
225.511	-8.31
225.746	8.69
225.98	9.69
226.215	3.69
226.449	27.69
226.683	19.69
226.918	28.69
227.152	27.69
227.387	41.69
227.621	30.69
227.856	50.69
228.09	43.69
228.324	53.69
228.559	70.69
228.793	60.69
229.027	82.69
229.262	81.69
229.496	109.69
229.73	117.69
229.964	144.69
230.199	111.69
230.433	117.69
230.667	100.69
230.901	122.69
231.136	125.69
231.37	117.69
231.604	105.69
231.838	115.69
232.072	111.69
232.306	91.69
232.541	119.69
232.775	114.69
233.009	107.69
233.243	107.69
233.477	103.69
233.711	116.69
233.945	119.69
234.179	107.69
234.413	119.69
234.647	132.69
234.881	116.69
235.115	120.69
235.349	109.69
235.583	124.69
235.817	116.69
236.051	119.69
236.285	114.69
236.519	119.69
236.753	112.69
236.987	119.69
237.221	162.69
237.455	200.69
237.689	150.69
237.922	122.69
238.156	129.69
238.39	135.69
238.624	129.69
238.858	135.69
239.091	134.69
239.325	130.69
239.559	131.69
239.793	124.69
240.027	138.69
240.26	130.69
240.494	135.69
240.728	138.69
240.961	150.69
241.195	131.69
241.429	133.69
241.662	141.69
241.896	121.69
242.13	130.69
242.363	124.69
242.597	149.69
242.83	122.69
243.064	125.69
243.298	131.69
243.531	123.69
243.765	122.69
243.998	149.69
244.232	142.69
244.465	149.69
244.699	151.69
244.932	126.69
245.166	133.69
245.399	157.69
245.633	151.69
245.866	145.69
246.099	161.69
246.333	136.69
246.566	142.69
246.8	151.69
247.033	149.69
247.266	126.69
247.5	149.69
247.733	150.69
247.966	157.69
248.2	171.69
248.433	178.69
248.666	162.69
248.899	167.69
249.133	182.69
249.366	190.69
249.599	183.69
249.832	163.69
250.066	162.69
250.299	148.69
250.532	179.69
250.765	184.69
250.998	184.69
251.231	184.69
251.465	197.69
251.698	167.69
251.931	174.69
252.164	180.69
252.397	193.69
252.63	195.69
252.863	196.69
253.096	200.69
253.329	187.69
253.562	200.69
253.795	193.69
254.028	205.69
254.261	194.69
254.494	199.69
254.727	220.69
254.96	229.69
255.193	251.69
255.426	199.69
255.659	201.69
255.892	203.69
256.124	202.69
256.357	185.69
256.59	207.69
256.823	189.69
257.056	195.69
257.289	185.69
257.521	188.69
257.754	188.69
257.987	182.69
258.22	189.69
258.452	180.69
258.685	179.69
258.918	198.69
259.151	197.69
259.383	199.69
259.616	196.69
259.849	207.69
260.081	218.69
260.314	220.69
260.547	226.69
260.779	228.69
261.012	219.69
261.244	201.69
261.477	219.69
261.71	213.69
261.942	211.69
262.175	195.69
262.407	199.69
262.64	202.69
262.872	206.69
263.105	184.69
263.337	203.69
263.57	216.69
263.802	210.69
264.035	196.69
264.267	206.69
264.499	198.69
264.732	209.69
264.964	215.69
265.197	210.69
265.429	192.69
265.661	204.69
265.894	205.69
266.126	210.69
266.358	213.69
266.591	204.69
266.823	206.69
267.055	210.69
267.287	208.69
267.52	195.69
267.752	207.69
267.984	207.69
268.216	216.69
268.448	205.69
268.681	206.69
268.913	231.69
269.145	248.69
269.377	244.69
269.609	234.69
269.841	243.69
270.073	251.69
270.306	241.69
270.538	269.69
270.77	272.69
271.002	259.69
271.234	242.69
271.466	259.69
271.698	264.69
271.93	280.69
272.162	276.69
272.394	284.69
272.626	264.69
272.858	259.69
273.09	251.69
273.322	256.69
273.553	248.69
273.785	230.69
274.017	226.69
274.249	227.69
274.481	236.69
274.713	241.69
274.945	248.69
275.176	249.69
275.408	238.69
275.64	249.69
275.872	252.69
276.104	253.69
276.335	239.69
276.567	233.69
276.799	246.69
277.031	265.69
277.262	267.69
277.494	276.69
277.726	277.69
277.957	263.69
278.189	249.69
278.421	271.69
278.652	241.69
278.884	244.69
279.115	269.69
279.347	255.69
279.579	261.69
279.81	241.69
280.042	251.69
280.273	270.69
280.505	252.69
280.736	266.69
280.968	251.69
281.199	252.69
281.431	260.69
281.662	244.69
281.894	241.69
282.125	247.69
282.356	274.69
282.588	261.69
282.819	281.69
283.051	275.69
283.282	260.69
283.513	264.69
283.745	242.69
283.976	262.69
284.207	245.69
284.439	270.69
284.67	261.69
284.901	260.69
285.132	279.69
285.364	250.69
285.595	257.69
285.826	263.69
286.057	256.69
286.288	266.69
286.52	258.69
286.751	264.69
286.982	262.69
287.213	250.69
287.444	284.69
287.675	280.69
287.906	287.69
288.138	286.69
288.369	272.69
288.6	276.69
288.831	289.69
289.062	266.69
289.293	267.69
289.524	263.69
289.755	268.69
289.986	286.69
290.217	281.69
290.448	270.69
290.679	282.69
290.91	255.69
291.141	264.69
291.371	275.69
291.602	277.69
291.833	280.69
292.064	281.69
292.295	265.69
292.526	276.69
292.757	278.69
292.987	250.69
293.218	297.69
293.449	272.69
293.68	279.69
293.91	289.69
294.141	278.69
294.372	283.69
294.603	260.69
294.833	278.69
295.064	284.69
295.295	287.69
295.525	271.69
295.756	291.69
295.987	294.69
296.217	297.69
296.448	305.69
296.679	297.69
296.909	283.69
297.14	266.69
297.37	297.69
297.601	281.69
297.831	266.69
298.062	271.69
298.292	287.69
298.523	298.69
298.753	298.69
298.984	294.69
299.214	281.69
299.445	295.69
299.675	292.69
299.905	278.69
300.136	299.69
300.366	281.69
300.597	294.69
300.827	299.69
301.057	308.69
301.288	319.69
301.518	305.69
301.748	303.69
301.979	300.69
302.209	295.69
302.439	297.69
302.669	308.69
302.9	317.69
303.13	317.69
303.36	308.69
303.59	313.69
303.82	309.69
304.051	320.69
304.281	313.69
304.511	295.69
304.741	317.69
304.971	324.69
305.201	314.69
305.431	311.69
305.661	305.69
305.891	310.69
306.121	301.69
306.352	315.69
306.582	323.69
306.812	290.69
307.042	322.69
307.272	322.69
307.502	302.69
307.731	304.69
307.961	306.69
308.191	310.69
308.421	297.69
308.651	312.69
308.881	309.69
309.111	330.69
309.341	295.69
309.571	323.69
309.8	325.69
310.03	309.69
310.26	334.69
310.49	320.69
310.72	326.69
310.949	338.69
311.179	350.69
311.409	340.69
311.639	331.69
311.868	342.69
312.098	344.69
312.328	335.69
312.557	348.69
312.787	347.69
313.017	340.69
313.246	339.69
313.476	325.69
313.706	328.69
313.935	323.69
314.165	338.69
314.394	340.69
314.624	338.69
314.853	343.69
315.083	344.69
315.312	349.69
315.542	337.69
315.771	348.69
316.001	346.69
316.23	338.69
316.46	338.69
316.689	332.69
316.919	338.69
317.148	340.69
317.377	340.69
317.607	333.69
317.836	347.69
318.065	324.69
318.295	332.69
318.524	356.69
318.753	347.69
318.983	357.69
319.212	338.69
319.441	337.69
319.67	365.69
319.9	350.69
320.129	332.69
320.358	340.69
320.587	334.69
320.816	363.69
321.046	378.69
321.275	350.69
321.504	345.69
321.733	368.69
321.962	346.69
322.191	357.69
322.42	347.69
322.649	365.69
322.878	375.69
323.108	387.69
323.337	375.69
323.566	401.69
323.795	401.69
324.024	438.69
324.253	505.69
324.482	615.69
324.71	915.69
324.939	1355.69
325.168	1176.69
325.397	608.69
325.626	460.69
325.855	407.69
326.084	388.69
326.313	380.69
326.542	397.69
326.77	415.69
326.999	475.69
327.228	602.69
327.457	852.69
327.686	1060.69
327.914	719.69
328.143	518.69
328.372	449.69
328.6	449.69
328.829	414.69
329.058	429.69
329.287	432.69
329.515	426.69
329.744	406.69
329.972	411.69
330.201	413.69
330.43	446.69
330.658	435.69
330.887	461.69
331.115	456.69
331.344	428.69
331.572	422.69
331.801	418.69
332.03	431.69
332.258	413.69
332.486	406.69
332.715	403.69
332.943	400.69
333.172	426.69
333.4	413.69
333.629	435.69
333.857	408.69
334.085	447.69
334.314	433.69
334.542	476.69
334.771	477.69
334.999	455.69
335.227	422.69
335.455	427.69
335.684	412.69
335.912	408.69
336.14	415.69
336.369	421.69
336.597	422.69
336.825	416.69
337.053	421.69
337.281	391.69
337.51	415.69
337.738	431.69
337.966	421.69
338.194	390.69
338.422	397.69
338.65	404.69
338.878	405.69
339.106	400.69
339.334	403.69
339.562	413.69
339.79	387.69
340.018	382.69
340.246	383.69
340.474	405.69
340.702	380.69
340.93	415.69
341.158	380.69
341.386	400.69
341.614	384.69
341.842	372.69
342.07	400.69
342.298	390.69
342.526	383.69
342.754	385.69
342.981	378.69
343.209	385.69
343.437	399.69
343.665	398.69
343.893	420.69
344.12	425.69
344.348	423.69
344.576	413.69
344.804	415.69
345.031	405.69
345.259	425.69
345.487	384.69
345.714	406.69
345.942	407.69
346.17	404.69
346.397	376.69
346.625	382.69
346.853	363.69
347.08	367.69
347.308	356.69
347.535	390.69
347.763	393.69
347.99	395.69
348.218	382.69
348.445	375.69
348.673	387.69
348.9	380.69
349.128	396.69
349.355	374.69
349.583	355.69
349.81	375.69
350.037	375.69
350.265	367.69
350.492	367.69
350.72	373.69
350.947	369.69
351.174	379.69
351.402	381.69
351.629	385.69
351.856	381.69
352.083	408.69
352.311	386.69
352.538	364.69
352.765	375.69
352.992	381.69
353.22	365.69
353.447	377.69
353.674	395.69
353.901	374.69
354.128	381.69
354.355	379.69
354.583	374.69
354.81	357.69
355.037	383.69
355.264	391.69
355.491	379.69
355.718	368.69
355.945	385.69
356.172	360.69
356.399	393.69
356.626	379.69
356.853	376.69
357.08	373.69
357.307	375.69
357.534	369.69
357.761	378.69
357.988	366.69
358.215	348.69
358.441	378.69
358.668	359.69
358.895	401.69
359.122	377.69
359.349	386.69
359.576	377.69
359.802	386.69
360.029	427.69
360.256	417.69
360.483	418.69
360.709	413.69
360.936	405.69
361.163	380.69
361.39	378.69
361.616	399.69
361.843	380.69
362.07	387.69
362.296	378.69
362.523	383.69
362.749	384.69
362.976	373.69
363.203	398.69
363.429	395.69
363.656	385.69
363.882	373.69
364.109	381.69
364.335	380.69
364.562	376.69
364.788	379.69
365.015	401.69
365.241	387.69
365.468	393.69
365.694	395.69
365.92	403.69
366.147	381.69
366.373	386.69
366.599	382.69
366.826	404.69
367.052	371.69
367.278	398.69
367.505	402.69
367.731	381.69
367.957	381.69
368.184	372.69
368.41	407.69
368.636	399.69
368.862	394.69
369.089	386.69
369.315	378.69
369.541	379.69
369.767	376.69
369.993	380.69
370.219	387.69
370.445	393.69
370.672	391.69
370.898	389.69
371.124	366.69
371.35	387.69
371.576	381.69
371.802	382.69
372.028	391.69
372.254	390.69
372.48	393.69
372.706	397.69
372.932	420.69
373.158	386.69
373.384	396.69
373.61	395.69
373.835	400.69
374.061	387.69
374.287	383.69
374.513	396.69
374.739	408.69
374.965	417.69
375.191	386.69
375.416	427.69
375.642	389.69
375.868	427.69
376.094	413.69
376.319	417.69
376.545	406.69
376.771	406.69
376.997	411.69
377.222	393.69
377.448	389.69
377.674	404.69
377.899	407.69
378.125	382.69
378.35	398.69
378.576	390.69
378.802	389.69
379.027	388.69
379.253	417.69
379.478	403.69
379.704	395.69
379.929	406.69
380.155	401.69
380.38	408.69
380.606	416.69
380.831	399.69
381.057	402.69
381.282	395.69
381.507	421.69
381.733	421.69
381.958	403.69
382.184	425.69
382.409	402.69
382.634	412.69
382.86	408.69
383.085	418.69
383.31	419.69
383.535	419.69
383.761	442.69
383.986	429.69
384.211	446.69
384.436	434.69
384.662	423.69
384.887	468.69
385.112	443.69
385.337	463.69
385.562	453.69
385.787	458.69
386.013	464.69
386.238	478.69
386.463	470.69
386.688	444.69
386.913	470.69
387.138	453.69
387.363	442.69
387.588	458.69
387.813	447.69
388.038	472.69
388.263	457.69
388.488	453.69
388.713	453.69
388.938	450.69
389.163	450.69
389.387	463.69
389.612	427.69
389.837	434.69
390.062	428.69
390.287	441.69
390.512	450.69
390.736	453.69
390.961	446.69
391.186	439.69
391.411	443.69
391.636	462.69
391.86	466.69
392.085	475.69
392.31	473.69
392.534	478.69
392.759	473.69
392.984	482.69
393.208	462.69
393.433	507.69
393.658	476.69
393.882	458.69
394.107	471.69
394.331	460.69
394.556	440.69
394.78	443.69
395.005	448.69
395.229	449.69
395.454	461.69
395.678	438.69
395.903	469.69
396.127	485.69
396.352	504.69
396.576	473.69
396.801	479.69
397.025	471.69
397.249	469.69
397.474	474.69
397.698	486.69
397.922	506.69
398.147	515.69
398.371	512.69
398.595	476.69
398.82	517.69
399.044	540.69
399.268	561.69
399.492	588.69
399.717	612.69
399.941	633.69
400.165	644.69
400.389	649.69
400.613	565.69
400.837	534.69
401.062	549.69
401.286	542.69
401.51	524.69
401.734	524.69
401.958	537.69
402.182	540.69
402.406	537.69
402.63	547.69
402.854	537.69
403.078	536.69
403.302	539.69
403.526	540.69
403.75	547.69
403.974	547.69
404.198	557.69
404.422	544.69
404.645	542.69
404.869	558.69
405.093	585.69
405.317	598.69
405.541	610.69
405.765	556.69
405.988	561.69
406.212	551.69
406.436	561.69
406.66	571.69
406.883	563.69
407.107	599.69
407.331	654.69
407.555	677.69
407.778	703.69
408.002	650.69
408.226	612.69
408.449	611.69
408.673	601.69
408.896	602.69
409.12	651.69
409.344	598.69
409.567	558.69
409.791	575.69
410.014	563.69
410.238	552.69
410.461	543.69
410.685	549.69
410.908	563.69
411.132	591.69
411.355	617.69
411.578	582.69
411.802	535.69
412.025	538.69
412.249	546.69
412.472	575.69
412.695	582.69
412.919	569.69
413.142	539.69
413.365	516.69
413.589	512.69
413.812	515.69
414.035	516.69
414.258	513.69
414.482	506.69
414.705	531.69
414.928	518.69
415.151	515.69
415.374	534.69
415.597	515.69
415.821	530.69
416.044	514.69
416.267	520.69
416.49	509.69
416.713	519.69
416.936	521.69
417.159	518.69
417.382	522.69
417.605	518.69
417.828	531.69
418.051	552.69
418.274	522.69
418.497	511.69
418.72	516.69
418.943	501.69
419.166	550.69
419.389	557.69
419.611	536.69
419.834	568.69
420.057	533.69
420.28	533.69
420.503	518.69
420.726	517.69
420.948	527.69
421.171	563.69
421.394	604.69
421.617	529.69
421.839	517.69
422.062	521.69
422.285	549.69
422.507	577.69
422.73	653.69
422.953	619.69
423.175	574.69
423.398	543.69
423.621	537.69
423.843	562.69
424.066	583.69
424.288	572.69
424.511	579.69
424.733	622.69
424.956	681.69
425.178	661.69
425.401	665.69
425.623	667.69
425.846	581.69
426.068	561.69
426.291	538.69
426.513	513.69
426.735	551.69
426.958	582.69
427.18	644.69
427.402	773.69
427.625	841.69
427.847	701.69
428.069	638.69
428.292	594.69
428.514	529.69
428.736	537.69
428.958	499.69
429.181	502.69
429.403	483.69
429.625	499.69
429.847	546.69
430.069	597.69
430.292	594.69
430.514	519.69
430.736	521.69
430.958	505.69
431.18	507.69
431.402	492.69
431.624	491.69
431.846	498.69
432.068	484.69
432.29	513.69
432.512	492.69
432.734	516.69
432.956	514.69
433.178	491.69
433.4	511.69
433.622	493.69
433.844	476.69
434.066	514.69
434.287	477.69
434.509	505.69
434.731	521.69
434.953	525.69
435.175	561.69
435.397	566.69
435.618	546.69
435.84	581.69
436.062	659.69
436.284	703.69
436.505	591.69
436.727	535.69
436.949	519.69
437.17	514.69
437.392	513.69
437.614	522.69
437.835	543.69
438.057	622.69
438.278	700.69
438.5	695.69
438.721	771.69
438.943	744.69
439.165	581.69
439.386	545.69
439.608	546.69
439.829	557.69
440.05	550.69
440.272	586.69
440.493	566.69
440.715	530.69
440.936	512.69
441.158	528.69
441.379	526.69
441.6	534.69
441.822	542.69
442.043	595.69
442.264	665.69
442.486	679.69
442.707	589.69
442.928	582.69
443.149	559.69
443.371	580.69
443.592	633.69
443.813	699.69
444.034	740.69
444.255	657.69
444.476	591.69
444.698	589.69
444.919	594.69
445.14	706.69
445.361	640.69
445.582	592.69
445.803	635.69
446.024	709.69
446.245	717.69
446.466	637.69
446.687	580.69
446.908	551.69
447.129	518.69
447.35	531.69
447.571	511.69
447.792	500.69
448.013	491.69
448.234	524.69
448.455	530.69
448.675	652.69
448.896	753.69
449.117	649.69
449.338	616.69
449.559	713.69
449.779	810.69
450	642.69
450.221	547.69
450.442	518.69
450.662	498.69
450.883	484.69
451.104	484.69
451.324	484.69
451.545	477.69
451.766	474.69
451.986	454.69
452.207	454.69
452.428	452.69
452.648	441.69
452.869	457.69
453.089	437.69
453.31	466.69
453.53	463.69
453.751	437.69
453.971	424.69
454.192	423.69
454.412	458.69
454.633	449.69
454.853	452.69
455.073	450.69
455.294	459.69
455.514	508.69
455.734	518.69
455.955	465.69
456.175	425.69
456.395	413.69
456.616	442.69
456.836	425.69
457.056	425.69
457.276	436.69
457.497	428.69
457.717	443.69
457.937	423.69
458.157	434.69
458.377	434.69
458.598	453.69
458.818	466.69
459.038	531.69
459.258	566.69
459.478	520.69
459.698	501.69
459.918	478.69
460.138	515.69
460.358	531.69
460.578	528.69
460.798	530.69
461.018	515.69
461.238	518.69
461.458	500.69
461.678	499.69
461.898	524.69
462.118	511.69
462.338	543.69
462.558	566.69
462.777	557.69
462.997	588.69
463.217	596.69
463.437	607.69
463.657	599.69
463.876	589.69
464.096	571.69
464.316	548.69
464.536	587.69
464.755	568.69
464.975	567.69
465.195	583.69
465.414	586.69
465.634	536.69
465.854	525.69
466.073	503.69
466.293	487.69
466.512	462.69
466.732	465.69
466.951	462.69
467.171	468.69
467.391	490.69
467.61	478.69
467.829	474.69
468.049	474.69
468.268	486.69
468.488	469.69
468.707	473.69
468.927	508.69
469.146	477.69
469.365	465.69
469.585	470.69
469.804	501.69
470.023	471.69
470.243	481.69
470.462	496.69
470.681	498.69
470.901	484.69
471.12	497.69
471.339	484.69
471.558	490.69
471.777	482.69
471.997	487.69
472.216	472.69
472.435	489.69
472.654	488.69
472.873	492.69
473.092	468.69
473.311	475.69
473.53	490.69
473.749	490.69
473.968	512.69
474.187	583.69
474.406	599.69
474.625	529.69
474.844	505.69
475.063	477.69
475.282	468.69
475.501	483.69
475.72	492.69
475.939	501.69
476.158	482.69
476.377	494.69
476.596	485.69
476.814	507.69
477.033	519.69
477.252	518.69
477.471	522.69
477.69	513.69
477.908	520.69
478.127	542.69
478.346	545.69
478.564	575.69
478.783	554.69
479.002	554.69
479.22	567.69
479.439	569.69
479.658	580.69
479.876	606.69
480.095	584.69
480.313	604.69
480.532	616.69
480.751	596.69
480.969	585.69
481.188	609.69
481.406	602.69
481.624	585.69
481.843	572.69
482.061	558.69
482.28	586.69
482.498	577.69
482.717	585.69
482.935	567.69
483.153	553.69
483.372	550.69
483.59	555.69
483.808	600.69
484.027	571.69
484.245	570.69
484.463	571.69
484.681	594.69
484.9	584.69
485.118	570.69
485.336	589.69
485.554	588.69
485.772	590.69
485.99	581.69
486.209	598.69
486.427	596.69
486.645	605.69
486.863	622.69
487.081	606.69
487.299	600.69
487.517	598.69
487.735	613.69
487.953	617.69
488.171	606.69
488.389	614.69
488.607	625.69
488.825	595.69
489.043	611.69
489.261	622.69
489.479	610.69
489.696	613.69
489.914	621.69
490.132	633.69
490.35	643.69
490.568	630.69
490.786	640.69
491.003	644.69
491.221	687.69
491.439	680.69
491.657	688.69
491.874	655.69
492.092	690.69
492.31	696.69
492.527	692.69
492.745	666.69
492.963	700.69
493.18	676.69
493.398	710.69
493.615	709.69
493.833	699.69
494.05	699.69
494.268	722.69
494.485	699.69
494.703	710.69
494.92	693.69
495.138	713.69
495.355	714.69
495.573	714.69
495.79	717.69
496.008	700.69
496.225	729.69
496.442	711.69
496.66	735.69
496.877	731.69
497.094	726.69
497.312	712.69
497.529	724.69
497.746	745.69
497.963	761.69
498.181	763.69
498.398	788.69
498.615	817.69
498.832	845.69
499.049	865.69
499.267	888.69
499.484	923.69
499.701	969.69
499.918	1042.69
500.135	1075.69
500.352	1156.69
500.569	1181.69
500.786	1155.69
501.003	1150.69
501.22	1100.69
501.437	1037.69
501.654	1004.69
501.871	965.69
502.088	916.69
502.305	866.69
502.522	828.69
502.739	829.69
502.956	807.69
503.172	786.69
503.389	765.69
503.606	749.69
503.823	726.69
504.04	726.69
504.256	749.69
504.473	724.69
504.69	741.69
504.907	728.69
505.123	719.69
505.34	681.69
505.557	680.69
505.773	677.69
505.99	677.69
506.207	654.69
506.423	700.69
506.64	661.69
506.856	651.69
507.073	639.69
507.289	648.69
507.506	643.69
507.722	661.69
507.939	658.69
508.155	620.69
508.372	613.69
508.588	610.69
508.805	603.69
509.021	616.69
509.238	617.69
509.454	638.69
509.67	623.69
509.887	596.69
510.103	610.69
510.319	621.69
510.536	638.69
510.752	846.69
510.968	779.69
511.184	607.69
511.401	577.69
511.617	598.69
511.833	572.69
512.049	576.69
512.265	587.69
512.481	595.69
512.698	581.69
512.914	590.69
513.13	590.69
513.346	584.69
513.562	559.69
513.778	585.69
513.994	574.69
514.21	574.69
514.426	590.69
514.642	602.69
514.858	622.69
515.074	627.69
515.29	683.69
515.506	820.69
515.721	748.69
515.937	635.69
516.153	610.69
516.369	609.69
516.585	610.69
516.801	614.69
517.016	619.69
517.232	636.69
517.448	635.69
517.664	615.69
517.879	635.69
518.095	639.69
518.311	626.69
518.527	633.69
518.742	605.69
518.958	601.69
519.173	600.69
519.389	603.69
519.605	598.69
519.82	581.69
520.036	587.69
520.251	584.69
520.467	619.69
520.682	605.69
520.898	618.69
521.113	604.69
521.329	610.69
521.544	651.69
521.76	747.69
521.975	982.69
522.19	963.69
522.406	689.69
522.621	598.69
522.836	556.69
523.052	563.69
523.267	543.69
523.482	526.69
523.698	532.69
523.913	535.69
524.128	555.69
524.343	515.69
524.559	523.69
524.774	535.69
524.989	480.69
525.204	535.69
525.419	525.69
525.634	518.69
525.849	519.69
526.064	494.69
526.28	505.69
526.495	495.69
526.71	514.69
526.925	480.69
527.14	502.69
527.355	493.69
527.57	523.69
527.785	475.69
527.999	499.69
528.214	494.69
528.429	483.69
528.644	503.69
528.859	490.69
529.074	507.69
529.289	487.69
529.503	558.69
529.718	533.69
529.933	527.69
530.148	528.69
530.363	530.69
530.577	502.69
530.792	475.69
531.007	491.69
531.221	491.69
531.436	473.69
531.651	478.69
531.865	481.69
532.08	491.69
532.295	489.69
532.509	479.69
532.724	463.69
532.938	463.69
533.153	489.69
533.367	475.69
533.582	472.69
533.796	492.69
534.011	483.69
534.225	462.69
534.44	479.69
534.654	473.69
534.868	490.69
535.083	493.69
535.297	477.69
535.511	461.69
535.726	467.69
535.94	474.69
536.154	469.69
536.369	477.69
536.583	457.69
536.797	451.69
537.011	460.69
537.225	446.69
537.44	457.69
537.654	457.69
537.868	461.69
538.082	443.69
538.296	458.69
538.51	453.69
538.724	475.69
538.938	477.69
539.153	472.69
539.367	469.69
539.581	469.69
539.795	468.69
540.009	460.69
540.222	465.69
540.436	470.69
540.65	444.69
540.864	453.69
541.078	470.69
541.292	490.69
541.506	453.69
541.72	483.69
541.934	473.69
542.147	465.69
542.361	462.69
542.575	484.69
542.789	464.69
543.002	451.69
543.216	460.69
543.43	455.69
543.644	466.69
543.857	456.69
544.071	463.69
544.285	474.69
544.498	491.69
544.712	463.69
544.925	467.69
545.139	476.69
545.352	469.69
545.566	466.69
545.779	454.69
545.993	458.69
546.206	478.69
546.42	459.69
546.633	460.69
546.847	471.69
547.06	455.69
547.274	455.69
547.487	486.69
547.7	471.69
547.914	461.69
548.127	469.69
548.34	448.69
548.554	445.69
548.767	461.69
548.98	468.69
549.193	465.69
549.407	463.69
549.62	459.69
549.833	458.69
550.046	469.69
550.259	483.69
550.473	466.69
550.686	450.69
550.899	468.69
551.112	453.69
551.325	466.69
551.538	460.69
551.751	458.69
551.964	444.69
552.177	446.69
552.39	462.69
552.603	461.69
552.816	462.69
553.029	485.69
553.242	487.69
553.455	470.69
553.667	492.69
553.88	502.69
554.093	473.69
554.306	476.69
554.519	443.69
554.732	455.69
554.944	437.69
555.157	446.69
555.37	421.69
555.583	441.69
555.795	444.69
556.008	442.69
556.221	415.69
556.433	435.69
556.646	415.69
556.859	417.69
557.071	420.69
557.284	412.69
557.496	409.69
557.709	422.69
557.921	414.69
558.134	410.69
558.346	404.69
558.559	405.69
558.771	413.69
558.984	395.69
559.196	407.69
559.409	409.69
559.621	412.69
559.833	409.69
560.046	418.69
560.258	400.69
560.47	405.69
560.683	421.69
560.895	417.69
561.107	405.69
561.32	398.69
561.532	427.69
561.744	396.69
561.956	413.69
562.168	407.69
562.381	412.69
562.593	400.69
562.805	419.69
563.017	409.69
563.229	419.69
563.441	397.69
563.653	422.69
563.865	416.69
564.077	415.69
564.289	427.69
564.501	434.69
564.713	433.69
564.925	437.69
565.137	441.69
565.349	438.69
565.561	447.69
565.773	459.69
565.985	473.69
566.197	494.69
566.408	498.69
566.62	537.69
566.832	514.69
567.044	531.69
567.255	530.69
567.467	568.69
567.679	565.69
567.891	581.69
568.102	578.69
568.314	566.69
568.526	565.69
568.737	521.69
568.949	506.69
569.161	471.69
569.372	469.69
569.584	430.69
569.795	441.69
570.007	439.69
570.218	445.69
570.43	434.69
570.641	425.69
570.853	415.69
571.064	399.69
571.276	411.69
571.487	380.69
571.698	390.69
571.91	394.69
572.121	378.69
572.333	382.69
572.544	365.69
572.755	350.69
572.966	374.69
573.178	381.69
573.389	350.69
573.6	369.69
573.811	354.69
574.023	377.69
574.234	364.69
574.445	377.69
574.656	357.69
574.867	352.69
575.078	357.69
575.289	362.69
575.501	355.69
575.712	354.69
575.923	341.69
576.134	365.69
576.345	368.69
576.556	330.69
576.767	351.69
576.978	348.69
577.188	351.69
577.399	329.69
577.61	342.69
577.821	321.69
578.032	325.69
578.243	373.69
578.454	426.69
578.665	365.69
578.875	341.69
579.086	332.69
579.297	338.69
579.508	338.69
579.718	310.69
579.929	310.69
580.14	309.69
580.35	339.69
580.561	333.69
580.772	333.69
580.982	330.69
581.193	299.69
581.403	319.69
581.614	313.69
581.825	325.69
582.035	318.69
582.246	324.69
582.456	309.69
582.667	321.69
582.877	318.69
583.087	332.69
583.298	322.69
583.508	308.69
583.719	306.69
583.929	315.69
584.139	310.69
584.35	308.69
584.56	318.69
584.77	315.69
584.981	305.69
585.191	299.69
585.401	286.69
585.611	324.69
585.821	313.69
586.032	300.69
586.242	302.69
586.452	315.69
586.662	311.69
586.872	320.69
587.082	315.69
587.292	308.69
587.502	311.69
587.713	329.69
587.923	306.69
588.133	292.69
588.343	296.69
588.553	284.69
588.762	306.69
588.972	323.69
589.182	314.69
589.392	303.69
589.602	307.69
589.812	305.69
590.022	311.69
590.232	298.69
590.441	312.69
590.651	291.69
590.861	291.69
591.071	308.69
591.281	305.69
591.49	329.69
591.7	321.69
591.91	327.69
592.119	306.69
592.329	313.69
592.539	328.69
592.748	337.69
592.958	328.69
593.167	330.69
593.377	329.69
593.587	358.69
593.796	338.69
594.006	346.69
594.215	354.69
594.424	358.69
594.634	335.69
594.843	331.69
595.053	347.69
595.262	337.69
595.472	325.69
595.681	320.69
595.89	317.69
596.1	300.69
596.309	315.69
596.518	309.69
596.727	309.69
596.937	301.69
597.146	306.69
597.355	309.69
597.564	316.69
597.774	302.69
597.983	284.69
598.192	276.69
598.401	286.69
598.61	304.69
598.819	295.69
599.028	294.69
599.237	284.69
599.446	280.69
599.655	292.69
599.864	264.69
600.073	279.69
600.282	295.69
600.491	270.69
600.7	281.69
600.909	272.69
601.118	261.69
601.327	267.69
601.536	270.69
601.745	278.69
601.953	272.69
602.162	270.69
602.371	279.69
602.58	282.69
602.789	256.69
602.997	262.69
603.206	280.69
603.415	283.69
603.623	264.69
603.832	250.69
604.041	277.69
604.249	273.69
604.458	239.69
604.666	261.69
604.875	267.69
605.084	263.69
605.292	241.69
605.501	255.69
605.709	241.69
605.918	259.69
606.126	268.69
606.334	273.69
606.543	248.69
606.751	265.69
606.96	281.69
607.168	247.69
607.376	259.69
607.585	261.69
607.793	254.69
608.001	258.69
608.21	274.69
608.418	267.69
608.626	277.69
608.834	251.69
609.043	253.69
609.251	261.69
609.459	255.69
609.667	273.69
609.875	273.69
610.083	262.69
610.291	261.69
610.499	268.69
610.707	266.69
610.916	270.69
611.124	257.69
611.332	259.69
611.54	268.69
611.748	294.69
611.955	253.69
612.163	277.69
612.371	250.69
612.579	277.69
612.787	259.69
612.995	265.69
613.203	258.69
613.411	259.69
613.618	257.69
613.826	267.69
614.034	262.69
614.242	266.69
614.449	246.69
614.657	255.69
614.865	248.69
615.072	255.69
615.28	244.69
615.488	247.69
615.695	237.69
615.903	235.69
616.111	250.69
616.318	259.69
616.526	259.69
616.733	249.69
616.941	243.69
617.148	265.69
617.356	258.69
617.563	247.69
617.771	250.69
617.978	250.69
618.185	247.69
618.393	245.69
618.6	250.69
618.807	249.69
619.015	243.69
619.222	241.69
619.429	244.69
619.637	242.69
619.844	250.69
620.051	232.69
620.258	245.69
620.466	231.69
620.673	245.69
620.88	236.69
621.087	243.69
621.294	257.69
621.501	257.69
621.708	245.69
621.915	230.69
622.122	246.69
622.329	243.69
622.536	230.69
622.743	249.69
622.95	251.69
623.157	219.69
623.364	255.69
623.571	231.69
623.778	218.69
623.985	239.69
624.192	238.69
624.399	232.69
624.606	239.69
624.812	227.69
625.019	209.69
625.226	241.69
625.433	248.69
625.639	241.69
625.846	221.69
626.053	223.69
626.259	219.69
626.466	216.69
626.673	211.69
626.879	227.69
627.086	209.69
627.293	238.69
627.499	225.69
627.706	214.69
627.912	228.69
628.119	214.69
628.325	219.69
628.532	210.69
628.738	216.69
628.945	213.69
629.151	229.69
629.357	211.69
629.564	204.69
629.77	229.69
629.976	216.69
630.183	210.69
630.389	199.69
630.595	219.69
630.802	205.69
631.008	207.69
631.214	207.69
631.42	207.69
631.627	217.69
631.833	212.69
632.039	194.69
632.245	197.69
632.451	214.69
632.657	204.69
632.863	205.69
633.069	210.69
633.275	203.69
633.481	205.69
633.688	192.69
633.893	210.69
634.099	218.69
634.305	206.69
634.511	196.69
634.717	198.69
634.923	187.69
635.129	187.69
635.335	194.69
635.541	179.69
635.747	190.69
635.952	199.69
636.158	172.69
636.364	214.69
636.57	197.69
636.775	213.69
636.981	195.69
637.187	194.69
637.392	199.69
637.598	203.69
637.804	192.69
638.009	196.69
638.215	191.69
638.421	175.69
638.626	197.69
638.832	202.69
639.037	181.69
639.243	187.69
639.448	187.69
639.654	193.69
639.859	185.69
640.065	195.69
640.27	193.69
640.475	205.69
640.681	195.69
640.886	189.69
641.091	177.69
641.297	188.69
641.502	197.69
641.707	198.69
641.913	174.69
642.118	192.69
642.323	185.69
642.528	187.69
642.733	189.69
642.939	193.69
643.144	185.69
643.349	172.69
643.554	189.69
643.759	179.69
643.964	180.69
644.169	173.69
644.374	173.69
644.579	182.69
644.784	191.69
644.989	187.69
645.194	180.69
645.399	181.69
645.604	170.69
645.809	167.69
646.014	183.69
646.219	171.69
646.423	185.69
646.628	185.69
646.833	181.69
647.038	193.69
647.243	183.69
647.447	175.69
647.652	184.69
647.857	182.69
648.062	179.69
648.266	188.69
648.471	185.69
648.676	205.69
648.88	184.69
649.085	192.69
649.289	187.69
649.494	186.69
649.698	204.69
649.903	198.69
650.107	177.69
650.312	170.69
650.516	165.69
650.721	177.69
650.925	172.69
651.13	169.69
651.334	162.69
651.539	165.69
651.743	171.69
651.947	162.69
652.152	152.69
652.356	170.69
652.56	164.69
652.764	151.69
652.969	145.69
653.173	158.69
653.377	144.69
653.581	156.69
653.785	154.69
653.99	142.69
654.194	151.69
654.398	161.69
654.602	138.69
654.806	164.69
655.01	163.69
655.214	137.69
655.418	149.69
655.622	151.69
655.826	157.69
656.03	160.69
656.234	157.69
656.438	168.69
656.642	158.69
656.846	153.69
657.049	159.69
657.253	137.69
657.457	123.69
657.661	120.69
657.865	122.69
658.068	131.69
658.272	113.69
658.476	121.69
658.68	105.69
658.883	123.69
659.087	126.69
659.291	110.69
659.494	115.69
659.698	101.69
659.901	106.69
660.105	99.69
660.309	85.69
660.512	87.69
660.716	105.69
660.919	105.69
661.123	98.69
661.326	97.69
661.53	94.69
661.733	81.69
661.936	88.69
662.14	83.69
662.343	97.69
662.546	101.69
662.75	89.69
662.953	78.69
663.156	77.69
663.36	99.69
663.563	87.69
663.766	88.69
663.969	78.69
664.173	85.69
664.376	86.69
664.579	83.69
664.782	88.69
664.985	85.69
665.188	80.69
665.391	98.69
665.594	59.69
665.797	82.69
666	86.69
666.203	79.69
666.406	99.69
666.609	83.69
666.812	81.69
667.015	83.69
667.218	83.69
667.421	102.69
667.624	82.69
667.827	73.69
668.03	81.69
668.232	81.69
668.435	78.69
668.638	81.69
668.841	72.69
669.043	87.69
669.246	85.69
669.449	83.69
669.651	77.69
669.854	72.69
670.057	78.69
670.259	83.69
670.462	73.69
670.665	78.69
670.867	83.69
671.07	83.69
671.272	88.69
671.475	76.69
671.677	92.69
671.88	79.69
672.082	78.69
672.284	99.69
672.487	98.69
672.689	77.69
672.892	77.69
