Data from 1974.PennyLincolnUp.Lamp.En5.5.200Scan.071719.P1.Changed Mount._HRD10591_15-52-10-857.txt Node
Date: Thu Jul 18 15:52:10 EDT 2019
User: cochatt
Spectrometer: HR+D1059
Trigger mode: 1
Integration Time (sec): 1.000000E-1
Scans to average: 1
Electric dark correction enabled: true
Nonlinearity correction enabled: false
Boxcar width: 0
XAxis mode: Wavelengths
Number of Pixels in Spectrum: 2048
>>>>>Begin Spectral Data<<<<<
223.165	-14.5
223.4	-14.5
223.635	-14.5
223.869	-10.5
224.104	-16.5
224.338	-13.5
224.573	-17.5
224.808	-13.5
225.042	-12.5
225.277	-8.5
225.511	1.5
225.746	-7.5
225.98	10.5
226.215	10.5
226.449	10.5
226.683	26.5
226.918	24.5
227.152	30.5
227.387	44.5
227.621	52.5
227.856	51.5
228.09	43.5
228.324	47.5
228.559	50.5
228.793	62.5
229.027	100.5
229.262	109.5
229.496	107.5
229.73	118.5
229.964	143.5
230.199	124.5
230.433	117.5
230.667	125.5
230.901	124.5
231.136	122.5
231.37	110.5
231.604	112.5
231.838	119.5
232.072	117.5
232.306	100.5
232.541	126.5
232.775	111.5
233.009	120.5
233.243	126.5
233.477	130.5
233.711	116.5
233.945	111.5
234.179	123.5
234.413	111.5
234.647	114.5
234.881	114.5
235.115	109.5
235.349	126.5
235.583	140.5
235.817	125.5
236.051	146.5
236.285	129.5
236.519	134.5
236.753	139.5
236.987	152.5
237.221	185.5
237.455	209.5
237.689	184.5
237.922	155.5
238.156	139.5
238.39	123.5
238.624	135.5
238.858	129.5
239.091	123.5
239.325	141.5
239.559	126.5
239.793	133.5
240.027	133.5
240.26	128.5
240.494	164.5
240.728	154.5
240.961	162.5
241.195	147.5
241.429	138.5
241.662	142.5
241.896	142.5
242.13	134.5
242.363	138.5
242.597	139.5
242.83	145.5
243.064	143.5
243.298	148.5
243.531	157.5
243.765	140.5
243.998	141.5
244.232	152.5
244.465	143.5
244.699	158.5
244.932	154.5
245.166	157.5
245.399	156.5
245.633	143.5
245.866	159.5
246.099	146.5
246.333	165.5
246.566	177.5
246.8	174.5
247.033	150.5
247.266	166.5
247.5	184.5
247.733	175.5
247.966	160.5
248.2	171.5
248.433	176.5
248.666	184.5
248.899	202.5
249.133	187.5
249.366	215.5
249.599	195.5
249.832	178.5
250.066	176.5
250.299	167.5
250.532	187.5
250.765	186.5
250.998	208.5
251.231	213.5
251.465	214.5
251.698	214.5
251.931	212.5
252.164	197.5
252.397	208.5
252.63	209.5
252.863	203.5
253.096	221.5
253.329	236.5
253.562	225.5
253.795	235.5
254.028	218.5
254.261	211.5
254.494	230.5
254.727	256.5
254.96	279.5
255.193	262.5
255.426	246.5
255.659	238.5
255.892	239.5
256.124	228.5
256.357	248.5
256.59	238.5
256.823	247.5
257.056	226.5
257.289	206.5
257.521	217.5
257.754	227.5
257.987	229.5
258.22	230.5
258.452	206.5
258.685	217.5
258.918	223.5
259.151	207.5
259.383	223.5
259.616	243.5
259.849	232.5
260.081	253.5
260.314	260.5
260.547	273.5
260.779	250.5
261.012	239.5
261.244	246.5
261.477	235.5
261.71	221.5
261.942	237.5
262.175	234.5
262.407	235.5
262.64	218.5
262.872	234.5
263.105	213.5
263.337	223.5
263.57	230.5
263.802	225.5
264.035	224.5
264.267	227.5
264.499	231.5
264.732	237.5
264.964	202.5
265.197	222.5
265.429	226.5
265.661	223.5
265.894	244.5
266.126	226.5
266.358	239.5
266.591	230.5
266.823	250.5
267.055	227.5
267.287	244.5
267.52	254.5
267.752	223.5
267.984	244.5
268.216	231.5
268.448	249.5
268.681	264.5
268.913	246.5
269.145	276.5
269.377	287.5
269.609	268.5
269.841	267.5
270.073	290.5
270.306	288.5
270.538	330.5
270.77	311.5
271.002	301.5
271.234	292.5
271.466	295.5
271.698	291.5
271.93	306.5
272.162	306.5
272.394	315.5
272.626	307.5
272.858	299.5
273.09	274.5
273.322	273.5
273.553	268.5
273.785	259.5
274.017	266.5
274.249	266.5
274.481	288.5
274.713	285.5
274.945	287.5
275.176	259.5
275.408	298.5
275.64	270.5
275.872	279.5
276.104	279.5
276.335	270.5
276.567	276.5
276.799	297.5
277.031	320.5
277.262	313.5
277.494	331.5
277.726	318.5
277.957	310.5
278.189	302.5
278.421	284.5
278.652	276.5
278.884	282.5
279.115	276.5
279.347	296.5
279.579	273.5
279.81	290.5
280.042	296.5
280.273	278.5
280.505	278.5
280.736	287.5
280.968	294.5
281.199	277.5
281.431	266.5
281.662	265.5
281.894	290.5
282.125	283.5
282.356	308.5
282.588	300.5
282.819	330.5
283.051	298.5
283.282	289.5
283.513	311.5
283.745	286.5
283.976	311.5
284.207	309.5
284.439	307.5
284.67	300.5
284.901	296.5
285.132	301.5
285.364	307.5
285.595	302.5
285.826	284.5
286.057	290.5
286.288	311.5
286.52	296.5
286.751	319.5
286.982	303.5
287.213	280.5
287.444	303.5
287.675	306.5
287.906	313.5
288.138	318.5
288.369	335.5
288.6	330.5
288.831	324.5
289.062	319.5
289.293	311.5
289.524	322.5
289.755	325.5
289.986	315.5
290.217	313.5
290.448	309.5
290.679	317.5
290.91	329.5
291.141	312.5
291.371	298.5
291.602	319.5
291.833	307.5
292.064	304.5
292.295	322.5
292.526	322.5
292.757	314.5
292.987	302.5
293.218	316.5
293.449	318.5
293.68	325.5
293.91	309.5
294.141	316.5
294.372	324.5
294.603	318.5
294.833	317.5
295.064	316.5
295.295	298.5
295.525	306.5
295.756	338.5
295.987	310.5
296.217	334.5
296.448	367.5
296.679	328.5
296.909	331.5
297.14	312.5
297.37	343.5
297.601	301.5
297.831	311.5
298.062	323.5
298.292	344.5
298.523	330.5
298.753	322.5
298.984	336.5
299.214	330.5
299.445	328.5
299.675	336.5
299.905	345.5
300.136	321.5
300.366	334.5
300.597	347.5
300.827	336.5
301.057	339.5
301.288	341.5
301.518	349.5
301.748	330.5
301.979	365.5
302.209	368.5
302.439	350.5
302.669	372.5
302.9	353.5
303.13	347.5
303.36	356.5
303.59	348.5
303.82	349.5
304.051	371.5
304.281	358.5
304.511	340.5
304.741	333.5
304.971	339.5
305.201	359.5
305.431	349.5
305.661	349.5
305.891	357.5
306.121	352.5
306.352	350.5
306.582	354.5
306.812	340.5
307.042	372.5
307.272	372.5
307.502	362.5
307.731	370.5
307.961	361.5
308.191	350.5
308.421	371.5
308.651	367.5
308.881	361.5
309.111	338.5
309.341	354.5
309.571	386.5
309.8	361.5
310.03	363.5
310.26	366.5
310.49	352.5
310.72	397.5
310.949	402.5
311.179	404.5
311.409	400.5
311.639	383.5
311.868	400.5
312.098	401.5
312.328	383.5
312.557	404.5
312.787	415.5
313.017	407.5
313.246	390.5
313.476	394.5
313.706	373.5
313.935	387.5
314.165	396.5
314.394	406.5
314.624	407.5
314.853	387.5
315.083	425.5
315.312	388.5
315.542	379.5
315.771	402.5
316.001	396.5
316.23	395.5
316.46	409.5
316.689	385.5
316.919	398.5
317.148	397.5
317.377	422.5
317.607	403.5
317.836	402.5
318.065	396.5
318.295	423.5
318.524	401.5
318.753	386.5
318.983	396.5
319.212	414.5
319.441	401.5
319.67	408.5
319.9	399.5
320.129	388.5
320.358	413.5
320.587	402.5
320.816	408.5
321.046	426.5
321.275	445.5
321.504	412.5
321.733	416.5
321.962	422.5
322.191	437.5
322.42	444.5
322.649	456.5
322.878	453.5
323.108	427.5
323.337	464.5
323.566	477.5
323.795	497.5
324.024	520.5
324.253	590.5
324.482	796.5
324.71	1202.5
324.939	1715.5
325.168	1541.5
325.397	810.5
325.626	582.5
325.855	517.5
326.084	475.5
326.313	490.5
326.542	485.5
326.77	517.5
326.999	610.5
327.228	762.5
327.457	1085.5
327.686	1367.5
327.914	920.5
328.143	623.5
328.372	548.5
328.6	543.5
328.829	509.5
329.058	542.5
329.287	584.5
329.515	541.5
329.744	483.5
329.972	500.5
330.201	510.5
330.43	549.5
330.658	559.5
330.887	567.5
331.115	560.5
331.344	505.5
331.572	482.5
331.801	510.5
332.03	494.5
332.258	494.5
332.486	471.5
332.715	494.5
332.943	479.5
333.172	489.5
333.4	501.5
333.629	505.5
333.857	503.5
334.085	496.5
334.314	521.5
334.542	568.5
334.771	574.5
334.999	540.5
335.227	531.5
335.455	487.5
335.684	487.5
335.912	471.5
336.14	481.5
336.369	485.5
336.597	485.5
336.825	475.5
337.053	490.5
337.281	471.5
337.51	461.5
337.738	474.5
337.966	480.5
338.194	470.5
338.422	484.5
338.65	475.5
338.878	503.5
339.106	460.5
339.334	469.5
339.562	469.5
339.79	458.5
340.018	429.5
340.246	452.5
340.474	463.5
340.702	461.5
340.93	454.5
341.158	452.5
341.386	451.5
341.614	452.5
341.842	463.5
342.07	451.5
342.298	420.5
342.526	449.5
342.754	449.5
342.981	428.5
343.209	450.5
343.437	455.5
343.665	476.5
343.893	495.5
344.12	497.5
344.348	489.5
344.576	502.5
344.804	491.5
345.031	464.5
345.259	455.5
345.487	467.5
345.714	454.5
345.942	462.5
346.17	440.5
346.397	436.5
346.625	423.5
346.853	445.5
347.08	437.5
347.308	431.5
347.535	447.5
347.763	453.5
347.99	462.5
348.218	452.5
348.445	458.5
348.673	453.5
348.9	454.5
349.128	442.5
349.355	421.5
349.583	431.5
349.81	447.5
350.037	431.5
350.265	425.5
350.492	444.5
350.72	415.5
350.947	430.5
351.174	451.5
351.402	457.5
351.629	440.5
351.856	446.5
352.083	439.5
352.311	450.5
352.538	459.5
352.765	438.5
352.992	458.5
353.22	466.5
353.447	454.5
353.674	447.5
353.901	435.5
354.128	423.5
354.355	408.5
354.583	421.5
354.81	431.5
355.037	425.5
355.264	429.5
355.491	431.5
355.718	425.5
355.945	410.5
356.172	414.5
356.399	445.5
356.626	415.5
356.853	413.5
357.08	411.5
357.307	406.5
357.534	413.5
357.761	428.5
357.988	429.5
358.215	427.5
358.441	413.5
358.668	443.5
358.895	422.5
359.122	423.5
359.349	458.5
359.576	449.5
359.802	463.5
360.029	461.5
360.256	476.5
360.483	485.5
360.709	464.5
360.936	459.5
361.163	463.5
361.39	448.5
361.616	429.5
361.843	462.5
362.07	464.5
362.296	451.5
362.523	459.5
362.749	444.5
362.976	434.5
363.203	436.5
363.429	438.5
363.656	430.5
363.882	427.5
364.109	420.5
364.335	448.5
364.562	428.5
364.788	429.5
365.015	430.5
365.241	434.5
365.468	449.5
365.694	467.5
365.92	448.5
366.147	442.5
366.373	415.5
366.599	424.5
366.826	428.5
367.052	446.5
367.278	440.5
367.505	451.5
367.731	446.5
367.957	438.5
368.184	427.5
368.41	436.5
368.636	447.5
368.862	458.5
369.089	445.5
369.315	446.5
369.541	439.5
369.767	426.5
369.993	448.5
370.219	438.5
370.445	454.5
370.672	438.5
370.898	451.5
371.124	450.5
371.35	441.5
371.576	471.5
371.802	446.5
372.028	436.5
372.254	428.5
372.48	451.5
372.706	446.5
372.932	440.5
373.158	450.5
373.384	446.5
373.61	458.5
373.835	446.5
374.061	442.5
374.287	439.5
374.513	454.5
374.739	450.5
374.965	468.5
375.191	458.5
375.416	461.5
375.642	463.5
375.868	444.5
376.094	447.5
376.319	432.5
376.545	452.5
376.771	455.5
376.997	449.5
377.222	439.5
377.448	444.5
377.674	446.5
377.899	440.5
378.125	452.5
378.35	419.5
378.576	447.5
378.802	450.5
379.027	438.5
379.253	453.5
379.478	466.5
379.704	444.5
379.929	452.5
380.155	439.5
380.38	447.5
380.606	454.5
380.831	463.5
381.057	464.5
381.282	435.5
381.507	471.5
381.733	455.5
381.958	461.5
382.184	456.5
382.409	460.5
382.634	469.5
382.86	456.5
383.085	440.5
383.31	466.5
383.535	475.5
383.761	470.5
383.986	502.5
384.211	472.5
384.436	487.5
384.662	480.5
384.887	501.5
385.112	490.5
385.337	472.5
385.562	499.5
385.787	493.5
386.013	499.5
386.238	490.5
386.463	512.5
386.688	515.5
386.913	499.5
387.138	494.5
387.363	508.5
387.588	494.5
387.813	504.5
388.038	482.5
388.263	496.5
388.488	509.5
388.713	507.5
388.938	509.5
389.163	506.5
389.387	515.5
389.612	493.5
389.837	510.5
390.062	497.5
390.287	506.5
390.512	494.5
390.736	486.5
390.961	515.5
391.186	487.5
391.411	499.5
391.636	531.5
391.86	518.5
392.085	539.5
392.31	510.5
392.534	525.5
392.759	521.5
392.984	504.5
393.208	512.5
393.433	504.5
393.658	510.5
393.882	527.5
394.107	517.5
394.331	519.5
394.556	525.5
394.78	522.5
395.005	535.5
395.229	495.5
395.454	538.5
395.678	537.5
395.903	544.5
396.127	570.5
396.352	560.5
396.576	538.5
396.801	495.5
397.025	541.5
397.249	521.5
397.474	564.5
397.698	543.5
397.922	559.5
398.147	567.5
398.371	578.5
398.595	564.5
398.82	573.5
399.044	607.5
399.268	635.5
399.492	678.5
399.717	721.5
399.941	734.5
400.165	725.5
400.389	721.5
400.613	683.5
400.837	618.5
401.062	637.5
401.286	580.5
401.51	572.5
401.734	598.5
401.958	582.5
402.182	608.5
402.406	606.5
402.63	612.5
402.854	610.5
403.078	584.5
403.302	615.5
403.526	591.5
403.75	618.5
403.974	617.5
404.198	607.5
404.422	633.5
404.645	636.5
404.869	625.5
405.093	637.5
405.317	687.5
405.541	733.5
405.765	671.5
405.988	644.5
406.212	652.5
406.436	667.5
406.66	660.5
406.883	649.5
407.107	683.5
407.331	731.5
407.555	800.5
407.778	775.5
408.002	752.5
408.226	696.5
408.449	698.5
408.673	640.5
408.896	692.5
409.12	719.5
409.344	716.5
409.567	615.5
409.791	634.5
410.014	610.5
410.238	615.5
410.461	618.5
410.685	626.5
410.908	637.5
411.132	668.5
411.355	699.5
411.578	657.5
411.802	607.5
412.025	604.5
412.249	605.5
412.472	630.5
412.695	685.5
412.919	680.5
413.142	640.5
413.365	600.5
413.589	593.5
413.812	598.5
414.035	603.5
414.258	562.5
414.482	574.5
414.705	602.5
414.928	583.5
415.151	604.5
415.374	580.5
415.597	587.5
415.821	578.5
416.044	567.5
416.267	585.5
416.49	580.5
416.713	580.5
416.936	603.5
417.159	562.5
417.382	577.5
417.605	597.5
417.828	577.5
418.051	607.5
418.274	584.5
418.497	576.5
418.72	586.5
418.943	607.5
419.166	636.5
419.389	619.5
419.611	638.5
419.834	619.5
420.057	603.5
420.28	596.5
420.503	596.5
420.726	601.5
420.948	627.5
421.171	650.5
421.394	687.5
421.617	620.5
421.839	594.5
422.062	599.5
422.285	638.5
422.507	656.5
422.73	746.5
422.953	727.5
423.175	630.5
423.398	635.5
423.621	638.5
423.843	646.5
424.066	668.5
424.288	666.5
424.511	678.5
424.733	714.5
424.956	783.5
425.178	749.5
425.401	760.5
425.623	784.5
425.846	688.5
426.068	642.5
426.291	631.5
426.513	605.5
426.735	626.5
426.958	672.5
427.18	753.5
427.402	876.5
427.625	957.5
427.847	812.5
428.069	741.5
428.292	660.5
428.514	614.5
428.736	585.5
428.958	597.5
429.181	571.5
429.403	581.5
429.625	605.5
429.847	602.5
430.069	683.5
430.292	673.5
430.514	603.5
430.736	566.5
430.958	588.5
431.18	566.5
431.402	558.5
431.624	542.5
431.846	543.5
432.068	557.5
432.29	557.5
432.512	565.5
432.734	587.5
432.956	566.5
433.178	570.5
433.4	579.5
433.622	559.5
433.844	566.5
434.066	568.5
434.287	570.5
434.509	572.5
434.731	579.5
434.953	602.5
435.175	618.5
435.397	657.5
435.618	620.5
435.84	652.5
436.062	746.5
436.284	810.5
436.505	680.5
436.727	639.5
436.949	596.5
437.17	586.5
437.392	578.5
437.614	591.5
437.835	622.5
438.057	694.5
438.278	824.5
438.5	811.5
438.721	844.5
438.943	839.5
439.165	686.5
439.386	651.5
439.608	634.5
439.829	617.5
440.05	630.5
440.272	683.5
440.493	656.5
440.715	619.5
440.936	575.5
441.158	607.5
441.379	603.5
441.6	612.5
441.822	642.5
442.043	656.5
442.264	756.5
442.486	776.5
442.707	663.5
442.928	648.5
443.149	651.5
443.371	696.5
443.592	702.5
443.813	813.5
444.034	891.5
444.255	732.5
444.476	684.5
444.698	643.5
444.919	671.5
445.14	740.5
445.361	711.5
445.582	679.5
445.803	727.5
446.024	823.5
446.245	816.5
446.466	774.5
446.687	646.5
446.908	622.5
447.129	589.5
447.35	589.5
447.571	586.5
447.792	552.5
448.013	567.5
448.234	572.5
448.455	642.5
448.675	755.5
448.896	865.5
449.117	741.5
449.338	703.5
449.559	798.5
449.779	903.5
450	736.5
450.221	626.5
450.442	585.5
450.662	565.5
450.883	574.5
451.104	574.5
451.324	565.5
451.545	544.5
451.766	519.5
451.986	532.5
452.207	512.5
452.428	523.5
452.648	512.5
452.869	543.5
453.089	555.5
453.31	549.5
453.53	541.5
453.751	493.5
453.971	518.5
454.192	522.5
454.412	532.5
454.633	537.5
454.853	524.5
455.073	518.5
455.294	548.5
455.514	604.5
455.734	607.5
455.955	514.5
456.175	487.5
456.395	490.5
456.616	495.5
456.836	501.5
457.056	474.5
457.276	475.5
457.497	493.5
457.717	504.5
457.937	522.5
458.157	516.5
458.377	515.5
458.598	531.5
458.818	555.5
459.038	629.5
459.258	674.5
459.478	627.5
459.698	566.5
459.918	566.5
460.138	567.5
460.358	592.5
460.578	566.5
460.798	603.5
461.018	590.5
461.238	603.5
461.458	596.5
461.678	596.5
461.898	605.5
462.118	599.5
462.338	607.5
462.558	626.5
462.777	627.5
462.997	635.5
463.217	662.5
463.437	664.5
463.657	639.5
463.876	627.5
464.096	652.5
464.316	633.5
464.536	660.5
464.755	622.5
464.975	630.5
465.195	646.5
465.414	676.5
465.634	645.5
465.854	579.5
466.073	568.5
466.293	574.5
466.512	535.5
466.732	543.5
466.951	540.5
467.171	531.5
467.391	538.5
467.61	530.5
467.829	551.5
468.049	545.5
468.268	579.5
468.488	536.5
468.707	514.5
468.927	534.5
469.146	528.5
469.365	535.5
469.585	537.5
469.804	543.5
470.023	556.5
470.243	538.5
470.462	546.5
470.681	569.5
470.901	568.5
471.12	539.5
471.339	539.5
471.558	531.5
471.777	541.5
471.997	542.5
472.216	556.5
472.435	560.5
472.654	572.5
472.873	535.5
473.092	524.5
473.311	535.5
473.53	544.5
473.749	554.5
473.968	574.5
474.187	696.5
474.406	719.5
474.625	590.5
474.844	548.5
475.063	547.5
475.282	563.5
475.501	543.5
475.72	543.5
475.939	553.5
476.158	543.5
476.377	552.5
476.596	568.5
476.814	545.5
477.033	552.5
477.252	590.5
477.471	579.5
477.69	571.5
477.908	598.5
478.127	621.5
478.346	629.5
478.564	604.5
478.783	627.5
479.002	620.5
479.22	630.5
479.439	644.5
479.658	639.5
479.876	636.5
480.095	652.5
480.313	660.5
480.532	683.5
480.751	681.5
480.969	679.5
481.188	703.5
481.406	755.5
481.624	664.5
481.843	660.5
482.061	644.5
482.28	645.5
482.498	643.5
482.717	638.5
482.935	642.5
483.153	636.5
483.372	646.5
483.59	631.5
483.808	637.5
484.027	642.5
484.245	647.5
484.463	655.5
484.681	657.5
484.9	670.5
485.118	660.5
485.336	656.5
485.554	644.5
485.772	659.5
485.99	680.5
486.209	668.5
486.427	680.5
486.645	669.5
486.863	680.5
487.081	681.5
487.299	674.5
487.517	683.5
487.735	675.5
487.953	654.5
488.171	696.5
488.389	696.5
488.607	699.5
488.825	686.5
489.043	694.5
489.261	681.5
489.479	684.5
489.696	684.5
489.914	716.5
490.132	720.5
490.35	739.5
490.568	743.5
490.786	712.5
491.003	746.5
491.221	758.5
491.439	763.5
491.657	791.5
491.874	785.5
492.092	811.5
492.31	767.5
492.527	789.5
492.745	798.5
492.963	830.5
493.18	803.5
493.398	799.5
493.615	807.5
493.833	795.5
494.05	799.5
494.268	814.5
494.485	788.5
494.703	787.5
494.92	795.5
495.138	778.5
495.355	790.5
495.573	820.5
495.79	826.5
496.008	798.5
496.225	824.5
496.442	808.5
496.66	810.5
496.877	800.5
497.094	811.5
497.312	839.5
497.529	830.5
497.746	846.5
497.963	868.5
498.181	884.5
498.398	888.5
498.615	920.5
498.832	946.5
499.049	958.5
499.267	982.5
499.484	1040.5
499.701	1110.5
499.918	1125.5
500.135	1196.5
500.352	1285.5
500.569	1327.5
500.786	1308.5
501.003	1283.5
501.22	1209.5
501.437	1166.5
501.654	1154.5
501.871	1078.5
502.088	1008.5
502.305	972.5
502.522	947.5
502.739	946.5
502.956	901.5
503.172	886.5
503.389	868.5
503.606	859.5
503.823	858.5
504.04	842.5
504.256	847.5
504.473	823.5
504.69	819.5
504.907	848.5
505.123	813.5
505.34	774.5
505.557	803.5
505.773	782.5
505.99	768.5
506.207	763.5
506.423	784.5
506.64	749.5
506.856	753.5
507.073	738.5
507.289	743.5
507.506	731.5
507.722	738.5
507.939	751.5
508.155	723.5
508.372	688.5
508.588	708.5
508.805	715.5
509.021	694.5
509.238	738.5
509.454	731.5
509.67	718.5
509.887	700.5
510.103	699.5
510.319	710.5
510.536	773.5
510.752	1114.5
510.968	913.5
511.184	709.5
511.401	680.5
511.617	674.5
511.833	702.5
512.049	676.5
512.265	644.5
512.481	656.5
512.698	658.5
512.914	653.5
513.13	674.5
513.346	675.5
513.562	666.5
513.778	680.5
513.994	697.5
514.21	686.5
514.426	679.5
514.642	713.5
514.858	714.5
515.074	780.5
515.29	863.5
515.506	1105.5
515.721	973.5
515.937	743.5
516.153	711.5
516.369	709.5
516.585	684.5
516.801	710.5
517.016	694.5
517.232	705.5
517.448	708.5
517.664	725.5
517.879	734.5
518.095	749.5
518.311	734.5
518.527	732.5
518.742	707.5
518.958	683.5
519.173	697.5
519.389	694.5
519.605	679.5
519.82	654.5
520.036	681.5
520.251	664.5
520.467	706.5
520.682	704.5
520.898	730.5
521.113	713.5
521.329	734.5
521.544	826.5
521.76	898.5
521.975	1355.5
522.19	1350.5
522.406	872.5
522.621	676.5
522.836	666.5
523.052	636.5
523.267	632.5
523.482	642.5
523.698	602.5
523.913	592.5
524.128	619.5
524.343	597.5
524.559	606.5
524.774	578.5
524.989	573.5
525.204	572.5
525.419	582.5
525.634	604.5
525.849	584.5
526.064	589.5
526.28	558.5
526.495	552.5
526.71	552.5
526.925	534.5
527.14	551.5
527.355	534.5
527.57	548.5
527.785	571.5
527.999	562.5
528.214	558.5
528.429	578.5
528.644	569.5
528.859	534.5
529.074	557.5
529.289	576.5
529.503	637.5
529.718	611.5
529.933	600.5
530.148	570.5
530.363	547.5
530.577	559.5
530.792	549.5
531.007	521.5
531.221	568.5
531.436	559.5
531.651	541.5
531.865	540.5
532.08	547.5
532.295	552.5
532.509	540.5
532.724	549.5
532.938	550.5
533.153	558.5
533.367	531.5
533.582	524.5
533.796	552.5
534.011	552.5
534.225	543.5
534.44	538.5
534.654	536.5
534.868	505.5
535.083	546.5
535.297	525.5
535.511	537.5
535.726	543.5
535.94	544.5
536.154	529.5
536.369	530.5
536.583	517.5
536.797	502.5
537.011	531.5
537.225	519.5
537.44	500.5
537.654	512.5
537.868	495.5
538.082	529.5
538.296	514.5
538.51	522.5
538.724	521.5
538.938	516.5
539.153	494.5
539.367	526.5
539.581	525.5
539.795	525.5
540.009	504.5
540.222	519.5
540.436	491.5
540.65	520.5
540.864	512.5
541.078	515.5
541.292	544.5
541.506	522.5
541.72	533.5
541.934	532.5
542.147	515.5
542.361	550.5
542.575	531.5
542.789	500.5
543.002	520.5
543.216	521.5
543.43	494.5
543.644	499.5
543.857	508.5
544.071	503.5
544.285	535.5
544.498	500.5
544.712	503.5
544.925	518.5
545.139	524.5
545.352	497.5
545.566	511.5
545.779	517.5
545.993	499.5
546.206	533.5
546.42	538.5
546.633	524.5
546.847	532.5
547.06	503.5
547.274	499.5
547.487	515.5
547.7	504.5
547.914	519.5
548.127	493.5
548.34	516.5
548.554	529.5
548.767	518.5
548.98	514.5
549.193	505.5
549.407	503.5
549.62	512.5
549.833	522.5
550.046	515.5
550.259	508.5
550.473	511.5
550.686	507.5
550.899	502.5
551.112	511.5
551.325	503.5
551.538	499.5
551.751	484.5
551.964	506.5
552.177	485.5
552.39	490.5
552.603	500.5
552.816	517.5
553.029	498.5
553.242	524.5
553.455	506.5
553.667	532.5
553.88	528.5
554.093	526.5
554.306	506.5
554.519	491.5
554.732	493.5
554.944	480.5
555.157	485.5
555.37	486.5
555.583	487.5
555.795	495.5
556.008	467.5
556.221	458.5
556.433	474.5
556.646	472.5
556.859	470.5
557.071	456.5
557.284	456.5
557.496	483.5
557.709	441.5
557.921	474.5
558.134	464.5
558.346	466.5
558.559	460.5
558.771	454.5
558.984	446.5
559.196	450.5
559.409	453.5
559.621	454.5
559.833	454.5
560.046	452.5
560.258	458.5
560.47	450.5
560.683	426.5
560.895	445.5
561.107	439.5
561.32	431.5
561.532	453.5
561.744	441.5
561.956	446.5
562.168	452.5
562.381	427.5
562.593	427.5
562.805	444.5
563.017	442.5
563.229	456.5
563.441	445.5
563.653	453.5
563.865	466.5
564.077	467.5
564.289	466.5
564.501	462.5
564.713	463.5
564.925	464.5
565.137	477.5
565.349	468.5
565.561	516.5
565.773	477.5
565.985	528.5
566.197	540.5
566.408	540.5
566.62	567.5
566.832	578.5
567.044	582.5
567.255	578.5
567.467	598.5
567.679	618.5
567.891	623.5
568.102	633.5
568.314	620.5
568.526	584.5
568.737	544.5
568.949	536.5
569.161	517.5
569.372	470.5
569.584	469.5
569.795	472.5
570.007	455.5
570.218	492.5
570.43	475.5
570.641	443.5
570.853	446.5
571.064	455.5
571.276	437.5
571.487	439.5
571.698	431.5
571.91	434.5
572.121	430.5
572.333	410.5
572.544	396.5
572.755	408.5
572.966	400.5
573.178	382.5
573.389	391.5
573.6	393.5
573.811	388.5
574.023	397.5
574.234	383.5
574.445	388.5
574.656	383.5
574.867	385.5
575.078	380.5
575.289	401.5
575.501	387.5
575.712	370.5
575.923	352.5
576.134	375.5
576.345	376.5
576.556	370.5
576.767	362.5
576.978	378.5
577.188	386.5
577.399	366.5
577.61	348.5
577.821	367.5
578.032	345.5
578.243	376.5
578.454	534.5
578.665	431.5
578.875	390.5
579.086	350.5
579.297	368.5
579.508	351.5
579.718	346.5
579.929	359.5
580.14	336.5
580.35	357.5
580.561	359.5
580.772	361.5
580.982	356.5
581.193	354.5
581.403	351.5
581.614	351.5
581.825	336.5
582.035	348.5
582.246	343.5
582.456	348.5
582.667	357.5
582.877	357.5
583.087	323.5
583.298	362.5
583.508	355.5
583.719	349.5
583.929	346.5
584.139	337.5
584.35	333.5
584.56	341.5
584.77	340.5
584.981	346.5
585.191	327.5
585.401	335.5
585.611	356.5
585.821	342.5
586.032	334.5
586.242	329.5
586.452	334.5
586.662	348.5
586.872	335.5
587.082	335.5
587.292	340.5
587.502	334.5
587.713	341.5
587.923	329.5
588.133	350.5
588.343	346.5
588.553	321.5
588.762	320.5
588.972	332.5
589.182	341.5
589.392	342.5
589.602	339.5
589.812	327.5
590.022	349.5
590.232	339.5
590.441	331.5
590.651	335.5
590.861	331.5
591.071	337.5
591.281	349.5
591.49	340.5
591.7	352.5
591.91	356.5
592.119	372.5
592.329	346.5
592.539	338.5
592.748	351.5
592.958	359.5
593.167	378.5
593.377	361.5
593.587	388.5
593.796	384.5
594.006	374.5
594.215	365.5
594.424	352.5
594.634	367.5
594.843	363.5
595.053	351.5
595.262	334.5
595.472	360.5
595.681	339.5
595.89	341.5
596.1	318.5
596.309	343.5
596.518	320.5
596.727	308.5
596.937	324.5
597.146	323.5
597.355	308.5
597.564	302.5
597.774	315.5
597.983	287.5
598.192	318.5
598.401	294.5
598.61	295.5
598.819	303.5
599.028	302.5
599.237	300.5
599.446	306.5
599.655	309.5
599.864	299.5
600.073	291.5
600.282	309.5
600.491	286.5
600.7	301.5
600.909	299.5
601.118	289.5
601.327	294.5
601.536	287.5
601.745	297.5
601.953	287.5
602.162	311.5
602.371	285.5
602.58	286.5
602.789	278.5
602.997	282.5
603.206	303.5
603.415	291.5
603.623	291.5
603.832	299.5
604.041	265.5
604.249	287.5
604.458	260.5
604.666	270.5
604.875	300.5
605.084	283.5
605.292	284.5
605.501	266.5
605.709	283.5
605.918	274.5
606.126	289.5
606.334	286.5
606.543	293.5
606.751	283.5
606.96	296.5
607.168	276.5
607.376	278.5
607.585	265.5
607.793	303.5
608.001	275.5
608.21	288.5
608.418	280.5
608.626	266.5
608.834	276.5
609.043	281.5
609.251	275.5
609.459	281.5
609.667	276.5
609.875	276.5
610.083	256.5
610.291	273.5
610.499	279.5
610.707	295.5
610.916	283.5
611.124	302.5
611.332	293.5
611.54	291.5
611.748	288.5
611.955	278.5
612.163	285.5
612.371	301.5
612.579	267.5
612.787	280.5
612.995	260.5
613.203	282.5
613.411	263.5
613.618	285.5
613.826	260.5
614.034	278.5
614.242	276.5
614.449	262.5
614.657	263.5
614.865	267.5
615.072	254.5
615.28	260.5
615.488	252.5
615.695	261.5
615.903	258.5
616.111	264.5
616.318	274.5
616.526	258.5
616.733	252.5
616.941	279.5
617.148	257.5
617.356	264.5
617.563	258.5
617.771	271.5
617.978	267.5
618.185	251.5
618.393	259.5
618.6	272.5
618.807	267.5
619.015	242.5
619.222	264.5
619.429	265.5
619.637	244.5
619.844	240.5
620.051	253.5
620.258	258.5
620.466	253.5
620.673	258.5
620.88	232.5
621.087	258.5
621.294	246.5
621.501	251.5
621.708	263.5
621.915	251.5
622.122	258.5
622.329	259.5
622.536	257.5
622.743	264.5
622.95	243.5
623.157	253.5
623.364	229.5
623.571	263.5
623.778	258.5
623.985	256.5
624.192	239.5
624.399	237.5
624.606	237.5
624.812	244.5
625.019	244.5
625.226	246.5
625.433	237.5
625.639	230.5
625.846	217.5
626.053	229.5
626.259	225.5
626.466	244.5
626.673	245.5
626.879	236.5
627.086	219.5
627.293	218.5
627.499	236.5
627.706	236.5
627.912	225.5
628.119	247.5
628.325	214.5
628.532	220.5
628.738	226.5
628.945	239.5
629.151	218.5
629.357	235.5
629.564	222.5
629.77	233.5
629.976	210.5
630.183	219.5
630.389	215.5
630.595	217.5
630.802	207.5
631.008	222.5
631.214	214.5
631.42	199.5
631.627	225.5
631.833	207.5
632.039	225.5
632.245	208.5
632.451	216.5
632.657	203.5
632.863	203.5
633.069	208.5
633.275	200.5
633.481	207.5
633.688	206.5
633.893	210.5
634.099	207.5
634.305	219.5
634.511	220.5
634.717	206.5
634.923	200.5
635.129	202.5
635.335	208.5
635.541	201.5
635.747	184.5
635.952	207.5
636.158	211.5
636.364	226.5
636.57	214.5
636.775	209.5
636.981	198.5
637.187	191.5
637.392	204.5
637.598	208.5
637.804	203.5
638.009	215.5
638.215	219.5
638.421	191.5
638.626	192.5
638.832	192.5
639.037	200.5
639.243	197.5
639.448	192.5
639.654	201.5
639.859	183.5
640.065	180.5
640.27	211.5
640.475	193.5
640.681	212.5
640.886	174.5
641.091	198.5
641.297	193.5
641.502	173.5
641.707	191.5
641.913	178.5
642.118	180.5
642.323	183.5
642.528	200.5
642.733	176.5
642.939	191.5
643.144	175.5
643.349	189.5
643.554	183.5
643.759	184.5
643.964	197.5
644.169	184.5
644.374	179.5
644.579	203.5
644.784	184.5
644.989	185.5
645.194	175.5
645.399	193.5
645.604	191.5
645.809	173.5
646.014	181.5
646.219	169.5
646.423	188.5
646.628	192.5
646.833	193.5
647.038	174.5
647.243	172.5
647.447	172.5
647.652	183.5
647.857	196.5
648.062	175.5
648.266	190.5
648.471	200.5
648.676	198.5
648.88	200.5
649.085	198.5
649.289	194.5
649.494	191.5
649.698	215.5
649.903	184.5
650.107	192.5
650.312	187.5
650.516	190.5
650.721	178.5
650.925	168.5
651.13	183.5
651.334	168.5
651.539	164.5
651.743	166.5
651.947	162.5
652.152	155.5
652.356	168.5
652.56	164.5
652.764	159.5
652.969	170.5
653.173	180.5
653.377	144.5
653.581	144.5
653.785	148.5
653.99	151.5
654.194	164.5
654.398	143.5
654.602	152.5
654.806	143.5
655.01	144.5
655.214	158.5
655.418	151.5
655.622	138.5
655.826	141.5
656.03	140.5
656.234	159.5
656.438	154.5
656.642	156.5
656.846	156.5
657.049	139.5
657.253	134.5
657.457	127.5
657.661	129.5
657.865	118.5
658.068	121.5
658.272	109.5
658.476	116.5
658.68	124.5
658.883	105.5
659.087	97.5
659.291	123.5
659.494	101.5
659.698	108.5
659.901	114.5
660.105	103.5
660.309	110.5
660.512	99.5
660.716	117.5
660.919	99.5
661.123	104.5
661.326	82.5
661.53	100.5
661.733	97.5
661.936	109.5
662.14	98.5
662.343	83.5
662.546	84.5
662.75	88.5
662.953	86.5
663.156	74.5
663.36	82.5
663.563	87.5
663.766	95.5
663.969	81.5
664.173	73.5
664.376	81.5
664.579	97.5
664.782	80.5
664.985	97.5
665.188	88.5
665.391	91.5
665.594	85.5
665.797	73.5
666	95.5
666.203	79.5
666.406	74.5
666.609	83.5
666.812	93.5
667.015	91.5
667.218	88.5
667.421	87.5
667.624	80.5
667.827	70.5
668.03	78.5
668.232	79.5
668.435	78.5
668.638	88.5
668.841	91.5
669.043	78.5
669.246	85.5
669.449	88.5
669.651	96.5
669.854	79.5
670.057	78.5
670.259	82.5
670.462	93.5
670.665	85.5
670.867	91.5
671.07	90.5
671.272	94.5
671.475	91.5
671.677	89.5
671.88	76.5
672.082	83.5
672.284	85.5
672.487	96.5
672.689	81.5
672.892	79.5
