Data from 1974.PennyLincolnUp.Lamp.En5.5.200Scan.071719.P1.Changed Mount._HRD10591_15-51-09-856.txt Node
Date: Thu Jul 18 15:51:09 EDT 2019
User: cochatt
Spectrometer: HR+D1059
Trigger mode: 1
Integration Time (sec): 1.000000E-1
Scans to average: 1
Electric dark correction enabled: true
Nonlinearity correction enabled: false
Boxcar width: 0
XAxis mode: Wavelengths
Number of Pixels in Spectrum: 2048
>>>>>Begin Spectral Data<<<<<
223.165	-14.06
223.4	-14.06
223.635	-14.06
223.869	-39.06
224.104	-19.06
224.338	-14.06
224.573	-20.06
224.808	-19.06
225.042	-5.06
225.277	-6.06
225.511	1.94
225.746	21.94
225.98	0.94
226.215	9.94
226.449	17.94
226.683	32.94
226.918	12.94
227.152	37.94
227.387	27.94
227.621	35.94
227.856	37.94
228.09	36.94
228.324	45.94
228.559	57.94
228.793	74.94
229.027	86.94
229.262	105.94
229.496	112.94
229.73	117.94
229.964	133.94
230.199	130.94
230.433	100.94
230.667	102.94
230.901	113.94
231.136	105.94
231.37	107.94
231.604	102.94
231.838	108.94
232.072	113.94
232.306	117.94
232.541	109.94
232.775	96.94
233.009	131.94
233.243	112.94
233.477	104.94
233.711	114.94
233.945	122.94
234.179	112.94
234.413	126.94
234.647	114.94
234.881	115.94
235.115	114.94
235.349	105.94
235.583	125.94
235.817	134.94
236.051	117.94
236.285	107.94
236.519	114.94
236.753	130.94
236.987	125.94
237.221	149.94
237.455	200.94
237.689	169.94
237.922	122.94
238.156	125.94
238.39	124.94
238.624	115.94
238.858	108.94
239.091	118.94
239.325	117.94
239.559	116.94
239.793	121.94
240.027	114.94
240.26	149.94
240.494	145.94
240.728	140.94
240.961	138.94
241.195	124.94
241.429	124.94
241.662	143.94
241.896	146.94
242.13	117.94
242.363	130.94
242.597	123.94
242.83	122.94
243.064	117.94
243.298	130.94
243.531	140.94
243.765	151.94
243.998	140.94
244.232	140.94
244.465	136.94
244.699	142.94
244.932	146.94
245.166	142.94
245.399	142.94
245.633	142.94
245.866	142.94
246.099	147.94
246.333	161.94
246.566	152.94
246.8	132.94
247.033	150.94
247.266	155.94
247.5	164.94
247.733	163.94
247.966	158.94
248.2	167.94
248.433	188.94
248.666	167.94
248.899	156.94
249.133	169.94
249.366	159.94
249.599	175.94
249.832	164.94
250.066	161.94
250.299	181.94
250.532	177.94
250.765	176.94
250.998	189.94
251.231	193.94
251.465	196.94
251.698	192.94
251.931	166.94
252.164	181.94
252.397	182.94
252.63	185.94
252.863	214.94
253.096	194.94
253.329	195.94
253.562	210.94
253.795	201.94
254.028	184.94
254.261	192.94
254.494	216.94
254.727	214.94
254.96	217.94
255.193	219.94
255.426	214.94
255.659	206.94
255.892	199.94
256.124	197.94
256.357	217.94
256.59	178.94
256.823	192.94
257.056	205.94
257.289	187.94
257.521	188.94
257.754	201.94
257.987	194.94
258.22	195.94
258.452	194.94
258.685	180.94
258.918	198.94
259.151	199.94
259.383	211.94
259.616	218.94
259.849	205.94
260.081	210.94
260.314	221.94
260.547	226.94
260.779	229.94
261.012	215.94
261.244	203.94
261.477	207.94
261.71	205.94
261.942	203.94
262.175	211.94
262.407	206.94
262.64	190.94
262.872	191.94
263.105	211.94
263.337	213.94
263.57	205.94
263.802	211.94
264.035	192.94
264.267	188.94
264.499	197.94
264.732	203.94
264.964	214.94
265.197	210.94
265.429	208.94
265.661	194.94
265.894	194.94
266.126	204.94
266.358	205.94
266.591	200.94
266.823	192.94
267.055	213.94
267.287	219.94
267.52	208.94
267.752	216.94
267.984	224.94
268.216	222.94
268.448	215.94
268.681	205.94
268.913	208.94
269.145	242.94
269.377	252.94
269.609	243.94
269.841	239.94
270.073	248.94
270.306	247.94
270.538	271.94
270.77	274.94
271.002	262.94
271.234	252.94
271.466	249.94
271.698	278.94
271.93	274.94
272.162	282.94
272.394	279.94
272.626	266.94
272.858	249.94
273.09	252.94
273.322	235.94
273.553	221.94
273.785	239.94
274.017	230.94
274.249	229.94
274.481	247.94
274.713	235.94
274.945	246.94
275.176	240.94
275.408	235.94
275.64	270.94
275.872	233.94
276.104	225.94
276.335	253.94
276.567	240.94
276.799	244.94
277.031	264.94
277.262	281.94
277.494	252.94
277.726	261.94
277.957	245.94
278.189	279.94
278.421	247.94
278.652	238.94
278.884	256.94
279.115	261.94
279.347	236.94
279.579	261.94
279.81	288.94
280.042	269.94
280.273	271.94
280.505	262.94
280.736	252.94
280.968	265.94
281.199	259.94
281.431	260.94
281.662	288.94
281.894	271.94
282.125	269.94
282.356	265.94
282.588	271.94
282.819	267.94
283.051	258.94
283.282	254.94
283.513	268.94
283.745	275.94
283.976	262.94
284.207	284.94
284.439	274.94
284.67	276.94
284.901	275.94
285.132	273.94
285.364	270.94
285.595	292.94
285.826	278.94
286.057	256.94
286.288	250.94
286.52	284.94
286.751	250.94
286.982	285.94
287.213	275.94
287.444	290.94
287.675	284.94
287.906	280.94
288.138	297.94
288.369	277.94
288.6	302.94
288.831	294.94
289.062	289.94
289.293	285.94
289.524	300.94
289.755	286.94
289.986	280.94
290.217	286.94
290.448	285.94
290.679	278.94
290.91	286.94
291.141	283.94
291.371	270.94
291.602	278.94
291.833	297.94
292.064	275.94
292.295	284.94
292.526	287.94
292.757	272.94
292.987	288.94
293.218	282.94
293.449	284.94
293.68	290.94
293.91	277.94
294.141	297.94
294.372	280.94
294.603	290.94
294.833	286.94
295.064	297.94
295.295	277.94
295.525	298.94
295.756	298.94
295.987	303.94
296.217	290.94
296.448	296.94
296.679	283.94
296.909	298.94
297.14	293.94
297.37	297.94
297.601	265.94
297.831	294.94
298.062	304.94
298.292	297.94
298.523	312.94
298.753	279.94
298.984	306.94
299.214	296.94
299.445	304.94
299.675	305.94
299.905	294.94
300.136	299.94
300.366	293.94
300.597	313.94
300.827	304.94
301.057	313.94
301.288	318.94
301.518	327.94
301.748	302.94
301.979	307.94
302.209	314.94
302.439	298.94
302.669	318.94
302.9	313.94
303.13	300.94
303.36	307.94
303.59	324.94
303.82	300.94
304.051	344.94
304.281	325.94
304.511	331.94
304.741	320.94
304.971	331.94
305.201	307.94
305.431	299.94
305.661	317.94
305.891	302.94
306.121	308.94
306.352	337.94
306.582	304.94
306.812	305.94
307.042	309.94
307.272	308.94
307.502	327.94
307.731	307.94
307.961	334.94
308.191	320.94
308.421	317.94
308.651	333.94
308.881	330.94
309.111	308.94
309.341	318.94
309.571	332.94
309.8	342.94
310.03	338.94
310.26	351.94
310.49	334.94
310.72	335.94
310.949	358.94
311.179	358.94
311.409	338.94
311.639	338.94
311.868	342.94
312.098	344.94
312.328	323.94
312.557	360.94
312.787	354.94
313.017	352.94
313.246	351.94
313.476	369.94
313.706	350.94
313.935	351.94
314.165	359.94
314.394	366.94
314.624	345.94
314.853	368.94
315.083	364.94
315.312	348.94
315.542	344.94
315.771	356.94
316.001	354.94
316.23	344.94
316.46	358.94
316.689	342.94
316.919	362.94
317.148	354.94
317.377	342.94
317.607	356.94
317.836	360.94
318.065	371.94
318.295	368.94
318.524	342.94
318.753	382.94
318.983	368.94
319.212	352.94
319.441	357.94
319.67	353.94
319.9	356.94
320.129	353.94
320.358	360.94
320.587	346.94
320.816	370.94
321.046	357.94
321.275	354.94
321.504	376.94
321.733	341.94
321.962	386.94
322.191	377.94
322.42	379.94
322.649	407.94
322.878	388.94
323.108	380.94
323.337	398.94
323.566	404.94
323.795	427.94
324.024	454.94
324.253	525.94
324.482	656.94
324.71	993.94
324.939	1490.94
325.168	1335.94
325.397	664.94
325.626	499.94
325.855	441.94
326.084	428.94
326.313	408.94
326.542	402.94
326.77	440.94
326.999	484.94
327.228	631.94
327.457	951.94
327.686	1163.94
327.914	781.94
328.143	530.94
328.372	464.94
328.6	465.94
328.829	456.94
329.058	440.94
329.287	472.94
329.515	426.94
329.744	402.94
329.972	444.94
330.201	419.94
330.43	442.94
330.658	452.94
330.887	480.94
331.115	490.94
331.344	446.94
331.572	402.94
331.801	421.94
332.03	420.94
332.258	416.94
332.486	421.94
332.715	406.94
332.943	385.94
333.172	428.94
333.4	443.94
333.629	428.94
333.857	467.94
334.085	450.94
334.314	438.94
334.542	467.94
334.771	462.94
334.999	468.94
335.227	432.94
335.455	456.94
335.684	424.94
335.912	420.94
336.14	428.94
336.369	429.94
336.597	431.94
336.825	456.94
337.053	429.94
337.281	418.94
337.51	405.94
337.738	413.94
337.966	423.94
338.194	420.94
338.422	424.94
338.65	426.94
338.878	436.94
339.106	436.94
339.334	413.94
339.562	404.94
339.79	404.94
340.018	403.94
340.246	400.94
340.474	403.94
340.702	423.94
340.93	424.94
341.158	421.94
341.386	410.94
341.614	410.94
341.842	401.94
342.07	406.94
342.298	390.94
342.526	388.94
342.754	387.94
342.981	388.94
343.209	390.94
343.437	403.94
343.665	409.94
343.893	420.94
344.12	428.94
344.348	427.94
344.576	422.94
344.804	432.94
345.031	426.94
345.259	423.94
345.487	412.94
345.714	431.94
345.942	404.94
346.17	396.94
346.397	398.94
346.625	381.94
346.853	400.94
347.08	393.94
347.308	371.94
347.535	392.94
347.763	392.94
347.99	399.94
348.218	410.94
348.445	394.94
348.673	415.94
348.9	402.94
349.128	389.94
349.355	391.94
349.583	380.94
349.81	392.94
350.037	392.94
350.265	371.94
350.492	396.94
350.72	397.94
350.947	386.94
351.174	393.94
351.402	397.94
351.629	365.94
351.856	384.94
352.083	419.94
352.311	402.94
352.538	385.94
352.765	401.94
352.992	409.94
353.22	384.94
353.447	406.94
353.674	384.94
353.901	394.94
354.128	374.94
354.355	387.94
354.583	390.94
354.81	385.94
355.037	394.94
355.264	402.94
355.491	370.94
355.718	371.94
355.945	369.94
356.172	382.94
356.399	384.94
356.626	378.94
356.853	373.94
357.08	392.94
357.307	373.94
357.534	384.94
357.761	386.94
357.988	399.94
358.215	385.94
358.441	379.94
358.668	406.94
358.895	390.94
359.122	372.94
359.349	396.94
359.576	401.94
359.802	409.94
360.029	443.94
360.256	428.94
360.483	410.94
360.709	402.94
360.936	414.94
361.163	405.94
361.39	399.94
361.616	388.94
361.843	384.94
362.07	396.94
362.296	397.94
362.523	397.94
362.749	379.94
362.976	404.94
363.203	398.94
363.429	387.94
363.656	381.94
363.882	388.94
364.109	403.94
364.335	402.94
364.562	394.94
364.788	386.94
365.015	385.94
365.241	378.94
365.468	422.94
365.694	411.94
365.92	398.94
366.147	390.94
366.373	397.94
366.599	386.94
366.826	370.94
367.052	381.94
367.278	397.94
367.505	390.94
367.731	410.94
367.957	406.94
368.184	388.94
368.41	416.94
368.636	378.94
368.862	420.94
369.089	392.94
369.315	384.94
369.541	384.94
369.767	405.94
369.993	392.94
370.219	402.94
370.445	403.94
370.672	391.94
370.898	419.94
371.124	401.94
371.35	408.94
371.576	417.94
371.802	420.94
372.028	393.94
372.254	409.94
372.48	412.94
372.706	408.94
372.932	413.94
373.158	391.94
373.384	418.94
373.61	420.94
373.835	405.94
374.061	397.94
374.287	407.94
374.513	426.94
374.739	434.94
374.965	437.94
375.191	421.94
375.416	413.94
375.642	426.94
375.868	419.94
376.094	420.94
376.319	426.94
376.545	394.94
376.771	408.94
376.997	414.94
377.222	419.94
377.448	397.94
377.674	402.94
377.899	399.94
378.125	406.94
378.35	412.94
378.576	406.94
378.802	418.94
379.027	391.94
379.253	413.94
379.478	405.94
379.704	410.94
379.929	407.94
380.155	425.94
380.38	424.94
380.606	424.94
380.831	419.94
381.057	399.94
381.282	419.94
381.507	408.94
381.733	419.94
381.958	417.94
382.184	436.94
382.409	432.94
382.634	424.94
382.86	421.94
383.085	425.94
383.31	427.94
383.535	436.94
383.761	467.94
383.986	460.94
384.211	446.94
384.436	453.94
384.662	461.94
384.887	488.94
385.112	482.94
385.337	485.94
385.562	476.94
385.787	484.94
386.013	498.94
386.238	484.94
386.463	494.94
386.688	505.94
386.913	456.94
387.138	461.94
387.363	468.94
387.588	468.94
387.813	480.94
388.038	471.94
388.263	489.94
388.488	470.94
388.713	488.94
388.938	486.94
389.163	478.94
389.387	468.94
389.612	472.94
389.837	449.94
390.062	454.94
390.287	462.94
390.512	443.94
390.736	464.94
390.961	463.94
391.186	463.94
391.411	453.94
391.636	453.94
391.86	478.94
392.085	486.94
392.31	475.94
392.534	472.94
392.759	485.94
392.984	474.94
393.208	502.94
393.433	547.94
393.658	547.94
393.882	503.94
394.107	481.94
394.331	482.94
394.556	446.94
394.78	477.94
395.005	476.94
395.229	483.94
395.454	462.94
395.678	483.94
395.903	477.94
396.127	530.94
396.352	522.94
396.576	489.94
396.801	520.94
397.025	528.94
397.249	521.94
397.474	500.94
397.698	507.94
397.922	489.94
398.147	526.94
398.371	540.94
398.595	540.94
398.82	540.94
399.044	525.94
399.268	560.94
399.492	583.94
399.717	659.94
399.941	660.94
400.165	674.94
400.389	668.94
400.613	602.94
400.837	572.94
401.062	539.94
401.286	541.94
401.51	535.94
401.734	526.94
401.958	529.94
402.182	532.94
402.406	564.94
402.63	567.94
402.854	538.94
403.078	542.94
403.302	563.94
403.526	562.94
403.75	552.94
403.974	556.94
404.198	555.94
404.422	581.94
404.645	573.94
404.869	566.94
405.093	563.94
405.317	602.94
405.541	618.94
405.765	593.94
405.988	547.94
406.212	602.94
406.436	576.94
406.66	630.94
406.883	612.94
407.107	616.94
407.331	664.94
407.555	713.94
407.778	734.94
408.002	665.94
408.226	616.94
408.449	630.94
408.673	614.94
408.896	622.94
409.12	659.94
409.344	613.94
409.567	581.94
409.791	581.94
410.014	539.94
410.238	546.94
410.461	543.94
410.685	565.94
410.908	564.94
411.132	610.94
411.355	635.94
411.578	605.94
411.802	568.94
412.025	544.94
412.249	546.94
412.472	595.94
412.695	606.94
412.919	582.94
413.142	555.94
413.365	549.94
413.589	553.94
413.812	567.94
414.035	530.94
414.258	514.94
414.482	524.94
414.705	548.94
414.928	545.94
415.151	534.94
415.374	536.94
415.597	550.94
415.821	520.94
416.044	530.94
416.267	510.94
416.49	533.94
416.713	519.94
416.936	524.94
417.159	525.94
417.382	547.94
417.605	507.94
417.828	539.94
418.051	548.94
418.274	521.94
418.497	522.94
418.72	549.94
418.943	522.94
419.166	534.94
419.389	582.94
419.611	573.94
419.834	567.94
420.057	538.94
420.28	554.94
420.503	540.94
420.726	548.94
420.948	564.94
421.171	578.94
421.394	604.94
421.617	570.94
421.839	571.94
422.062	527.94
422.285	541.94
422.507	603.94
422.73	649.94
422.953	660.94
423.175	593.94
423.398	566.94
423.621	549.94
423.843	578.94
424.066	590.94
424.288	579.94
424.511	581.94
424.733	632.94
424.956	706.94
425.178	677.94
425.401	691.94
425.623	704.94
425.846	601.94
426.068	574.94
426.291	568.94
426.513	549.94
426.735	554.94
426.958	577.94
427.18	675.94
427.402	784.94
427.625	832.94
427.847	714.94
428.069	618.94
428.292	580.94
428.514	547.94
428.736	539.94
428.958	539.94
429.181	514.94
429.403	514.94
429.625	492.94
429.847	544.94
430.069	589.94
430.292	600.94
430.514	532.94
430.736	540.94
430.958	532.94
431.18	507.94
431.402	508.94
431.624	514.94
431.846	510.94
432.068	510.94
432.29	502.94
432.512	511.94
432.734	535.94
432.956	530.94
433.178	531.94
433.4	545.94
433.622	497.94
433.844	501.94
434.066	505.94
434.287	501.94
434.509	513.94
434.731	535.94
434.953	534.94
435.175	559.94
435.397	582.94
435.618	550.94
435.84	606.94
436.062	674.94
436.284	758.94
436.505	628.94
436.727	586.94
436.949	553.94
437.17	512.94
437.392	522.94
437.614	521.94
437.835	552.94
438.057	596.94
438.278	714.94
438.5	725.94
438.721	789.94
438.943	757.94
439.165	586.94
439.386	559.94
439.608	563.94
439.829	552.94
440.05	584.94
440.272	611.94
440.493	589.94
440.715	561.94
440.936	564.94
441.158	548.94
441.379	536.94
441.6	536.94
441.822	552.94
442.043	601.94
442.264	666.94
442.486	710.94
442.707	621.94
442.928	586.94
443.149	596.94
443.371	605.94
443.592	627.94
443.813	729.94
444.034	780.94
444.255	646.94
444.476	609.94
444.698	600.94
444.919	616.94
445.14	729.94
445.361	660.94
445.582	608.94
445.803	671.94
446.024	720.94
446.245	724.94
446.466	663.94
446.687	602.94
446.908	562.94
447.129	519.94
447.35	512.94
447.571	518.94
447.792	513.94
448.013	529.94
448.234	529.94
448.455	566.94
448.675	669.94
448.896	772.94
449.117	648.94
449.338	626.94
449.559	701.94
449.779	786.94
450	653.94
450.221	534.94
450.442	530.94
450.662	512.94
450.883	506.94
451.104	492.94
451.324	499.94
451.545	490.94
451.766	489.94
451.986	474.94
452.207	454.94
452.428	469.94
452.648	477.94
452.869	467.94
453.089	475.94
453.31	504.94
453.53	479.94
453.751	456.94
453.971	466.94
454.192	472.94
454.412	463.94
454.633	447.94
454.853	467.94
455.073	462.94
455.294	481.94
455.514	543.94
455.734	530.94
455.955	457.94
456.175	463.94
456.395	440.94
456.616	448.94
456.836	454.94
457.056	438.94
457.276	432.94
457.497	426.94
457.717	471.94
457.937	464.94
458.157	465.94
458.377	469.94
458.598	486.94
458.818	534.94
459.038	557.94
459.258	562.94
459.478	550.94
459.698	513.94
459.918	522.94
460.138	513.94
460.358	520.94
460.578	523.94
460.798	545.94
461.018	554.94
461.238	555.94
461.458	531.94
461.678	540.94
461.898	526.94
462.118	541.94
462.338	550.94
462.558	590.94
462.777	561.94
462.997	587.94
463.217	634.94
463.437	630.94
463.657	608.94
463.876	601.94
464.096	606.94
464.316	593.94
464.536	582.94
464.755	589.94
464.975	590.94
465.195	567.94
465.414	603.94
465.634	569.94
465.854	536.94
466.073	531.94
466.293	503.94
466.512	494.94
466.732	487.94
466.951	491.94
467.171	501.94
467.391	492.94
467.61	501.94
467.829	502.94
468.049	493.94
468.268	493.94
468.488	477.94
468.707	473.94
468.927	493.94
469.146	485.94
469.365	476.94
469.585	476.94
469.804	484.94
470.023	512.94
470.243	509.94
470.462	508.94
470.681	504.94
470.901	535.94
471.12	493.94
471.339	494.94
471.558	491.94
471.777	500.94
471.997	516.94
472.216	482.94
472.435	506.94
472.654	490.94
472.873	489.94
473.092	501.94
473.311	483.94
473.53	512.94
473.749	500.94
473.968	516.94
474.187	590.94
474.406	616.94
474.625	530.94
474.844	517.94
475.063	500.94
475.282	492.94
475.501	508.94
475.72	486.94
475.939	501.94
476.158	509.94
476.377	529.94
476.596	491.94
476.814	516.94
477.033	526.94
477.252	530.94
477.471	529.94
477.69	529.94
477.908	557.94
478.127	561.94
478.346	557.94
478.564	553.94
478.783	559.94
479.002	598.94
479.22	576.94
479.439	586.94
479.658	597.94
479.876	593.94
480.095	611.94
480.313	627.94
480.532	637.94
480.751	619.94
480.969	612.94
481.188	624.94
481.406	662.94
481.624	607.94
481.843	602.94
482.061	598.94
482.28	593.94
482.498	567.94
482.717	600.94
482.935	576.94
483.153	591.94
483.372	586.94
483.59	592.94
483.808	568.94
484.027	572.94
484.245	605.94
484.463	594.94
484.681	602.94
484.9	611.94
485.118	598.94
485.336	612.94
485.554	580.94
485.772	612.94
485.99	635.94
486.209	612.94
486.427	619.94
486.645	611.94
486.863	633.94
487.081	658.94
487.299	642.94
487.517	634.94
487.735	647.94
487.953	625.94
488.171	627.94
488.389	610.94
488.607	642.94
488.825	620.94
489.043	612.94
489.261	627.94
489.479	599.94
489.696	635.94
489.914	639.94
490.132	643.94
490.35	661.94
490.568	649.94
490.786	652.94
491.003	670.94
491.221	696.94
491.439	677.94
491.657	685.94
491.874	693.94
492.092	691.94
492.31	699.94
492.527	696.94
492.745	707.94
492.963	720.94
493.18	699.94
493.398	730.94
493.615	736.94
493.833	730.94
494.05	735.94
494.268	717.94
494.485	709.94
494.703	710.94
494.92	706.94
495.138	714.94
495.355	709.94
495.573	737.94
495.79	721.94
496.008	737.94
496.225	755.94
496.442	746.94
496.66	768.94
496.877	740.94
497.094	748.94
497.312	758.94
497.529	732.94
497.746	786.94
497.963	779.94
498.181	786.94
498.398	824.94
498.615	840.94
498.832	878.94
499.049	896.94
499.267	902.94
499.484	955.94
499.701	976.94
499.918	1035.94
500.135	1141.94
500.352	1212.94
500.569	1202.94
500.786	1222.94
501.003	1158.94
501.22	1144.94
501.437	1112.94
501.654	1027.94
501.871	1005.94
502.088	928.94
502.305	909.94
502.522	879.94
502.739	868.94
502.956	852.94
503.172	827.94
503.389	790.94
503.606	779.94
503.823	775.94
504.04	761.94
504.256	754.94
504.473	729.94
504.69	736.94
504.907	762.94
505.123	727.94
505.34	722.94
505.557	691.94
505.773	704.94
505.99	723.94
506.207	677.94
506.423	677.94
506.64	685.94
506.856	663.94
507.073	676.94
507.289	656.94
507.506	661.94
507.722	652.94
507.939	660.94
508.155	654.94
508.372	649.94
508.588	652.94
508.805	640.94
509.021	632.94
509.238	637.94
509.454	650.94
509.67	644.94
509.887	634.94
510.103	629.94
510.319	635.94
510.536	676.94
510.752	908.94
510.968	793.94
511.184	631.94
511.401	593.94
511.617	596.94
511.833	607.94
512.049	605.94
512.265	591.94
512.481	610.94
512.698	598.94
512.914	606.94
513.13	592.94
513.346	594.94
513.562	631.94
513.778	578.94
513.994	578.94
514.21	611.94
514.426	621.94
514.642	641.94
514.858	660.94
515.074	649.94
515.29	722.94
515.506	914.94
515.721	821.94
515.937	694.94
516.153	661.94
516.369	649.94
516.585	646.94
516.801	630.94
517.016	638.94
517.232	640.94
517.448	655.94
517.664	658.94
517.879	645.94
518.095	664.94
518.311	654.94
518.527	670.94
518.742	627.94
518.958	638.94
519.173	632.94
519.389	617.94
519.605	610.94
519.82	601.94
520.036	596.94
520.251	598.94
520.467	626.94
520.682	623.94
520.898	610.94
521.113	628.94
521.329	652.94
521.544	686.94
521.76	781.94
521.975	1075.94
522.19	1092.94
522.406	747.94
522.621	626.94
522.836	593.94
523.052	580.94
523.267	561.94
523.482	565.94
523.698	543.94
523.913	565.94
524.128	530.94
524.343	527.94
524.559	524.94
524.774	535.94
524.989	534.94
525.204	528.94
525.419	527.94
525.634	531.94
525.849	529.94
526.064	531.94
526.28	541.94
526.495	521.94
526.71	485.94
526.925	508.94
527.14	513.94
527.355	512.94
527.57	482.94
527.785	504.94
527.999	496.94
528.214	501.94
528.429	510.94
528.644	509.94
528.859	517.94
529.074	524.94
529.289	537.94
529.503	571.94
529.718	564.94
529.933	536.94
530.148	487.94
530.363	526.94
530.577	502.94
530.792	518.94
531.007	513.94
531.221	489.94
531.436	517.94
531.651	480.94
531.865	493.94
532.08	501.94
532.295	483.94
532.509	486.94
532.724	487.94
532.938	493.94
533.153	499.94
533.367	502.94
533.582	492.94
533.796	509.94
534.011	499.94
534.225	508.94
534.44	487.94
534.654	479.94
534.868	489.94
535.083	460.94
535.297	486.94
535.511	502.94
535.726	508.94
535.94	479.94
536.154	482.94
536.369	490.94
536.583	483.94
536.797	467.94
537.011	460.94
537.225	474.94
537.44	472.94
537.654	461.94
537.868	448.94
538.082	474.94
538.296	488.94
538.51	480.94
538.724	488.94
538.938	486.94
539.153	485.94
539.367	477.94
539.581	480.94
539.795	458.94
540.009	475.94
540.222	458.94
540.436	461.94
540.65	473.94
540.864	469.94
541.078	477.94
541.292	483.94
541.506	462.94
541.72	478.94
541.934	483.94
542.147	474.94
542.361	467.94
542.575	477.94
542.789	480.94
543.002	469.94
543.216	490.94
543.43	470.94
543.644	459.94
543.857	491.94
544.071	485.94
544.285	468.94
544.498	467.94
544.712	498.94
544.925	483.94
545.139	464.94
545.352	481.94
545.566	479.94
545.779	461.94
545.993	479.94
546.206	477.94
546.42	472.94
546.633	481.94
546.847	490.94
547.06	486.94
547.274	469.94
547.487	486.94
547.7	475.94
547.914	482.94
548.127	457.94
548.34	454.94
548.554	484.94
548.767	478.94
548.98	483.94
549.193	471.94
549.407	473.94
549.62	491.94
549.833	484.94
550.046	476.94
550.259	481.94
550.473	456.94
550.686	463.94
550.899	457.94
551.112	474.94
551.325	440.94
551.538	475.94
551.751	464.94
551.964	471.94
552.177	464.94
552.39	473.94
552.603	491.94
552.816	485.94
553.029	469.94
553.242	493.94
553.455	481.94
553.667	512.94
553.88	504.94
554.093	483.94
554.306	503.94
554.519	466.94
554.732	450.94
554.944	448.94
555.157	454.94
555.37	460.94
555.583	463.94
555.795	462.94
556.008	430.94
556.221	453.94
556.433	445.94
556.646	445.94
556.859	442.94
557.071	435.94
557.284	415.94
557.496	430.94
557.709	440.94
557.921	423.94
558.134	431.94
558.346	422.94
558.559	417.94
558.771	436.94
558.984	417.94
559.196	419.94
559.409	438.94
559.621	443.94
559.833	415.94
560.046	417.94
560.258	411.94
560.47	408.94
560.683	434.94
560.895	410.94
561.107	412.94
561.32	407.94
561.532	407.94
561.744	435.94
561.956	428.94
562.168	425.94
562.381	434.94
562.593	444.94
562.805	407.94
563.017	414.94
563.229	422.94
563.441	407.94
563.653	416.94
563.865	428.94
564.077	411.94
564.289	439.94
564.501	442.94
564.713	420.94
564.925	432.94
565.137	443.94
565.349	450.94
565.561	462.94
565.773	463.94
565.985	475.94
566.197	486.94
566.408	535.94
566.62	520.94
566.832	554.94
567.044	575.94
567.255	562.94
567.467	584.94
567.679	578.94
567.891	582.94
568.102	606.94
568.314	563.94
568.526	550.94
568.737	530.94
568.949	502.94
569.161	481.94
569.372	462.94
569.584	466.94
569.795	427.94
570.007	445.94
570.218	448.94
570.43	423.94
570.641	425.94
570.853	434.94
571.064	436.94
571.276	428.94
571.487	405.94
571.698	414.94
571.91	407.94
572.121	395.94
572.333	390.94
572.544	391.94
572.755	398.94
572.966	374.94
573.178	384.94
573.389	370.94
573.6	384.94
573.811	359.94
574.023	365.94
574.234	355.94
574.445	392.94
574.656	355.94
574.867	372.94
575.078	354.94
575.289	356.94
575.501	354.94
575.712	349.94
575.923	363.94
576.134	354.94
576.345	325.94
576.556	350.94
576.767	376.94
576.978	358.94
577.188	364.94
577.399	344.94
577.61	346.94
577.821	339.94
578.032	342.94
578.243	369.94
578.454	464.94
578.665	381.94
578.875	347.94
579.086	346.94
579.297	354.94
579.508	326.94
579.718	328.94
579.929	339.94
580.14	362.94
580.35	329.94
580.561	323.94
580.772	327.94
580.982	348.94
581.193	330.94
581.403	337.94
581.614	329.94
581.825	329.94
582.035	332.94
582.246	348.94
582.456	326.94
582.667	333.94
582.877	316.94
583.087	334.94
583.298	345.94
583.508	325.94
583.719	311.94
583.929	316.94
584.139	345.94
584.35	329.94
584.56	343.94
584.77	332.94
584.981	299.94
585.191	305.94
585.401	334.94
585.611	326.94
585.821	327.94
586.032	320.94
586.242	338.94
586.452	325.94
586.662	306.94
586.872	307.94
587.082	321.94
587.292	322.94
587.502	323.94
587.713	315.94
587.923	323.94
588.133	317.94
588.343	324.94
588.553	306.94
588.762	332.94
588.972	342.94
589.182	330.94
589.392	332.94
589.602	338.94
589.812	321.94
590.022	329.94
590.232	325.94
590.441	315.94
590.651	331.94
590.861	321.94
591.071	311.94
591.281	322.94
591.49	324.94
591.7	343.94
591.91	329.94
592.119	341.94
592.329	338.94
592.539	355.94
592.748	352.94
592.958	347.94
593.167	347.94
593.377	354.94
593.587	378.94
593.796	363.94
594.006	363.94
594.215	369.94
594.424	358.94
594.634	372.94
594.843	354.94
595.053	338.94
595.262	352.94
595.472	321.94
595.681	345.94
595.89	323.94
596.1	315.94
596.309	305.94
596.518	321.94
596.727	327.94
596.937	326.94
597.146	301.94
597.355	308.94
597.564	316.94
597.774	308.94
597.983	293.94
598.192	296.94
598.401	301.94
598.61	285.94
598.819	285.94
599.028	287.94
599.237	285.94
599.446	300.94
599.655	289.94
599.864	296.94
600.073	292.94
600.282	284.94
600.491	294.94
600.7	289.94
600.909	288.94
601.118	296.94
601.327	291.94
601.536	296.94
601.745	286.94
601.953	284.94
602.162	284.94
602.371	286.94
602.58	282.94
602.789	288.94
602.997	264.94
603.206	281.94
603.415	286.94
603.623	285.94
603.832	264.94
604.041	284.94
604.249	276.94
604.458	262.94
604.666	274.94
604.875	274.94
605.084	277.94
605.292	297.94
605.501	268.94
605.709	283.94
605.918	281.94
606.126	287.94
606.334	292.94
606.543	267.94
606.751	270.94
606.96	268.94
607.168	268.94
607.376	267.94
607.585	270.94
607.793	273.94
608.001	261.94
608.21	253.94
608.418	272.94
608.626	256.94
608.834	257.94
609.043	256.94
609.251	281.94
609.459	276.94
609.667	278.94
609.875	261.94
610.083	262.94
610.291	273.94
610.499	256.94
610.707	259.94
610.916	264.94
611.124	284.94
611.332	274.94
611.54	276.94
611.748	277.94
611.955	284.94
612.163	286.94
612.371	285.94
612.579	280.94
612.787	253.94
612.995	236.94
613.203	259.94
613.411	262.94
613.618	268.94
613.826	270.94
614.034	265.94
614.242	256.94
614.449	267.94
614.657	260.94
614.865	256.94
615.072	265.94
615.28	261.94
615.488	264.94
615.695	257.94
615.903	266.94
616.111	272.94
616.318	260.94
616.526	270.94
616.733	269.94
616.941	252.94
617.148	269.94
617.356	281.94
617.563	256.94
617.771	270.94
617.978	262.94
618.185	276.94
618.393	261.94
618.6	245.94
618.807	256.94
619.015	247.94
619.222	248.94
619.429	243.94
619.637	254.94
619.844	262.94
620.051	255.94
620.258	244.94
620.466	245.94
620.673	245.94
620.88	250.94
621.087	234.94
621.294	236.94
621.501	234.94
621.708	244.94
621.915	230.94
622.122	264.94
622.329	248.94
622.536	257.94
622.743	224.94
622.95	244.94
623.157	243.94
623.364	225.94
623.571	227.94
623.778	244.94
623.985	245.94
624.192	235.94
624.399	250.94
624.606	230.94
624.812	237.94
625.019	244.94
625.226	232.94
625.433	243.94
625.639	229.94
625.846	220.94
626.053	201.94
626.259	232.94
626.466	225.94
626.673	225.94
626.879	215.94
627.086	240.94
627.293	236.94
627.499	227.94
627.706	224.94
627.912	242.94
628.119	229.94
628.325	222.94
628.532	233.94
628.738	226.94
628.945	233.94
629.151	224.94
629.357	203.94
629.564	232.94
629.77	222.94
629.976	205.94
630.183	204.94
630.389	193.94
630.595	201.94
630.802	212.94
631.008	214.94
631.214	220.94
631.42	207.94
631.627	216.94
631.833	214.94
632.039	220.94
632.245	222.94
632.451	219.94
632.657	228.94
632.863	196.94
633.069	200.94
633.275	221.94
633.481	209.94
633.688	202.94
633.893	208.94
634.099	205.94
634.305	205.94
634.511	202.94
634.717	197.94
634.923	186.94
635.129	178.94
635.335	203.94
635.541	197.94
635.747	199.94
635.952	185.94
636.158	193.94
636.364	193.94
636.57	191.94
636.775	195.94
636.981	203.94
637.187	193.94
637.392	196.94
637.598	206.94
637.804	194.94
638.009	201.94
638.215	203.94
638.421	197.94
638.626	197.94
638.832	206.94
639.037	200.94
639.243	210.94
639.448	192.94
639.654	203.94
639.859	192.94
640.065	185.94
640.27	181.94
640.475	186.94
640.681	183.94
640.886	193.94
641.091	196.94
641.297	192.94
641.502	182.94
641.707	191.94
641.913	194.94
642.118	189.94
642.323	182.94
642.528	177.94
642.733	204.94
642.939	172.94
643.144	179.94
643.349	174.94
643.554	194.94
643.759	190.94
643.964	171.94
644.169	182.94
644.374	195.94
644.579	194.94
644.784	194.94
644.989	184.94
645.194	196.94
645.399	177.94
645.604	178.94
645.809	202.94
646.014	194.94
646.219	201.94
646.423	177.94
646.628	200.94
646.833	192.94
647.038	177.94
647.243	193.94
647.447	198.94
647.652	198.94
647.857	181.94
648.062	190.94
648.266	175.94
648.471	189.94
648.676	187.94
648.88	192.94
649.085	187.94
649.289	184.94
649.494	190.94
649.698	192.94
649.903	213.94
650.107	181.94
650.312	189.94
650.516	191.94
650.721	180.94
650.925	166.94
651.13	165.94
651.334	164.94
651.539	177.94
651.743	160.94
651.947	178.94
652.152	173.94
652.356	178.94
652.56	176.94
652.764	151.94
652.969	170.94
653.173	170.94
653.377	176.94
653.581	164.94
653.785	151.94
653.99	163.94
654.194	164.94
654.398	177.94
654.602	172.94
654.806	178.94
655.01	168.94
655.214	171.94
655.418	159.94
655.622	154.94
655.826	160.94
656.03	182.94
656.234	164.94
656.438	176.94
656.642	180.94
656.846	168.94
657.049	172.94
657.253	149.94
657.457	146.94
657.661	149.94
657.865	132.94
658.068	138.94
658.272	136.94
658.476	121.94
658.68	119.94
658.883	118.94
659.087	122.94
659.291	99.94
659.494	88.94
659.698	103.94
659.901	107.94
660.105	112.94
660.309	103.94
660.512	102.94
660.716	99.94
660.919	96.94
661.123	81.94
661.326	99.94
661.53	89.94
661.733	98.94
661.936	85.94
662.14	86.94
662.343	90.94
662.546	84.94
662.75	84.94
662.953	76.94
663.156	89.94
663.36	69.94
663.563	65.94
663.766	79.94
663.969	85.94
664.173	89.94
664.376	82.94
664.579	96.94
664.782	92.94
664.985	84.94
665.188	84.94
665.391	80.94
665.594	84.94
665.797	87.94
666	74.94
666.203	76.94
666.406	80.94
666.609	79.94
666.812	87.94
667.015	62.94
667.218	76.94
667.421	75.94
667.624	77.94
667.827	82.94
668.03	85.94
668.232	73.94
668.435	78.94
668.638	100.94
668.841	92.94
669.043	89.94
669.246	84.94
669.449	87.94
669.651	81.94
669.854	73.94
670.057	76.94
670.259	72.94
670.462	85.94
670.665	77.94
670.867	85.94
671.07	94.94
671.272	78.94
671.475	82.94
671.677	69.94
671.88	87.94
672.082	72.94
672.284	82.94
672.487	76.94
672.689	71.94
672.892	83.94
