Data from 1974.PennyLincolnUp.Lamp.En5.5.200Scan.071719.P1.Changed Mount._HRD10591_15-53-38-857.txt Node
Date: Thu Jul 18 15:53:38 EDT 2019
User: cochatt
Spectrometer: HR+D1059
Trigger mode: 1
Integration Time (sec): 1.000000E-1
Scans to average: 1
Electric dark correction enabled: true
Nonlinearity correction enabled: false
Boxcar width: 0
XAxis mode: Wavelengths
Number of Pixels in Spectrum: 2048
>>>>>Begin Spectral Data<<<<<
223.165	-11.94
223.4	-11.94
223.635	-11.94
223.869	-15.94
224.104	-5.94
224.338	-13.94
224.573	-21.94
224.808	-26.94
225.042	-1.94
225.277	6.06
225.511	6.06
225.746	-0.94
225.98	6.06
226.215	-4.94
226.449	20.06
226.683	14.06
226.918	28.06
227.152	24.06
227.387	28.06
227.621	23.06
227.856	36.06
228.09	52.06
228.324	51.06
228.559	44.06
228.793	70.06
229.027	113.06
229.262	116.06
229.496	124.06
229.73	149.06
229.964	162.06
230.199	127.06
230.433	122.06
230.667	106.06
230.901	117.06
231.136	125.06
231.37	123.06
231.604	111.06
231.838	120.06
232.072	113.06
232.306	126.06
232.541	112.06
232.775	127.06
233.009	117.06
233.243	121.06
233.477	133.06
233.711	111.06
233.945	131.06
234.179	127.06
234.413	124.06
234.647	126.06
234.881	120.06
235.115	116.06
235.349	127.06
235.583	116.06
235.817	105.06
236.051	127.06
236.285	125.06
236.519	133.06
236.753	116.06
236.987	130.06
237.221	180.06
237.455	212.06
237.689	178.06
237.922	162.06
238.156	136.06
238.39	133.06
238.624	128.06
238.858	139.06
239.091	133.06
239.325	122.06
239.559	138.06
239.793	127.06
240.027	136.06
240.26	156.06
240.494	150.06
240.728	141.06
240.961	155.06
241.195	149.06
241.429	141.06
241.662	157.06
241.896	134.06
242.13	121.06
242.363	121.06
242.597	129.06
242.83	159.06
243.064	148.06
243.298	145.06
243.531	143.06
243.765	153.06
243.998	149.06
244.232	139.06
244.465	153.06
244.699	152.06
244.932	162.06
245.166	147.06
245.399	149.06
245.633	157.06
245.866	156.06
246.099	152.06
246.333	161.06
246.566	149.06
246.8	154.06
247.033	161.06
247.266	162.06
247.5	172.06
247.733	171.06
247.966	179.06
248.2	188.06
248.433	168.06
248.666	195.06
248.899	204.06
249.133	201.06
249.366	208.06
249.599	228.06
249.832	198.06
250.066	197.06
250.299	210.06
250.532	201.06
250.765	216.06
250.998	232.06
251.231	237.06
251.465	208.06
251.698	229.06
251.931	206.06
252.164	209.06
252.397	216.06
252.63	231.06
252.863	199.06
253.096	225.06
253.329	231.06
253.562	237.06
253.795	225.06
254.028	221.06
254.261	203.06
254.494	244.06
254.727	268.06
254.96	305.06
255.193	297.06
255.426	239.06
255.659	240.06
255.892	243.06
256.124	251.06
256.357	260.06
256.59	234.06
256.823	225.06
257.056	221.06
257.289	214.06
257.521	220.06
257.754	210.06
257.987	224.06
258.22	223.06
258.452	220.06
258.685	207.06
258.918	217.06
259.151	222.06
259.383	218.06
259.616	212.06
259.849	223.06
260.081	268.06
260.314	269.06
260.547	267.06
260.779	271.06
261.012	255.06
261.244	237.06
261.477	227.06
261.71	237.06
261.942	244.06
262.175	261.06
262.407	246.06
262.64	226.06
262.872	213.06
263.105	239.06
263.337	246.06
263.57	243.06
263.802	231.06
264.035	230.06
264.267	234.06
264.499	242.06
264.732	246.06
264.964	225.06
265.197	237.06
265.429	224.06
265.661	217.06
265.894	243.06
266.126	220.06
266.358	231.06
266.591	224.06
266.823	239.06
267.055	243.06
267.287	244.06
267.52	245.06
267.752	261.06
267.984	243.06
268.216	244.06
268.448	255.06
268.681	253.06
268.913	258.06
269.145	272.06
269.377	290.06
269.609	294.06
269.841	291.06
270.073	293.06
270.306	311.06
270.538	324.06
270.77	341.06
271.002	341.06
271.234	316.06
271.466	318.06
271.698	324.06
271.93	329.06
272.162	353.06
272.394	340.06
272.626	329.06
272.858	310.06
273.09	299.06
273.322	288.06
273.553	264.06
273.785	287.06
274.017	277.06
274.249	278.06
274.481	273.06
274.713	274.06
274.945	294.06
275.176	300.06
275.408	300.06
275.64	279.06
275.872	272.06
276.104	283.06
276.335	277.06
276.567	287.06
276.799	304.06
277.031	339.06
277.262	344.06
277.494	338.06
277.726	345.06
277.957	303.06
278.189	321.06
278.421	292.06
278.652	297.06
278.884	301.06
279.115	280.06
279.347	290.06
279.579	286.06
279.81	299.06
280.042	281.06
280.273	291.06
280.505	311.06
280.736	275.06
280.968	320.06
281.199	295.06
281.431	285.06
281.662	297.06
281.894	284.06
282.125	297.06
282.356	316.06
282.588	307.06
282.819	320.06
283.051	296.06
283.282	307.06
283.513	298.06
283.745	318.06
283.976	314.06
284.207	321.06
284.439	298.06
284.67	307.06
284.901	301.06
285.132	331.06
285.364	295.06
285.595	315.06
285.826	313.06
286.057	316.06
286.288	296.06
286.52	301.06
286.751	325.06
286.982	305.06
287.213	322.06
287.444	322.06
287.675	315.06
287.906	336.06
288.138	322.06
288.369	322.06
288.6	319.06
288.831	331.06
289.062	321.06
289.293	319.06
289.524	321.06
289.755	330.06
289.986	329.06
290.217	321.06
290.448	308.06
290.679	347.06
290.91	323.06
291.141	329.06
291.371	336.06
291.602	317.06
291.833	332.06
292.064	341.06
292.295	313.06
292.526	324.06
292.757	328.06
292.987	317.06
293.218	322.06
293.449	311.06
293.68	333.06
293.91	313.06
294.141	327.06
294.372	320.06
294.603	315.06
294.833	322.06
295.064	325.06
295.295	315.06
295.525	330.06
295.756	331.06
295.987	340.06
296.217	354.06
296.448	344.06
296.679	331.06
296.909	337.06
297.14	327.06
297.37	321.06
297.601	320.06
297.831	341.06
298.062	331.06
298.292	321.06
298.523	345.06
298.753	330.06
298.984	356.06
299.214	357.06
299.445	362.06
299.675	343.06
299.905	337.06
300.136	341.06
300.366	333.06
300.597	344.06
300.827	345.06
301.057	349.06
301.288	353.06
301.518	350.06
301.748	353.06
301.979	372.06
302.209	344.06
302.439	350.06
302.669	361.06
302.9	379.06
303.13	360.06
303.36	351.06
303.59	368.06
303.82	345.06
304.051	374.06
304.281	367.06
304.511	351.06
304.741	353.06
304.971	349.06
305.201	348.06
305.431	369.06
305.661	359.06
305.891	380.06
306.121	351.06
306.352	371.06
306.582	368.06
306.812	355.06
307.042	357.06
307.272	364.06
307.502	375.06
307.731	383.06
307.961	375.06
308.191	353.06
308.421	359.06
308.651	351.06
308.881	373.06
309.111	361.06
309.341	383.06
309.571	397.06
309.8	384.06
310.03	386.06
310.26	408.06
310.49	411.06
310.72	412.06
310.949	423.06
311.179	430.06
311.409	419.06
311.639	412.06
311.868	395.06
312.098	406.06
312.328	424.06
312.557	416.06
312.787	455.06
313.017	417.06
313.246	407.06
313.476	383.06
313.706	397.06
313.935	405.06
314.165	418.06
314.394	426.06
314.624	435.06
314.853	413.06
315.083	426.06
315.312	431.06
315.542	411.06
315.771	400.06
316.001	399.06
316.23	387.06
316.46	397.06
316.689	397.06
316.919	432.06
317.148	423.06
317.377	411.06
317.607	415.06
317.836	392.06
318.065	426.06
318.295	404.06
318.524	432.06
318.753	421.06
318.983	405.06
319.212	420.06
319.441	401.06
319.67	437.06
319.9	411.06
320.129	433.06
320.358	435.06
320.587	416.06
320.816	405.06
321.046	435.06
321.275	437.06
321.504	426.06
321.733	421.06
321.962	435.06
322.191	435.06
322.42	467.06
322.649	470.06
322.878	452.06
323.108	476.06
323.337	479.06
323.566	509.06
323.795	525.06
324.024	556.06
324.253	652.06
324.482	870.06
324.71	1275.06
324.939	1967.06
325.168	1771.06
325.397	879.06
325.626	601.06
325.855	543.06
326.084	504.06
326.313	497.06
326.542	505.06
326.77	564.06
326.999	623.06
327.228	801.06
327.457	1238.06
327.686	1506.06
327.914	979.06
328.143	691.06
328.372	612.06
328.6	558.06
328.829	581.06
329.058	565.06
329.287	575.06
329.515	548.06
329.744	543.06
329.972	524.06
330.201	554.06
330.43	565.06
330.658	586.06
330.887	606.06
331.115	597.06
331.344	550.06
331.572	518.06
331.801	522.06
332.03	531.06
332.258	497.06
332.486	525.06
332.715	492.06
332.943	482.06
333.172	511.06
333.4	527.06
333.629	513.06
333.857	531.06
334.085	545.06
334.314	558.06
334.542	565.06
334.771	595.06
334.999	553.06
335.227	532.06
335.455	532.06
335.684	510.06
335.912	511.06
336.14	497.06
336.369	488.06
336.597	523.06
336.825	509.06
337.053	486.06
337.281	464.06
337.51	492.06
337.738	508.06
337.966	494.06
338.194	495.06
338.422	505.06
338.65	489.06
338.878	483.06
339.106	470.06
339.334	488.06
339.562	469.06
339.79	482.06
340.018	479.06
340.246	489.06
340.474	476.06
340.702	481.06
340.93	482.06
341.158	478.06
341.386	488.06
341.614	484.06
341.842	479.06
342.07	495.06
342.298	454.06
342.526	456.06
342.754	444.06
342.981	459.06
343.209	457.06
343.437	489.06
343.665	478.06
343.893	541.06
344.12	507.06
344.348	509.06
344.576	500.06
344.804	495.06
345.031	486.06
345.259	495.06
345.487	489.06
345.714	483.06
345.942	480.06
346.17	448.06
346.397	452.06
346.625	456.06
346.853	461.06
347.08	462.06
347.308	467.06
347.535	464.06
347.763	464.06
347.99	453.06
348.218	463.06
348.445	466.06
348.673	456.06
348.9	468.06
349.128	460.06
349.355	451.06
349.583	438.06
349.81	453.06
350.037	471.06
350.265	445.06
350.492	450.06
350.72	452.06
350.947	458.06
351.174	451.06
351.402	449.06
351.629	476.06
351.856	467.06
352.083	453.06
352.311	474.06
352.538	479.06
352.765	483.06
352.992	473.06
353.22	472.06
353.447	457.06
353.674	453.06
353.901	447.06
354.128	453.06
354.355	434.06
354.583	450.06
354.81	444.06
355.037	428.06
355.264	435.06
355.491	445.06
355.718	447.06
355.945	452.06
356.172	457.06
356.399	439.06
356.626	425.06
356.853	434.06
357.08	431.06
357.307	424.06
357.534	415.06
357.761	433.06
357.988	472.06
358.215	431.06
358.441	470.06
358.668	431.06
358.895	445.06
359.122	445.06
359.349	448.06
359.576	461.06
359.802	467.06
360.029	479.06
360.256	504.06
360.483	481.06
360.709	481.06
360.936	473.06
361.163	477.06
361.39	464.06
361.616	442.06
361.843	463.06
362.07	460.06
362.296	469.06
362.523	465.06
362.749	465.06
362.976	459.06
363.203	447.06
363.429	449.06
363.656	463.06
363.882	449.06
364.109	453.06
364.335	450.06
364.562	459.06
364.788	486.06
365.015	441.06
365.241	467.06
365.468	449.06
365.694	443.06
365.92	482.06
366.147	439.06
366.373	454.06
366.599	461.06
366.826	443.06
367.052	449.06
367.278	451.06
367.505	455.06
367.731	451.06
367.957	434.06
368.184	452.06
368.41	456.06
368.636	440.06
368.862	484.06
369.089	441.06
369.315	443.06
369.541	461.06
369.767	447.06
369.993	450.06
370.219	437.06
370.445	467.06
370.672	455.06
370.898	445.06
371.124	456.06
371.35	472.06
371.576	454.06
371.802	446.06
372.028	453.06
372.254	461.06
372.48	469.06
372.706	455.06
372.932	468.06
373.158	489.06
373.384	467.06
373.61	478.06
373.835	463.06
374.061	460.06
374.287	475.06
374.513	459.06
374.739	474.06
374.965	496.06
375.191	485.06
375.416	465.06
375.642	474.06
375.868	475.06
376.094	471.06
376.319	458.06
376.545	472.06
376.771	459.06
376.997	461.06
377.222	458.06
377.448	460.06
377.674	468.06
377.899	461.06
378.125	456.06
378.35	444.06
378.576	463.06
378.802	454.06
379.027	473.06
379.253	477.06
379.478	454.06
379.704	444.06
379.929	465.06
380.155	472.06
380.38	465.06
380.606	476.06
380.831	475.06
381.057	451.06
381.282	467.06
381.507	468.06
381.733	468.06
381.958	467.06
382.184	460.06
382.409	470.06
382.634	478.06
382.86	478.06
383.085	490.06
383.31	481.06
383.535	495.06
383.761	480.06
383.986	496.06
384.211	499.06
384.436	479.06
384.662	472.06
384.887	497.06
385.112	501.06
385.337	507.06
385.562	500.06
385.787	495.06
386.013	518.06
386.238	509.06
386.463	534.06
386.688	549.06
386.913	534.06
387.138	533.06
387.363	536.06
387.588	501.06
387.813	513.06
388.038	522.06
388.263	527.06
388.488	523.06
388.713	518.06
388.938	535.06
389.163	539.06
389.387	497.06
389.612	513.06
389.837	524.06
390.062	497.06
390.287	513.06
390.512	518.06
390.736	511.06
390.961	544.06
391.186	527.06
391.411	515.06
391.636	557.06
391.86	532.06
392.085	543.06
392.31	535.06
392.534	535.06
392.759	532.06
392.984	541.06
393.208	538.06
393.433	546.06
393.658	538.06
393.882	514.06
394.107	516.06
394.331	516.06
394.556	547.06
394.78	517.06
395.005	537.06
395.229	519.06
395.454	552.06
395.678	563.06
395.903	559.06
396.127	588.06
396.352	572.06
396.576	547.06
396.801	533.06
397.025	534.06
397.249	572.06
397.474	556.06
397.698	591.06
397.922	575.06
398.147	573.06
398.371	596.06
398.595	598.06
398.82	627.06
399.044	625.06
399.268	630.06
399.492	680.06
399.717	743.06
399.941	746.06
400.165	771.06
400.389	767.06
400.613	671.06
400.837	647.06
401.062	630.06
401.286	608.06
401.51	580.06
401.734	605.06
401.958	635.06
402.182	601.06
402.406	625.06
402.63	615.06
402.854	631.06
403.078	629.06
403.302	632.06
403.526	651.06
403.75	649.06
403.974	627.06
404.198	656.06
404.422	635.06
404.645	629.06
404.869	661.06
405.093	685.06
405.317	728.06
405.541	744.06
405.765	692.06
405.988	679.06
406.212	671.06
406.436	682.06
406.66	701.06
406.883	679.06
407.107	705.06
407.331	744.06
407.555	832.06
407.778	829.06
408.002	770.06
408.226	710.06
408.449	705.06
408.673	696.06
408.896	748.06
409.12	758.06
409.344	743.06
409.567	668.06
409.791	673.06
410.014	636.06
410.238	618.06
410.461	637.06
410.685	635.06
410.908	650.06
411.132	685.06
411.355	721.06
411.578	693.06
411.802	635.06
412.025	629.06
412.249	637.06
412.472	640.06
412.695	692.06
412.919	691.06
413.142	636.06
413.365	629.06
413.589	631.06
413.812	627.06
414.035	572.06
414.258	607.06
414.482	607.06
414.705	593.06
414.928	595.06
415.151	596.06
415.374	592.06
415.597	617.06
415.821	574.06
416.044	604.06
416.267	599.06
416.49	598.06
416.713	603.06
416.936	603.06
417.159	588.06
417.382	599.06
417.605	585.06
417.828	630.06
418.051	625.06
418.274	612.06
418.497	615.06
418.72	597.06
418.943	610.06
419.166	635.06
419.389	665.06
419.611	664.06
419.834	649.06
420.057	650.06
420.28	636.06
420.503	641.06
420.726	625.06
420.948	634.06
421.171	661.06
421.394	725.06
421.617	654.06
421.839	631.06
422.062	625.06
422.285	624.06
422.507	703.06
422.73	774.06
422.953	743.06
423.175	703.06
423.398	659.06
423.621	648.06
423.843	647.06
424.066	681.06
424.288	677.06
424.511	679.06
424.733	753.06
424.956	827.06
425.178	801.06
425.401	775.06
425.623	821.06
425.846	704.06
426.068	649.06
426.291	646.06
426.513	663.06
426.735	653.06
426.958	709.06
427.18	791.06
427.402	912.06
427.625	968.06
427.847	869.06
428.069	762.06
428.292	703.06
428.514	639.06
428.736	617.06
428.958	629.06
429.181	597.06
429.403	596.06
429.625	623.06
429.847	648.06
430.069	723.06
430.292	719.06
430.514	648.06
430.736	616.06
430.958	612.06
431.18	587.06
431.402	585.06
431.624	583.06
431.846	572.06
432.068	567.06
432.29	591.06
432.512	588.06
432.734	586.06
432.956	579.06
433.178	587.06
433.4	591.06
433.622	579.06
433.844	572.06
434.066	591.06
434.287	598.06
434.509	602.06
434.731	578.06
434.953	625.06
435.175	627.06
435.397	662.06
435.618	647.06
435.84	697.06
436.062	775.06
436.284	863.06
436.505	742.06
436.727	668.06
436.949	613.06
437.17	582.06
437.392	600.06
437.614	623.06
437.835	639.06
438.057	727.06
438.278	835.06
438.5	831.06
438.721	927.06
438.943	919.06
439.165	716.06
439.386	664.06
439.608	660.06
439.829	645.06
440.05	694.06
440.272	734.06
440.493	667.06
440.715	650.06
440.936	648.06
441.158	620.06
441.379	628.06
441.6	653.06
441.822	660.06
442.043	697.06
442.264	791.06
442.486	811.06
442.707	692.06
442.928	683.06
443.149	675.06
443.371	691.06
443.592	770.06
443.813	857.06
444.034	915.06
444.255	754.06
444.476	729.06
444.698	691.06
444.919	671.06
445.14	761.06
445.361	703.06
445.582	738.06
445.803	751.06
446.024	843.06
446.245	905.06
446.466	807.06
446.687	685.06
446.908	654.06
447.129	645.06
447.35	636.06
447.571	601.06
447.792	577.06
448.013	605.06
448.234	621.06
448.455	659.06
448.675	773.06
448.896	914.06
449.117	791.06
449.338	733.06
449.559	851.06
449.779	963.06
450	799.06
450.221	643.06
450.442	604.06
450.662	591.06
450.883	581.06
451.104	597.06
451.324	574.06
451.545	570.06
451.766	546.06
451.986	556.06
452.207	556.06
452.428	540.06
452.648	537.06
452.869	522.06
453.089	556.06
453.31	550.06
453.53	553.06
453.751	545.06
453.971	537.06
454.192	573.06
454.412	541.06
454.633	533.06
454.853	533.06
455.073	533.06
455.294	580.06
455.514	617.06
455.734	619.06
455.955	539.06
456.175	519.06
456.395	509.06
456.616	508.06
456.836	534.06
457.056	491.06
457.276	478.06
457.497	483.06
457.717	520.06
457.937	503.06
458.157	543.06
458.377	531.06
458.598	553.06
458.818	583.06
459.038	659.06
459.258	700.06
459.478	638.06
459.698	579.06
459.918	586.06
460.138	603.06
460.358	587.06
460.578	594.06
460.798	604.06
461.018	605.06
461.238	595.06
461.458	588.06
461.678	594.06
461.898	602.06
462.118	619.06
462.338	637.06
462.558	615.06
462.777	649.06
462.997	672.06
463.217	709.06
463.437	694.06
463.657	679.06
463.876	655.06
464.096	649.06
464.316	653.06
464.536	648.06
464.755	642.06
464.975	655.06
465.195	657.06
465.414	723.06
465.634	651.06
465.854	620.06
466.073	608.06
466.293	578.06
466.512	567.06
466.732	572.06
466.951	569.06
467.171	565.06
467.391	556.06
467.61	571.06
467.829	556.06
468.049	562.06
468.268	547.06
468.488	543.06
468.707	537.06
468.927	551.06
469.146	535.06
469.365	552.06
469.585	549.06
469.804	572.06
470.023	565.06
470.243	578.06
470.462	571.06
470.681	613.06
470.901	587.06
471.12	574.06
471.339	586.06
471.558	547.06
471.777	564.06
471.997	542.06
472.216	579.06
472.435	599.06
472.654	571.06
472.873	554.06
473.092	549.06
473.311	554.06
473.53	561.06
473.749	573.06
473.968	614.06
474.187	696.06
474.406	741.06
474.625	643.06
474.844	586.06
475.063	554.06
475.282	546.06
475.501	547.06
475.72	560.06
475.939	580.06
476.158	587.06
476.377	590.06
476.596	559.06
476.814	581.06
477.033	615.06
477.252	604.06
477.471	617.06
477.69	583.06
477.908	612.06
478.127	630.06
478.346	619.06
478.564	689.06
478.783	633.06
479.002	636.06
479.22	652.06
479.439	665.06
479.658	664.06
479.876	704.06
480.095	685.06
480.313	726.06
480.532	682.06
480.751	714.06
480.969	712.06
481.188	759.06
481.406	771.06
481.624	725.06
481.843	691.06
482.061	659.06
482.28	654.06
482.498	657.06
482.717	652.06
482.935	648.06
483.153	657.06
483.372	668.06
483.59	660.06
483.808	666.06
484.027	673.06
484.245	669.06
484.463	655.06
484.681	681.06
484.9	676.06
485.118	651.06
485.336	681.06
485.554	680.06
485.772	688.06
485.99	681.06
486.209	685.06
486.427	713.06
486.645	683.06
486.863	723.06
487.081	709.06
487.299	723.06
487.517	734.06
487.735	719.06
487.953	708.06
488.171	711.06
488.389	703.06
488.607	715.06
488.825	733.06
489.043	708.06
489.261	716.06
489.479	742.06
489.696	725.06
489.914	741.06
490.132	745.06
490.35	735.06
490.568	752.06
490.786	787.06
491.003	779.06
491.221	778.06
491.439	818.06
491.657	804.06
491.874	815.06
492.092	826.06
492.31	815.06
492.527	813.06
492.745	809.06
492.963	831.06
493.18	845.06
493.398	857.06
493.615	851.06
493.833	865.06
494.05	837.06
494.268	841.06
494.485	811.06
494.703	837.06
494.92	842.06
495.138	852.06
495.355	834.06
495.573	836.06
495.79	836.06
496.008	832.06
496.225	865.06
496.442	842.06
496.66	854.06
496.877	867.06
497.094	862.06
497.312	866.06
497.529	889.06
497.746	895.06
497.963	891.06
498.181	928.06
498.398	957.06
498.615	949.06
498.832	998.06
499.049	998.06
499.267	1044.06
499.484	1087.06
499.701	1121.06
499.918	1171.06
500.135	1230.06
500.352	1331.06
500.569	1372.06
500.786	1355.06
501.003	1322.06
501.22	1260.06
501.437	1242.06
501.654	1136.06
501.871	1123.06
502.088	1063.06
502.305	1007.06
502.522	965.06
502.739	975.06
502.956	934.06
503.172	924.06
503.389	888.06
503.606	865.06
503.823	895.06
504.04	875.06
504.256	863.06
504.473	860.06
504.69	847.06
504.907	874.06
505.123	845.06
505.34	809.06
505.557	835.06
505.773	815.06
505.99	804.06
506.207	797.06
506.423	799.06
506.64	777.06
506.856	781.06
507.073	790.06
507.289	789.06
507.506	754.06
507.722	763.06
507.939	811.06
508.155	778.06
508.372	751.06
508.588	744.06
508.805	755.06
509.021	749.06
509.238	751.06
509.454	762.06
509.67	759.06
509.887	740.06
510.103	727.06
510.319	733.06
510.536	808.06
510.752	1184.06
510.968	997.06
511.184	755.06
511.401	712.06
511.617	703.06
511.833	703.06
512.049	689.06
512.265	711.06
512.481	687.06
512.698	690.06
512.914	688.06
513.13	700.06
513.346	693.06
513.562	694.06
513.778	711.06
513.994	706.06
514.21	716.06
514.426	712.06
514.642	742.06
514.858	771.06
515.074	799.06
515.29	884.06
515.506	1173.06
515.721	1051.06
515.937	821.06
516.153	755.06
516.369	731.06
516.585	721.06
516.801	721.06
517.016	739.06
517.232	749.06
517.448	759.06
517.664	746.06
517.879	780.06
518.095	770.06
518.311	781.06
518.527	749.06
518.742	751.06
518.958	700.06
519.173	678.06
519.389	703.06
519.605	702.06
519.82	701.06
520.036	695.06
520.251	709.06
520.467	732.06
520.682	725.06
520.898	732.06
521.113	726.06
521.329	759.06
521.544	817.06
521.76	952.06
521.975	1424.06
522.19	1400.06
522.406	890.06
522.621	726.06
522.836	675.06
523.052	676.06
523.267	657.06
523.482	657.06
523.698	627.06
523.913	601.06
524.128	633.06
524.343	642.06
524.559	596.06
524.774	616.06
524.989	607.06
525.204	609.06
525.419	627.06
525.634	600.06
525.849	603.06
526.064	593.06
526.28	593.06
526.495	595.06
526.71	571.06
526.925	571.06
527.14	575.06
527.355	576.06
527.57	561.06
527.785	572.06
527.999	590.06
528.214	587.06
528.429	589.06
528.644	587.06
528.859	581.06
529.074	575.06
529.289	616.06
529.503	651.06
529.718	649.06
529.933	600.06
530.148	586.06
530.363	588.06
530.577	582.06
530.792	586.06
531.007	574.06
531.221	573.06
531.436	560.06
531.651	548.06
531.865	551.06
532.08	566.06
532.295	549.06
532.509	539.06
532.724	552.06
532.938	578.06
533.153	567.06
533.367	568.06
533.582	571.06
533.796	559.06
534.011	559.06
534.225	586.06
534.44	557.06
534.654	559.06
534.868	543.06
535.083	549.06
535.297	557.06
535.511	567.06
535.726	558.06
535.94	571.06
536.154	545.06
536.369	536.06
536.583	540.06
536.797	540.06
537.011	541.06
537.225	540.06
537.44	515.06
537.654	497.06
537.868	520.06
538.082	559.06
538.296	548.06
538.51	535.06
538.724	536.06
538.938	524.06
539.153	514.06
539.367	534.06
539.581	563.06
539.795	537.06
540.009	521.06
540.222	513.06
540.436	536.06
540.65	532.06
540.864	560.06
541.078	540.06
541.292	542.06
541.506	531.06
541.72	553.06
541.934	540.06
542.147	544.06
542.361	533.06
542.575	530.06
542.789	536.06
543.002	503.06
543.216	550.06
543.43	528.06
543.644	519.06
543.857	535.06
544.071	532.06
544.285	548.06
544.498	550.06
544.712	535.06
544.925	528.06
545.139	539.06
545.352	531.06
545.566	529.06
545.779	533.06
545.993	541.06
546.206	520.06
546.42	539.06
546.633	531.06
546.847	547.06
547.06	525.06
547.274	509.06
547.487	519.06
547.7	524.06
547.914	545.06
548.127	537.06
548.34	522.06
548.554	524.06
548.767	518.06
548.98	540.06
549.193	531.06
549.407	535.06
549.62	549.06
549.833	531.06
550.046	523.06
550.259	492.06
550.473	509.06
550.686	514.06
550.899	515.06
551.112	495.06
551.325	505.06
551.538	508.06
551.751	517.06
551.964	498.06
552.177	487.06
552.39	529.06
552.603	536.06
552.816	549.06
553.029	543.06
553.242	526.06
553.455	537.06
553.667	541.06
553.88	536.06
554.093	561.06
554.306	520.06
554.519	536.06
554.732	499.06
554.944	504.06
555.157	496.06
555.37	523.06
555.583	490.06
555.795	475.06
556.008	470.06
556.221	461.06
556.433	470.06
556.646	477.06
556.859	476.06
557.071	462.06
557.284	473.06
557.496	470.06
557.709	461.06
557.921	490.06
558.134	489.06
558.346	459.06
558.559	465.06
558.771	462.06
558.984	466.06
559.196	445.06
559.409	485.06
559.621	466.06
559.833	456.06
560.046	466.06
560.258	471.06
560.47	441.06
560.683	426.06
560.895	466.06
561.107	462.06
561.32	465.06
561.532	460.06
561.744	450.06
561.956	469.06
562.168	461.06
562.381	470.06
562.593	455.06
562.805	472.06
563.017	464.06
563.229	455.06
563.441	449.06
563.653	465.06
563.865	468.06
564.077	461.06
564.289	496.06
564.501	473.06
564.713	476.06
564.925	483.06
565.137	499.06
565.349	487.06
565.561	515.06
565.773	523.06
565.985	517.06
566.197	523.06
566.408	562.06
566.62	594.06
566.832	589.06
567.044	602.06
567.255	629.06
567.467	645.06
567.679	655.06
567.891	635.06
568.102	635.06
568.314	609.06
568.526	599.06
568.737	569.06
568.949	556.06
569.161	535.06
569.372	511.06
569.584	501.06
569.795	481.06
570.007	492.06
570.218	487.06
570.43	490.06
570.641	488.06
570.853	429.06
571.064	451.06
571.276	438.06
571.487	420.06
571.698	459.06
571.91	428.06
572.121	428.06
572.333	428.06
572.544	408.06
572.755	406.06
572.966	416.06
573.178	411.06
573.389	413.06
573.6	419.06
573.811	420.06
574.023	417.06
574.234	417.06
574.445	396.06
574.656	388.06
574.867	405.06
575.078	386.06
575.289	397.06
575.501	385.06
575.712	388.06
575.923	411.06
576.134	393.06
576.345	371.06
576.556	367.06
576.767	376.06
576.978	387.06
577.188	383.06
577.399	381.06
577.61	373.06
577.821	348.06
578.032	356.06
578.243	397.06
578.454	573.06
578.665	452.06
578.875	385.06
579.086	352.06
579.297	365.06
579.508	357.06
579.718	375.06
579.929	354.06
580.14	356.06
580.35	369.06
580.561	351.06
580.772	367.06
580.982	380.06
581.193	337.06
581.403	347.06
581.614	371.06
581.825	357.06
582.035	347.06
582.246	342.06
582.456	354.06
582.667	362.06
582.877	339.06
583.087	357.06
583.298	346.06
583.508	346.06
583.719	333.06
583.929	364.06
584.139	349.06
584.35	327.06
584.56	364.06
584.77	359.06
584.981	343.06
585.191	359.06
585.401	341.06
585.611	331.06
585.821	348.06
586.032	326.06
586.242	349.06
586.452	331.06
586.662	347.06
586.872	335.06
587.082	354.06
587.292	340.06
587.502	345.06
587.713	347.06
587.923	350.06
588.133	331.06
588.343	348.06
588.553	342.06
588.762	329.06
588.972	332.06
589.182	348.06
589.392	341.06
589.602	332.06
589.812	339.06
590.022	343.06
590.232	331.06
590.441	350.06
590.651	327.06
590.861	336.06
591.071	331.06
591.281	346.06
591.49	348.06
591.7	351.06
591.91	351.06
592.119	362.06
592.329	356.06
592.539	372.06
592.748	373.06
592.958	371.06
593.167	373.06
593.377	377.06
593.587	377.06
593.796	402.06
594.006	387.06
594.215	362.06
594.424	364.06
594.634	354.06
594.843	369.06
595.053	375.06
595.262	327.06
595.472	339.06
595.681	349.06
595.89	347.06
596.1	348.06
596.309	325.06
596.518	340.06
596.727	319.06
596.937	326.06
597.146	319.06
597.355	322.06
597.564	303.06
597.774	317.06
597.983	303.06
598.192	308.06
598.401	318.06
598.61	307.06
598.819	314.06
599.028	306.06
599.237	303.06
599.446	299.06
599.655	290.06
599.864	288.06
600.073	304.06
600.282	303.06
600.491	300.06
600.7	299.06
600.909	289.06
601.118	297.06
601.327	288.06
601.536	316.06
601.745	290.06
601.953	292.06
602.162	297.06
602.371	307.06
602.58	285.06
602.789	291.06
602.997	296.06
603.206	299.06
603.415	271.06
603.623	289.06
603.832	289.06
604.041	288.06
604.249	276.06
604.458	300.06
604.666	282.06
604.875	283.06
605.084	284.06
605.292	276.06
605.501	292.06
605.709	292.06
605.918	278.06
606.126	279.06
606.334	282.06
606.543	294.06
606.751	287.06
606.96	284.06
607.168	277.06
607.376	281.06
607.585	292.06
607.793	292.06
608.001	305.06
608.21	276.06
608.418	275.06
608.626	291.06
608.834	297.06
609.043	299.06
609.251	290.06
609.459	286.06
609.667	287.06
609.875	280.06
610.083	283.06
610.291	285.06
610.499	282.06
610.707	277.06
610.916	282.06
611.124	272.06
611.332	285.06
611.54	297.06
611.748	276.06
611.955	264.06
612.163	280.06
612.371	267.06
612.579	290.06
612.787	263.06
612.995	273.06
613.203	291.06
613.411	287.06
613.618	289.06
613.826	278.06
614.034	277.06
614.242	282.06
614.449	261.06
614.657	267.06
614.865	265.06
615.072	268.06
615.28	256.06
615.488	276.06
615.695	273.06
615.903	282.06
616.111	280.06
616.318	273.06
616.526	275.06
616.733	270.06
616.941	264.06
617.148	268.06
617.356	258.06
617.563	279.06
617.771	250.06
617.978	283.06
618.185	286.06
618.393	271.06
618.6	246.06
618.807	262.06
619.015	280.06
619.222	259.06
619.429	265.06
619.637	247.06
619.844	245.06
620.051	258.06
620.258	267.06
620.466	262.06
620.673	244.06
620.88	265.06
621.087	257.06
621.294	239.06
621.501	249.06
621.708	265.06
621.915	272.06
622.122	253.06
622.329	269.06
622.536	262.06
622.743	227.06
622.95	267.06
623.157	259.06
623.364	257.06
623.571	259.06
623.778	246.06
623.985	254.06
624.192	243.06
624.399	248.06
624.606	248.06
624.812	246.06
625.019	236.06
625.226	245.06
625.433	247.06
625.639	233.06
625.846	240.06
626.053	245.06
626.259	247.06
626.466	233.06
626.673	228.06
626.879	227.06
627.086	242.06
627.293	235.06
627.499	234.06
627.706	255.06
627.912	244.06
628.119	232.06
628.325	234.06
628.532	230.06
628.738	235.06
628.945	227.06
629.151	226.06
629.357	212.06
629.564	222.06
629.77	206.06
629.976	209.06
630.183	231.06
630.389	225.06
630.595	227.06
630.802	230.06
631.008	246.06
631.214	216.06
631.42	224.06
631.627	230.06
631.833	227.06
632.039	208.06
632.245	188.06
632.451	226.06
632.657	209.06
632.863	197.06
633.069	231.06
633.275	215.06
633.481	229.06
633.688	195.06
633.893	213.06
634.099	225.06
634.305	199.06
634.511	215.06
634.717	207.06
634.923	195.06
635.129	209.06
635.335	211.06
635.541	199.06
635.747	199.06
635.952	199.06
636.158	199.06
636.364	196.06
636.57	209.06
636.775	194.06
636.981	199.06
637.187	188.06
637.392	196.06
637.598	195.06
637.804	204.06
638.009	217.06
638.215	192.06
638.421	187.06
638.626	201.06
638.832	187.06
639.037	208.06
639.243	195.06
639.448	193.06
639.654	193.06
639.859	185.06
640.065	185.06
640.27	206.06
640.475	199.06
640.681	197.06
640.886	199.06
641.091	207.06
641.297	198.06
641.502	188.06
641.707	192.06
641.913	186.06
642.118	185.06
642.323	176.06
642.528	181.06
642.733	199.06
642.939	197.06
643.144	162.06
643.349	185.06
643.554	166.06
643.759	164.06
643.964	179.06
644.169	175.06
644.374	184.06
644.579	199.06
644.784	188.06
644.989	194.06
645.194	185.06
645.399	184.06
645.604	179.06
645.809	183.06
646.014	184.06
646.219	195.06
646.423	169.06
646.628	201.06
646.833	195.06
647.038	173.06
647.243	184.06
647.447	199.06
647.652	177.06
647.857	193.06
648.062	187.06
648.266	200.06
648.471	195.06
648.676	199.06
648.88	191.06
649.085	210.06
649.289	191.06
649.494	181.06
649.698	204.06
649.903	195.06
650.107	181.06
650.312	186.06
650.516	172.06
650.721	178.06
650.925	168.06
651.13	168.06
651.334	161.06
651.539	168.06
651.743	160.06
651.947	155.06
652.152	168.06
652.356	161.06
652.56	151.06
652.764	149.06
652.969	147.06
653.173	161.06
653.377	137.06
653.581	149.06
653.785	154.06
653.99	145.06
654.194	140.06
654.398	162.06
654.602	156.06
654.806	151.06
655.01	136.06
655.214	147.06
655.418	143.06
655.622	127.06
655.826	142.06
656.03	153.06
656.234	129.06
656.438	135.06
656.642	132.06
656.846	147.06
657.049	147.06
657.253	139.06
657.457	129.06
657.661	112.06
657.865	116.06
658.068	121.06
658.272	120.06
658.476	123.06
658.68	117.06
658.883	114.06
659.087	120.06
659.291	103.06
659.494	115.06
659.698	93.06
659.901	120.06
660.105	112.06
660.309	111.06
660.512	96.06
660.716	84.06
660.919	95.06
661.123	107.06
661.326	96.06
661.53	90.06
661.733	97.06
661.936	91.06
662.14	95.06
662.343	89.06
662.546	95.06
662.75	68.06
662.953	83.06
663.156	97.06
663.36	75.06
663.563	78.06
663.766	85.06
663.969	100.06
664.173	87.06
664.376	72.06
664.579	79.06
664.782	84.06
664.985	98.06
665.188	85.06
665.391	84.06
665.594	73.06
665.797	83.06
666	74.06
666.203	73.06
666.406	88.06
666.609	87.06
666.812	85.06
667.015	82.06
667.218	94.06
667.421	76.06
667.624	83.06
667.827	84.06
668.03	76.06
668.232	92.06
668.435	87.06
668.638	77.06
668.841	72.06
669.043	85.06
669.246	70.06
669.449	75.06
669.651	87.06
669.854	72.06
670.057	82.06
670.259	80.06
670.462	80.06
670.665	97.06
670.867	70.06
671.07	74.06
671.272	83.06
671.475	81.06
671.677	71.06
671.88	71.06
672.082	77.06
672.284	79.06
672.487	83.06
672.689	77.06
672.892	69.06
