Data from 1974.PennyLincolnUp.Lamp.En5.5.200Scan.071719.P1.Changed Mount._HRD10591_15-51-24-856.txt Node
Date: Thu Jul 18 15:51:24 EDT 2019
User: cochatt
Spectrometer: HR+D1059
Trigger mode: 1
Integration Time (sec): 1.000000E-1
Scans to average: 1
Electric dark correction enabled: true
Nonlinearity correction enabled: false
Boxcar width: 0
XAxis mode: Wavelengths
Number of Pixels in Spectrum: 2048
>>>>>Begin Spectral Data<<<<<
223.165	-28.19
223.4	-28.19
223.635	-28.19
223.869	-19.19
224.104	-17.19
224.338	-14.19
224.573	-27.19
224.808	-13.19
225.042	-7.19
225.277	4.81
225.511	-5.19
225.746	0.81
225.98	16.81
226.215	8.81
226.449	14.81
226.683	21.81
226.918	29.81
227.152	33.81
227.387	30.81
227.621	28.81
227.856	24.81
228.09	47.81
228.324	53.81
228.559	60.81
228.793	55.81
229.027	93.81
229.262	97.81
229.496	120.81
229.73	124.81
229.964	139.81
230.199	129.81
230.433	88.81
230.667	96.81
230.901	107.81
231.136	104.81
231.37	117.81
231.604	122.81
231.838	108.81
232.072	115.81
232.306	112.81
232.541	114.81
232.775	124.81
233.009	124.81
233.243	98.81
233.477	119.81
233.711	107.81
233.945	121.81
234.179	125.81
234.413	113.81
234.647	122.81
234.881	117.81
235.115	123.81
235.349	127.81
235.583	116.81
235.817	119.81
236.051	124.81
236.285	128.81
236.519	115.81
236.753	110.81
236.987	132.81
237.221	156.81
237.455	216.81
237.689	157.81
237.922	137.81
238.156	125.81
238.39	140.81
238.624	125.81
238.858	140.81
239.091	121.81
239.325	130.81
239.559	119.81
239.793	127.81
240.027	126.81
240.26	133.81
240.494	141.81
240.728	150.81
240.961	135.81
241.195	130.81
241.429	132.81
241.662	130.81
241.896	140.81
242.13	138.81
242.363	130.81
242.597	130.81
242.83	131.81
243.064	131.81
243.298	142.81
243.531	130.81
243.765	134.81
243.998	143.81
244.232	126.81
244.465	139.81
244.699	162.81
244.932	149.81
245.166	136.81
245.399	144.81
245.633	141.81
245.866	165.81
246.099	144.81
246.333	130.81
246.566	139.81
246.8	157.81
247.033	172.81
247.266	156.81
247.5	151.81
247.733	172.81
247.966	173.81
248.2	174.81
248.433	175.81
248.666	176.81
248.899	179.81
249.133	166.81
249.366	186.81
249.599	182.81
249.832	180.81
250.066	208.81
250.299	155.81
250.532	164.81
250.765	195.81
250.998	208.81
251.231	201.81
251.465	188.81
251.698	189.81
251.931	195.81
252.164	187.81
252.397	180.81
252.63	185.81
252.863	189.81
253.096	211.81
253.329	230.81
253.562	211.81
253.795	217.81
254.028	199.81
254.261	193.81
254.494	204.81
254.727	237.81
254.96	248.81
255.193	248.81
255.426	238.81
255.659	213.81
255.892	216.81
256.124	218.81
256.357	216.81
256.59	230.81
256.823	223.81
257.056	204.81
257.289	205.81
257.521	214.81
257.754	204.81
257.987	214.81
258.22	206.81
258.452	198.81
258.685	199.81
258.918	191.81
259.151	217.81
259.383	218.81
259.616	227.81
259.849	222.81
260.081	240.81
260.314	242.81
260.547	240.81
260.779	235.81
261.012	228.81
261.244	218.81
261.477	220.81
261.71	206.81
261.942	215.81
262.175	209.81
262.407	210.81
262.64	206.81
262.872	209.81
263.105	215.81
263.337	224.81
263.57	225.81
263.802	193.81
264.035	208.81
264.267	219.81
264.499	225.81
264.732	220.81
264.964	205.81
265.197	216.81
265.429	216.81
265.661	223.81
265.894	220.81
266.126	220.81
266.358	216.81
266.591	227.81
266.823	224.81
267.055	233.81
267.287	227.81
267.52	218.81
267.752	231.81
267.984	227.81
268.216	234.81
268.448	226.81
268.681	235.81
268.913	222.81
269.145	246.81
269.377	263.81
269.609	268.81
269.841	245.81
270.073	273.81
270.306	267.81
270.538	291.81
270.77	299.81
271.002	283.81
271.234	275.81
271.466	270.81
271.698	294.81
271.93	290.81
272.162	285.81
272.394	299.81
272.626	301.81
272.858	263.81
273.09	275.81
273.322	267.81
273.553	247.81
273.785	250.81
274.017	255.81
274.249	256.81
274.481	264.81
274.713	234.81
274.945	248.81
275.176	276.81
275.408	256.81
275.64	246.81
275.872	243.81
276.104	255.81
276.335	252.81
276.567	266.81
276.799	266.81
277.031	276.81
277.262	309.81
277.494	292.81
277.726	297.81
277.957	280.81
278.189	288.81
278.421	265.81
278.652	254.81
278.884	269.81
279.115	257.81
279.347	255.81
279.579	280.81
279.81	277.81
280.042	282.81
280.273	274.81
280.505	256.81
280.736	264.81
280.968	245.81
281.199	278.81
281.431	261.81
281.662	257.81
281.894	265.81
282.125	283.81
282.356	264.81
282.588	291.81
282.819	280.81
283.051	272.81
283.282	275.81
283.513	271.81
283.745	289.81
283.976	257.81
284.207	273.81
284.439	301.81
284.67	287.81
284.901	262.81
285.132	292.81
285.364	286.81
285.595	276.81
285.826	273.81
286.057	283.81
286.288	266.81
286.52	292.81
286.751	287.81
286.982	282.81
287.213	274.81
287.444	269.81
287.675	287.81
287.906	271.81
288.138	296.81
288.369	298.81
288.6	307.81
288.831	309.81
289.062	311.81
289.293	275.81
289.524	288.81
289.755	301.81
289.986	291.81
290.217	292.81
290.448	282.81
290.679	288.81
290.91	281.81
291.141	291.81
291.371	295.81
291.602	301.81
291.833	288.81
292.064	299.81
292.295	288.81
292.526	300.81
292.757	297.81
292.987	300.81
293.218	282.81
293.449	285.81
293.68	309.81
293.91	295.81
294.141	291.81
294.372	273.81
294.603	290.81
294.833	294.81
295.064	289.81
295.295	310.81
295.525	278.81
295.756	310.81
295.987	297.81
296.217	309.81
296.448	305.81
296.679	306.81
296.909	293.81
297.14	290.81
297.37	299.81
297.601	303.81
297.831	316.81
298.062	308.81
298.292	327.81
298.523	312.81
298.753	327.81
298.984	305.81
299.214	314.81
299.445	306.81
299.675	325.81
299.905	307.81
300.136	313.81
300.366	315.81
300.597	317.81
300.827	331.81
301.057	306.81
301.288	332.81
301.518	333.81
301.748	316.81
301.979	317.81
302.209	321.81
302.439	335.81
302.669	330.81
302.9	336.81
303.13	341.81
303.36	322.81
303.59	324.81
303.82	345.81
304.051	340.81
304.281	301.81
304.511	336.81
304.741	329.81
304.971	328.81
305.201	297.81
305.431	315.81
305.661	330.81
305.891	323.81
306.121	322.81
306.352	330.81
306.582	316.81
306.812	326.81
307.042	330.81
307.272	347.81
307.502	325.81
307.731	336.81
307.961	342.81
308.191	329.81
308.421	340.81
308.651	331.81
308.881	334.81
309.111	328.81
309.341	326.81
309.571	354.81
309.8	335.81
310.03	357.81
310.26	350.81
310.49	340.81
310.72	349.81
310.949	360.81
311.179	372.81
311.409	350.81
311.639	352.81
311.868	350.81
312.098	351.81
312.328	355.81
312.557	345.81
312.787	372.81
313.017	390.81
313.246	373.81
313.476	376.81
313.706	370.81
313.935	370.81
314.165	358.81
314.394	352.81
314.624	373.81
314.853	370.81
315.083	376.81
315.312	378.81
315.542	355.81
315.771	358.81
316.001	351.81
316.23	343.81
316.46	365.81
316.689	352.81
316.919	370.81
317.148	374.81
317.377	372.81
317.607	363.81
317.836	378.81
318.065	386.81
318.295	364.81
318.524	347.81
318.753	354.81
318.983	381.81
319.212	363.81
319.441	366.81
319.67	364.81
319.9	359.81
320.129	376.81
320.358	347.81
320.587	352.81
320.816	375.81
321.046	394.81
321.275	392.81
321.504	385.81
321.733	397.81
321.962	389.81
322.191	407.81
322.42	398.81
322.649	388.81
322.878	424.81
323.108	397.81
323.337	432.81
323.566	433.81
323.795	469.81
324.024	451.81
324.253	545.81
324.482	697.81
324.71	1034.81
324.939	1574.81
325.168	1400.81
325.397	708.81
325.626	504.81
325.855	440.81
326.084	427.81
326.313	441.81
326.542	436.81
326.77	474.81
326.999	508.81
327.228	636.81
327.457	973.81
327.686	1240.81
327.914	810.81
328.143	566.81
328.372	508.81
328.6	502.81
328.829	462.81
329.058	476.81
329.287	487.81
329.515	469.81
329.744	460.81
329.972	451.81
330.201	474.81
330.43	476.81
330.658	486.81
330.887	502.81
331.115	486.81
331.344	462.81
331.572	430.81
331.801	457.81
332.03	448.81
332.258	454.81
332.486	433.81
332.715	451.81
332.943	441.81
333.172	451.81
333.4	429.81
333.629	471.81
333.857	467.81
334.085	473.81
334.314	480.81
334.542	482.81
334.771	483.81
334.999	470.81
335.227	461.81
335.455	455.81
335.684	456.81
335.912	450.81
336.14	457.81
336.369	439.81
336.597	470.81
336.825	459.81
337.053	432.81
337.281	434.81
337.51	443.81
337.738	411.81
337.966	436.81
338.194	424.81
338.422	432.81
338.65	431.81
338.878	426.81
339.106	432.81
339.334	436.81
339.562	425.81
339.79	430.81
340.018	432.81
340.246	407.81
340.474	452.81
340.702	397.81
340.93	429.81
341.158	419.81
341.386	415.81
341.614	436.81
341.842	395.81
342.07	424.81
342.298	417.81
342.526	415.81
342.754	425.81
342.981	418.81
343.209	404.81
343.437	419.81
343.665	434.81
343.893	455.81
344.12	431.81
344.348	457.81
344.576	449.81
344.804	425.81
345.031	428.81
345.259	442.81
345.487	415.81
345.714	418.81
345.942	418.81
346.17	412.81
346.397	408.81
346.625	418.81
346.853	403.81
347.08	391.81
347.308	409.81
347.535	395.81
347.763	424.81
347.99	410.81
348.218	410.81
348.445	410.81
348.673	412.81
348.9	415.81
349.128	404.81
349.355	403.81
349.583	394.81
349.81	396.81
350.037	422.81
350.265	414.81
350.492	397.81
350.72	396.81
350.947	394.81
351.174	405.81
351.402	401.81
351.629	409.81
351.856	435.81
352.083	419.81
352.311	392.81
352.538	424.81
352.765	434.81
352.992	396.81
353.22	400.81
353.447	402.81
353.674	419.81
353.901	413.81
354.128	382.81
354.355	381.81
354.583	387.81
354.81	382.81
355.037	392.81
355.264	387.81
355.491	414.81
355.718	382.81
355.945	372.81
356.172	385.81
356.399	386.81
356.626	380.81
356.853	402.81
357.08	381.81
357.307	373.81
357.534	398.81
357.761	390.81
357.988	377.81
358.215	380.81
358.441	379.81
358.668	388.81
358.895	402.81
359.122	416.81
359.349	392.81
359.576	407.81
359.802	420.81
360.029	426.81
360.256	441.81
360.483	449.81
360.709	408.81
360.936	428.81
361.163	418.81
361.39	413.81
361.616	399.81
361.843	406.81
362.07	419.81
362.296	414.81
362.523	413.81
362.749	402.81
362.976	405.81
363.203	424.81
363.429	423.81
363.656	416.81
363.882	387.81
364.109	383.81
364.335	394.81
364.562	392.81
364.788	409.81
365.015	405.81
365.241	393.81
365.468	412.81
365.694	415.81
365.92	413.81
366.147	426.81
366.373	390.81
366.599	403.81
366.826	396.81
367.052	389.81
367.278	401.81
367.505	401.81
367.731	408.81
367.957	395.81
368.184	416.81
368.41	429.81
368.636	417.81
368.862	420.81
369.089	413.81
369.315	404.81
369.541	396.81
369.767	426.81
369.993	387.81
370.219	403.81
370.445	422.81
370.672	396.81
370.898	420.81
371.124	428.81
371.35	419.81
371.576	409.81
371.802	420.81
372.028	416.81
372.254	422.81
372.48	426.81
372.706	419.81
372.932	413.81
373.158	421.81
373.384	414.81
373.61	435.81
373.835	416.81
374.061	434.81
374.287	414.81
374.513	436.81
374.739	425.81
374.965	420.81
375.191	437.81
375.416	451.81
375.642	434.81
375.868	423.81
376.094	416.81
376.319	404.81
376.545	435.81
376.771	407.81
376.997	423.81
377.222	402.81
377.448	441.81
377.674	436.81
377.899	398.81
378.125	389.81
378.35	425.81
378.576	419.81
378.802	418.81
379.027	426.81
379.253	392.81
379.478	417.81
379.704	418.81
379.929	405.81
380.155	417.81
380.38	401.81
380.606	447.81
380.831	416.81
381.057	429.81
381.282	424.81
381.507	428.81
381.733	409.81
381.958	432.81
382.184	437.81
382.409	402.81
382.634	438.81
382.86	437.81
383.085	430.81
383.31	439.81
383.535	460.81
383.761	437.81
383.986	440.81
384.211	450.81
384.436	461.81
384.662	451.81
384.887	464.81
385.112	449.81
385.337	452.81
385.562	472.81
385.787	474.81
386.013	471.81
386.238	478.81
386.463	483.81
386.688	472.81
386.913	482.81
387.138	473.81
387.363	477.81
387.588	461.81
387.813	441.81
388.038	470.81
388.263	475.81
388.488	445.81
388.713	471.81
388.938	459.81
389.163	487.81
389.387	492.81
389.612	457.81
389.837	443.81
390.062	463.81
390.287	471.81
390.512	463.81
390.736	471.81
390.961	458.81
391.186	478.81
391.411	475.81
391.636	481.81
391.86	503.81
392.085	498.81
392.31	483.81
392.534	490.81
392.759	494.81
392.984	482.81
393.208	486.81
393.433	493.81
393.658	491.81
393.882	481.81
394.107	472.81
394.331	482.81
394.556	448.81
394.78	469.81
395.005	488.81
395.229	472.81
395.454	485.81
395.678	514.81
395.903	508.81
396.127	526.81
396.352	521.81
396.576	506.81
396.801	497.81
397.025	507.81
397.249	501.81
397.474	497.81
397.698	504.81
397.922	530.81
398.147	523.81
398.371	528.81
398.595	523.81
398.82	542.81
399.044	562.81
399.268	581.81
399.492	607.81
399.717	670.81
399.941	676.81
400.165	682.81
400.389	694.81
400.613	629.81
400.837	579.81
401.062	561.81
401.286	537.81
401.51	560.81
401.734	551.81
401.958	549.81
402.182	557.81
402.406	564.81
402.63	564.81
402.854	550.81
403.078	557.81
403.302	577.81
403.526	565.81
403.75	597.81
403.974	586.81
404.198	565.81
404.422	570.81
404.645	585.81
404.869	572.81
405.093	628.81
405.317	649.81
405.541	652.81
405.765	604.81
405.988	599.81
406.212	585.81
406.436	590.81
406.66	618.81
406.883	605.81
407.107	620.81
407.331	686.81
407.555	731.81
407.778	727.81
408.002	676.81
408.226	632.81
408.449	616.81
408.673	608.81
408.896	637.81
409.12	668.81
409.344	636.81
409.567	593.81
409.791	582.81
410.014	591.81
410.238	584.81
410.461	553.81
410.685	590.81
410.908	579.81
411.132	621.81
411.355	654.81
411.578	630.81
411.802	579.81
412.025	586.81
412.249	571.81
412.472	610.81
412.695	639.81
412.919	624.81
413.142	581.81
413.365	562.81
413.589	552.81
413.812	549.81
414.035	553.81
414.258	551.81
414.482	528.81
414.705	541.81
414.928	530.81
415.151	552.81
415.374	548.81
415.597	552.81
415.821	533.81
416.044	530.81
416.267	515.81
416.49	548.81
416.713	521.81
416.936	549.81
417.159	521.81
417.382	542.81
417.605	532.81
417.828	547.81
418.051	553.81
418.274	557.81
418.497	545.81
418.72	544.81
418.943	549.81
419.166	570.81
419.389	611.81
419.611	588.81
419.834	577.81
420.057	591.81
420.28	568.81
420.503	569.81
420.726	551.81
420.948	568.81
421.171	603.81
421.394	640.81
421.617	581.81
421.839	564.81
422.062	566.81
422.285	582.81
422.507	625.81
422.73	705.81
422.953	659.81
423.175	608.81
423.398	581.81
423.621	582.81
423.843	602.81
424.066	605.81
424.288	583.81
424.511	610.81
424.733	653.81
424.956	747.81
425.178	696.81
425.401	711.81
425.623	724.81
425.846	628.81
426.068	593.81
426.291	594.81
426.513	603.81
426.735	586.81
426.958	632.81
427.18	709.81
427.402	849.81
427.625	920.81
427.847	758.81
428.069	677.81
428.292	603.81
428.514	605.81
428.736	556.81
428.958	537.81
429.181	550.81
429.403	548.81
429.625	568.81
429.847	587.81
430.069	659.81
430.292	644.81
430.514	555.81
430.736	529.81
430.958	523.81
431.18	528.81
431.402	544.81
431.624	514.81
431.846	519.81
432.068	505.81
432.29	498.81
432.512	522.81
432.734	527.81
432.956	516.81
433.178	530.81
433.4	553.81
433.622	522.81
433.844	525.81
434.066	525.81
434.287	524.81
434.509	509.81
434.731	544.81
434.953	530.81
435.175	561.81
435.397	589.81
435.618	616.81
435.84	606.81
436.062	698.81
436.284	765.81
436.505	645.81
436.727	584.81
436.949	573.81
437.17	528.81
437.392	549.81
437.614	534.81
437.835	573.81
438.057	634.81
438.278	772.81
438.5	757.81
438.721	855.81
438.943	786.81
439.165	642.81
439.386	595.81
439.608	572.81
439.829	577.81
440.05	600.81
440.272	644.81
440.493	616.81
440.715	558.81
440.936	549.81
441.158	534.81
441.379	554.81
441.6	590.81
441.822	603.81
442.043	630.81
442.264	729.81
442.486	759.81
442.707	658.81
442.928	608.81
443.149	613.81
443.371	610.81
443.592	674.81
443.813	736.81
444.034	855.81
444.255	691.81
444.476	621.81
444.698	601.81
444.919	609.81
445.14	729.81
445.361	670.81
445.582	661.81
445.803	674.81
446.024	749.81
446.245	793.81
446.466	701.81
446.687	637.81
446.908	576.81
447.129	542.81
447.35	553.81
447.571	534.81
447.792	544.81
448.013	546.81
448.234	553.81
448.455	587.81
448.675	708.81
448.896	854.81
449.117	712.81
449.338	636.81
449.559	746.81
449.779	900.81
450	698.81
450.221	566.81
450.442	546.81
450.662	538.81
450.883	533.81
451.104	514.81
451.324	516.81
451.545	478.81
451.766	474.81
451.986	483.81
452.207	458.81
452.428	482.81
452.648	481.81
452.869	477.81
453.089	471.81
453.31	508.81
453.53	481.81
453.751	464.81
453.971	469.81
454.192	496.81
454.412	468.81
454.633	468.81
454.853	499.81
455.073	477.81
455.294	494.81
455.514	568.81
455.734	538.81
455.955	487.81
456.175	484.81
456.395	462.81
456.616	453.81
456.836	462.81
457.056	456.81
457.276	466.81
457.497	435.81
457.717	472.81
457.937	476.81
458.157	461.81
458.377	461.81
458.598	498.81
458.818	525.81
459.038	597.81
459.258	628.81
459.478	538.81
459.698	541.81
459.918	515.81
460.138	544.81
460.358	554.81
460.578	548.81
460.798	533.81
461.018	566.81
461.238	533.81
461.458	547.81
461.678	540.81
461.898	552.81
462.118	551.81
462.338	555.81
462.558	571.81
462.777	568.81
462.997	606.81
463.217	628.81
463.437	630.81
463.657	617.81
463.876	568.81
464.096	583.81
464.316	571.81
464.536	595.81
464.755	583.81
464.975	576.81
465.195	586.81
465.414	621.81
465.634	586.81
465.854	549.81
466.073	523.81
466.293	542.81
466.512	506.81
466.732	504.81
466.951	506.81
467.171	514.81
467.391	478.81
467.61	506.81
467.829	492.81
468.049	508.81
468.268	482.81
468.488	510.81
468.707	489.81
468.927	476.81
469.146	482.81
469.365	490.81
469.585	498.81
469.804	509.81
470.023	510.81
470.243	502.81
470.462	515.81
470.681	515.81
470.901	515.81
471.12	502.81
471.339	504.81
471.558	512.81
471.777	506.81
471.997	509.81
472.216	484.81
472.435	508.81
472.654	516.81
472.873	506.81
473.092	521.81
473.311	490.81
473.53	496.81
473.749	506.81
473.968	525.81
474.187	630.81
474.406	644.81
474.625	541.81
474.844	489.81
475.063	504.81
475.282	519.81
475.501	508.81
475.72	529.81
475.939	533.81
476.158	538.81
476.377	516.81
476.596	542.81
476.814	539.81
477.033	535.81
477.252	550.81
477.471	532.81
477.69	546.81
477.908	547.81
478.127	549.81
478.346	577.81
478.564	568.81
478.783	585.81
479.002	576.81
479.22	575.81
479.439	584.81
479.658	588.81
479.876	602.81
480.095	600.81
480.313	641.81
480.532	632.81
480.751	634.81
480.969	626.81
481.188	624.81
481.406	650.81
481.624	609.81
481.843	606.81
482.061	609.81
482.28	591.81
482.498	574.81
482.717	603.81
482.935	594.81
483.153	593.81
483.372	608.81
483.59	598.81
483.808	569.81
484.027	581.81
484.245	590.81
484.463	601.81
484.681	599.81
484.9	601.81
485.118	603.81
485.336	597.81
485.554	611.81
485.772	609.81
485.99	632.81
486.209	618.81
486.427	622.81
486.645	622.81
486.863	633.81
487.081	634.81
487.299	676.81
487.517	626.81
487.735	619.81
487.953	624.81
488.171	648.81
488.389	650.81
488.607	637.81
488.825	635.81
489.043	628.81
489.261	630.81
489.479	651.81
489.696	652.81
489.914	641.81
490.132	641.81
490.35	681.81
490.568	682.81
490.786	667.81
491.003	697.81
491.221	710.81
491.439	690.81
491.657	724.81
491.874	743.81
492.092	736.81
492.31	742.81
492.527	752.81
492.745	749.81
492.963	707.81
493.18	762.81
493.398	752.81
493.615	750.81
493.833	749.81
494.05	721.81
494.268	772.81
494.485	733.81
494.703	740.81
494.92	756.81
495.138	739.81
495.355	763.81
495.573	751.81
495.79	760.81
496.008	758.81
496.225	761.81
496.442	757.81
496.66	797.81
496.877	773.81
497.094	758.81
497.312	787.81
497.529	790.81
497.746	817.81
497.963	788.81
498.181	842.81
498.398	845.81
498.615	818.81
498.832	857.81
499.049	912.81
499.267	924.81
499.484	955.81
499.701	1004.81
499.918	1058.81
500.135	1122.81
500.352	1184.81
500.569	1192.81
500.786	1228.81
501.003	1196.81
501.22	1123.81
501.437	1097.81
501.654	1062.81
501.871	1003.81
502.088	972.81
502.305	908.81
502.522	896.81
502.739	857.81
502.956	791.81
503.172	817.81
503.389	818.81
503.606	809.81
503.823	774.81
504.04	779.81
504.256	747.81
504.473	746.81
504.69	768.81
504.907	776.81
505.123	762.81
505.34	746.81
505.557	718.81
505.773	721.81
505.99	726.81
506.207	716.81
506.423	686.81
506.64	685.81
506.856	708.81
507.073	684.81
507.289	685.81
507.506	679.81
507.722	674.81
507.939	686.81
508.155	692.81
508.372	688.81
508.588	652.81
508.805	654.81
509.021	641.81
509.238	665.81
509.454	671.81
509.67	675.81
509.887	655.81
510.103	621.81
510.319	626.81
510.536	674.81
510.752	943.81
510.968	816.81
511.184	627.81
511.401	608.81
511.617	636.81
511.833	614.81
512.049	600.81
512.265	626.81
512.481	609.81
512.698	618.81
512.914	628.81
513.13	608.81
513.346	618.81
513.562	592.81
513.778	595.81
513.994	614.81
514.21	610.81
514.426	644.81
514.642	650.81
514.858	646.81
515.074	681.81
515.29	724.81
515.506	939.81
515.721	857.81
515.937	694.81
516.153	648.81
516.369	641.81
516.585	654.81
516.801	635.81
517.016	660.81
517.232	652.81
517.448	669.81
517.664	673.81
517.879	672.81
518.095	682.81
518.311	673.81
518.527	659.81
518.742	660.81
518.958	634.81
519.173	644.81
519.389	625.81
519.605	620.81
519.82	622.81
520.036	634.81
520.251	612.81
520.467	640.81
520.682	634.81
520.898	642.81
521.113	641.81
521.329	654.81
521.544	682.81
521.76	774.81
521.975	1103.81
522.19	1064.81
522.406	741.81
522.621	626.81
522.836	593.81
523.052	578.81
523.267	570.81
523.482	575.81
523.698	546.81
523.913	563.81
524.128	592.81
524.343	547.81
524.559	539.81
524.774	551.81
524.989	564.81
525.204	526.81
525.419	524.81
525.634	529.81
525.849	527.81
526.064	528.81
526.28	526.81
526.495	517.81
526.71	527.81
526.925	538.81
527.14	535.81
527.355	534.81
527.57	516.81
527.785	515.81
527.999	535.81
528.214	517.81
528.429	518.81
528.644	522.81
528.859	512.81
529.074	517.81
529.289	523.81
529.503	557.81
529.718	573.81
529.933	552.81
530.148	510.81
530.363	524.81
530.577	529.81
530.792	506.81
531.007	510.81
531.221	518.81
531.436	520.81
531.651	508.81
531.865	502.81
532.08	500.81
532.295	501.81
532.509	481.81
532.724	511.81
532.938	520.81
533.153	489.81
533.367	514.81
533.582	516.81
533.796	460.81
534.011	480.81
534.225	512.81
534.44	499.81
534.654	490.81
534.868	488.81
535.083	481.81
535.297	495.81
535.511	489.81
535.726	478.81
535.94	491.81
536.154	482.81
536.369	508.81
536.583	510.81
536.797	508.81
537.011	481.81
537.225	486.81
537.44	481.81
537.654	480.81
537.868	471.81
538.082	487.81
538.296	484.81
538.51	484.81
538.724	489.81
538.938	513.81
539.153	487.81
539.367	466.81
539.581	484.81
539.795	455.81
540.009	482.81
540.222	459.81
540.436	506.81
540.65	508.81
540.864	475.81
541.078	480.81
541.292	481.81
541.506	495.81
541.72	489.81
541.934	475.81
542.147	492.81
542.361	479.81
542.575	466.81
542.789	477.81
543.002	467.81
543.216	458.81
543.43	462.81
543.644	485.81
543.857	487.81
544.071	481.81
544.285	485.81
544.498	487.81
544.712	493.81
544.925	501.81
545.139	527.81
545.352	491.81
545.566	485.81
545.779	473.81
545.993	491.81
546.206	484.81
546.42	503.81
546.633	493.81
546.847	481.81
547.06	476.81
547.274	490.81
547.487	467.81
547.7	481.81
547.914	479.81
548.127	474.81
548.34	478.81
548.554	476.81
548.767	480.81
548.98	473.81
549.193	445.81
549.407	484.81
549.62	470.81
549.833	473.81
550.046	474.81
550.259	471.81
550.473	481.81
550.686	482.81
550.899	457.81
551.112	434.81
551.325	472.81
551.538	445.81
551.751	474.81
551.964	457.81
552.177	473.81
552.39	456.81
552.603	481.81
552.816	507.81
553.029	479.81
553.242	473.81
553.455	485.81
553.667	502.81
553.88	501.81
554.093	474.81
554.306	485.81
554.519	466.81
554.732	460.81
554.944	456.81
555.157	443.81
555.37	446.81
555.583	439.81
555.795	443.81
556.008	448.81
556.221	425.81
556.433	434.81
556.646	456.81
556.859	446.81
557.071	426.81
557.284	420.81
557.496	446.81
557.709	445.81
557.921	432.81
558.134	426.81
558.346	426.81
558.559	423.81
558.771	405.81
558.984	427.81
559.196	418.81
559.409	424.81
559.621	428.81
559.833	396.81
560.046	420.81
560.258	417.81
560.47	430.81
560.683	396.81
560.895	432.81
561.107	406.81
561.32	418.81
561.532	433.81
561.744	429.81
561.956	418.81
562.168	433.81
562.381	438.81
562.593	430.81
562.805	440.81
563.017	414.81
563.229	433.81
563.441	432.81
563.653	463.81
563.865	440.81
564.077	405.81
564.289	440.81
564.501	437.81
564.713	453.81
564.925	452.81
565.137	454.81
565.349	430.81
565.561	469.81
565.773	458.81
565.985	479.81
566.197	506.81
566.408	522.81
566.62	550.81
566.832	547.81
567.044	571.81
567.255	553.81
567.467	560.81
567.679	561.81
567.891	593.81
568.102	611.81
568.314	587.81
568.526	545.81
568.737	542.81
568.949	480.81
569.161	464.81
569.372	457.81
569.584	435.81
569.795	446.81
570.007	439.81
570.218	427.81
570.43	437.81
570.641	458.81
570.853	431.81
571.064	420.81
571.276	424.81
571.487	403.81
571.698	409.81
571.91	405.81
572.121	406.81
572.333	394.81
572.544	377.81
572.755	373.81
572.966	384.81
573.178	378.81
573.389	386.81
573.6	356.81
573.811	376.81
574.023	386.81
574.234	371.81
574.445	365.81
574.656	357.81
574.867	360.81
575.078	348.81
575.289	349.81
575.501	369.81
575.712	348.81
575.923	349.81
576.134	368.81
576.345	369.81
576.556	359.81
576.767	357.81
576.978	376.81
577.188	361.81
577.399	341.81
577.61	344.81
577.821	351.81
578.032	361.81
578.243	355.81
578.454	445.81
578.665	384.81
578.875	354.81
579.086	344.81
579.297	321.81
579.508	351.81
579.718	350.81
579.929	320.81
580.14	326.81
580.35	343.81
580.561	330.81
580.772	339.81
580.982	329.81
581.193	346.81
581.403	329.81
581.614	332.81
581.825	321.81
582.035	321.81
582.246	329.81
582.456	317.81
582.667	320.81
582.877	342.81
583.087	320.81
583.298	320.81
583.508	309.81
583.719	311.81
583.929	321.81
584.139	334.81
584.35	310.81
584.56	331.81
584.77	315.81
584.981	339.81
585.191	339.81
585.401	321.81
585.611	318.81
585.821	327.81
586.032	306.81
586.242	312.81
586.452	299.81
586.662	328.81
586.872	330.81
587.082	319.81
587.292	318.81
587.502	308.81
587.713	324.81
587.923	319.81
588.133	306.81
588.343	328.81
588.553	304.81
588.762	314.81
588.972	305.81
589.182	328.81
589.392	307.81
589.602	309.81
589.812	299.81
590.022	323.81
590.232	305.81
590.441	307.81
590.651	327.81
590.861	316.81
591.071	325.81
591.281	327.81
591.49	332.81
591.7	330.81
591.91	325.81
592.119	309.81
592.329	353.81
592.539	350.81
592.748	343.81
592.958	346.81
593.167	342.81
593.377	352.81
593.587	354.81
593.796	352.81
594.006	333.81
594.215	336.81
594.424	339.81
594.634	332.81
594.843	344.81
595.053	335.81
595.262	340.81
595.472	337.81
595.681	327.81
595.89	314.81
596.1	331.81
596.309	310.81
596.518	309.81
596.727	294.81
596.937	316.81
597.146	308.81
597.355	298.81
597.564	290.81
597.774	311.81
597.983	292.81
598.192	264.81
598.401	294.81
598.61	297.81
598.819	296.81
599.028	281.81
599.237	280.81
599.446	281.81
599.655	299.81
599.864	282.81
600.073	292.81
600.282	289.81
600.491	280.81
600.7	278.81
600.909	290.81
601.118	288.81
601.327	280.81
601.536	269.81
601.745	275.81
601.953	288.81
602.162	284.81
602.371	262.81
602.58	269.81
602.789	267.81
602.997	274.81
603.206	286.81
603.415	273.81
603.623	274.81
603.832	257.81
604.041	260.81
604.249	279.81
604.458	258.81
604.666	245.81
604.875	279.81
605.084	265.81
605.292	290.81
605.501	273.81
605.709	280.81
605.918	271.81
606.126	281.81
606.334	268.81
606.543	264.81
606.751	270.81
606.96	264.81
607.168	259.81
607.376	258.81
607.585	286.81
607.793	258.81
608.001	269.81
608.21	266.81
608.418	271.81
608.626	249.81
608.834	254.81
609.043	265.81
609.251	258.81
609.459	269.81
609.667	282.81
609.875	256.81
610.083	264.81
610.291	254.81
610.499	257.81
610.707	265.81
610.916	267.81
611.124	289.81
611.332	267.81
611.54	278.81
611.748	269.81
611.955	279.81
612.163	248.81
612.371	279.81
612.579	266.81
612.787	245.81
612.995	257.81
613.203	253.81
613.411	274.81
613.618	253.81
613.826	260.81
614.034	258.81
614.242	274.81
614.449	245.81
614.657	266.81
614.865	260.81
615.072	262.81
615.28	246.81
615.488	235.81
615.695	283.81
615.903	274.81
616.111	261.81
616.318	258.81
616.526	259.81
616.733	263.81
616.941	258.81
617.148	258.81
617.356	258.81
617.563	255.81
617.771	247.81
617.978	254.81
618.185	269.81
618.393	245.81
618.6	237.81
618.807	261.81
619.015	248.81
619.222	235.81
619.429	249.81
619.637	262.81
619.844	234.81
620.051	248.81
620.258	232.81
620.466	252.81
620.673	240.81
620.88	232.81
621.087	265.81
621.294	230.81
621.501	228.81
621.708	238.81
621.915	223.81
622.122	247.81
622.329	262.81
622.536	246.81
622.743	236.81
622.95	246.81
623.157	233.81
623.364	232.81
623.571	244.81
623.778	224.81
623.985	233.81
624.192	222.81
624.399	232.81
624.606	234.81
624.812	242.81
625.019	239.81
625.226	216.81
625.433	236.81
625.639	213.81
625.846	230.81
626.053	248.81
626.259	230.81
626.466	221.81
626.673	206.81
626.879	232.81
627.086	215.81
627.293	226.81
627.499	237.81
627.706	224.81
627.912	205.81
628.119	212.81
628.325	211.81
628.532	229.81
628.738	220.81
628.945	210.81
629.151	209.81
629.357	221.81
629.564	214.81
629.77	226.81
629.976	229.81
630.183	229.81
630.389	199.81
630.595	219.81
630.802	207.81
631.008	208.81
631.214	224.81
631.42	203.81
631.627	229.81
631.833	218.81
632.039	229.81
632.245	227.81
632.451	207.81
632.657	221.81
632.863	224.81
633.069	201.81
633.275	194.81
633.481	194.81
633.688	194.81
633.893	209.81
634.099	212.81
634.305	215.81
634.511	187.81
634.717	205.81
634.923	189.81
635.129	187.81
635.335	196.81
635.541	214.81
635.747	200.81
635.952	198.81
636.158	198.81
636.364	211.81
636.57	198.81
636.775	212.81
636.981	202.81
637.187	204.81
637.392	185.81
637.598	187.81
637.804	199.81
638.009	182.81
638.215	212.81
638.421	192.81
638.626	192.81
638.832	185.81
639.037	192.81
639.243	204.81
639.448	188.81
639.654	196.81
639.859	194.81
640.065	185.81
640.27	202.81
640.475	180.81
640.681	192.81
640.886	190.81
641.091	177.81
641.297	188.81
641.502	195.81
641.707	197.81
641.913	185.81
642.118	177.81
642.323	167.81
642.528	187.81
642.733	176.81
642.939	176.81
643.144	176.81
643.349	168.81
643.554	176.81
643.759	196.81
643.964	176.81
644.169	191.81
644.374	188.81
644.579	187.81
644.784	171.81
644.989	180.81
645.194	170.81
645.399	172.81
645.604	183.81
645.809	186.81
646.014	178.81
646.219	190.81
646.423	178.81
646.628	188.81
646.833	167.81
647.038	199.81
647.243	192.81
647.447	178.81
647.652	184.81
647.857	156.81
648.062	182.81
648.266	185.81
648.471	193.81
648.676	190.81
648.88	186.81
649.085	198.81
649.289	171.81
649.494	190.81
649.698	192.81
649.903	190.81
650.107	166.81
650.312	181.81
650.516	162.81
650.721	173.81
650.925	163.81
651.13	169.81
651.334	152.81
651.539	140.81
651.743	161.81
651.947	161.81
652.152	145.81
652.356	157.81
652.56	155.81
652.764	148.81
652.969	148.81
653.173	153.81
653.377	138.81
653.581	146.81
653.785	144.81
653.99	163.81
654.194	160.81
654.398	140.81
654.602	141.81
654.806	136.81
655.01	147.81
655.214	149.81
655.418	147.81
655.622	134.81
655.826	154.81
656.03	142.81
656.234	155.81
656.438	135.81
656.642	139.81
656.846	146.81
657.049	144.81
657.253	119.81
657.457	137.81
657.661	134.81
657.865	132.81
658.068	122.81
658.272	117.81
658.476	125.81
658.68	103.81
658.883	112.81
659.087	116.81
659.291	105.81
659.494	119.81
659.698	100.81
659.901	105.81
660.105	93.81
660.309	104.81
660.512	99.81
660.716	109.81
660.919	108.81
661.123	98.81
661.326	98.81
661.53	101.81
661.733	95.81
661.936	99.81
662.14	81.81
662.343	82.81
662.546	91.81
662.75	89.81
662.953	89.81
663.156	81.81
663.36	80.81
663.563	86.81
663.766	78.81
663.969	91.81
664.173	74.81
664.376	78.81
664.579	84.81
664.782	85.81
664.985	79.81
665.188	75.81
665.391	86.81
665.594	75.81
665.797	70.81
666	83.81
666.203	84.81
666.406	81.81
666.609	96.81
666.812	74.81
667.015	86.81
667.218	88.81
667.421	93.81
667.624	94.81
667.827	73.81
668.03	80.81
668.232	88.81
668.435	89.81
668.638	89.81
668.841	94.81
669.043	86.81
669.246	80.81
669.449	78.81
669.651	78.81
669.854	86.81
670.057	73.81
670.259	82.81
670.462	91.81
670.665	79.81
670.867	88.81
671.07	93.81
671.272	97.81
671.475	81.81
671.677	83.81
671.88	76.81
672.082	78.81
672.284	75.81
672.487	93.81
672.689	68.81
672.892	77.81
