Data from 1974.PennyLincolnUp.Lamp.En5.5.200Scan.071719.P1.Changed Mount._HRD10591_15-52-00-857.txt Node
Date: Thu Jul 18 15:52:00 EDT 2019
User: cochatt
Spectrometer: HR+D1059
Trigger mode: 1
Integration Time (sec): 1.000000E-1
Scans to average: 1
Electric dark correction enabled: true
Nonlinearity correction enabled: false
Boxcar width: 0
XAxis mode: Wavelengths
Number of Pixels in Spectrum: 2048
>>>>>Begin Spectral Data<<<<<
223.165	-18.25
223.4	-18.25
223.635	-18.25
223.869	-18.25
224.104	-2.25
224.338	-21.25
224.573	-6.25
224.808	-19.25
225.042	-9.25
225.277	-10.25
225.511	-18.25
225.746	1.75
225.98	13.75
226.215	28.75
226.449	13.75
226.683	5.75
226.918	24.75
227.152	34.75
227.387	36.75
227.621	51.75
227.856	30.75
228.09	42.75
228.324	57.75
228.559	67.75
228.793	57.75
229.027	104.75
229.262	105.75
229.496	106.75
229.73	143.75
229.964	139.75
230.199	129.75
230.433	117.75
230.667	114.75
230.901	119.75
231.136	114.75
231.37	109.75
231.604	119.75
231.838	125.75
232.072	114.75
232.306	118.75
232.541	121.75
232.775	108.75
233.009	122.75
233.243	110.75
233.477	108.75
233.711	116.75
233.945	106.75
234.179	110.75
234.413	121.75
234.647	139.75
234.881	125.75
235.115	122.75
235.349	122.75
235.583	116.75
235.817	121.75
236.051	130.75
236.285	130.75
236.519	119.75
236.753	127.75
236.987	149.75
237.221	181.75
237.455	218.75
237.689	193.75
237.922	162.75
238.156	138.75
238.39	154.75
238.624	119.75
238.858	128.75
239.091	132.75
239.325	140.75
239.559	139.75
239.793	137.75
240.027	144.75
240.26	143.75
240.494	166.75
240.728	151.75
240.961	159.75
241.195	161.75
241.429	154.75
241.662	149.75
241.896	134.75
242.13	155.75
242.363	155.75
242.597	141.75
242.83	133.75
243.064	142.75
243.298	146.75
243.531	161.75
243.765	150.75
243.998	153.75
244.232	159.75
244.465	162.75
244.699	142.75
244.932	149.75
245.166	177.75
245.399	163.75
245.633	163.75
245.866	165.75
246.099	161.75
246.333	159.75
246.566	149.75
246.8	158.75
247.033	155.75
247.266	146.75
247.5	165.75
247.733	180.75
247.966	169.75
248.2	187.75
248.433	190.75
248.666	195.75
248.899	200.75
249.133	196.75
249.366	213.75
249.599	201.75
249.832	199.75
250.066	193.75
250.299	193.75
250.532	193.75
250.765	210.75
250.998	218.75
251.231	241.75
251.465	235.75
251.698	228.75
251.931	206.75
252.164	213.75
252.397	215.75
252.63	197.75
252.863	211.75
253.096	243.75
253.329	246.75
253.562	225.75
253.795	209.75
254.028	206.75
254.261	254.75
254.494	233.75
254.727	256.75
254.96	274.75
255.193	279.75
255.426	253.75
255.659	236.75
255.892	245.75
256.124	251.75
256.357	221.75
256.59	238.75
256.823	243.75
257.056	218.75
257.289	199.75
257.521	217.75
257.754	238.75
257.987	226.75
258.22	220.75
258.452	223.75
258.685	214.75
258.918	217.75
259.151	222.75
259.383	250.75
259.616	221.75
259.849	245.75
260.081	229.75
260.314	243.75
260.547	263.75
260.779	247.75
261.012	247.75
261.244	228.75
261.477	243.75
261.71	239.75
261.942	229.75
262.175	250.75
262.407	261.75
262.64	210.75
262.872	238.75
263.105	242.75
263.337	213.75
263.57	217.75
263.802	224.75
264.035	228.75
264.267	225.75
264.499	220.75
264.732	237.75
264.964	228.75
265.197	250.75
265.429	235.75
265.661	245.75
265.894	217.75
266.126	216.75
266.358	226.75
266.591	249.75
266.823	236.75
267.055	235.75
267.287	211.75
267.52	230.75
267.752	270.75
267.984	253.75
268.216	238.75
268.448	249.75
268.681	264.75
268.913	273.75
269.145	277.75
269.377	261.75
269.609	282.75
269.841	284.75
270.073	286.75
270.306	297.75
270.538	313.75
270.77	311.75
271.002	295.75
271.234	310.75
271.466	321.75
271.698	314.75
271.93	307.75
272.162	318.75
272.394	332.75
272.626	319.75
272.858	281.75
273.09	294.75
273.322	301.75
273.553	289.75
273.785	262.75
274.017	284.75
274.249	276.75
274.481	265.75
274.713	285.75
274.945	272.75
275.176	276.75
275.408	294.75
275.64	284.75
275.872	275.75
276.104	280.75
276.335	278.75
276.567	291.75
276.799	307.75
277.031	300.75
277.262	327.75
277.494	313.75
277.726	315.75
277.957	315.75
278.189	301.75
278.421	304.75
278.652	286.75
278.884	315.75
279.115	277.75
279.347	295.75
279.579	287.75
279.81	283.75
280.042	292.75
280.273	286.75
280.505	296.75
280.736	297.75
280.968	293.75
281.199	301.75
281.431	301.75
281.662	295.75
281.894	303.75
282.125	274.75
282.356	306.75
282.588	318.75
282.819	323.75
283.051	290.75
283.282	286.75
283.513	289.75
283.745	299.75
283.976	308.75
284.207	299.75
284.439	295.75
284.67	300.75
284.901	291.75
285.132	309.75
285.364	292.75
285.595	289.75
285.826	317.75
286.057	304.75
286.288	298.75
286.52	321.75
286.751	304.75
286.982	310.75
287.213	305.75
287.444	318.75
287.675	317.75
287.906	322.75
288.138	342.75
288.369	322.75
288.6	347.75
288.831	307.75
289.062	314.75
289.293	314.75
289.524	304.75
289.755	323.75
289.986	332.75
290.217	326.75
290.448	305.75
290.679	314.75
290.91	299.75
291.141	313.75
291.371	302.75
291.602	302.75
291.833	308.75
292.064	319.75
292.295	317.75
292.526	305.75
292.757	330.75
292.987	309.75
293.218	309.75
293.449	327.75
293.68	303.75
293.91	331.75
294.141	317.75
294.372	315.75
294.603	316.75
294.833	327.75
295.064	315.75
295.295	293.75
295.525	326.75
295.756	321.75
295.987	322.75
296.217	350.75
296.448	346.75
296.679	324.75
296.909	322.75
297.14	319.75
297.37	349.75
297.601	321.75
297.831	319.75
298.062	332.75
298.292	332.75
298.523	332.75
298.753	350.75
298.984	330.75
299.214	330.75
299.445	338.75
299.675	339.75
299.905	357.75
300.136	345.75
300.366	332.75
300.597	347.75
300.827	339.75
301.057	344.75
301.288	357.75
301.518	335.75
301.748	331.75
301.979	358.75
302.209	351.75
302.439	354.75
302.669	346.75
302.9	350.75
303.13	364.75
303.36	359.75
303.59	338.75
303.82	358.75
304.051	364.75
304.281	343.75
304.511	348.75
304.741	356.75
304.971	353.75
305.201	347.75
305.431	343.75
305.661	350.75
305.891	363.75
306.121	346.75
306.352	364.75
306.582	351.75
306.812	356.75
307.042	342.75
307.272	326.75
307.502	343.75
307.731	353.75
307.961	372.75
308.191	358.75
308.421	355.75
308.651	366.75
308.881	355.75
309.111	365.75
309.341	354.75
309.571	378.75
309.8	378.75
310.03	373.75
310.26	381.75
310.49	383.75
310.72	390.75
310.949	410.75
311.179	390.75
311.409	381.75
311.639	362.75
311.868	391.75
312.098	401.75
312.328	392.75
312.557	427.75
312.787	422.75
313.017	409.75
313.246	413.75
313.476	394.75
313.706	399.75
313.935	390.75
314.165	399.75
314.394	400.75
314.624	419.75
314.853	410.75
315.083	387.75
315.312	407.75
315.542	404.75
315.771	404.75
316.001	418.75
316.23	392.75
316.46	389.75
316.689	400.75
316.919	407.75
317.148	409.75
317.377	386.75
317.607	383.75
317.836	398.75
318.065	406.75
318.295	393.75
318.524	415.75
318.753	385.75
318.983	405.75
319.212	410.75
319.441	404.75
319.67	393.75
319.9	401.75
320.129	410.75
320.358	387.75
320.587	424.75
320.816	407.75
321.046	414.75
321.275	416.75
321.504	415.75
321.733	427.75
321.962	411.75
322.191	431.75
322.42	435.75
322.649	442.75
322.878	427.75
323.108	435.75
323.337	477.75
323.566	471.75
323.795	490.75
324.024	522.75
324.253	591.75
324.482	797.75
324.71	1198.75
324.939	1743.75
325.168	1575.75
325.397	826.75
325.626	597.75
325.855	515.75
326.084	469.75
326.313	463.75
326.542	470.75
326.77	513.75
326.999	577.75
327.228	744.75
327.457	1079.75
327.686	1347.75
327.914	915.75
328.143	651.75
328.372	567.75
328.6	541.75
328.829	554.75
329.058	543.75
329.287	548.75
329.515	519.75
329.744	487.75
329.972	487.75
330.201	512.75
330.43	544.75
330.658	551.75
330.887	554.75
331.115	539.75
331.344	522.75
331.572	502.75
331.801	486.75
332.03	490.75
332.258	486.75
332.486	493.75
332.715	504.75
332.943	483.75
333.172	486.75
333.4	498.75
333.629	513.75
333.857	543.75
334.085	527.75
334.314	538.75
334.542	560.75
334.771	578.75
334.999	541.75
335.227	524.75
335.455	509.75
335.684	491.75
335.912	495.75
336.14	475.75
336.369	469.75
336.597	484.75
336.825	490.75
337.053	475.75
337.281	469.75
337.51	461.75
337.738	481.75
337.966	483.75
338.194	464.75
338.422	471.75
338.65	477.75
338.878	458.75
339.106	474.75
339.334	470.75
339.562	452.75
339.79	462.75
340.018	462.75
340.246	449.75
340.474	477.75
340.702	463.75
340.93	477.75
341.158	451.75
341.386	460.75
341.614	478.75
341.842	455.75
342.07	456.75
342.298	463.75
342.526	461.75
342.754	456.75
342.981	439.75
343.209	451.75
343.437	477.75
343.665	462.75
343.893	520.75
344.12	494.75
344.348	490.75
344.576	475.75
344.804	476.75
345.031	477.75
345.259	480.75
345.487	470.75
345.714	469.75
345.942	443.75
346.17	461.75
346.397	446.75
346.625	436.75
346.853	450.75
347.08	454.75
347.308	449.75
347.535	436.75
347.763	454.75
347.99	427.75
348.218	439.75
348.445	428.75
348.673	450.75
348.9	449.75
349.128	430.75
349.355	443.75
349.583	419.75
349.81	453.75
350.037	431.75
350.265	409.75
350.492	412.75
350.72	446.75
350.947	445.75
351.174	438.75
351.402	432.75
351.629	435.75
351.856	443.75
352.083	452.75
352.311	443.75
352.538	440.75
352.765	454.75
352.992	438.75
353.22	443.75
353.447	419.75
353.674	454.75
353.901	433.75
354.128	451.75
354.355	423.75
354.583	436.75
354.81	433.75
355.037	454.75
355.264	420.75
355.491	429.75
355.718	418.75
355.945	438.75
356.172	421.75
356.399	422.75
356.626	421.75
356.853	415.75
357.08	417.75
357.307	415.75
357.534	429.75
357.761	424.75
357.988	435.75
358.215	446.75
358.441	419.75
358.668	415.75
358.895	433.75
359.122	438.75
359.349	446.75
359.576	455.75
359.802	472.75
360.029	473.75
360.256	499.75
360.483	470.75
360.709	457.75
360.936	459.75
361.163	432.75
361.39	462.75
361.616	436.75
361.843	453.75
362.07	446.75
362.296	440.75
362.523	444.75
362.749	452.75
362.976	425.75
363.203	431.75
363.429	440.75
363.656	432.75
363.882	430.75
364.109	441.75
364.335	434.75
364.562	428.75
364.788	455.75
365.015	456.75
365.241	456.75
365.468	445.75
365.694	450.75
365.92	453.75
366.147	433.75
366.373	455.75
366.599	444.75
366.826	450.75
367.052	435.75
367.278	429.75
367.505	441.75
367.731	430.75
367.957	450.75
368.184	434.75
368.41	450.75
368.636	459.75
368.862	469.75
369.089	449.75
369.315	443.75
369.541	466.75
369.767	455.75
369.993	446.75
370.219	441.75
370.445	450.75
370.672	461.75
370.898	430.75
371.124	436.75
371.35	470.75
371.576	447.75
371.802	442.75
372.028	448.75
372.254	436.75
372.48	442.75
372.706	433.75
372.932	445.75
373.158	458.75
373.384	463.75
373.61	443.75
373.835	478.75
374.061	445.75
374.287	447.75
374.513	466.75
374.739	469.75
374.965	483.75
375.191	478.75
375.416	462.75
375.642	468.75
375.868	448.75
376.094	452.75
376.319	444.75
376.545	433.75
376.771	445.75
376.997	436.75
377.222	471.75
377.448	442.75
377.674	466.75
377.899	456.75
378.125	454.75
378.35	456.75
378.576	441.75
378.802	465.75
379.027	444.75
379.253	437.75
379.478	442.75
379.704	458.75
379.929	451.75
380.155	440.75
380.38	432.75
380.606	462.75
380.831	442.75
381.057	462.75
381.282	442.75
381.507	447.75
381.733	475.75
381.958	445.75
382.184	442.75
382.409	455.75
382.634	483.75
382.86	469.75
383.085	448.75
383.31	473.75
383.535	460.75
383.761	488.75
383.986	480.75
384.211	482.75
384.436	490.75
384.662	477.75
384.887	502.75
385.112	499.75
385.337	499.75
385.562	503.75
385.787	499.75
386.013	501.75
386.238	515.75
386.463	528.75
386.688	533.75
386.913	523.75
387.138	491.75
387.363	515.75
387.588	486.75
387.813	494.75
388.038	511.75
388.263	500.75
388.488	518.75
388.713	499.75
388.938	501.75
389.163	499.75
389.387	516.75
389.612	517.75
389.837	534.75
390.062	494.75
390.287	483.75
390.512	516.75
390.736	534.75
390.961	523.75
391.186	478.75
391.411	513.75
391.636	517.75
391.86	547.75
392.085	542.75
392.31	541.75
392.534	537.75
392.759	539.75
392.984	527.75
393.208	518.75
393.433	515.75
393.658	531.75
393.882	509.75
394.107	478.75
394.331	520.75
394.556	521.75
394.78	513.75
395.005	523.75
395.229	537.75
395.454	538.75
395.678	544.75
395.903	545.75
396.127	563.75
396.352	570.75
396.576	542.75
396.801	527.75
397.025	523.75
397.249	557.75
397.474	516.75
397.698	554.75
397.922	567.75
398.147	583.75
398.371	580.75
398.595	579.75
398.82	580.75
399.044	597.75
399.268	618.75
399.492	648.75
399.717	724.75
399.941	726.75
400.165	730.75
400.389	718.75
400.613	698.75
400.837	616.75
401.062	623.75
401.286	607.75
401.51	607.75
401.734	585.75
401.958	596.75
402.182	595.75
402.406	623.75
402.63	618.75
402.854	609.75
403.078	609.75
403.302	592.75
403.526	633.75
403.75	617.75
403.974	613.75
404.198	613.75
404.422	639.75
404.645	645.75
404.869	619.75
405.093	678.75
405.317	695.75
405.541	722.75
405.765	681.75
405.988	654.75
406.212	639.75
406.436	676.75
406.66	657.75
406.883	649.75
407.107	691.75
407.331	723.75
407.555	802.75
407.778	799.75
408.002	738.75
408.226	706.75
408.449	707.75
408.673	663.75
408.896	707.75
409.12	711.75
409.344	706.75
409.567	649.75
409.791	618.75
410.014	603.75
410.238	607.75
410.461	628.75
410.685	616.75
410.908	625.75
411.132	682.75
411.355	700.75
411.578	696.75
411.802	638.75
412.025	609.75
412.249	627.75
412.472	631.75
412.695	655.75
412.919	660.75
413.142	625.75
413.365	622.75
413.589	584.75
413.812	594.75
414.035	578.75
414.258	573.75
414.482	583.75
414.705	597.75
414.928	572.75
415.151	569.75
415.374	586.75
415.597	577.75
415.821	574.75
416.044	587.75
416.267	589.75
416.49	574.75
416.713	575.75
416.936	581.75
417.159	581.75
417.382	587.75
417.605	611.75
417.828	596.75
418.051	610.75
418.274	594.75
418.497	583.75
418.72	586.75
418.943	588.75
419.166	608.75
419.389	642.75
419.611	657.75
419.834	649.75
420.057	604.75
420.28	627.75
420.503	621.75
420.726	618.75
420.948	624.75
421.171	661.75
421.394	686.75
421.617	643.75
421.839	599.75
422.062	618.75
422.285	606.75
422.507	697.75
422.73	755.75
422.953	730.75
423.175	653.75
423.398	642.75
423.621	640.75
423.843	664.75
424.066	629.75
424.288	647.75
424.511	668.75
424.733	714.75
424.956	783.75
425.178	767.75
425.401	771.75
425.623	793.75
425.846	684.75
426.068	646.75
426.291	628.75
426.513	633.75
426.735	639.75
426.958	685.75
427.18	759.75
427.402	895.75
427.625	964.75
427.847	836.75
428.069	718.75
428.292	675.75
428.514	617.75
428.736	618.75
428.958	616.75
429.181	618.75
429.403	557.75
429.625	587.75
429.847	634.75
430.069	686.75
430.292	712.75
430.514	612.75
430.736	587.75
430.958	563.75
431.18	572.75
431.402	583.75
431.624	562.75
431.846	570.75
432.068	562.75
432.29	579.75
432.512	554.75
432.734	569.75
432.956	581.75
433.178	582.75
433.4	580.75
433.622	582.75
433.844	557.75
434.066	564.75
434.287	556.75
434.509	602.75
434.731	591.75
434.953	591.75
435.175	617.75
435.397	637.75
435.618	651.75
435.84	682.75
436.062	775.75
436.284	832.75
436.505	717.75
436.727	641.75
436.949	616.75
437.17	592.75
437.392	584.75
437.614	598.75
437.835	643.75
438.057	712.75
438.278	841.75
438.5	805.75
438.721	910.75
438.943	870.75
439.165	705.75
439.386	647.75
439.608	615.75
439.829	625.75
440.05	631.75
440.272	690.75
440.493	658.75
440.715	615.75
440.936	605.75
441.158	606.75
441.379	600.75
441.6	614.75
441.822	653.75
442.043	661.75
442.264	759.75
442.486	798.75
442.707	704.75
442.928	627.75
443.149	651.75
443.371	681.75
443.592	716.75
443.813	804.75
444.034	870.75
444.255	745.75
444.476	670.75
444.698	659.75
444.919	687.75
445.14	774.75
445.361	722.75
445.582	705.75
445.803	709.75
446.024	837.75
446.245	844.75
446.466	765.75
446.687	651.75
446.908	627.75
447.129	602.75
447.35	578.75
447.571	580.75
447.792	578.75
448.013	602.75
448.234	618.75
448.455	641.75
448.675	746.75
448.896	887.75
449.117	755.75
449.338	697.75
449.559	809.75
449.779	906.75
450	719.75
450.221	621.75
450.442	584.75
450.662	571.75
450.883	567.75
451.104	574.75
451.324	543.75
451.545	541.75
451.766	540.75
451.986	516.75
452.207	522.75
452.428	509.75
452.648	516.75
452.869	522.75
453.089	542.75
453.31	554.75
453.53	514.75
453.751	523.75
453.971	523.75
454.192	527.75
454.412	527.75
454.633	524.75
454.853	490.75
455.073	517.75
455.294	541.75
455.514	579.75
455.734	588.75
455.955	532.75
456.175	499.75
456.395	513.75
456.616	495.75
456.836	481.75
457.056	482.75
457.276	483.75
457.497	509.75
457.717	491.75
457.937	501.75
458.157	487.75
458.377	514.75
458.598	521.75
458.818	567.75
459.038	616.75
459.258	650.75
459.478	599.75
459.698	567.75
459.918	556.75
460.138	577.75
460.358	589.75
460.578	598.75
460.798	577.75
461.018	598.75
461.238	579.75
461.458	584.75
461.678	590.75
461.898	608.75
462.118	612.75
462.338	602.75
462.558	615.75
462.777	619.75
462.997	661.75
463.217	665.75
463.437	689.75
463.657	648.75
463.876	656.75
464.096	653.75
464.316	645.75
464.536	659.75
464.755	616.75
464.975	636.75
465.195	650.75
465.414	688.75
465.634	609.75
465.854	569.75
466.073	589.75
466.293	577.75
466.512	563.75
466.732	530.75
466.951	549.75
467.171	504.75
467.391	527.75
467.61	550.75
467.829	556.75
468.049	572.75
468.268	548.75
468.488	529.75
468.707	545.75
468.927	526.75
469.146	551.75
469.365	534.75
469.585	535.75
469.804	556.75
470.023	558.75
470.243	541.75
470.462	563.75
470.681	575.75
470.901	594.75
471.12	551.75
471.339	541.75
471.558	553.75
471.777	568.75
471.997	573.75
472.216	547.75
472.435	562.75
472.654	555.75
472.873	507.75
473.092	527.75
473.311	546.75
473.53	543.75
473.749	546.75
473.968	592.75
474.187	667.75
474.406	681.75
474.625	599.75
474.844	575.75
475.063	547.75
475.282	537.75
475.501	577.75
475.72	531.75
475.939	559.75
476.158	573.75
476.377	564.75
476.596	558.75
476.814	590.75
477.033	589.75
477.252	587.75
477.471	589.75
477.69	605.75
477.908	586.75
478.127	606.75
478.346	598.75
478.564	626.75
478.783	606.75
479.002	661.75
479.22	629.75
479.439	650.75
479.658	672.75
479.876	663.75
480.095	653.75
480.313	696.75
480.532	690.75
480.751	679.75
480.969	680.75
481.188	717.75
481.406	747.75
481.624	670.75
481.843	665.75
482.061	667.75
482.28	635.75
482.498	637.75
482.717	647.75
482.935	648.75
483.153	612.75
483.372	643.75
483.59	635.75
483.808	633.75
484.027	625.75
484.245	629.75
484.463	655.75
484.681	654.75
484.9	654.75
485.118	685.75
485.336	655.75
485.554	666.75
485.772	670.75
485.99	672.75
486.209	676.75
486.427	673.75
486.645	688.75
486.863	666.75
487.081	707.75
487.299	702.75
487.517	666.75
487.735	678.75
487.953	684.75
488.171	703.75
488.389	687.75
488.607	683.75
488.825	686.75
489.043	673.75
489.261	686.75
489.479	683.75
489.696	719.75
489.914	691.75
490.132	716.75
490.35	705.75
490.568	739.75
490.786	713.75
491.003	753.75
491.221	739.75
491.439	778.75
491.657	761.75
491.874	774.75
492.092	761.75
492.31	781.75
492.527	787.75
492.745	791.75
492.963	801.75
493.18	808.75
493.398	822.75
493.615	813.75
493.833	822.75
494.05	812.75
494.268	818.75
494.485	827.75
494.703	842.75
494.92	832.75
495.138	821.75
495.355	824.75
495.573	831.75
495.79	823.75
496.008	829.75
496.225	830.75
496.442	793.75
496.66	846.75
496.877	834.75
497.094	833.75
497.312	828.75
497.529	857.75
497.746	875.75
497.963	850.75
498.181	875.75
498.398	915.75
498.615	921.75
498.832	961.75
499.049	984.75
499.267	1037.75
499.484	1059.75
499.701	1098.75
499.918	1165.75
500.135	1231.75
500.352	1309.75
500.569	1322.75
500.786	1338.75
501.003	1282.75
501.22	1258.75
501.437	1181.75
501.654	1132.75
501.871	1114.75
502.088	1044.75
502.305	995.75
502.522	970.75
502.739	955.75
502.956	937.75
503.172	881.75
503.389	897.75
503.606	871.75
503.823	840.75
504.04	871.75
504.256	832.75
504.473	841.75
504.69	829.75
504.907	827.75
505.123	807.75
505.34	811.75
505.557	781.75
505.773	795.75
505.99	762.75
506.207	752.75
506.423	778.75
506.64	752.75
506.856	724.75
507.073	759.75
507.289	746.75
507.506	726.75
507.722	745.75
507.939	753.75
508.155	756.75
508.372	715.75
508.588	714.75
508.805	686.75
509.021	690.75
509.238	709.75
509.454	731.75
509.67	732.75
509.887	699.75
510.103	705.75
510.319	709.75
510.536	771.75
510.752	1078.75
510.968	921.75
511.184	709.75
511.401	675.75
511.617	697.75
511.833	666.75
512.049	669.75
512.265	685.75
512.481	641.75
512.698	677.75
512.914	650.75
513.13	673.75
513.346	672.75
513.562	651.75
513.778	668.75
513.994	701.75
514.21	679.75
514.426	693.75
514.642	718.75
514.858	707.75
515.074	772.75
515.29	856.75
515.506	1112.75
515.721	993.75
515.937	761.75
516.153	708.75
516.369	729.75
516.585	715.75
516.801	714.75
517.016	705.75
517.232	736.75
517.448	731.75
517.664	750.75
517.879	739.75
518.095	717.75
518.311	726.75
518.527	703.75
518.742	693.75
518.958	673.75
519.173	679.75
519.389	686.75
519.605	689.75
519.82	687.75
520.036	673.75
520.251	708.75
520.467	696.75
520.682	692.75
520.898	716.75
521.113	705.75
521.329	697.75
521.544	761.75
521.76	892.75
521.975	1296.75
522.19	1344.75
522.406	818.75
522.621	710.75
522.836	663.75
523.052	647.75
523.267	633.75
523.482	615.75
523.698	607.75
523.913	610.75
524.128	643.75
524.343	614.75
524.559	605.75
524.774	582.75
524.989	600.75
525.204	603.75
525.419	590.75
525.634	614.75
525.849	592.75
526.064	598.75
526.28	599.75
526.495	594.75
526.71	585.75
526.925	561.75
527.14	564.75
527.355	533.75
527.57	571.75
527.785	548.75
527.999	591.75
528.214	547.75
528.429	570.75
528.644	551.75
528.859	561.75
529.074	537.75
529.289	581.75
529.503	610.75
529.718	628.75
529.933	599.75
530.148	562.75
530.363	571.75
530.577	550.75
530.792	545.75
531.007	538.75
531.221	539.75
531.436	571.75
531.651	541.75
531.865	508.75
532.08	526.75
532.295	541.75
532.509	538.75
532.724	532.75
532.938	547.75
533.153	569.75
533.367	547.75
533.582	542.75
533.796	553.75
534.011	546.75
534.225	532.75
534.44	530.75
534.654	516.75
534.868	547.75
535.083	533.75
535.297	533.75
535.511	521.75
535.726	546.75
535.94	537.75
536.154	553.75
536.369	548.75
536.583	534.75
536.797	527.75
537.011	501.75
537.225	537.75
537.44	518.75
537.654	541.75
537.868	518.75
538.082	538.75
538.296	547.75
538.51	530.75
538.724	515.75
538.938	510.75
539.153	522.75
539.367	535.75
539.581	525.75
539.795	509.75
540.009	519.75
540.222	530.75
540.436	517.75
540.65	516.75
540.864	525.75
541.078	528.75
541.292	525.75
541.506	503.75
541.72	510.75
541.934	511.75
542.147	528.75
542.361	522.75
542.575	528.75
542.789	513.75
543.002	519.75
543.216	524.75
543.43	503.75
543.644	513.75
543.857	523.75
544.071	516.75
544.285	527.75
544.498	519.75
544.712	524.75
544.925	531.75
545.139	515.75
545.352	534.75
545.566	516.75
545.779	507.75
545.993	533.75
546.206	547.75
546.42	542.75
546.633	520.75
546.847	514.75
547.06	501.75
547.274	484.75
547.487	517.75
547.7	507.75
547.914	515.75
548.127	505.75
548.34	513.75
548.554	513.75
548.767	497.75
548.98	521.75
549.193	524.75
549.407	503.75
549.62	517.75
549.833	513.75
550.046	523.75
550.259	522.75
550.473	503.75
550.686	495.75
550.899	501.75
551.112	501.75
551.325	507.75
551.538	517.75
551.751	490.75
551.964	487.75
552.177	487.75
552.39	500.75
552.603	503.75
552.816	523.75
553.029	535.75
553.242	514.75
553.455	518.75
553.667	541.75
553.88	540.75
554.093	535.75
554.306	539.75
554.519	526.75
554.732	498.75
554.944	517.75
555.157	504.75
555.37	509.75
555.583	460.75
555.795	497.75
556.008	469.75
556.221	489.75
556.433	468.75
556.646	449.75
556.859	471.75
557.071	471.75
557.284	478.75
557.496	464.75
557.709	461.75
557.921	462.75
558.134	466.75
558.346	475.75
558.559	443.75
558.771	453.75
558.984	450.75
559.196	429.75
559.409	439.75
559.621	449.75
559.833	450.75
560.046	440.75
560.258	449.75
560.47	430.75
560.683	459.75
560.895	449.75
561.107	437.75
561.32	453.75
561.532	451.75
561.744	472.75
561.956	471.75
562.168	442.75
562.381	469.75
562.593	473.75
562.805	458.75
563.017	466.75
563.229	455.75
563.441	444.75
563.653	453.75
563.865	443.75
564.077	455.75
564.289	461.75
564.501	463.75
564.713	460.75
564.925	468.75
565.137	498.75
565.349	482.75
565.561	517.75
565.773	505.75
565.985	533.75
566.197	524.75
566.408	553.75
566.62	582.75
566.832	595.75
567.044	608.75
567.255	590.75
567.467	614.75
567.679	613.75
567.891	636.75
568.102	630.75
568.314	606.75
568.526	600.75
568.737	568.75
568.949	536.75
569.161	516.75
569.372	503.75
569.584	466.75
569.795	455.75
570.007	481.75
570.218	485.75
570.43	477.75
570.641	448.75
570.853	434.75
571.064	458.75
571.276	435.75
571.487	440.75
571.698	439.75
571.91	435.75
572.121	418.75
572.333	425.75
572.544	413.75
572.755	396.75
572.966	412.75
573.178	385.75
573.389	397.75
573.6	390.75
573.811	388.75
574.023	394.75
574.234	385.75
574.445	401.75
574.656	390.75
574.867	380.75
575.078	394.75
575.289	371.75
575.501	394.75
575.712	383.75
575.923	379.75
576.134	379.75
576.345	399.75
576.556	358.75
576.767	400.75
576.978	383.75
577.188	373.75
577.399	376.75
577.61	365.75
577.821	372.75
578.032	381.75
578.243	400.75
578.454	519.75
578.665	425.75
578.875	383.75
579.086	380.75
579.297	366.75
579.508	370.75
579.718	372.75
579.929	351.75
580.14	355.75
580.35	345.75
580.561	351.75
580.772	355.75
580.982	338.75
581.193	346.75
581.403	344.75
581.614	362.75
581.825	352.75
582.035	350.75
582.246	353.75
582.456	364.75
582.667	349.75
582.877	328.75
583.087	349.75
583.298	334.75
583.508	346.75
583.719	332.75
583.929	322.75
584.139	333.75
584.35	330.75
584.56	336.75
584.77	347.75
584.981	330.75
585.191	357.75
585.401	340.75
585.611	345.75
585.821	337.75
586.032	355.75
586.242	350.75
586.452	331.75
586.662	335.75
586.872	339.75
587.082	323.75
587.292	324.75
587.502	338.75
587.713	353.75
587.923	346.75
588.133	341.75
588.343	332.75
588.553	323.75
588.762	339.75
588.972	335.75
589.182	325.75
589.392	323.75
589.602	331.75
589.812	350.75
590.022	339.75
590.232	350.75
590.441	346.75
590.651	360.75
590.861	347.75
591.071	322.75
591.281	330.75
591.49	353.75
591.7	335.75
591.91	358.75
592.119	344.75
592.329	363.75
592.539	343.75
592.748	357.75
592.958	364.75
593.167	353.75
593.377	375.75
593.587	375.75
593.796	366.75
594.006	381.75
594.215	396.75
594.424	389.75
594.634	366.75
594.843	353.75
595.053	358.75
595.262	359.75
595.472	341.75
595.681	339.75
595.89	342.75
596.1	320.75
596.309	320.75
596.518	322.75
596.727	312.75
596.937	313.75
597.146	327.75
597.355	317.75
597.564	300.75
597.774	323.75
597.983	307.75
598.192	310.75
598.401	302.75
598.61	294.75
598.819	314.75
599.028	298.75
599.237	295.75
599.446	293.75
599.655	301.75
599.864	318.75
600.073	275.75
600.282	290.75
600.491	296.75
600.7	299.75
600.909	279.75
601.118	278.75
601.327	292.75
601.536	295.75
601.745	285.75
601.953	302.75
602.162	299.75
602.371	299.75
602.58	287.75
602.789	291.75
602.997	286.75
603.206	298.75
603.415	270.75
603.623	261.75
603.832	271.75
604.041	276.75
604.249	294.75
604.458	288.75
604.666	290.75
604.875	291.75
605.084	270.75
605.292	269.75
605.501	254.75
605.709	285.75
605.918	279.75
606.126	277.75
606.334	286.75
606.543	284.75
606.751	283.75
606.96	295.75
607.168	286.75
607.376	287.75
607.585	267.75
607.793	282.75
608.001	290.75
608.21	283.75
608.418	295.75
608.626	277.75
608.834	277.75
609.043	273.75
609.251	276.75
609.459	264.75
609.667	274.75
609.875	283.75
610.083	276.75
610.291	268.75
610.499	253.75
610.707	262.75
610.916	269.75
611.124	283.75
611.332	290.75
611.54	282.75
611.748	261.75
611.955	269.75
612.163	278.75
612.371	278.75
612.579	276.75
612.787	263.75
612.995	274.75
613.203	273.75
613.411	283.75
613.618	266.75
613.826	274.75
614.034	271.75
614.242	281.75
614.449	268.75
614.657	295.75
614.865	270.75
615.072	281.75
615.28	259.75
615.488	269.75
615.695	272.75
615.903	268.75
616.111	273.75
616.318	291.75
616.526	271.75
616.733	281.75
616.941	265.75
617.148	272.75
617.356	281.75
617.563	268.75
617.771	274.75
617.978	277.75
618.185	274.75
618.393	275.75
618.6	258.75
618.807	259.75
619.015	282.75
619.222	262.75
619.429	251.75
619.637	265.75
619.844	274.75
620.051	263.75
620.258	244.75
620.466	270.75
620.673	261.75
620.88	261.75
621.087	246.75
621.294	264.75
621.501	253.75
621.708	248.75
621.915	242.75
622.122	257.75
622.329	248.75
622.536	270.75
622.743	250.75
622.95	265.75
623.157	268.75
623.364	239.75
623.571	245.75
623.778	249.75
623.985	234.75
624.192	262.75
624.399	243.75
624.606	237.75
624.812	254.75
625.019	247.75
625.226	220.75
625.433	260.75
625.639	227.75
625.846	236.75
626.053	255.75
626.259	232.75
626.466	214.75
626.673	228.75
626.879	231.75
627.086	228.75
627.293	237.75
627.499	234.75
627.706	230.75
627.912	241.75
628.119	233.75
628.325	229.75
628.532	243.75
628.738	243.75
628.945	235.75
629.151	224.75
629.357	214.75
629.564	225.75
629.77	226.75
629.976	231.75
630.183	220.75
630.389	217.75
630.595	231.75
630.802	199.75
631.008	223.75
631.214	225.75
631.42	226.75
631.627	228.75
631.833	229.75
632.039	202.75
632.245	208.75
632.451	207.75
632.657	209.75
632.863	204.75
633.069	215.75
633.275	204.75
633.481	217.75
633.688	207.75
633.893	195.75
634.099	193.75
634.305	201.75
634.511	213.75
634.717	191.75
634.923	193.75
635.129	202.75
635.335	189.75
635.541	193.75
635.747	210.75
635.952	208.75
636.158	211.75
636.364	203.75
636.57	226.75
636.775	214.75
636.981	203.75
637.187	212.75
637.392	215.75
637.598	193.75
637.804	203.75
638.009	225.75
638.215	225.75
638.421	197.75
638.626	203.75
638.832	203.75
639.037	194.75
639.243	205.75
639.448	205.75
639.654	198.75
639.859	195.75
640.065	194.75
640.27	186.75
640.475	187.75
640.681	202.75
640.886	201.75
641.091	194.75
641.297	199.75
641.502	207.75
641.707	204.75
641.913	162.75
642.118	182.75
642.323	204.75
642.528	206.75
642.733	177.75
642.939	203.75
643.144	201.75
643.349	206.75
643.554	187.75
643.759	190.75
643.964	187.75
644.169	171.75
644.374	196.75
644.579	185.75
644.784	188.75
644.989	197.75
645.194	181.75
645.399	197.75
645.604	182.75
645.809	177.75
646.014	176.75
646.219	194.75
646.423	181.75
646.628	179.75
646.833	188.75
647.038	179.75
647.243	197.75
647.447	202.75
647.652	196.75
647.857	188.75
648.062	184.75
648.266	186.75
648.471	186.75
648.676	180.75
648.88	195.75
649.085	179.75
649.289	189.75
649.494	183.75
649.698	203.75
649.903	197.75
650.107	170.75
650.312	169.75
650.516	171.75
650.721	184.75
650.925	181.75
651.13	165.75
651.334	158.75
651.539	166.75
651.743	169.75
651.947	165.75
652.152	178.75
652.356	151.75
652.56	155.75
652.764	151.75
652.969	164.75
653.173	153.75
653.377	157.75
653.581	143.75
653.785	157.75
653.99	142.75
654.194	149.75
654.398	171.75
654.602	161.75
654.806	157.75
655.01	157.75
655.214	160.75
655.418	146.75
655.622	143.75
655.826	138.75
656.03	131.75
656.234	156.75
656.438	164.75
656.642	149.75
656.846	146.75
657.049	143.75
657.253	129.75
657.457	118.75
657.661	126.75
657.865	134.75
658.068	126.75
658.272	117.75
658.476	123.75
658.68	133.75
658.883	125.75
659.087	122.75
659.291	102.75
659.494	107.75
659.698	99.75
659.901	95.75
660.105	106.75
660.309	95.75
660.512	107.75
660.716	96.75
660.919	105.75
661.123	86.75
661.326	98.75
661.53	93.75
661.733	96.75
661.936	79.75
662.14	81.75
662.343	87.75
662.546	91.75
662.75	78.75
662.953	85.75
663.156	91.75
663.36	98.75
663.563	90.75
663.766	87.75
663.969	88.75
664.173	72.75
664.376	80.75
664.579	82.75
664.782	71.75
664.985	85.75
665.188	86.75
665.391	91.75
665.594	80.75
665.797	75.75
666	78.75
666.203	87.75
666.406	78.75
666.609	85.75
666.812	78.75
667.015	91.75
667.218	78.75
667.421	86.75
667.624	76.75
667.827	98.75
668.03	84.75
668.232	69.75
668.435	82.75
668.638	69.75
668.841	78.75
669.043	98.75
669.246	69.75
669.449	79.75
669.651	95.75
669.854	85.75
670.057	73.75
670.259	72.75
670.462	89.75
670.665	92.75
670.867	92.75
671.07	82.75
671.272	88.75
671.475	86.75
671.677	82.75
671.88	77.75
672.082	63.75
672.284	71.75
672.487	82.75
672.689	81.75
672.892	89.75
