Data from 1974.PennyLincolnUp.Lamp.En5.5.200Scan.071719.P1.Changed Mount._HRD10591_15-53-34-857.txt Node
Date: Thu Jul 18 15:53:34 EDT 2019
User: cochatt
Spectrometer: HR+D1059
Trigger mode: 1
Integration Time (sec): 1.000000E-1
Scans to average: 1
Electric dark correction enabled: true
Nonlinearity correction enabled: false
Boxcar width: 0
XAxis mode: Wavelengths
Number of Pixels in Spectrum: 2048
>>>>>Begin Spectral Data<<<<<
223.165	-10.25
223.4	-10.25
223.635	-10.25
223.869	-17.25
224.104	-13.25
224.338	-16.25
224.573	-12.25
224.808	-31.25
225.042	-4.25
225.277	-18.25
225.511	3.75
225.746	11.75
225.98	14.75
226.215	5.75
226.449	16.75
226.683	16.75
226.918	21.75
227.152	31.75
227.387	45.75
227.621	48.75
227.856	42.75
228.09	55.75
228.324	43.75
228.559	78.75
228.793	73.75
229.027	110.75
229.262	118.75
229.496	134.75
229.73	140.75
229.964	153.75
230.199	130.75
230.433	131.75
230.667	114.75
230.901	110.75
231.136	134.75
231.37	115.75
231.604	112.75
231.838	128.75
232.072	122.75
232.306	145.75
232.541	131.75
232.775	127.75
233.009	125.75
233.243	119.75
233.477	126.75
233.711	143.75
233.945	134.75
234.179	122.75
234.413	117.75
234.647	120.75
234.881	133.75
235.115	121.75
235.349	127.75
235.583	125.75
235.817	135.75
236.051	136.75
236.285	150.75
236.519	133.75
236.753	142.75
236.987	155.75
237.221	194.75
237.455	235.75
237.689	213.75
237.922	161.75
238.156	147.75
238.39	137.75
238.624	143.75
238.858	143.75
239.091	131.75
239.325	125.75
239.559	135.75
239.793	130.75
240.027	143.75
240.26	156.75
240.494	173.75
240.728	162.75
240.961	164.75
241.195	157.75
241.429	146.75
241.662	145.75
241.896	151.75
242.13	153.75
242.363	142.75
242.597	147.75
242.83	153.75
243.064	153.75
243.298	151.75
243.531	162.75
243.765	160.75
243.998	146.75
244.232	164.75
244.465	161.75
244.699	164.75
244.932	155.75
245.166	168.75
245.399	158.75
245.633	153.75
245.866	159.75
246.099	167.75
246.333	174.75
246.566	178.75
246.8	169.75
247.033	169.75
247.266	190.75
247.5	186.75
247.733	169.75
247.966	202.75
248.2	182.75
248.433	187.75
248.666	188.75
248.899	188.75
249.133	211.75
249.366	226.75
249.599	216.75
249.832	208.75
250.066	217.75
250.299	215.75
250.532	221.75
250.765	222.75
250.998	232.75
251.231	254.75
251.465	254.75
251.698	214.75
251.931	221.75
252.164	212.75
252.397	225.75
252.63	215.75
252.863	261.75
253.096	242.75
253.329	265.75
253.562	257.75
253.795	234.75
254.028	238.75
254.261	245.75
254.494	246.75
254.727	279.75
254.96	307.75
255.193	288.75
255.426	267.75
255.659	249.75
255.892	267.75
256.124	261.75
256.357	267.75
256.59	257.75
256.823	235.75
257.056	234.75
257.289	221.75
257.521	240.75
257.754	225.75
257.987	230.75
258.22	232.75
258.452	235.75
258.685	228.75
258.918	238.75
259.151	232.75
259.383	236.75
259.616	236.75
259.849	238.75
260.081	254.75
260.314	284.75
260.547	275.75
260.779	270.75
261.012	268.75
261.244	249.75
261.477	254.75
261.71	239.75
261.942	249.75
262.175	265.75
262.407	235.75
262.64	233.75
262.872	232.75
263.105	254.75
263.337	237.75
263.57	229.75
263.802	251.75
264.035	237.75
264.267	237.75
264.499	238.75
264.732	247.75
264.964	245.75
265.197	252.75
265.429	227.75
265.661	251.75
265.894	235.75
266.126	240.75
266.358	232.75
266.591	247.75
266.823	251.75
267.055	257.75
267.287	266.75
267.52	265.75
267.752	265.75
267.984	236.75
268.216	255.75
268.448	279.75
268.681	265.75
268.913	267.75
269.145	282.75
269.377	291.75
269.609	301.75
269.841	288.75
270.073	318.75
270.306	323.75
270.538	346.75
270.77	346.75
271.002	359.75
271.234	328.75
271.466	312.75
271.698	346.75
271.93	338.75
272.162	350.75
272.394	353.75
272.626	329.75
272.858	323.75
273.09	304.75
273.322	313.75
273.553	293.75
273.785	309.75
274.017	294.75
274.249	297.75
274.481	304.75
274.713	298.75
274.945	312.75
275.176	317.75
275.408	309.75
275.64	306.75
275.872	305.75
276.104	310.75
276.335	303.75
276.567	309.75
276.799	301.75
277.031	348.75
277.262	338.75
277.494	337.75
277.726	335.75
277.957	337.75
278.189	322.75
278.421	296.75
278.652	313.75
278.884	316.75
279.115	307.75
279.347	291.75
279.579	298.75
279.81	289.75
280.042	310.75
280.273	301.75
280.505	293.75
280.736	301.75
280.968	293.75
281.199	284.75
281.431	299.75
281.662	314.75
281.894	311.75
282.125	288.75
282.356	313.75
282.588	327.75
282.819	332.75
283.051	301.75
283.282	309.75
283.513	320.75
283.745	320.75
283.976	327.75
284.207	341.75
284.439	313.75
284.67	327.75
284.901	317.75
285.132	323.75
285.364	313.75
285.595	296.75
285.826	320.75
286.057	320.75
286.288	313.75
286.52	333.75
286.751	322.75
286.982	331.75
287.213	335.75
287.444	343.75
287.675	329.75
287.906	360.75
288.138	341.75
288.369	351.75
288.6	351.75
288.831	343.75
289.062	329.75
289.293	333.75
289.524	325.75
289.755	325.75
289.986	344.75
290.217	321.75
290.448	329.75
290.679	327.75
290.91	356.75
291.141	317.75
291.371	314.75
291.602	335.75
291.833	346.75
292.064	332.75
292.295	325.75
292.526	318.75
292.757	333.75
292.987	340.75
293.218	329.75
293.449	330.75
293.68	339.75
293.91	346.75
294.141	329.75
294.372	317.75
294.603	346.75
294.833	331.75
295.064	337.75
295.295	338.75
295.525	350.75
295.756	330.75
295.987	354.75
296.217	348.75
296.448	378.75
296.679	363.75
296.909	346.75
297.14	342.75
297.37	364.75
297.601	360.75
297.831	349.75
298.062	341.75
298.292	338.75
298.523	354.75
298.753	360.75
298.984	358.75
299.214	369.75
299.445	367.75
299.675	354.75
299.905	344.75
300.136	354.75
300.366	358.75
300.597	360.75
300.827	345.75
301.057	349.75
301.288	368.75
301.518	373.75
301.748	386.75
301.979	398.75
302.209	381.75
302.439	382.75
302.669	376.75
302.9	383.75
303.13	370.75
303.36	368.75
303.59	390.75
303.82	395.75
304.051	378.75
304.281	383.75
304.511	376.75
304.741	370.75
304.971	365.75
305.201	371.75
305.431	363.75
305.661	378.75
305.891	390.75
306.121	376.75
306.352	402.75
306.582	396.75
306.812	391.75
307.042	393.75
307.272	391.75
307.502	392.75
307.731	406.75
307.961	377.75
308.191	384.75
308.421	409.75
308.651	381.75
308.881	377.75
309.111	401.75
309.341	395.75
309.571	402.75
309.8	403.75
310.03	443.75
310.26	429.75
310.49	399.75
310.72	415.75
310.949	435.75
311.179	433.75
311.409	420.75
311.639	422.75
311.868	425.75
312.098	420.75
312.328	431.75
312.557	440.75
312.787	439.75
313.017	450.75
313.246	422.75
313.476	434.75
313.706	449.75
313.935	444.75
314.165	438.75
314.394	445.75
314.624	459.75
314.853	449.75
315.083	432.75
315.312	430.75
315.542	422.75
315.771	413.75
316.001	422.75
316.23	405.75
316.46	433.75
316.689	417.75
316.919	437.75
317.148	439.75
317.377	439.75
317.607	423.75
317.836	431.75
318.065	435.75
318.295	435.75
318.524	425.75
318.753	408.75
318.983	434.75
319.212	413.75
319.441	414.75
319.67	428.75
319.9	439.75
320.129	410.75
320.358	426.75
320.587	439.75
320.816	440.75
321.046	453.75
321.275	449.75
321.504	440.75
321.733	453.75
321.962	443.75
322.191	450.75
322.42	485.75
322.649	472.75
322.878	469.75
323.108	478.75
323.337	521.75
323.566	526.75
323.795	565.75
324.024	583.75
324.253	669.75
324.482	944.75
324.71	1356.75
324.939	2047.75
325.168	1809.75
325.397	915.75
325.626	667.75
325.855	576.75
326.084	541.75
326.313	541.75
326.542	535.75
326.77	579.75
326.999	652.75
327.228	861.75
327.457	1294.75
327.686	1579.75
327.914	1088.75
328.143	721.75
328.372	622.75
328.6	607.75
328.829	596.75
329.058	601.75
329.287	597.75
329.515	575.75
329.744	537.75
329.972	547.75
330.201	561.75
330.43	605.75
330.658	617.75
330.887	634.75
331.115	631.75
331.344	572.75
331.572	547.75
331.801	551.75
332.03	557.75
332.258	527.75
332.486	503.75
332.715	510.75
332.943	529.75
333.172	527.75
333.4	529.75
333.629	540.75
333.857	556.75
334.085	559.75
334.314	568.75
334.542	601.75
334.771	608.75
334.999	545.75
335.227	558.75
335.455	522.75
335.684	535.75
335.912	510.75
336.14	508.75
336.369	528.75
336.597	538.75
336.825	523.75
337.053	504.75
337.281	529.75
337.51	510.75
337.738	493.75
337.966	507.75
338.194	507.75
338.422	511.75
338.65	511.75
338.878	524.75
339.106	495.75
339.334	494.75
339.562	490.75
339.79	494.75
340.018	505.75
340.246	489.75
340.474	507.75
340.702	474.75
340.93	493.75
341.158	488.75
341.386	481.75
341.614	500.75
341.842	494.75
342.07	455.75
342.298	491.75
342.526	480.75
342.754	481.75
342.981	470.75
343.209	485.75
343.437	494.75
343.665	510.75
343.893	515.75
344.12	529.75
344.348	513.75
344.576	496.75
344.804	493.75
345.031	510.75
345.259	514.75
345.487	511.75
345.714	493.75
345.942	472.75
346.17	481.75
346.397	503.75
346.625	490.75
346.853	469.75
347.08	464.75
347.308	479.75
347.535	482.75
347.763	480.75
347.99	475.75
348.218	466.75
348.445	502.75
348.673	506.75
348.9	486.75
349.128	455.75
349.355	469.75
349.583	475.75
349.81	473.75
350.037	481.75
350.265	465.75
350.492	456.75
350.72	450.75
350.947	489.75
351.174	498.75
351.402	487.75
351.629	461.75
351.856	473.75
352.083	491.75
352.311	470.75
352.538	508.75
352.765	488.75
352.992	477.75
353.22	468.75
353.447	477.75
353.674	489.75
353.901	454.75
354.128	458.75
354.355	444.75
354.583	450.75
354.81	452.75
355.037	455.75
355.264	456.75
355.491	445.75
355.718	447.75
355.945	424.75
356.172	441.75
356.399	429.75
356.626	454.75
356.853	461.75
357.08	454.75
357.307	467.75
357.534	463.75
357.761	446.75
357.988	439.75
358.215	448.75
358.441	441.75
358.668	462.75
358.895	467.75
359.122	470.75
359.349	465.75
359.576	460.75
359.802	502.75
360.029	519.75
360.256	517.75
360.483	503.75
360.709	494.75
360.936	489.75
361.163	473.75
361.39	470.75
361.616	496.75
361.843	473.75
362.07	480.75
362.296	477.75
362.523	462.75
362.749	471.75
362.976	469.75
363.203	480.75
363.429	479.75
363.656	475.75
363.882	481.75
364.109	471.75
364.335	446.75
364.562	455.75
364.788	460.75
365.015	447.75
365.241	445.75
365.468	471.75
365.694	463.75
365.92	487.75
366.147	459.75
366.373	446.75
366.599	465.75
366.826	446.75
367.052	461.75
367.278	465.75
367.505	466.75
367.731	473.75
367.957	454.75
368.184	488.75
368.41	481.75
368.636	483.75
368.862	492.75
369.089	482.75
369.315	476.75
369.541	446.75
369.767	462.75
369.993	470.75
370.219	451.75
370.445	471.75
370.672	480.75
370.898	465.75
371.124	466.75
371.35	462.75
371.576	476.75
371.802	465.75
372.028	464.75
372.254	496.75
372.48	470.75
372.706	481.75
372.932	468.75
373.158	494.75
373.384	476.75
373.61	474.75
373.835	481.75
374.061	459.75
374.287	473.75
374.513	499.75
374.739	483.75
374.965	484.75
375.191	513.75
375.416	496.75
375.642	491.75
375.868	486.75
376.094	460.75
376.319	490.75
376.545	470.75
376.771	479.75
376.997	481.75
377.222	466.75
377.448	453.75
377.674	469.75
377.899	466.75
378.125	460.75
378.35	484.75
378.576	475.75
378.802	491.75
379.027	477.75
379.253	487.75
379.478	488.75
379.704	469.75
379.929	479.75
380.155	487.75
380.38	471.75
380.606	467.75
380.831	480.75
381.057	473.75
381.282	498.75
381.507	485.75
381.733	484.75
381.958	489.75
382.184	490.75
382.409	483.75
382.634	487.75
382.86	495.75
383.085	495.75
383.31	501.75
383.535	484.75
383.761	515.75
383.986	475.75
384.211	499.75
384.436	509.75
384.662	502.75
384.887	527.75
385.112	511.75
385.337	534.75
385.562	544.75
385.787	539.75
386.013	551.75
386.238	565.75
386.463	549.75
386.688	537.75
386.913	535.75
387.138	519.75
387.363	556.75
387.588	530.75
387.813	541.75
388.038	520.75
388.263	525.75
388.488	510.75
388.713	546.75
388.938	530.75
389.163	526.75
389.387	532.75
389.612	538.75
389.837	560.75
390.062	529.75
390.287	540.75
390.512	537.75
390.736	515.75
390.961	528.75
391.186	537.75
391.411	560.75
391.636	558.75
391.86	553.75
392.085	547.75
392.31	560.75
392.534	545.75
392.759	553.75
392.984	541.75
393.208	540.75
393.433	558.75
393.658	547.75
393.882	521.75
394.107	535.75
394.331	540.75
394.556	506.75
394.78	547.75
395.005	572.75
395.229	572.75
395.454	566.75
395.678	554.75
395.903	538.75
396.127	591.75
396.352	589.75
396.576	579.75
396.801	584.75
397.025	563.75
397.249	554.75
397.474	573.75
397.698	567.75
397.922	576.75
398.147	597.75
398.371	621.75
398.595	610.75
398.82	622.75
399.044	626.75
399.268	666.75
399.492	714.75
399.717	747.75
399.941	800.75
400.165	781.75
400.389	773.75
400.613	711.75
400.837	697.75
401.062	623.75
401.286	649.75
401.51	637.75
401.734	623.75
401.958	628.75
402.182	651.75
402.406	643.75
402.63	635.75
402.854	634.75
403.078	664.75
403.302	647.75
403.526	655.75
403.75	669.75
403.974	662.75
404.198	637.75
404.422	666.75
404.645	683.75
404.869	700.75
405.093	697.75
405.317	747.75
405.541	771.75
405.765	737.75
405.988	663.75
406.212	688.75
406.436	698.75
406.66	715.75
406.883	695.75
407.107	760.75
407.331	787.75
407.555	862.75
407.778	885.75
408.002	765.75
408.226	739.75
408.449	722.75
408.673	700.75
408.896	734.75
409.12	799.75
409.344	767.75
409.567	690.75
409.791	672.75
410.014	641.75
410.238	639.75
410.461	653.75
410.685	648.75
410.908	669.75
411.132	697.75
411.355	737.75
411.578	699.75
411.802	655.75
412.025	671.75
412.249	667.75
412.472	688.75
412.695	715.75
412.919	705.75
413.142	643.75
413.365	639.75
413.589	649.75
413.812	632.75
414.035	615.75
414.258	618.75
414.482	609.75
414.705	619.75
414.928	639.75
415.151	620.75
415.374	606.75
415.597	620.75
415.821	614.75
416.044	640.75
416.267	625.75
416.49	629.75
416.713	606.75
416.936	625.75
417.159	606.75
417.382	631.75
417.605	623.75
417.828	633.75
418.051	637.75
418.274	641.75
418.497	608.75
418.72	626.75
418.943	640.75
419.166	633.75
419.389	657.75
419.611	673.75
419.834	681.75
420.057	654.75
420.28	663.75
420.503	626.75
420.726	613.75
420.948	678.75
421.171	697.75
421.394	725.75
421.617	649.75
421.839	649.75
422.062	648.75
422.285	660.75
422.507	693.75
422.73	805.75
422.953	788.75
423.175	707.75
423.398	669.75
423.621	658.75
423.843	697.75
424.066	684.75
424.288	670.75
424.511	706.75
424.733	761.75
424.956	858.75
425.178	831.75
425.401	816.75
425.623	841.75
425.846	713.75
426.068	698.75
426.291	673.75
426.513	675.75
426.735	712.75
426.958	714.75
427.18	802.75
427.402	950.75
427.625	1017.75
427.847	897.75
428.069	791.75
428.292	705.75
428.514	650.75
428.736	642.75
428.958	643.75
429.181	626.75
429.403	619.75
429.625	630.75
429.847	672.75
430.069	735.75
430.292	740.75
430.514	643.75
430.736	630.75
430.958	621.75
431.18	603.75
431.402	634.75
431.624	593.75
431.846	586.75
432.068	587.75
432.29	596.75
432.512	604.75
432.734	622.75
432.956	603.75
433.178	589.75
433.4	630.75
433.622	607.75
433.844	609.75
434.066	610.75
434.287	608.75
434.509	611.75
434.731	622.75
434.953	639.75
435.175	625.75
435.397	672.75
435.618	679.75
435.84	706.75
436.062	825.75
436.284	859.75
436.505	741.75
436.727	685.75
436.949	653.75
437.17	628.75
437.392	631.75
437.614	652.75
437.835	651.75
438.057	748.75
438.278	876.75
438.5	860.75
438.721	956.75
438.943	933.75
439.165	746.75
439.386	689.75
439.608	680.75
439.829	674.75
440.05	695.75
440.272	761.75
440.493	718.75
440.715	661.75
440.936	647.75
441.158	624.75
441.379	649.75
441.6	650.75
441.822	673.75
442.043	714.75
442.264	806.75
442.486	841.75
442.707	743.75
442.928	704.75
443.149	697.75
443.371	758.75
443.592	758.75
443.813	895.75
444.034	943.75
444.255	782.75
444.476	723.75
444.698	674.75
444.919	697.75
445.14	829.75
445.361	755.75
445.582	699.75
445.803	773.75
446.024	893.75
446.245	890.75
446.466	812.75
446.687	717.75
446.908	695.75
447.129	622.75
447.35	618.75
447.571	635.75
447.792	603.75
448.013	623.75
448.234	614.75
448.455	686.75
448.675	793.75
448.896	941.75
449.117	795.75
449.338	763.75
449.559	858.75
449.779	981.75
450	806.75
450.221	673.75
450.442	659.75
450.662	606.75
450.883	603.75
451.104	613.75
451.324	590.75
451.545	580.75
451.766	560.75
451.986	567.75
452.207	545.75
452.428	553.75
452.648	566.75
452.869	544.75
453.089	577.75
453.31	585.75
453.53	564.75
453.751	541.75
453.971	547.75
454.192	591.75
454.412	548.75
454.633	550.75
454.853	546.75
455.073	558.75
455.294	575.75
455.514	640.75
455.734	625.75
455.955	561.75
456.175	517.75
456.395	535.75
456.616	544.75
456.836	523.75
457.056	537.75
457.276	522.75
457.497	546.75
457.717	531.75
457.937	547.75
458.157	549.75
458.377	558.75
458.598	563.75
458.818	632.75
459.038	711.75
459.258	737.75
459.478	651.75
459.698	623.75
459.918	587.75
460.138	601.75
460.358	629.75
460.578	625.75
460.798	611.75
461.018	625.75
461.238	651.75
461.458	645.75
461.678	591.75
461.898	630.75
462.118	622.75
462.338	641.75
462.558	648.75
462.777	673.75
462.997	671.75
463.217	710.75
463.437	714.75
463.657	706.75
463.876	690.75
464.096	687.75
464.316	671.75
464.536	682.75
464.755	661.75
464.975	659.75
465.195	686.75
465.414	733.75
465.634	682.75
465.854	640.75
466.073	618.75
466.293	611.75
466.512	590.75
466.732	574.75
466.951	566.75
467.171	563.75
467.391	600.75
467.61	583.75
467.829	595.75
468.049	613.75
468.268	583.75
468.488	560.75
468.707	561.75
468.927	554.75
469.146	574.75
469.365	554.75
469.585	567.75
469.804	554.75
470.023	579.75
470.243	572.75
470.462	597.75
470.681	604.75
470.901	595.75
471.12	580.75
471.339	598.75
471.558	564.75
471.777	563.75
471.997	579.75
472.216	570.75
472.435	633.75
472.654	611.75
472.873	585.75
473.092	555.75
473.311	581.75
473.53	587.75
473.749	594.75
473.968	609.75
474.187	695.75
474.406	748.75
474.625	633.75
474.844	585.75
475.063	560.75
475.282	590.75
475.501	578.75
475.72	590.75
475.939	586.75
476.158	594.75
476.377	600.75
476.596	591.75
476.814	615.75
477.033	599.75
477.252	611.75
477.471	631.75
477.69	620.75
477.908	642.75
478.127	665.75
478.346	651.75
478.564	647.75
478.783	659.75
479.002	654.75
479.22	659.75
479.439	688.75
479.658	695.75
479.876	708.75
480.095	689.75
480.313	751.75
480.532	762.75
480.751	721.75
480.969	726.75
481.188	750.75
481.406	789.75
481.624	727.75
481.843	711.75
482.061	684.75
482.28	682.75
482.498	659.75
482.717	684.75
482.935	688.75
483.153	689.75
483.372	699.75
483.59	667.75
483.808	679.75
484.027	677.75
484.245	706.75
484.463	669.75
484.681	715.75
484.9	722.75
485.118	691.75
485.336	686.75
485.554	693.75
485.772	695.75
485.99	693.75
486.209	683.75
486.427	707.75
486.645	693.75
486.863	720.75
487.081	727.75
487.299	722.75
487.517	716.75
487.735	709.75
487.953	718.75
488.171	728.75
488.389	730.75
488.607	723.75
488.825	734.75
489.043	754.75
489.261	736.75
489.479	732.75
489.696	728.75
489.914	755.75
490.132	759.75
490.35	769.75
490.568	772.75
490.786	797.75
491.003	793.75
491.221	794.75
491.439	796.75
491.657	853.75
491.874	831.75
492.092	841.75
492.31	839.75
492.527	839.75
492.745	843.75
492.963	870.75
493.18	864.75
493.398	853.75
493.615	845.75
493.833	860.75
494.05	873.75
494.268	867.75
494.485	867.75
494.703	880.75
494.92	852.75
495.138	876.75
495.355	866.75
495.573	883.75
495.79	882.75
496.008	902.75
496.225	856.75
496.442	894.75
496.66	871.75
496.877	872.75
497.094	868.75
497.312	880.75
497.529	887.75
497.746	904.75
497.963	908.75
498.181	934.75
498.398	959.75
498.615	979.75
498.832	1014.75
499.049	1039.75
499.267	1080.75
499.484	1122.75
499.701	1149.75
499.918	1195.75
500.135	1272.75
500.352	1387.75
500.569	1375.75
500.786	1399.75
501.003	1362.75
501.22	1319.75
501.437	1234.75
501.654	1177.75
501.871	1179.75
502.088	1103.75
502.305	1068.75
502.522	1000.75
502.739	995.75
502.956	959.75
503.172	950.75
503.389	901.75
503.606	915.75
503.823	888.75
504.04	901.75
504.256	888.75
504.473	897.75
504.69	897.75
504.907	865.75
505.123	864.75
505.34	837.75
505.557	849.75
505.773	851.75
505.99	831.75
506.207	807.75
506.423	813.75
506.64	795.75
506.856	816.75
507.073	777.75
507.289	778.75
507.506	791.75
507.722	794.75
507.939	813.75
508.155	787.75
508.372	771.75
508.588	750.75
508.805	777.75
509.021	756.75
509.238	793.75
509.454	782.75
509.67	797.75
509.887	781.75
510.103	773.75
510.319	770.75
510.536	841.75
510.752	1238.75
510.968	1070.75
511.184	752.75
511.401	723.75
511.617	745.75
511.833	746.75
512.049	742.75
512.265	731.75
512.481	702.75
512.698	710.75
512.914	711.75
513.13	719.75
513.346	726.75
513.562	729.75
513.778	718.75
513.994	729.75
514.21	719.75
514.426	753.75
514.642	795.75
514.858	809.75
515.074	838.75
515.29	907.75
515.506	1221.75
515.721	1073.75
515.937	823.75
516.153	771.75
516.369	764.75
516.585	748.75
516.801	749.75
517.016	751.75
517.232	765.75
517.448	766.75
517.664	777.75
517.879	800.75
518.095	781.75
518.311	806.75
518.527	754.75
518.742	749.75
518.958	733.75
519.173	749.75
519.389	740.75
519.605	725.75
519.82	708.75
520.036	718.75
520.251	761.75
520.467	762.75
520.682	737.75
520.898	761.75
521.113	775.75
521.329	801.75
521.544	844.75
521.76	1031.75
521.975	1562.75
522.19	1549.75
522.406	952.75
522.621	768.75
522.836	719.75
523.052	714.75
523.267	670.75
523.482	650.75
523.698	656.75
523.913	657.75
524.128	660.75
524.343	629.75
524.559	643.75
524.774	619.75
524.989	638.75
525.204	629.75
525.419	649.75
525.634	613.75
525.849	598.75
526.064	592.75
526.28	614.75
526.495	597.75
526.71	603.75
526.925	609.75
527.14	606.75
527.355	608.75
527.57	592.75
527.785	564.75
527.999	591.75
528.214	598.75
528.429	612.75
528.644	590.75
528.859	607.75
529.074	602.75
529.289	592.75
529.503	683.75
529.718	679.75
529.933	643.75
530.148	599.75
530.363	624.75
530.577	608.75
530.792	609.75
531.007	559.75
531.221	587.75
531.436	570.75
531.651	562.75
531.865	581.75
532.08	576.75
532.295	575.75
532.509	566.75
532.724	581.75
532.938	573.75
533.153	585.75
533.367	556.75
533.582	571.75
533.796	588.75
534.011	557.75
534.225	575.75
534.44	570.75
534.654	579.75
534.868	561.75
535.083	569.75
535.297	573.75
535.511	566.75
535.726	598.75
535.94	573.75
536.154	557.75
536.369	561.75
536.583	565.75
536.797	569.75
537.011	570.75
537.225	554.75
537.44	541.75
537.654	535.75
537.868	543.75
538.082	574.75
538.296	541.75
538.51	546.75
538.724	571.75
538.938	558.75
539.153	543.75
539.367	575.75
539.581	552.75
539.795	570.75
540.009	561.75
540.222	551.75
540.436	542.75
540.65	549.75
540.864	557.75
541.078	575.75
541.292	549.75
541.506	559.75
541.72	545.75
541.934	544.75
542.147	558.75
542.361	554.75
542.575	560.75
542.789	514.75
543.002	519.75
543.216	553.75
543.43	565.75
543.644	537.75
543.857	538.75
544.071	573.75
544.285	551.75
544.498	532.75
544.712	543.75
544.925	545.75
545.139	546.75
545.352	526.75
545.566	549.75
545.779	515.75
545.993	546.75
546.206	555.75
546.42	536.75
546.633	531.75
546.847	534.75
547.06	539.75
547.274	561.75
547.487	537.75
547.7	541.75
547.914	528.75
548.127	541.75
548.34	551.75
548.554	559.75
548.767	546.75
548.98	539.75
549.193	556.75
549.407	553.75
549.62	538.75
549.833	540.75
550.046	530.75
550.259	535.75
550.473	526.75
550.686	527.75
550.899	547.75
551.112	520.75
551.325	505.75
551.538	525.75
551.751	537.75
551.964	534.75
552.177	481.75
552.39	535.75
552.603	549.75
552.816	530.75
553.029	548.75
553.242	552.75
553.455	546.75
553.667	589.75
553.88	562.75
554.093	562.75
554.306	576.75
554.519	551.75
554.732	543.75
554.944	539.75
555.157	535.75
555.37	513.75
555.583	490.75
555.795	523.75
556.008	497.75
556.221	487.75
556.433	490.75
556.646	504.75
556.859	487.75
557.071	486.75
557.284	489.75
557.496	480.75
557.709	497.75
557.921	479.75
558.134	470.75
558.346	496.75
558.559	472.75
558.771	469.75
558.984	478.75
559.196	473.75
559.409	463.75
559.621	475.75
559.833	460.75
560.046	474.75
560.258	462.75
560.47	462.75
560.683	471.75
560.895	472.75
561.107	466.75
561.32	440.75
561.532	462.75
561.744	471.75
561.956	493.75
562.168	483.75
562.381	487.75
562.593	502.75
562.805	478.75
563.017	486.75
563.229	468.75
563.441	481.75
563.653	508.75
563.865	495.75
564.077	478.75
564.289	480.75
564.501	496.75
564.713	480.75
564.925	507.75
565.137	499.75
565.349	519.75
565.561	530.75
565.773	532.75
565.985	538.75
566.197	558.75
566.408	582.75
566.62	604.75
566.832	618.75
567.044	604.75
567.255	618.75
567.467	653.75
567.679	659.75
567.891	649.75
568.102	658.75
568.314	634.75
568.526	624.75
568.737	587.75
568.949	582.75
569.161	524.75
569.372	514.75
569.584	515.75
569.795	511.75
570.007	472.75
570.218	521.75
570.43	535.75
570.641	481.75
570.853	464.75
571.064	480.75
571.276	480.75
571.487	456.75
571.698	439.75
571.91	445.75
572.121	442.75
572.333	442.75
572.544	412.75
572.755	427.75
572.966	433.75
573.178	435.75
573.389	407.75
573.6	400.75
573.811	400.75
574.023	416.75
574.234	413.75
574.445	416.75
574.656	400.75
574.867	418.75
575.078	418.75
575.289	404.75
575.501	414.75
575.712	389.75
575.923	395.75
576.134	394.75
576.345	402.75
576.556	399.75
576.767	420.75
576.978	389.75
577.188	409.75
577.399	404.75
577.61	382.75
577.821	385.75
578.032	393.75
578.243	420.75
578.454	583.75
578.665	469.75
578.875	396.75
579.086	359.75
579.297	360.75
579.508	384.75
579.718	359.75
579.929	377.75
580.14	373.75
580.35	366.75
580.561	375.75
580.772	360.75
580.982	371.75
581.193	377.75
581.403	396.75
581.614	378.75
581.825	380.75
582.035	370.75
582.246	353.75
582.456	358.75
582.667	391.75
582.877	369.75
583.087	366.75
583.298	375.75
583.508	351.75
583.719	339.75
583.929	361.75
584.139	364.75
584.35	362.75
584.56	357.75
584.77	356.75
584.981	359.75
585.191	364.75
585.401	355.75
585.611	359.75
585.821	341.75
586.032	370.75
586.242	351.75
586.452	351.75
586.662	354.75
586.872	350.75
587.082	352.75
587.292	342.75
587.502	368.75
587.713	362.75
587.923	354.75
588.133	334.75
588.343	341.75
588.553	333.75
588.762	355.75
588.972	346.75
589.182	343.75
589.392	354.75
589.602	327.75
589.812	331.75
590.022	347.75
590.232	355.75
590.441	361.75
590.651	358.75
590.861	339.75
591.071	351.75
591.281	360.75
591.49	357.75
591.7	339.75
591.91	382.75
592.119	373.75
592.329	381.75
592.539	380.75
592.748	399.75
592.958	385.75
593.167	385.75
593.377	379.75
593.587	387.75
593.796	403.75
594.006	382.75
594.215	385.75
594.424	392.75
594.634	393.75
594.843	366.75
595.053	385.75
595.262	363.75
595.472	354.75
595.681	353.75
595.89	332.75
596.1	338.75
596.309	363.75
596.518	342.75
596.727	348.75
596.937	335.75
597.146	334.75
597.355	352.75
597.564	322.75
597.774	320.75
597.983	318.75
598.192	321.75
598.401	321.75
598.61	306.75
598.819	323.75
599.028	332.75
599.237	306.75
599.446	303.75
599.655	302.75
599.864	316.75
600.073	319.75
600.282	315.75
600.491	313.75
600.7	313.75
600.909	306.75
601.118	316.75
601.327	319.75
601.536	294.75
601.745	306.75
601.953	306.75
602.162	306.75
602.371	307.75
602.58	298.75
602.789	292.75
602.997	301.75
603.206	319.75
603.415	294.75
603.623	304.75
603.832	297.75
604.041	296.75
604.249	284.75
604.458	296.75
604.666	296.75
604.875	286.75
605.084	288.75
605.292	291.75
605.501	299.75
605.709	282.75
605.918	289.75
606.126	287.75
606.334	294.75
606.543	301.75
606.751	298.75
606.96	274.75
607.168	275.75
607.376	282.75
607.585	309.75
607.793	290.75
608.001	275.75
608.21	286.75
608.418	298.75
608.626	302.75
608.834	273.75
609.043	303.75
609.251	306.75
609.459	287.75
609.667	286.75
609.875	291.75
610.083	297.75
610.291	291.75
610.499	285.75
610.707	279.75
610.916	291.75
611.124	297.75
611.332	289.75
611.54	289.75
611.748	305.75
611.955	281.75
612.163	279.75
612.371	259.75
612.579	283.75
612.787	288.75
612.995	281.75
613.203	280.75
613.411	277.75
613.618	272.75
613.826	286.75
614.034	279.75
614.242	285.75
614.449	266.75
614.657	269.75
614.865	288.75
615.072	269.75
615.28	279.75
615.488	268.75
615.695	281.75
615.903	276.75
616.111	278.75
616.318	283.75
616.526	277.75
616.733	278.75
616.941	292.75
617.148	276.75
617.356	283.75
617.563	294.75
617.771	281.75
617.978	295.75
618.185	274.75
618.393	253.75
618.6	285.75
618.807	284.75
619.015	280.75
619.222	282.75
619.429	258.75
619.637	266.75
619.844	245.75
620.051	273.75
620.258	267.75
620.466	273.75
620.673	270.75
620.88	255.75
621.087	268.75
621.294	270.75
621.501	269.75
621.708	280.75
621.915	255.75
622.122	250.75
622.329	253.75
622.536	290.75
622.743	263.75
622.95	255.75
623.157	262.75
623.364	267.75
623.571	253.75
623.778	263.75
623.985	266.75
624.192	250.75
624.399	258.75
624.606	245.75
624.812	233.75
625.019	254.75
625.226	247.75
625.433	248.75
625.639	238.75
625.846	246.75
626.053	254.75
626.259	223.75
626.466	235.75
626.673	234.75
626.879	248.75
627.086	234.75
627.293	243.75
627.499	234.75
627.706	238.75
627.912	251.75
628.119	234.75
628.325	232.75
628.532	231.75
628.738	219.75
628.945	229.75
629.151	231.75
629.357	226.75
629.564	234.75
629.77	242.75
629.976	241.75
630.183	225.75
630.389	227.75
630.595	236.75
630.802	249.75
631.008	238.75
631.214	235.75
631.42	224.75
631.627	208.75
631.833	243.75
632.039	225.75
632.245	244.75
632.451	225.75
632.657	219.75
632.863	217.75
633.069	207.75
633.275	228.75
633.481	217.75
633.688	205.75
633.893	209.75
634.099	223.75
634.305	217.75
634.511	201.75
634.717	211.75
634.923	208.75
635.129	198.75
635.335	200.75
635.541	211.75
635.747	225.75
635.952	190.75
636.158	215.75
636.364	228.75
636.57	214.75
636.775	210.75
636.981	226.75
637.187	207.75
637.392	228.75
637.598	232.75
637.804	211.75
638.009	219.75
638.215	211.75
638.421	203.75
638.626	208.75
638.832	205.75
639.037	204.75
639.243	215.75
639.448	194.75
639.654	210.75
639.859	210.75
640.065	209.75
640.27	217.75
640.475	199.75
640.681	209.75
640.886	195.75
641.091	221.75
641.297	216.75
641.502	212.75
641.707	194.75
641.913	203.75
642.118	194.75
642.323	194.75
642.528	230.75
642.733	212.75
642.939	202.75
643.144	193.75
643.349	192.75
643.554	199.75
643.759	199.75
643.964	194.75
644.169	188.75
644.374	194.75
644.579	203.75
644.784	206.75
644.989	200.75
645.194	205.75
645.399	187.75
645.604	203.75
645.809	190.75
646.014	199.75
646.219	209.75
646.423	209.75
646.628	207.75
646.833	193.75
647.038	191.75
647.243	187.75
647.447	185.75
647.652	196.75
647.857	190.75
648.062	202.75
648.266	192.75
648.471	197.75
648.676	202.75
648.88	203.75
649.085	184.75
649.289	187.75
649.494	187.75
649.698	205.75
649.903	213.75
650.107	195.75
650.312	183.75
650.516	176.75
650.721	176.75
650.925	171.75
651.13	177.75
651.334	170.75
651.539	170.75
651.743	174.75
651.947	170.75
652.152	169.75
652.356	173.75
652.56	168.75
652.764	159.75
652.969	168.75
653.173	160.75
653.377	165.75
653.581	150.75
653.785	161.75
653.99	170.75
654.194	154.75
654.398	151.75
654.602	153.75
654.806	152.75
655.01	163.75
655.214	169.75
655.418	148.75
655.622	152.75
655.826	139.75
656.03	145.75
656.234	138.75
656.438	156.75
656.642	153.75
656.846	151.75
657.049	137.75
657.253	155.75
657.457	135.75
657.661	139.75
657.865	129.75
658.068	125.75
658.272	129.75
658.476	122.75
658.68	119.75
658.883	109.75
659.087	105.75
659.291	110.75
659.494	103.75
659.698	103.75
659.901	108.75
660.105	104.75
660.309	90.75
660.512	103.75
660.716	100.75
660.919	102.75
661.123	110.75
661.326	94.75
661.53	105.75
661.733	103.75
661.936	89.75
662.14	77.75
662.343	102.75
662.546	96.75
662.75	91.75
662.953	85.75
663.156	74.75
663.36	76.75
663.563	96.75
663.766	74.75
663.969	87.75
664.173	98.75
664.376	98.75
664.579	107.75
664.782	90.75
664.985	83.75
665.188	95.75
665.391	86.75
665.594	71.75
665.797	77.75
666	91.75
666.203	94.75
666.406	73.75
666.609	87.75
666.812	82.75
667.015	86.75
667.218	87.75
667.421	91.75
667.624	97.75
667.827	88.75
668.03	78.75
668.232	70.75
668.435	92.75
668.638	80.75
668.841	82.75
669.043	83.75
669.246	76.75
669.449	84.75
669.651	78.75
669.854	82.75
670.057	80.75
670.259	86.75
670.462	99.75
670.665	97.75
670.867	87.75
671.07	98.75
671.272	81.75
671.475	96.75
671.677	83.75
671.88	89.75
672.082	92.75
672.284	83.75
672.487	106.75
672.689	90.75
672.892	78.75
