Data from 1974.PennyLincolnUp.Lamp.En5.5.200Scan.071719.P1.Changed Mount._HRD10591_15-52-38-857.txt Node
Date: Thu Jul 18 15:52:38 EDT 2019
User: cochatt
Spectrometer: HR+D1059
Trigger mode: 1
Integration Time (sec): 1.000000E-1
Scans to average: 1
Electric dark correction enabled: true
Nonlinearity correction enabled: false
Boxcar width: 0
XAxis mode: Wavelengths
Number of Pixels in Spectrum: 2048
>>>>>Begin Spectral Data<<<<<
223.165	-18.06
223.4	-18.06
223.635	-18.06
223.869	-21.06
224.104	-13.06
224.338	-22.06
224.573	-23.06
224.808	-13.06
225.042	0.94
225.277	1.94
225.511	-0.06
225.746	2.94
225.98	-12.06
226.215	24.94
226.449	8.94
226.683	11.94
226.918	30.94
227.152	39.94
227.387	36.94
227.621	35.94
227.856	38.94
228.09	44.94
228.324	36.94
228.559	61.94
228.793	69.94
229.027	88.94
229.262	91.94
229.496	101.94
229.73	128.94
229.964	142.94
230.199	126.94
230.433	109.94
230.667	107.94
230.901	113.94
231.136	112.94
231.37	125.94
231.604	112.94
231.838	98.94
232.072	115.94
232.306	112.94
232.541	124.94
232.775	120.94
233.009	107.94
233.243	110.94
233.477	129.94
233.711	118.94
233.945	125.94
234.179	110.94
234.413	124.94
234.647	123.94
234.881	136.94
235.115	120.94
235.349	141.94
235.583	130.94
235.817	131.94
236.051	130.94
236.285	123.94
236.519	124.94
236.753	121.94
236.987	153.94
237.221	182.94
237.455	208.94
237.689	176.94
237.922	137.94
238.156	128.94
238.39	123.94
238.624	119.94
238.858	128.94
239.091	137.94
239.325	132.94
239.559	123.94
239.793	139.94
240.027	142.94
240.26	141.94
240.494	157.94
240.728	155.94
240.961	157.94
241.195	150.94
241.429	144.94
241.662	154.94
241.896	146.94
242.13	155.94
242.363	134.94
242.597	155.94
242.83	145.94
243.064	150.94
243.298	142.94
243.531	150.94
243.765	164.94
243.998	148.94
244.232	157.94
244.465	149.94
244.699	143.94
244.932	165.94
245.166	156.94
245.399	128.94
245.633	163.94
245.866	146.94
246.099	152.94
246.333	168.94
246.566	154.94
246.8	172.94
247.033	156.94
247.266	163.94
247.5	161.94
247.733	162.94
247.966	166.94
248.2	200.94
248.433	169.94
248.666	166.94
248.899	201.94
249.133	192.94
249.366	193.94
249.599	194.94
249.832	182.94
250.066	178.94
250.299	167.94
250.532	184.94
250.765	213.94
250.998	225.94
251.231	243.94
251.465	216.94
251.698	203.94
251.931	201.94
252.164	215.94
252.397	210.94
252.63	200.94
252.863	210.94
253.096	233.94
253.329	245.94
253.562	238.94
253.795	236.94
254.028	225.94
254.261	215.94
254.494	242.94
254.727	270.94
254.96	309.94
255.193	277.94
255.426	251.94
255.659	248.94
255.892	229.94
256.124	233.94
256.357	218.94
256.59	226.94
256.823	215.94
257.056	214.94
257.289	226.94
257.521	216.94
257.754	219.94
257.987	215.94
258.22	226.94
258.452	211.94
258.685	214.94
258.918	218.94
259.151	226.94
259.383	226.94
259.616	235.94
259.849	224.94
260.081	242.94
260.314	264.94
260.547	264.94
260.779	250.94
261.012	257.94
261.244	218.94
261.477	227.94
261.71	215.94
261.942	228.94
262.175	220.94
262.407	235.94
262.64	235.94
262.872	228.94
263.105	227.94
263.337	216.94
263.57	229.94
263.802	222.94
264.035	198.94
264.267	216.94
264.499	219.94
264.732	230.94
264.964	213.94
265.197	229.94
265.429	233.94
265.661	236.94
265.894	230.94
266.126	240.94
266.358	241.94
266.591	213.94
266.823	240.94
267.055	249.94
267.287	246.94
267.52	232.94
267.752	247.94
267.984	236.94
268.216	243.94
268.448	237.94
268.681	260.94
268.913	248.94
269.145	257.94
269.377	284.94
269.609	280.94
269.841	291.94
270.073	286.94
270.306	301.94
270.538	313.94
270.77	330.94
271.002	306.94
271.234	299.94
271.466	314.94
271.698	307.94
271.93	308.94
272.162	329.94
272.394	325.94
272.626	309.94
272.858	297.94
273.09	296.94
273.322	270.94
273.553	256.94
273.785	269.94
274.017	259.94
274.249	259.94
274.481	262.94
274.713	259.94
274.945	276.94
275.176	291.94
275.408	296.94
275.64	274.94
275.872	282.94
276.104	264.94
276.335	286.94
276.567	272.94
276.799	292.94
277.031	308.94
277.262	326.94
277.494	322.94
277.726	329.94
277.957	298.94
278.189	280.94
278.421	275.94
278.652	284.94
278.884	291.94
279.115	298.94
279.347	282.94
279.579	267.94
279.81	286.94
280.042	290.94
280.273	283.94
280.505	278.94
280.736	290.94
280.968	286.94
281.199	286.94
281.431	280.94
281.662	275.94
281.894	290.94
282.125	302.94
282.356	299.94
282.588	320.94
282.819	325.94
283.051	316.94
283.282	290.94
283.513	299.94
283.745	292.94
283.976	276.94
284.207	307.94
284.439	292.94
284.67	313.94
284.901	300.94
285.132	296.94
285.364	295.94
285.595	293.94
285.826	296.94
286.057	300.94
286.288	309.94
286.52	310.94
286.751	299.94
286.982	299.94
287.213	297.94
287.444	286.94
287.675	308.94
287.906	305.94
288.138	341.94
288.369	315.94
288.6	333.94
288.831	328.94
289.062	332.94
289.293	307.94
289.524	294.94
289.755	298.94
289.986	304.94
290.217	312.94
290.448	304.94
290.679	281.94
290.91	320.94
291.141	326.94
291.371	322.94
291.602	318.94
291.833	304.94
292.064	317.94
292.295	315.94
292.526	300.94
292.757	308.94
292.987	332.94
293.218	304.94
293.449	311.94
293.68	316.94
293.91	309.94
294.141	319.94
294.372	318.94
294.603	315.94
294.833	310.94
295.064	312.94
295.295	311.94
295.525	310.94
295.756	340.94
295.987	340.94
296.217	346.94
296.448	322.94
296.679	323.94
296.909	333.94
297.14	326.94
297.37	338.94
297.601	331.94
297.831	324.94
298.062	305.94
298.292	314.94
298.523	313.94
298.753	325.94
298.984	321.94
299.214	329.94
299.445	328.94
299.675	333.94
299.905	336.94
300.136	349.94
300.366	338.94
300.597	336.94
300.827	350.94
301.057	340.94
301.288	333.94
301.518	354.94
301.748	333.94
301.979	351.94
302.209	370.94
302.439	357.94
302.669	345.94
302.9	349.94
303.13	353.94
303.36	362.94
303.59	349.94
303.82	346.94
304.051	342.94
304.281	350.94
304.511	339.94
304.741	347.94
304.971	355.94
305.201	348.94
305.431	360.94
305.661	356.94
305.891	342.94
306.121	369.94
306.352	360.94
306.582	366.94
306.812	364.94
307.042	352.94
307.272	355.94
307.502	356.94
307.731	339.94
307.961	358.94
308.191	372.94
308.421	350.94
308.651	350.94
308.881	360.94
309.111	346.94
309.341	366.94
309.571	381.94
309.8	388.94
310.03	380.94
310.26	397.94
310.49	406.94
310.72	413.94
310.949	401.94
311.179	414.94
311.409	396.94
311.639	381.94
311.868	380.94
312.098	396.94
312.328	389.94
312.557	422.94
312.787	420.94
313.017	405.94
313.246	408.94
313.476	380.94
313.706	402.94
313.935	403.94
314.165	432.94
314.394	389.94
314.624	420.94
314.853	403.94
315.083	399.94
315.312	401.94
315.542	387.94
315.771	398.94
316.001	384.94
316.23	393.94
316.46	404.94
316.689	390.94
316.919	390.94
317.148	398.94
317.377	404.94
317.607	408.94
317.836	418.94
318.065	390.94
318.295	405.94
318.524	417.94
318.753	395.94
318.983	411.94
319.212	393.94
319.441	410.94
319.67	406.94
319.9	406.94
320.129	393.94
320.358	403.94
320.587	406.94
320.816	408.94
321.046	416.94
321.275	419.94
321.504	422.94
321.733	410.94
321.962	420.94
322.191	428.94
322.42	423.94
322.649	433.94
322.878	469.94
323.108	465.94
323.337	452.94
323.566	477.94
323.795	498.94
324.024	528.94
324.253	611.94
324.482	817.94
324.71	1249.94
324.939	1826.94
325.168	1601.94
325.397	850.94
325.626	588.94
325.855	526.94
326.084	508.94
326.313	472.94
326.542	484.94
326.77	518.94
326.999	592.94
327.228	771.94
327.457	1127.94
327.686	1422.94
327.914	961.94
328.143	644.94
328.372	587.94
328.6	562.94
328.829	532.94
329.058	547.94
329.287	571.94
329.515	530.94
329.744	528.94
329.972	518.94
330.201	523.94
330.43	543.94
330.658	567.94
330.887	597.94
331.115	577.94
331.344	518.94
331.572	521.94
331.801	508.94
332.03	485.94
332.258	482.94
332.486	486.94
332.715	468.94
332.943	493.94
333.172	480.94
333.4	485.94
333.629	498.94
333.857	512.94
334.085	529.94
334.314	533.94
334.542	536.94
334.771	561.94
334.999	537.94
335.227	514.94
335.455	492.94
335.684	508.94
335.912	480.94
336.14	500.94
336.369	484.94
336.597	482.94
336.825	455.94
337.053	458.94
337.281	459.94
337.51	449.94
337.738	476.94
337.966	454.94
338.194	474.94
338.422	484.94
338.65	468.94
338.878	471.94
339.106	466.94
339.334	468.94
339.562	468.94
339.79	449.94
340.018	469.94
340.246	443.94
340.474	465.94
340.702	456.94
340.93	444.94
341.158	460.94
341.386	456.94
341.614	453.94
341.842	460.94
342.07	450.94
342.298	461.94
342.526	429.94
342.754	452.94
342.981	450.94
343.209	458.94
343.437	458.94
343.665	473.94
343.893	477.94
344.12	471.94
344.348	486.94
344.576	477.94
344.804	461.94
345.031	463.94
345.259	491.94
345.487	469.94
345.714	442.94
345.942	465.94
346.17	460.94
346.397	432.94
346.625	454.94
346.853	454.94
347.08	453.94
347.308	439.94
347.535	451.94
347.763	434.94
347.99	431.94
348.218	435.94
348.445	445.94
348.673	449.94
348.9	450.94
349.128	452.94
349.355	458.94
349.583	431.94
349.81	429.94
350.037	438.94
350.265	428.94
350.492	436.94
350.72	440.94
350.947	432.94
351.174	446.94
351.402	438.94
351.629	456.94
351.856	463.94
352.083	440.94
352.311	443.94
352.538	441.94
352.765	456.94
352.992	459.94
353.22	452.94
353.447	434.94
353.674	450.94
353.901	441.94
354.128	415.94
354.355	438.94
354.583	424.94
354.81	420.94
355.037	410.94
355.264	416.94
355.491	429.94
355.718	412.94
355.945	441.94
356.172	422.94
356.399	437.94
356.626	429.94
356.853	421.94
357.08	429.94
357.307	432.94
357.534	414.94
357.761	418.94
357.988	432.94
358.215	420.94
358.441	428.94
358.668	434.94
358.895	444.94
359.122	450.94
359.349	434.94
359.576	420.94
359.802	451.94
360.029	477.94
360.256	503.94
360.483	485.94
360.709	457.94
360.936	454.94
361.163	452.94
361.39	464.94
361.616	461.94
361.843	438.94
362.07	445.94
362.296	444.94
362.523	452.94
362.749	439.94
362.976	445.94
363.203	438.94
363.429	441.94
363.656	428.94
363.882	421.94
364.109	434.94
364.335	425.94
364.562	411.94
364.788	425.94
365.015	411.94
365.241	421.94
365.468	449.94
365.694	424.94
365.92	445.94
366.147	444.94
366.373	438.94
366.599	451.94
366.826	432.94
367.052	438.94
367.278	447.94
367.505	438.94
367.731	449.94
367.957	435.94
368.184	439.94
368.41	452.94
368.636	450.94
368.862	458.94
369.089	433.94
369.315	449.94
369.541	452.94
369.767	438.94
369.993	429.94
370.219	440.94
370.445	442.94
370.672	435.94
370.898	446.94
371.124	428.94
371.35	451.94
371.576	453.94
371.802	443.94
372.028	440.94
372.254	455.94
372.48	455.94
372.706	456.94
372.932	437.94
373.158	443.94
373.384	448.94
373.61	444.94
373.835	460.94
374.061	432.94
374.287	468.94
374.513	460.94
374.739	468.94
374.965	473.94
375.191	489.94
375.416	456.94
375.642	460.94
375.868	460.94
376.094	461.94
376.319	452.94
376.545	461.94
376.771	448.94
376.997	446.94
377.222	438.94
377.448	455.94
377.674	451.94
377.899	452.94
378.125	435.94
378.35	437.94
378.576	467.94
378.802	445.94
379.027	448.94
379.253	460.94
379.478	443.94
379.704	440.94
379.929	455.94
380.155	449.94
380.38	436.94
380.606	437.94
380.831	451.94
381.057	464.94
381.282	458.94
381.507	439.94
381.733	467.94
381.958	463.94
382.184	453.94
382.409	460.94
382.634	458.94
382.86	461.94
383.085	482.94
383.31	480.94
383.535	472.94
383.761	468.94
383.986	484.94
384.211	481.94
384.436	474.94
384.662	497.94
384.887	498.94
385.112	491.94
385.337	514.94
385.562	498.94
385.787	493.94
386.013	521.94
386.238	505.94
386.463	499.94
386.688	491.94
386.913	487.94
387.138	519.94
387.363	501.94
387.588	508.94
387.813	501.94
388.038	478.94
388.263	510.94
388.488	502.94
388.713	482.94
388.938	486.94
389.163	494.94
389.387	478.94
389.612	517.94
389.837	524.94
390.062	503.94
390.287	518.94
390.512	498.94
390.736	503.94
390.961	500.94
391.186	507.94
391.411	513.94
391.636	541.94
391.86	527.94
392.085	530.94
392.31	514.94
392.534	524.94
392.759	526.94
392.984	529.94
393.208	512.94
393.433	510.94
393.658	513.94
393.882	506.94
394.107	493.94
394.331	518.94
394.556	512.94
394.78	527.94
395.005	521.94
395.229	527.94
395.454	520.94
395.678	524.94
395.903	549.94
396.127	576.94
396.352	582.94
396.576	540.94
396.801	530.94
397.025	535.94
397.249	536.94
397.474	552.94
397.698	545.94
397.922	549.94
398.147	563.94
398.371	575.94
398.595	574.94
398.82	565.94
399.044	584.94
399.268	600.94
399.492	642.94
399.717	703.94
399.941	748.94
400.165	753.94
400.389	749.94
400.613	688.94
400.837	636.94
401.062	616.94
401.286	598.94
401.51	580.94
401.734	587.94
401.958	614.94
402.182	579.94
402.406	606.94
402.63	590.94
402.854	597.94
403.078	621.94
403.302	634.94
403.526	604.94
403.75	624.94
403.974	619.94
404.198	609.94
404.422	621.94
404.645	620.94
404.869	625.94
405.093	693.94
405.317	689.94
405.541	722.94
405.765	668.94
405.988	640.94
406.212	631.94
406.436	654.94
406.66	677.94
406.883	654.94
407.107	683.94
407.331	713.94
407.555	796.94
407.778	813.94
408.002	739.94
408.226	682.94
408.449	683.94
408.673	679.94
408.896	673.94
409.12	734.94
409.344	687.94
409.567	645.94
409.791	657.94
410.014	587.94
410.238	608.94
410.461	630.94
410.685	633.94
410.908	625.94
411.132	662.94
411.355	676.94
411.578	681.94
411.802	601.94
412.025	605.94
412.249	618.94
412.472	637.94
412.695	680.94
412.919	671.94
413.142	595.94
413.365	626.94
413.589	606.94
413.812	605.94
414.035	608.94
414.258	581.94
414.482	579.94
414.705	583.94
414.928	579.94
415.151	594.94
415.374	581.94
415.597	577.94
415.821	579.94
416.044	606.94
416.267	583.94
416.49	574.94
416.713	556.94
416.936	573.94
417.159	554.94
417.382	584.94
417.605	583.94
417.828	600.94
418.051	615.94
418.274	609.94
418.497	571.94
418.72	576.94
418.943	587.94
419.166	618.94
419.389	643.94
419.611	628.94
419.834	616.94
420.057	619.94
420.28	629.94
420.503	612.94
420.726	597.94
420.948	621.94
421.171	643.94
421.394	688.94
421.617	636.94
421.839	613.94
422.062	610.94
422.285	589.94
422.507	691.94
422.73	756.94
422.953	710.94
423.175	645.94
423.398	650.94
423.621	634.94
423.843	644.94
424.066	684.94
424.288	663.94
424.511	672.94
424.733	717.94
424.956	818.94
425.178	783.94
425.401	763.94
425.623	754.94
425.846	660.94
426.068	618.94
426.291	650.94
426.513	637.94
426.735	633.94
426.958	671.94
427.18	727.94
427.402	901.94
427.625	980.94
427.847	817.94
428.069	717.94
428.292	670.94
428.514	632.94
428.736	594.94
428.958	582.94
429.181	594.94
429.403	590.94
429.625	578.94
429.847	612.94
430.069	702.94
430.292	701.94
430.514	616.94
430.736	552.94
430.958	582.94
431.18	549.94
431.402	558.94
431.624	554.94
431.846	570.94
432.068	564.94
432.29	573.94
432.512	571.94
432.734	574.94
432.956	569.94
433.178	579.94
433.4	573.94
433.622	570.94
433.844	599.94
434.066	562.94
434.287	557.94
434.509	591.94
434.731	580.94
434.953	569.94
435.175	612.94
435.397	628.94
435.618	644.94
435.84	658.94
436.062	752.94
436.284	826.94
436.505	716.94
436.727	628.94
436.949	631.94
437.17	588.94
437.392	579.94
437.614	595.94
437.835	605.94
438.057	710.94
438.278	836.94
438.5	800.94
438.721	913.94
438.943	864.94
439.165	678.94
439.386	645.94
439.608	649.94
439.829	664.94
440.05	651.94
440.272	693.94
440.493	668.94
440.715	600.94
440.936	618.94
441.158	608.94
441.379	606.94
441.6	636.94
441.822	613.94
442.043	662.94
442.264	755.94
442.486	796.94
442.707	679.94
442.928	665.94
443.149	653.94
443.371	668.94
443.592	716.94
443.813	825.94
444.034	886.94
444.255	752.94
444.476	676.94
444.698	675.94
444.919	669.94
445.14	754.94
445.361	707.94
445.582	678.94
445.803	736.94
446.024	840.94
446.245	845.94
446.466	754.94
446.687	675.94
446.908	624.94
447.129	612.94
447.35	580.94
447.571	570.94
447.792	571.94
448.013	565.94
448.234	591.94
448.455	632.94
448.675	768.94
448.896	888.94
449.117	769.94
449.338	717.94
449.559	814.94
449.779	941.94
450	764.94
450.221	630.94
450.442	584.94
450.662	568.94
450.883	567.94
451.104	580.94
451.324	565.94
451.545	550.94
451.766	530.94
451.986	529.94
452.207	490.94
452.428	515.94
452.648	522.94
452.869	522.94
453.089	540.94
453.31	539.94
453.53	537.94
453.751	532.94
453.971	524.94
454.192	520.94
454.412	510.94
454.633	530.94
454.853	531.94
455.073	513.94
455.294	550.94
455.514	583.94
455.734	600.94
455.955	516.94
456.175	513.94
456.395	498.94
456.616	502.94
456.836	488.94
457.056	482.94
457.276	477.94
457.497	502.94
457.717	502.94
457.937	488.94
458.157	532.94
458.377	537.94
458.598	531.94
458.818	586.94
459.038	619.94
459.258	674.94
459.478	616.94
459.698	582.94
459.918	574.94
460.138	556.94
460.358	595.94
460.578	581.94
460.798	617.94
461.018	576.94
461.238	576.94
461.458	588.94
461.678	556.94
461.898	604.94
462.118	581.94
462.338	609.94
462.558	630.94
462.777	633.94
462.997	658.94
463.217	652.94
463.437	651.94
463.657	637.94
463.876	616.94
464.096	628.94
464.316	638.94
464.536	618.94
464.755	616.94
464.975	635.94
465.195	664.94
465.414	692.94
465.634	644.94
465.854	569.94
466.073	585.94
466.293	545.94
466.512	556.94
466.732	541.94
466.951	550.94
467.171	538.94
467.391	548.94
467.61	557.94
467.829	556.94
468.049	536.94
468.268	561.94
468.488	534.94
468.707	527.94
468.927	542.94
469.146	519.94
469.365	531.94
469.585	537.94
469.804	548.94
470.023	565.94
470.243	543.94
470.462	581.94
470.681	589.94
470.901	560.94
471.12	557.94
471.339	552.94
471.558	525.94
471.777	544.94
471.997	534.94
472.216	527.94
472.435	569.94
472.654	556.94
472.873	545.94
473.092	551.94
473.311	531.94
473.53	540.94
473.749	549.94
473.968	577.94
474.187	680.94
474.406	702.94
474.625	629.94
474.844	557.94
475.063	551.94
475.282	568.94
475.501	548.94
475.72	573.94
475.939	568.94
476.158	552.94
476.377	543.94
476.596	550.94
476.814	560.94
477.033	578.94
477.252	581.94
477.471	590.94
477.69	586.94
477.908	585.94
478.127	641.94
478.346	630.94
478.564	620.94
478.783	636.94
479.002	628.94
479.22	624.94
479.439	640.94
479.658	654.94
479.876	670.94
480.095	645.94
480.313	724.94
480.532	678.94
480.751	674.94
480.969	680.94
481.188	710.94
481.406	743.94
481.624	682.94
481.843	669.94
482.061	632.94
482.28	650.94
482.498	614.94
482.717	632.94
482.935	636.94
483.153	635.94
483.372	610.94
483.59	638.94
483.808	630.94
484.027	637.94
484.245	621.94
484.463	651.94
484.681	645.94
484.9	651.94
485.118	641.94
485.336	648.94
485.554	668.94
485.772	653.94
485.99	656.94
486.209	668.94
486.427	677.94
486.645	665.94
486.863	674.94
487.081	724.94
487.299	669.94
487.517	678.94
487.735	683.94
487.953	661.94
488.171	688.94
488.389	703.94
488.607	682.94
488.825	700.94
489.043	677.94
489.261	688.94
489.479	696.94
489.696	684.94
489.914	708.94
490.132	712.94
490.35	710.94
490.568	717.94
490.786	744.94
491.003	746.94
491.221	753.94
491.439	748.94
491.657	774.94
491.874	802.94
492.092	806.94
492.31	826.94
492.527	808.94
492.745	803.94
492.963	781.94
493.18	805.94
493.398	805.94
493.615	801.94
493.833	813.94
494.05	816.94
494.268	826.94
494.485	824.94
494.703	809.94
494.92	832.94
495.138	833.94
495.355	804.94
495.573	816.94
495.79	834.94
496.008	827.94
496.225	823.94
496.442	842.94
496.66	847.94
496.877	856.94
497.094	844.94
497.312	837.94
497.529	867.94
497.746	853.94
497.963	870.94
498.181	901.94
498.398	904.94
498.615	912.94
498.832	954.94
499.049	1006.94
499.267	1009.94
499.484	1054.94
499.701	1092.94
499.918	1159.94
500.135	1223.94
500.352	1274.94
500.569	1328.94
500.786	1294.94
501.003	1268.94
501.22	1233.94
501.437	1192.94
501.654	1113.94
501.871	1090.94
502.088	1049.94
502.305	993.94
502.522	975.94
502.739	925.94
502.956	894.94
503.172	900.94
503.389	867.94
503.606	861.94
503.823	858.94
504.04	844.94
504.256	853.94
504.473	825.94
504.69	842.94
504.907	836.94
505.123	808.94
505.34	810.94
505.557	772.94
505.773	757.94
505.99	764.94
506.207	790.94
506.423	777.94
506.64	760.94
506.856	760.94
507.073	746.94
507.289	758.94
507.506	759.94
507.722	741.94
507.939	735.94
508.155	758.94
508.372	728.94
508.588	726.94
508.805	731.94
509.021	708.94
509.238	730.94
509.454	724.94
509.67	717.94
509.887	726.94
510.103	710.94
510.319	702.94
510.536	773.94
510.752	1104.94
510.968	970.94
511.184	714.94
511.401	676.94
511.617	655.94
511.833	672.94
512.049	663.94
512.265	672.94
512.481	659.94
512.698	653.94
512.914	672.94
513.13	693.94
513.346	661.94
513.562	681.94
513.778	663.94
513.994	678.94
514.21	675.94
514.426	700.94
514.642	724.94
514.858	746.94
515.074	753.94
515.29	842.94
515.506	1155.94
515.721	1001.94
515.937	796.94
516.153	727.94
516.369	682.94
516.585	677.94
516.801	724.94
517.016	718.94
517.232	700.94
517.448	741.94
517.664	730.94
517.879	746.94
518.095	719.94
518.311	742.94
518.527	716.94
518.742	706.94
518.958	680.94
519.173	712.94
519.389	690.94
519.605	693.94
519.82	668.94
520.036	681.94
520.251	692.94
520.467	715.94
520.682	702.94
520.898	707.94
521.113	710.94
521.329	751.94
521.544	797.94
521.76	910.94
521.975	1423.94
522.19	1387.94
522.406	854.94
522.621	690.94
522.836	674.94
523.052	650.94
523.267	633.94
523.482	592.94
523.698	614.94
523.913	587.94
524.128	600.94
524.343	610.94
524.559	587.94
524.774	577.94
524.989	598.94
525.204	597.94
525.419	578.94
525.634	590.94
525.849	587.94
526.064	576.94
526.28	574.94
526.495	552.94
526.71	560.94
526.925	539.94
527.14	557.94
527.355	567.94
527.57	579.94
527.785	546.94
527.999	548.94
528.214	551.94
528.429	555.94
528.644	546.94
528.859	568.94
529.074	570.94
529.289	584.94
529.503	644.94
529.718	630.94
529.933	580.94
530.148	561.94
530.363	558.94
530.577	546.94
530.792	548.94
531.007	570.94
531.221	568.94
531.436	534.94
531.651	545.94
531.865	555.94
532.08	553.94
532.295	521.94
532.509	526.94
532.724	533.94
532.938	552.94
533.153	553.94
533.367	534.94
533.582	538.94
533.796	546.94
534.011	530.94
534.225	555.94
534.44	516.94
534.654	531.94
534.868	510.94
535.083	514.94
535.297	563.94
535.511	522.94
535.726	546.94
535.94	565.94
536.154	537.94
536.369	509.94
536.583	518.94
536.797	497.94
537.011	534.94
537.225	537.94
537.44	534.94
537.654	520.94
537.868	514.94
538.082	513.94
538.296	516.94
538.51	517.94
538.724	536.94
538.938	528.94
539.153	526.94
539.367	524.94
539.581	523.94
539.795	508.94
540.009	517.94
540.222	517.94
540.436	521.94
540.65	512.94
540.864	515.94
541.078	525.94
541.292	540.94
541.506	524.94
541.72	521.94
541.934	536.94
542.147	534.94
542.361	502.94
542.575	512.94
542.789	524.94
543.002	518.94
543.216	530.94
543.43	516.94
543.644	530.94
543.857	512.94
544.071	537.94
544.285	557.94
544.498	535.94
544.712	514.94
544.925	512.94
545.139	506.94
545.352	531.94
545.566	522.94
545.779	532.94
545.993	512.94
546.206	497.94
546.42	522.94
546.633	527.94
546.847	510.94
547.06	499.94
547.274	516.94
547.487	502.94
547.7	501.94
547.914	510.94
548.127	503.94
548.34	492.94
548.554	478.94
548.767	514.94
548.98	500.94
549.193	519.94
549.407	512.94
549.62	509.94
549.833	518.94
550.046	510.94
550.259	507.94
550.473	516.94
550.686	516.94
550.899	478.94
551.112	504.94
551.325	522.94
551.538	490.94
551.751	488.94
551.964	500.94
552.177	506.94
552.39	514.94
552.603	502.94
552.816	532.94
553.029	512.94
553.242	529.94
553.455	506.94
553.667	546.94
553.88	524.94
554.093	524.94
554.306	533.94
554.519	508.94
554.732	500.94
554.944	509.94
555.157	503.94
555.37	473.94
555.583	482.94
555.795	492.94
556.008	483.94
556.221	477.94
556.433	454.94
556.646	453.94
556.859	468.94
557.071	480.94
557.284	466.94
557.496	438.94
557.709	470.94
557.921	461.94
558.134	472.94
558.346	444.94
558.559	468.94
558.771	455.94
558.984	441.94
559.196	439.94
559.409	442.94
559.621	450.94
559.833	441.94
560.046	451.94
560.258	434.94
560.47	433.94
560.683	445.94
560.895	440.94
561.107	440.94
561.32	446.94
561.532	446.94
561.744	442.94
561.956	427.94
562.168	456.94
562.381	446.94
562.593	447.94
562.805	461.94
563.017	440.94
563.229	430.94
563.441	456.94
563.653	465.94
563.865	425.94
564.077	441.94
564.289	472.94
564.501	471.94
564.713	468.94
564.925	470.94
565.137	488.94
565.349	477.94
565.561	482.94
565.773	490.94
565.985	508.94
566.197	505.94
566.408	555.94
566.62	558.94
566.832	575.94
567.044	584.94
567.255	584.94
567.467	626.94
567.679	615.94
567.891	613.94
568.102	624.94
568.314	614.94
568.526	566.94
568.737	561.94
568.949	539.94
569.161	507.94
569.372	485.94
569.584	479.94
569.795	471.94
570.007	465.94
570.218	489.94
570.43	476.94
570.641	449.94
570.853	437.94
571.064	452.94
571.276	422.94
571.487	435.94
571.698	458.94
571.91	410.94
572.121	437.94
572.333	424.94
572.544	414.94
572.755	402.94
572.966	402.94
573.178	386.94
573.389	404.94
573.6	382.94
573.811	387.94
574.023	393.94
574.234	388.94
574.445	370.94
574.656	376.94
574.867	374.94
575.078	370.94
575.289	377.94
575.501	368.94
575.712	381.94
575.923	387.94
576.134	377.94
576.345	381.94
576.556	358.94
576.767	390.94
576.978	389.94
577.188	385.94
577.399	383.94
577.61	390.94
577.821	365.94
578.032	352.94
578.243	386.94
578.454	542.94
578.665	470.94
578.875	379.94
579.086	356.94
579.297	338.94
579.508	355.94
579.718	365.94
579.929	356.94
580.14	362.94
580.35	341.94
580.561	356.94
580.772	368.94
580.982	335.94
581.193	372.94
581.403	341.94
581.614	344.94
581.825	341.94
582.035	333.94
582.246	344.94
582.456	344.94
582.667	340.94
582.877	334.94
583.087	325.94
583.298	319.94
583.508	345.94
583.719	337.94
583.929	343.94
584.139	349.94
584.35	326.94
584.56	339.94
584.77	328.94
584.981	338.94
585.191	327.94
585.401	327.94
585.611	340.94
585.821	331.94
586.032	346.94
586.242	330.94
586.452	336.94
586.662	332.94
586.872	326.94
587.082	326.94
587.292	322.94
587.502	314.94
587.713	326.94
587.923	333.94
588.133	351.94
588.343	340.94
588.553	318.94
588.762	345.94
588.972	327.94
589.182	324.94
589.392	324.94
589.602	334.94
589.812	333.94
590.022	345.94
590.232	313.94
590.441	331.94
590.651	340.94
590.861	341.94
591.071	331.94
591.281	337.94
591.49	338.94
591.7	338.94
591.91	349.94
592.119	337.94
592.329	348.94
592.539	347.94
592.748	354.94
592.958	363.94
593.167	355.94
593.377	368.94
593.587	368.94
593.796	366.94
594.006	363.94
594.215	381.94
594.424	365.94
594.634	385.94
594.843	372.94
595.053	365.94
595.262	345.94
595.472	335.94
595.681	333.94
595.89	333.94
596.1	346.94
596.309	321.94
596.518	339.94
596.727	319.94
596.937	320.94
597.146	307.94
597.355	330.94
597.564	320.94
597.774	306.94
597.983	315.94
598.192	308.94
598.401	302.94
598.61	290.94
598.819	305.94
599.028	294.94
599.237	297.94
599.446	298.94
599.655	300.94
599.864	302.94
600.073	296.94
600.282	309.94
600.491	278.94
600.7	299.94
600.909	304.94
601.118	267.94
601.327	288.94
601.536	276.94
601.745	277.94
601.953	280.94
602.162	288.94
602.371	292.94
602.58	293.94
602.789	282.94
602.997	258.94
603.206	290.94
603.415	294.94
603.623	313.94
603.832	281.94
604.041	267.94
604.249	285.94
604.458	296.94
604.666	293.94
604.875	288.94
605.084	276.94
605.292	274.94
605.501	280.94
605.709	269.94
605.918	274.94
606.126	274.94
606.334	271.94
606.543	289.94
606.751	283.94
606.96	276.94
607.168	263.94
607.376	283.94
607.585	278.94
607.793	275.94
608.001	280.94
608.21	285.94
608.418	292.94
608.626	270.94
608.834	283.94
609.043	273.94
609.251	269.94
609.459	252.94
609.667	269.94
609.875	304.94
610.083	281.94
610.291	293.94
610.499	269.94
610.707	276.94
610.916	272.94
611.124	293.94
611.332	286.94
611.54	301.94
611.748	300.94
611.955	267.94
612.163	282.94
612.371	269.94
612.579	274.94
612.787	276.94
612.995	268.94
613.203	288.94
613.411	291.94
613.618	277.94
613.826	269.94
614.034	272.94
614.242	275.94
614.449	275.94
614.657	260.94
614.865	259.94
615.072	274.94
615.28	258.94
615.488	260.94
615.695	262.94
615.903	277.94
616.111	248.94
616.318	270.94
616.526	274.94
616.733	262.94
616.941	266.94
617.148	268.94
617.356	278.94
617.563	261.94
617.771	257.94
617.978	256.94
618.185	259.94
618.393	268.94
618.6	271.94
618.807	274.94
619.015	258.94
619.222	265.94
619.429	260.94
619.637	261.94
619.844	261.94
620.051	252.94
620.258	254.94
620.466	257.94
620.673	265.94
620.88	245.94
621.087	256.94
621.294	254.94
621.501	247.94
621.708	250.94
621.915	252.94
622.122	256.94
622.329	267.94
622.536	252.94
622.743	241.94
622.95	255.94
623.157	243.94
623.364	265.94
623.571	274.94
623.778	243.94
623.985	242.94
624.192	254.94
624.399	254.94
624.606	229.94
624.812	243.94
625.019	229.94
625.226	244.94
625.433	232.94
625.639	236.94
625.846	240.94
626.053	229.94
626.259	227.94
626.466	220.94
626.673	222.94
626.879	225.94
627.086	237.94
627.293	213.94
627.499	218.94
627.706	249.94
627.912	234.94
628.119	224.94
628.325	236.94
628.532	210.94
628.738	228.94
628.945	220.94
629.151	228.94
629.357	217.94
629.564	232.94
629.77	235.94
629.976	211.94
630.183	216.94
630.389	215.94
630.595	213.94
630.802	224.94
631.008	216.94
631.214	243.94
631.42	231.94
631.627	242.94
631.833	213.94
632.039	222.94
632.245	191.94
632.451	221.94
632.657	230.94
632.863	205.94
633.069	196.94
633.275	221.94
633.481	221.94
633.688	216.94
633.893	208.94
634.099	197.94
634.305	201.94
634.511	193.94
634.717	196.94
634.923	199.94
635.129	216.94
635.335	202.94
635.541	207.94
635.747	199.94
635.952	190.94
636.158	200.94
636.364	214.94
636.57	204.94
636.775	210.94
636.981	209.94
637.187	201.94
637.392	206.94
637.598	209.94
637.804	192.94
638.009	206.94
638.215	202.94
638.421	186.94
638.626	185.94
638.832	199.94
639.037	205.94
639.243	194.94
639.448	193.94
639.654	200.94
639.859	196.94
640.065	185.94
640.27	201.94
640.475	205.94
640.681	206.94
640.886	196.94
641.091	179.94
641.297	185.94
641.502	197.94
641.707	189.94
641.913	198.94
642.118	182.94
642.323	202.94
642.528	189.94
642.733	176.94
642.939	192.94
643.144	184.94
643.349	178.94
643.554	188.94
643.759	191.94
643.964	182.94
644.169	188.94
644.374	162.94
644.579	196.94
644.784	194.94
644.989	190.94
645.194	182.94
645.399	177.94
645.604	189.94
645.809	169.94
646.014	163.94
646.219	182.94
646.423	180.94
646.628	176.94
646.833	182.94
647.038	182.94
647.243	184.94
647.447	200.94
647.652	199.94
647.857	190.94
648.062	190.94
648.266	201.94
648.471	188.94
648.676	193.94
648.88	189.94
649.085	187.94
649.289	171.94
649.494	184.94
649.698	206.94
649.903	203.94
650.107	195.94
650.312	182.94
650.516	176.94
650.721	164.94
650.925	165.94
651.13	163.94
651.334	165.94
651.539	171.94
651.743	150.94
651.947	170.94
652.152	158.94
652.356	153.94
652.56	157.94
652.764	166.94
652.969	160.94
653.173	150.94
653.377	168.94
653.581	154.94
653.785	138.94
653.99	137.94
654.194	157.94
654.398	154.94
654.602	149.94
654.806	144.94
655.01	130.94
655.214	160.94
655.418	148.94
655.622	140.94
655.826	143.94
656.03	130.94
656.234	123.94
656.438	137.94
656.642	138.94
656.846	138.94
657.049	136.94
657.253	137.94
657.457	126.94
657.661	128.94
657.865	128.94
658.068	113.94
658.272	121.94
658.476	122.94
658.68	107.94
658.883	106.94
659.087	121.94
659.291	114.94
659.494	107.94
659.698	112.94
659.901	98.94
660.105	91.94
660.309	116.94
660.512	105.94
660.716	97.94
660.919	100.94
661.123	104.94
661.326	81.94
661.53	83.94
661.733	94.94
661.936	86.94
662.14	91.94
662.343	100.94
662.546	94.94
662.75	88.94
662.953	82.94
663.156	76.94
663.36	91.94
663.563	96.94
663.766	83.94
663.969	76.94
664.173	85.94
664.376	79.94
664.579	89.94
664.782	91.94
664.985	68.94
665.188	67.94
665.391	83.94
665.594	80.94
665.797	93.94
666	83.94
666.203	82.94
666.406	95.94
666.609	79.94
666.812	83.94
667.015	101.94
667.218	86.94
667.421	100.94
667.624	84.94
667.827	76.94
668.03	84.94
668.232	83.94
668.435	84.94
668.638	85.94
668.841	68.94
669.043	81.94
669.246	71.94
669.449	69.94
669.651	72.94
669.854	89.94
670.057	76.94
670.259	78.94
670.462	78.94
670.665	76.94
670.867	86.94
671.07	102.94
671.272	80.94
671.475	72.94
671.677	68.94
671.88	84.94
672.082	89.94
672.284	89.94
672.487	88.94
672.689	73.94
672.892	81.94
