Data from 1974.PennyLincolnUp.Lamp.En5.5.200Scan.071719.P1.Changed Mount._HRD10591_15-52-45-857.txt Node
Date: Thu Jul 18 15:52:45 EDT 2019
User: cochatt
Spectrometer: HR+D1059
Trigger mode: 1
Integration Time (sec): 1.000000E-1
Scans to average: 1
Electric dark correction enabled: true
Nonlinearity correction enabled: false
Boxcar width: 0
XAxis mode: Wavelengths
Number of Pixels in Spectrum: 2048
>>>>>Begin Spectral Data<<<<<
223.165	-4.19
223.4	-4.19
223.635	-4.19
223.869	-22.19
224.104	-26.19
224.338	-28.19
224.573	-17.19
224.808	-10.19
225.042	-10.19
225.277	-3.19
225.511	12.81
225.746	4.81
225.98	10.81
226.215	10.81
226.449	4.81
226.683	7.81
226.918	24.81
227.152	44.81
227.387	31.81
227.621	35.81
227.856	48.81
228.09	45.81
228.324	55.81
228.559	45.81
228.793	69.81
229.027	106.81
229.262	101.81
229.496	104.81
229.73	129.81
229.964	147.81
230.199	138.81
230.433	123.81
230.667	116.81
230.901	110.81
231.136	113.81
231.37	115.81
231.604	120.81
231.838	101.81
232.072	102.81
232.306	106.81
232.541	122.81
232.775	116.81
233.009	108.81
233.243	131.81
233.477	110.81
233.711	123.81
233.945	117.81
234.179	122.81
234.413	125.81
234.647	121.81
234.881	119.81
235.115	114.81
235.349	114.81
235.583	124.81
235.817	137.81
236.051	144.81
236.285	143.81
236.519	127.81
236.753	136.81
236.987	138.81
237.221	180.81
237.455	229.81
237.689	187.81
237.922	151.81
238.156	138.81
238.39	129.81
238.624	151.81
238.858	149.81
239.091	130.81
239.325	138.81
239.559	130.81
239.793	135.81
240.027	148.81
240.26	134.81
240.494	158.81
240.728	149.81
240.961	158.81
241.195	161.81
241.429	154.81
241.662	141.81
241.896	142.81
242.13	131.81
242.363	157.81
242.597	154.81
242.83	138.81
243.064	149.81
243.298	137.81
243.531	151.81
243.765	153.81
243.998	150.81
244.232	150.81
244.465	153.81
244.699	151.81
244.932	151.81
245.166	153.81
245.399	160.81
245.633	155.81
245.866	149.81
246.099	167.81
246.333	170.81
246.566	166.81
246.8	159.81
247.033	161.81
247.266	162.81
247.5	178.81
247.733	188.81
247.966	183.81
248.2	162.81
248.433	179.81
248.666	207.81
248.899	191.81
249.133	206.81
249.366	229.81
249.599	188.81
249.832	196.81
250.066	197.81
250.299	196.81
250.532	219.81
250.765	220.81
250.998	233.81
251.231	226.81
251.465	233.81
251.698	223.81
251.931	221.81
252.164	226.81
252.397	219.81
252.63	205.81
252.863	213.81
253.096	217.81
253.329	257.81
253.562	226.81
253.795	226.81
254.028	229.81
254.261	244.81
254.494	251.81
254.727	260.81
254.96	289.81
255.193	286.81
255.426	266.81
255.659	238.81
255.892	252.81
256.124	246.81
256.357	263.81
256.59	253.81
256.823	238.81
257.056	245.81
257.289	225.81
257.521	219.81
257.754	222.81
257.987	223.81
258.22	231.81
258.452	244.81
258.685	235.81
258.918	207.81
259.151	227.81
259.383	244.81
259.616	234.81
259.849	237.81
260.081	245.81
260.314	273.81
260.547	282.81
260.779	272.81
261.012	266.81
261.244	249.81
261.477	259.81
261.71	250.81
261.942	244.81
262.175	249.81
262.407	244.81
262.64	245.81
262.872	229.81
263.105	238.81
263.337	228.81
263.57	222.81
263.802	240.81
264.035	224.81
264.267	230.81
264.499	230.81
264.732	245.81
264.964	233.81
265.197	237.81
265.429	230.81
265.661	217.81
265.894	244.81
266.126	227.81
266.358	241.81
266.591	237.81
266.823	257.81
267.055	242.81
267.287	251.81
267.52	220.81
267.752	232.81
267.984	263.81
268.216	242.81
268.448	252.81
268.681	250.81
268.913	262.81
269.145	283.81
269.377	284.81
269.609	271.81
269.841	274.81
270.073	282.81
270.306	311.81
270.538	324.81
270.77	310.81
271.002	329.81
271.234	315.81
271.466	317.81
271.698	324.81
271.93	335.81
272.162	341.81
272.394	333.81
272.626	316.81
272.858	297.81
273.09	287.81
273.322	278.81
273.553	301.81
273.785	289.81
274.017	296.81
274.249	284.81
274.481	285.81
274.713	281.81
274.945	300.81
275.176	302.81
275.408	283.81
275.64	281.81
275.872	282.81
276.104	291.81
276.335	297.81
276.567	331.81
276.799	323.81
277.031	320.81
277.262	328.81
277.494	333.81
277.726	335.81
277.957	317.81
278.189	302.81
278.421	284.81
278.652	309.81
278.884	287.81
279.115	291.81
279.347	298.81
279.579	309.81
279.81	291.81
280.042	291.81
280.273	296.81
280.505	300.81
280.736	298.81
280.968	303.81
281.199	295.81
281.431	279.81
281.662	259.81
281.894	286.81
282.125	307.81
282.356	321.81
282.588	314.81
282.819	325.81
283.051	302.81
283.282	309.81
283.513	322.81
283.745	289.81
283.976	296.81
284.207	311.81
284.439	322.81
284.67	302.81
284.901	310.81
285.132	305.81
285.364	300.81
285.595	309.81
285.826	293.81
286.057	323.81
286.288	317.81
286.52	305.81
286.751	309.81
286.982	304.81
287.213	298.81
287.444	307.81
287.675	309.81
287.906	333.81
288.138	324.81
288.369	327.81
288.6	313.81
288.831	337.81
289.062	316.81
289.293	329.81
289.524	326.81
289.755	307.81
289.986	322.81
290.217	305.81
290.448	308.81
290.679	305.81
290.91	311.81
291.141	328.81
291.371	312.81
291.602	333.81
291.833	316.81
292.064	327.81
292.295	325.81
292.526	334.81
292.757	320.81
292.987	314.81
293.218	318.81
293.449	333.81
293.68	342.81
293.91	328.81
294.141	333.81
294.372	324.81
294.603	324.81
294.833	319.81
295.064	323.81
295.295	324.81
295.525	321.81
295.756	324.81
295.987	354.81
296.217	349.81
296.448	353.81
296.679	352.81
296.909	336.81
297.14	331.81
297.37	327.81
297.601	364.81
297.831	342.81
298.062	343.81
298.292	330.81
298.523	335.81
298.753	338.81
298.984	350.81
299.214	336.81
299.445	336.81
299.675	344.81
299.905	363.81
300.136	346.81
300.366	339.81
300.597	360.81
300.827	350.81
301.057	365.81
301.288	358.81
301.518	354.81
301.748	352.81
301.979	366.81
302.209	367.81
302.439	373.81
302.669	360.81
302.9	360.81
303.13	358.81
303.36	355.81
303.59	378.81
303.82	383.81
304.051	365.81
304.281	374.81
304.511	362.81
304.741	345.81
304.971	353.81
305.201	361.81
305.431	346.81
305.661	373.81
305.891	362.81
306.121	354.81
306.352	362.81
306.582	366.81
306.812	363.81
307.042	370.81
307.272	364.81
307.502	359.81
307.731	364.81
307.961	351.81
308.191	360.81
308.421	370.81
308.651	363.81
308.881	359.81
309.111	369.81
309.341	339.81
309.571	389.81
309.8	385.81
310.03	396.81
310.26	402.81
310.49	401.81
310.72	391.81
310.949	397.81
311.179	399.81
311.409	392.81
311.639	420.81
311.868	400.81
312.098	420.81
312.328	417.81
312.557	414.81
312.787	437.81
313.017	436.81
313.246	436.81
313.476	411.81
313.706	399.81
313.935	415.81
314.165	417.81
314.394	440.81
314.624	427.81
314.853	414.81
315.083	421.81
315.312	414.81
315.542	404.81
315.771	406.81
316.001	412.81
316.23	415.81
316.46	395.81
316.689	419.81
316.919	421.81
317.148	427.81
317.377	427.81
317.607	400.81
317.836	420.81
318.065	422.81
318.295	395.81
318.524	390.81
318.753	407.81
318.983	413.81
319.212	404.81
319.441	404.81
319.67	431.81
319.9	435.81
320.129	399.81
320.358	417.81
320.587	435.81
320.816	416.81
321.046	423.81
321.275	409.81
321.504	442.81
321.733	437.81
321.962	444.81
322.191	432.81
322.42	451.81
322.649	467.81
322.878	468.81
323.108	467.81
323.337	488.81
323.566	488.81
323.795	493.81
324.024	544.81
324.253	625.81
324.482	831.81
324.71	1277.81
324.939	1890.81
325.168	1683.81
325.397	867.81
325.626	632.81
325.855	545.81
326.084	517.81
326.313	510.81
326.542	534.81
326.77	540.81
326.999	598.81
327.228	811.81
327.457	1157.81
327.686	1461.81
327.914	964.81
328.143	675.81
328.372	604.81
328.6	575.81
328.829	535.81
329.058	557.81
329.287	562.81
329.515	522.81
329.744	530.81
329.972	509.81
330.201	527.81
330.43	582.81
330.658	586.81
330.887	632.81
331.115	610.81
331.344	513.81
331.572	513.81
331.801	506.81
332.03	532.81
332.258	499.81
332.486	491.81
332.715	503.81
332.943	515.81
333.172	506.81
333.4	509.81
333.629	528.81
333.857	523.81
334.085	539.81
334.314	542.81
334.542	577.81
334.771	588.81
334.999	556.81
335.227	533.81
335.455	509.81
335.684	511.81
335.912	504.81
336.14	492.81
336.369	511.81
336.597	515.81
336.825	525.81
337.053	491.81
337.281	497.81
337.51	495.81
337.738	488.81
337.966	480.81
338.194	492.81
338.422	466.81
338.65	487.81
338.878	483.81
339.106	474.81
339.334	460.81
339.562	444.81
339.79	478.81
340.018	477.81
340.246	466.81
340.474	487.81
340.702	461.81
340.93	488.81
341.158	492.81
341.386	476.81
341.614	483.81
341.842	483.81
342.07	479.81
342.298	485.81
342.526	453.81
342.754	458.81
342.981	476.81
343.209	465.81
343.437	474.81
343.665	463.81
343.893	486.81
344.12	501.81
344.348	492.81
344.576	482.81
344.804	482.81
345.031	501.81
345.259	507.81
345.487	495.81
345.714	448.81
345.942	451.81
346.17	481.81
346.397	460.81
346.625	455.81
346.853	463.81
347.08	478.81
347.308	461.81
347.535	461.81
347.763	448.81
347.99	472.81
348.218	479.81
348.445	478.81
348.673	480.81
348.9	463.81
349.128	458.81
349.355	450.81
349.583	455.81
349.81	431.81
350.037	432.81
350.265	447.81
350.492	451.81
350.72	450.81
350.947	465.81
351.174	460.81
351.402	464.81
351.629	459.81
351.856	460.81
352.083	482.81
352.311	461.81
352.538	494.81
352.765	472.81
352.992	468.81
353.22	468.81
353.447	440.81
353.674	453.81
353.901	456.81
354.128	438.81
354.355	439.81
354.583	425.81
354.81	453.81
355.037	438.81
355.264	442.81
355.491	442.81
355.718	443.81
355.945	453.81
356.172	441.81
356.399	450.81
356.626	426.81
356.853	440.81
357.08	424.81
357.307	450.81
357.534	434.81
357.761	457.81
357.988	442.81
358.215	430.81
358.441	447.81
358.668	442.81
358.895	440.81
359.122	450.81
359.349	441.81
359.576	430.81
359.802	471.81
360.029	482.81
360.256	528.81
360.483	495.81
360.709	475.81
360.936	457.81
361.163	446.81
361.39	458.81
361.616	479.81
361.843	465.81
362.07	465.81
362.296	475.81
362.523	463.81
362.749	461.81
362.976	451.81
363.203	455.81
363.429	451.81
363.656	450.81
363.882	449.81
364.109	447.81
364.335	443.81
364.562	453.81
364.788	455.81
365.015	453.81
365.241	422.81
365.468	465.81
365.694	457.81
365.92	450.81
366.147	452.81
366.373	471.81
366.599	462.81
366.826	433.81
367.052	447.81
367.278	462.81
367.505	436.81
367.731	459.81
367.957	450.81
368.184	469.81
368.41	457.81
368.636	464.81
368.862	463.81
369.089	461.81
369.315	459.81
369.541	440.81
369.767	452.81
369.993	461.81
370.219	462.81
370.445	456.81
370.672	458.81
370.898	446.81
371.124	450.81
371.35	446.81
371.576	453.81
371.802	449.81
372.028	459.81
372.254	454.81
372.48	456.81
372.706	462.81
372.932	456.81
373.158	469.81
373.384	479.81
373.61	459.81
373.835	474.81
374.061	464.81
374.287	486.81
374.513	462.81
374.739	477.81
374.965	487.81
375.191	486.81
375.416	484.81
375.642	478.81
375.868	479.81
376.094	475.81
376.319	453.81
376.545	467.81
376.771	466.81
376.997	450.81
377.222	450.81
377.448	470.81
377.674	459.81
377.899	474.81
378.125	470.81
378.35	494.81
378.576	451.81
378.802	459.81
379.027	484.81
379.253	471.81
379.478	451.81
379.704	457.81
379.929	457.81
380.155	451.81
380.38	468.81
380.606	453.81
380.831	444.81
381.057	473.81
381.282	465.81
381.507	466.81
381.733	454.81
381.958	473.81
382.184	456.81
382.409	464.81
382.634	491.81
382.86	467.81
383.085	471.81
383.31	483.81
383.535	500.81
383.761	452.81
383.986	505.81
384.211	522.81
384.436	483.81
384.662	515.81
384.887	517.81
385.112	474.81
385.337	484.81
385.562	516.81
385.787	529.81
386.013	554.81
386.238	546.81
386.463	534.81
386.688	490.81
386.913	518.81
387.138	513.81
387.363	521.81
387.588	528.81
387.813	516.81
388.038	503.81
388.263	522.81
388.488	523.81
388.713	513.81
388.938	504.81
389.163	529.81
389.387	524.81
389.612	530.81
389.837	507.81
390.062	486.81
390.287	499.81
390.512	517.81
390.736	520.81
390.961	511.81
391.186	522.81
391.411	527.81
391.636	540.81
391.86	534.81
392.085	557.81
392.31	554.81
392.534	541.81
392.759	554.81
392.984	525.81
393.208	541.81
393.433	534.81
393.658	542.81
393.882	528.81
394.107	518.81
394.331	519.81
394.556	541.81
394.78	521.81
395.005	523.81
395.229	545.81
395.454	554.81
395.678	528.81
395.903	556.81
396.127	580.81
396.352	556.81
396.576	557.81
396.801	542.81
397.025	540.81
397.249	551.81
397.474	568.81
397.698	565.81
397.922	578.81
398.147	581.81
398.371	581.81
398.595	582.81
398.82	606.81
399.044	606.81
399.268	609.81
399.492	665.81
399.717	701.81
399.941	750.81
400.165	797.81
400.389	757.81
400.613	696.81
400.837	649.81
401.062	615.81
401.286	611.81
401.51	596.81
401.734	609.81
401.958	606.81
402.182	599.81
402.406	617.81
402.63	627.81
402.854	637.81
403.078	609.81
403.302	627.81
403.526	641.81
403.75	651.81
403.974	633.81
404.198	652.81
404.422	628.81
404.645	646.81
404.869	658.81
405.093	671.81
405.317	717.81
405.541	726.81
405.765	686.81
405.988	661.81
406.212	665.81
406.436	663.81
406.66	685.81
406.883	674.81
407.107	713.81
407.331	746.81
407.555	827.81
407.778	833.81
408.002	788.81
408.226	695.81
408.449	692.81
408.673	710.81
408.896	711.81
409.12	752.81
409.344	717.81
409.567	653.81
409.791	658.81
410.014	642.81
410.238	631.81
410.461	636.81
410.685	618.81
410.908	640.81
411.132	674.81
411.355	720.81
411.578	688.81
411.802	634.81
412.025	645.81
412.249	632.81
412.472	665.81
412.695	698.81
412.919	690.81
413.142	647.81
413.365	623.81
413.589	634.81
413.812	589.81
414.035	594.81
414.258	597.81
414.482	615.81
414.705	599.81
414.928	590.81
415.151	622.81
415.374	590.81
415.597	597.81
415.821	599.81
416.044	580.81
416.267	605.81
416.49	592.81
416.713	612.81
416.936	592.81
417.159	579.81
417.382	612.81
417.605	622.81
417.828	615.81
418.051	621.81
418.274	587.81
418.497	589.81
418.72	599.81
418.943	591.81
419.166	630.81
419.389	634.81
419.611	664.81
419.834	626.81
420.057	639.81
420.28	616.81
420.503	637.81
420.726	621.81
420.948	647.81
421.171	666.81
421.394	703.81
421.617	647.81
421.839	627.81
422.062	630.81
422.285	639.81
422.507	686.81
422.73	756.81
422.953	753.81
423.175	687.81
423.398	648.81
423.621	633.81
423.843	680.81
424.066	680.81
424.288	669.81
424.511	691.81
424.733	753.81
424.956	810.81
425.178	771.81
425.401	777.81
425.623	829.81
425.846	689.81
426.068	654.81
426.291	649.81
426.513	638.81
426.735	650.81
426.958	693.81
427.18	783.81
427.402	897.81
427.625	994.81
427.847	842.81
428.069	745.81
428.292	679.81
428.514	630.81
428.736	606.81
428.958	604.81
429.181	603.81
429.403	584.81
429.625	615.81
429.847	647.81
430.069	698.81
430.292	719.81
430.514	637.81
430.736	635.81
430.958	610.81
431.18	588.81
431.402	579.81
431.624	572.81
431.846	566.81
432.068	553.81
432.29	567.81
432.512	574.81
432.734	567.81
432.956	586.81
433.178	599.81
433.4	574.81
433.622	586.81
433.844	577.81
434.066	575.81
434.287	565.81
434.509	572.81
434.731	600.81
434.953	615.81
435.175	623.81
435.397	658.81
435.618	653.81
435.84	710.81
436.062	783.81
436.284	862.81
436.505	713.81
436.727	649.81
436.949	648.81
437.17	619.81
437.392	606.81
437.614	632.81
437.835	641.81
438.057	743.81
438.278	853.81
438.5	857.81
438.721	949.81
438.943	884.81
439.165	724.81
439.386	669.81
439.608	638.81
439.829	640.81
440.05	679.81
440.272	710.81
440.493	665.81
440.715	668.81
440.936	613.81
441.158	629.81
441.379	603.81
441.6	621.81
441.822	662.81
442.043	692.81
442.264	799.81
442.486	828.81
442.707	708.81
442.928	683.81
443.149	697.81
443.371	682.81
443.592	751.81
443.813	852.81
444.034	938.81
444.255	769.81
444.476	718.81
444.698	696.81
444.919	664.81
445.14	790.81
445.361	713.81
445.582	675.81
445.803	753.81
446.024	868.81
446.245	859.81
446.466	789.81
446.687	687.81
446.908	663.81
447.129	616.81
447.35	599.81
447.571	597.81
447.792	588.81
448.013	582.81
448.234	603.81
448.455	677.81
448.675	771.81
448.896	930.81
449.117	772.81
449.338	733.81
449.559	825.81
449.779	951.81
450	755.81
450.221	639.81
450.442	582.81
450.662	567.81
450.883	582.81
451.104	590.81
451.324	579.81
451.545	563.81
451.766	569.81
451.986	514.81
452.207	535.81
452.428	540.81
452.648	543.81
452.869	540.81
453.089	548.81
453.31	558.81
453.53	539.81
453.751	541.81
453.971	546.81
454.192	534.81
454.412	522.81
454.633	519.81
454.853	524.81
455.073	522.81
455.294	552.81
455.514	628.81
455.734	605.81
455.955	531.81
456.175	503.81
456.395	500.81
456.616	503.81
456.836	505.81
457.056	523.81
457.276	481.81
457.497	522.81
457.717	511.81
457.937	525.81
458.157	503.81
458.377	542.81
458.598	532.81
458.818	584.81
459.038	656.81
459.258	701.81
459.478	613.81
459.698	577.81
459.918	578.81
460.138	577.81
460.358	593.81
460.578	574.81
460.798	614.81
461.018	612.81
461.238	613.81
461.458	596.81
461.678	587.81
461.898	596.81
462.118	629.81
462.338	631.81
462.558	626.81
462.777	645.81
462.997	666.81
463.217	693.81
463.437	686.81
463.657	669.81
463.876	649.81
464.096	637.81
464.316	642.81
464.536	641.81
464.755	632.81
464.975	660.81
465.195	677.81
465.414	696.81
465.634	640.81
465.854	602.81
466.073	573.81
466.293	561.81
466.512	546.81
466.732	557.81
466.951	537.81
467.171	548.81
467.391	558.81
467.61	569.81
467.829	563.81
468.049	557.81
468.268	554.81
468.488	549.81
468.707	537.81
468.927	522.81
469.146	533.81
469.365	539.81
469.585	529.81
469.804	558.81
470.023	566.81
470.243	578.81
470.462	577.81
470.681	586.81
470.901	567.81
471.12	588.81
471.339	571.81
471.558	569.81
471.777	567.81
471.997	559.81
472.216	548.81
472.435	593.81
472.654	565.81
472.873	533.81
473.092	562.81
473.311	556.81
473.53	558.81
473.749	567.81
473.968	596.81
474.187	693.81
474.406	724.81
474.625	630.81
474.844	571.81
475.063	582.81
475.282	540.81
475.501	558.81
475.72	558.81
475.939	577.81
476.158	567.81
476.377	596.81
476.596	573.81
476.814	597.81
477.033	565.81
477.252	610.81
477.471	583.81
477.69	601.81
477.908	605.81
478.127	595.81
478.346	619.81
478.564	637.81
478.783	634.81
479.002	635.81
479.22	645.81
479.439	661.81
479.658	647.81
479.876	669.81
480.095	674.81
480.313	703.81
480.532	707.81
480.751	690.81
480.969	703.81
481.188	755.81
481.406	771.81
481.624	695.81
481.843	671.81
482.061	665.81
482.28	649.81
482.498	639.81
482.717	651.81
482.935	652.81
483.153	654.81
483.372	644.81
483.59	666.81
483.808	641.81
484.027	650.81
484.245	655.81
484.463	637.81
484.681	681.81
484.9	656.81
485.118	671.81
485.336	681.81
485.554	679.81
485.772	678.81
485.99	703.81
486.209	703.81
486.427	693.81
486.645	685.81
486.863	683.81
487.081	701.81
487.299	698.81
487.517	707.81
487.735	689.81
487.953	701.81
488.171	708.81
488.389	694.81
488.607	726.81
488.825	700.81
489.043	720.81
489.261	721.81
489.479	714.81
489.696	709.81
489.914	718.81
490.132	726.81
490.35	733.81
490.568	756.81
490.786	751.81
491.003	773.81
491.221	802.81
491.439	811.81
491.657	790.81
491.874	789.81
492.092	809.81
492.31	813.81
492.527	808.81
492.745	819.81
492.963	806.81
493.18	837.81
493.398	822.81
493.615	811.81
493.833	860.81
494.05	835.81
494.268	854.81
494.485	819.81
494.703	824.81
494.92	829.81
495.138	841.81
495.355	834.81
495.573	829.81
495.79	829.81
496.008	853.81
496.225	851.81
496.442	843.81
496.66	872.81
496.877	832.81
497.094	855.81
497.312	866.81
497.529	896.81
497.746	883.81
497.963	915.81
498.181	938.81
498.398	941.81
498.615	962.81
498.832	982.81
499.049	1031.81
499.267	1040.81
499.484	1072.81
499.701	1129.81
499.918	1174.81
500.135	1292.81
500.352	1314.81
500.569	1347.81
500.786	1345.81
501.003	1325.81
501.22	1261.81
501.437	1186.81
501.654	1170.81
501.871	1123.81
502.088	1050.81
502.305	1025.81
502.522	986.81
502.739	1003.81
502.956	945.81
503.172	913.81
503.389	898.81
503.606	871.81
503.823	870.81
504.04	844.81
504.256	882.81
504.473	874.81
504.69	879.81
504.907	872.81
505.123	865.81
505.34	814.81
505.557	794.81
505.773	815.81
505.99	794.81
506.207	794.81
506.423	808.81
506.64	806.81
506.856	767.81
507.073	756.81
507.289	764.81
507.506	751.81
507.722	811.81
507.939	772.81
508.155	751.81
508.372	746.81
508.588	724.81
508.805	742.81
509.021	732.81
509.238	770.81
509.454	734.81
509.67	743.81
509.887	720.81
510.103	725.81
510.319	747.81
510.536	812.81
510.752	1133.81
510.968	991.81
511.184	748.81
511.401	705.81
511.617	705.81
511.833	692.81
512.049	690.81
512.265	705.81
512.481	688.81
512.698	702.81
512.914	698.81
513.13	706.81
513.346	693.81
513.562	705.81
513.778	684.81
513.994	718.81
514.21	690.81
514.426	704.81
514.642	741.81
514.858	767.81
515.074	773.81
515.29	872.81
515.506	1153.81
515.721	996.81
515.937	772.81
516.153	733.81
516.369	725.81
516.585	731.81
516.801	715.81
517.016	713.81
517.232	740.81
517.448	762.81
517.664	761.81
517.879	754.81
518.095	754.81
518.311	737.81
518.527	711.81
518.742	719.81
518.958	717.81
519.173	707.81
519.389	702.81
519.605	709.81
519.82	707.81
520.036	728.81
520.251	697.81
520.467	713.81
520.682	737.81
520.898	730.81
521.113	723.81
521.329	778.81
521.544	833.81
521.76	956.81
521.975	1429.81
522.19	1461.81
522.406	877.81
522.621	734.81
522.836	689.81
523.052	651.81
523.267	661.81
523.482	637.81
523.698	636.81
523.913	634.81
524.128	629.81
524.343	607.81
524.559	609.81
524.774	595.81
524.989	601.81
525.204	620.81
525.419	597.81
525.634	569.81
525.849	610.81
526.064	588.81
526.28	563.81
526.495	591.81
526.71	564.81
526.925	542.81
527.14	556.81
527.355	579.81
527.57	581.81
527.785	582.81
527.999	558.81
528.214	569.81
528.429	580.81
528.644	568.81
528.859	583.81
529.074	549.81
529.289	603.81
529.503	655.81
529.718	643.81
529.933	622.81
530.148	605.81
530.363	587.81
530.577	571.81
530.792	563.81
531.007	547.81
531.221	583.81
531.436	548.81
531.651	544.81
531.865	557.81
532.08	581.81
532.295	571.81
532.509	557.81
532.724	539.81
532.938	540.81
533.153	546.81
533.367	549.81
533.582	538.81
533.796	557.81
534.011	546.81
534.225	552.81
534.44	541.81
534.654	547.81
534.868	551.81
535.083	546.81
535.297	556.81
535.511	528.81
535.726	537.81
535.94	536.81
536.154	553.81
536.369	548.81
536.583	531.81
536.797	551.81
537.011	527.81
537.225	540.81
537.44	521.81
537.654	528.81
537.868	527.81
538.082	523.81
538.296	532.81
538.51	549.81
538.724	545.81
538.938	532.81
539.153	547.81
539.367	554.81
539.581	551.81
539.795	529.81
540.009	534.81
540.222	531.81
540.436	540.81
540.65	532.81
540.864	524.81
541.078	538.81
541.292	533.81
541.506	545.81
541.72	548.81
541.934	525.81
542.147	523.81
542.361	521.81
542.575	519.81
542.789	524.81
543.002	525.81
543.216	521.81
543.43	536.81
543.644	534.81
543.857	523.81
544.071	540.81
544.285	517.81
544.498	532.81
544.712	527.81
544.925	524.81
545.139	526.81
545.352	539.81
545.566	536.81
545.779	542.81
545.993	540.81
546.206	546.81
546.42	518.81
546.633	531.81
546.847	532.81
547.06	518.81
547.274	536.81
547.487	518.81
547.7	509.81
547.914	510.81
548.127	522.81
548.34	522.81
548.554	518.81
548.767	519.81
548.98	520.81
549.193	526.81
549.407	536.81
549.62	537.81
549.833	531.81
550.046	527.81
550.259	512.81
550.473	489.81
550.686	501.81
550.899	537.81
551.112	517.81
551.325	511.81
551.538	526.81
551.751	516.81
551.964	513.81
552.177	521.81
552.39	520.81
552.603	533.81
552.816	523.81
553.029	538.81
553.242	527.81
553.455	547.81
553.667	534.81
553.88	555.81
554.093	541.81
554.306	538.81
554.519	545.81
554.732	533.81
554.944	500.81
555.157	520.81
555.37	484.81
555.583	479.81
555.795	502.81
556.008	495.81
556.221	485.81
556.433	465.81
556.646	471.81
556.859	491.81
557.071	479.81
557.284	476.81
557.496	476.81
557.709	467.81
557.921	472.81
558.134	458.81
558.346	471.81
558.559	451.81
558.771	457.81
558.984	470.81
559.196	465.81
559.409	454.81
559.621	455.81
559.833	455.81
560.046	470.81
560.258	486.81
560.47	475.81
560.683	429.81
560.895	441.81
561.107	446.81
561.32	456.81
561.532	452.81
561.744	448.81
561.956	446.81
562.168	461.81
562.381	461.81
562.593	471.81
562.805	469.81
563.017	483.81
563.229	461.81
563.441	434.81
563.653	455.81
563.865	459.81
564.077	479.81
564.289	463.81
564.501	466.81
564.713	506.81
564.925	491.81
565.137	490.81
565.349	512.81
565.561	515.81
565.773	524.81
565.985	528.81
566.197	533.81
566.408	562.81
566.62	567.81
566.832	600.81
567.044	595.81
567.255	605.81
567.467	628.81
567.679	631.81
567.891	632.81
568.102	642.81
568.314	635.81
568.526	604.81
568.737	595.81
568.949	540.81
569.161	512.81
569.372	470.81
569.584	487.81
569.795	501.81
570.007	478.81
570.218	493.81
570.43	491.81
570.641	465.81
570.853	470.81
571.064	472.81
571.276	452.81
571.487	445.81
571.698	439.81
571.91	418.81
572.121	421.81
572.333	429.81
572.544	419.81
572.755	404.81
572.966	404.81
573.178	408.81
573.389	411.81
573.6	400.81
573.811	403.81
574.023	396.81
574.234	375.81
574.445	405.81
574.656	382.81
574.867	390.81
575.078	395.81
575.289	386.81
575.501	381.81
575.712	369.81
575.923	373.81
576.134	400.81
576.345	387.81
576.556	392.81
576.767	365.81
576.978	389.81
577.188	397.81
577.399	404.81
577.61	373.81
577.821	378.81
578.032	389.81
578.243	403.81
578.454	554.81
578.665	461.81
578.875	377.81
579.086	374.81
579.297	370.81
579.508	368.81
579.718	378.81
579.929	350.81
580.14	348.81
580.35	354.81
580.561	350.81
580.772	334.81
580.982	349.81
581.193	342.81
581.403	347.81
581.614	360.81
581.825	345.81
582.035	363.81
582.246	358.81
582.456	344.81
582.667	345.81
582.877	352.81
583.087	348.81
583.298	341.81
583.508	370.81
583.719	359.81
583.929	347.81
584.139	319.81
584.35	351.81
584.56	362.81
584.77	361.81
584.981	352.81
585.191	334.81
585.401	356.81
585.611	361.81
585.821	350.81
586.032	331.81
586.242	338.81
586.452	329.81
586.662	334.81
586.872	348.81
587.082	338.81
587.292	335.81
587.502	334.81
587.713	328.81
587.923	325.81
588.133	326.81
588.343	336.81
588.553	329.81
588.762	318.81
588.972	325.81
589.182	334.81
589.392	363.81
589.602	340.81
589.812	318.81
590.022	345.81
590.232	327.81
590.441	330.81
590.651	347.81
590.861	333.81
591.071	345.81
591.281	342.81
591.49	358.81
591.7	366.81
591.91	369.81
592.119	355.81
592.329	363.81
592.539	364.81
592.748	377.81
592.958	372.81
593.167	365.81
593.377	387.81
593.587	377.81
593.796	369.81
594.006	377.81
594.215	385.81
594.424	395.81
594.634	382.81
594.843	372.81
595.053	366.81
595.262	377.81
595.472	360.81
595.681	372.81
595.89	331.81
596.1	331.81
596.309	332.81
596.518	333.81
596.727	332.81
596.937	333.81
597.146	314.81
597.355	306.81
597.564	323.81
597.774	313.81
597.983	315.81
598.192	324.81
598.401	302.81
598.61	275.81
598.819	306.81
599.028	326.81
599.237	317.81
599.446	300.81
599.655	298.81
599.864	306.81
600.073	291.81
600.282	295.81
600.491	312.81
600.7	307.81
600.909	309.81
601.118	305.81
601.327	278.81
601.536	284.81
601.745	301.81
601.953	306.81
602.162	276.81
602.371	289.81
602.58	289.81
602.789	316.81
602.997	317.81
603.206	293.81
603.415	286.81
603.623	297.81
603.832	294.81
604.041	283.81
604.249	292.81
604.458	291.81
604.666	288.81
604.875	292.81
605.084	283.81
605.292	281.81
605.501	276.81
605.709	308.81
605.918	291.81
606.126	291.81
606.334	287.81
606.543	267.81
606.751	291.81
606.96	283.81
607.168	274.81
607.376	286.81
607.585	283.81
607.793	289.81
608.001	282.81
608.21	260.81
608.418	280.81
608.626	279.81
608.834	277.81
609.043	258.81
609.251	265.81
609.459	290.81
609.667	287.81
609.875	280.81
610.083	263.81
610.291	282.81
610.499	266.81
610.707	272.81
610.916	279.81
611.124	280.81
611.332	295.81
611.54	277.81
611.748	270.81
611.955	271.81
612.163	280.81
612.371	283.81
612.579	285.81
612.787	275.81
612.995	270.81
613.203	282.81
613.411	294.81
613.618	277.81
613.826	263.81
614.034	290.81
614.242	271.81
614.449	269.81
614.657	281.81
614.865	269.81
615.072	265.81
615.28	282.81
615.488	290.81
615.695	273.81
615.903	265.81
616.111	268.81
616.318	289.81
616.526	271.81
616.733	275.81
616.941	286.81
617.148	272.81
617.356	283.81
617.563	306.81
617.771	269.81
617.978	281.81
618.185	277.81
618.393	265.81
618.6	286.81
618.807	269.81
619.015	269.81
619.222	270.81
619.429	271.81
619.637	271.81
619.844	274.81
620.051	250.81
620.258	270.81
620.466	263.81
620.673	265.81
620.88	260.81
621.087	261.81
621.294	250.81
621.501	248.81
621.708	258.81
621.915	259.81
622.122	252.81
622.329	256.81
622.536	274.81
622.743	260.81
622.95	255.81
623.157	238.81
623.364	262.81
623.571	258.81
623.778	250.81
623.985	251.81
624.192	253.81
624.399	244.81
624.606	245.81
624.812	246.81
625.019	251.81
625.226	247.81
625.433	242.81
625.639	242.81
625.846	230.81
626.053	238.81
626.259	241.81
626.466	251.81
626.673	247.81
626.879	243.81
627.086	254.81
627.293	225.81
627.499	227.81
627.706	227.81
627.912	235.81
628.119	211.81
628.325	228.81
628.532	259.81
628.738	229.81
628.945	246.81
629.151	225.81
629.357	225.81
629.564	238.81
629.77	242.81
629.976	228.81
630.183	224.81
630.389	225.81
630.595	229.81
630.802	223.81
631.008	212.81
631.214	219.81
631.42	220.81
631.627	213.81
631.833	202.81
632.039	219.81
632.245	223.81
632.451	220.81
632.657	204.81
632.863	210.81
633.069	212.81
633.275	218.81
633.481	217.81
633.688	214.81
633.893	219.81
634.099	216.81
634.305	207.81
634.511	204.81
634.717	201.81
634.923	199.81
635.129	218.81
635.335	194.81
635.541	187.81
635.747	207.81
635.952	190.81
636.158	196.81
636.364	220.81
636.57	219.81
636.775	197.81
636.981	214.81
637.187	208.81
637.392	195.81
637.598	214.81
637.804	196.81
638.009	209.81
638.215	194.81
638.421	203.81
638.626	208.81
638.832	198.81
639.037	202.81
639.243	205.81
639.448	195.81
639.654	194.81
639.859	190.81
640.065	188.81
640.27	205.81
640.475	209.81
640.681	195.81
640.886	210.81
641.091	195.81
641.297	197.81
641.502	201.81
641.707	190.81
641.913	185.81
642.118	201.81
642.323	193.81
642.528	205.81
642.733	187.81
642.939	187.81
643.144	203.81
643.349	170.81
643.554	185.81
643.759	191.81
643.964	187.81
644.169	205.81
644.374	185.81
644.579	187.81
644.784	195.81
644.989	182.81
645.194	198.81
645.399	186.81
645.604	174.81
645.809	190.81
646.014	199.81
646.219	181.81
646.423	184.81
646.628	183.81
646.833	188.81
647.038	183.81
647.243	179.81
647.447	184.81
647.652	195.81
647.857	169.81
648.062	173.81
648.266	194.81
648.471	195.81
648.676	208.81
648.88	196.81
649.085	189.81
649.289	191.81
649.494	197.81
649.698	202.81
649.903	201.81
650.107	184.81
650.312	176.81
650.516	188.81
650.721	180.81
650.925	177.81
651.13	166.81
651.334	179.81
651.539	155.81
651.743	185.81
651.947	166.81
652.152	145.81
652.356	149.81
652.56	157.81
652.764	153.81
652.969	165.81
653.173	169.81
653.377	156.81
653.581	159.81
653.785	144.81
653.99	137.81
654.194	148.81
654.398	147.81
654.602	146.81
654.806	149.81
655.01	164.81
655.214	152.81
655.418	142.81
655.622	129.81
655.826	139.81
656.03	155.81
656.234	135.81
656.438	150.81
656.642	142.81
656.846	141.81
657.049	129.81
657.253	142.81
657.457	132.81
657.661	137.81
657.865	124.81
658.068	121.81
658.272	104.81
658.476	131.81
658.68	113.81
658.883	112.81
659.087	103.81
659.291	105.81
659.494	110.81
659.698	104.81
659.901	102.81
660.105	87.81
660.309	92.81
660.512	103.81
660.716	98.81
660.919	92.81
661.123	102.81
661.326	89.81
661.53	107.81
661.733	99.81
661.936	88.81
662.14	81.81
662.343	101.81
662.546	89.81
662.75	95.81
662.953	87.81
663.156	79.81
663.36	97.81
663.563	79.81
663.766	74.81
663.969	87.81
664.173	84.81
664.376	90.81
664.579	86.81
664.782	78.81
664.985	86.81
665.188	90.81
665.391	87.81
665.594	84.81
665.797	88.81
666	58.81
666.203	97.81
666.406	86.81
666.609	79.81
666.812	77.81
667.015	81.81
667.218	88.81
667.421	76.81
667.624	82.81
667.827	87.81
668.03	90.81
668.232	92.81
668.435	94.81
668.638	91.81
668.841	95.81
669.043	99.81
669.246	74.81
669.449	89.81
669.651	78.81
669.854	83.81
670.057	91.81
670.259	70.81
670.462	72.81
670.665	87.81
670.867	77.81
671.07	89.81
671.272	96.81
671.475	93.81
671.677	71.81
671.88	73.81
672.082	78.81
672.284	78.81
672.487	84.81
672.689	80.81
672.892	87.81
