Data from 1974.PennyLincolnUp.Lamp.En5.5.200Scan.071719.P1.Changed Mount._HRD10591_15-51-50-856.txt Node
Date: Thu Jul 18 15:51:50 EDT 2019
User: cochatt
Spectrometer: HR+D1059
Trigger mode: 1
Integration Time (sec): 1.000000E-1
Scans to average: 1
Electric dark correction enabled: true
Nonlinearity correction enabled: false
Boxcar width: 0
XAxis mode: Wavelengths
Number of Pixels in Spectrum: 2048
>>>>>Begin Spectral Data<<<<<
223.165	-25.94
223.4	-25.94
223.635	-25.94
223.869	-21.94
224.104	-27.94
224.338	-9.94
224.573	-21.94
224.808	-14.94
225.042	-1.94
225.277	9.06
225.511	-4.94
225.746	7.06
225.98	3.06
226.215	28.06
226.449	20.06
226.683	16.06
226.918	9.06
227.152	37.06
227.387	22.06
227.621	36.06
227.856	43.06
228.09	38.06
228.324	52.06
228.559	63.06
228.793	71.06
229.027	98.06
229.262	99.06
229.496	121.06
229.73	122.06
229.964	142.06
230.199	134.06
230.433	117.06
230.667	115.06
230.901	95.06
231.136	99.06
231.37	96.06
231.604	118.06
231.838	118.06
232.072	111.06
232.306	107.06
232.541	104.06
232.775	110.06
233.009	110.06
233.243	109.06
233.477	107.06
233.711	102.06
233.945	115.06
234.179	130.06
234.413	116.06
234.647	122.06
234.881	124.06
235.115	131.06
235.349	117.06
235.583	110.06
235.817	118.06
236.051	130.06
236.285	127.06
236.519	133.06
236.753	130.06
236.987	145.06
237.221	175.06
237.455	225.06
237.689	178.06
237.922	123.06
238.156	129.06
238.39	138.06
238.624	119.06
238.858	137.06
239.091	147.06
239.325	123.06
239.559	121.06
239.793	127.06
240.027	135.06
240.26	133.06
240.494	148.06
240.728	155.06
240.961	150.06
241.195	141.06
241.429	142.06
241.662	129.06
241.896	152.06
242.13	140.06
242.363	139.06
242.597	148.06
242.83	157.06
243.064	135.06
243.298	155.06
243.531	163.06
243.765	146.06
243.998	145.06
244.232	148.06
244.465	147.06
244.699	144.06
244.932	152.06
245.166	157.06
245.399	164.06
245.633	155.06
245.866	157.06
246.099	157.06
246.333	157.06
246.566	166.06
246.8	168.06
247.033	166.06
247.266	171.06
247.5	167.06
247.733	188.06
247.966	177.06
248.2	172.06
248.433	180.06
248.666	178.06
248.899	197.06
249.133	212.06
249.366	211.06
249.599	196.06
249.832	174.06
250.066	193.06
250.299	200.06
250.532	216.06
250.765	209.06
250.998	218.06
251.231	236.06
251.465	223.06
251.698	228.06
251.931	221.06
252.164	206.06
252.397	207.06
252.63	227.06
252.863	214.06
253.096	226.06
253.329	234.06
253.562	232.06
253.795	223.06
254.028	231.06
254.261	232.06
254.494	237.06
254.727	252.06
254.96	268.06
255.193	272.06
255.426	258.06
255.659	234.06
255.892	238.06
256.124	229.06
256.357	235.06
256.59	231.06
256.823	228.06
257.056	220.06
257.289	208.06
257.521	211.06
257.754	221.06
257.987	210.06
258.22	206.06
258.452	222.06
258.685	217.06
258.918	215.06
259.151	220.06
259.383	225.06
259.616	235.06
259.849	232.06
260.081	239.06
260.314	250.06
260.547	273.06
260.779	245.06
261.012	251.06
261.244	233.06
261.477	236.06
261.71	222.06
261.942	228.06
262.175	234.06
262.407	223.06
262.64	207.06
262.872	218.06
263.105	208.06
263.337	231.06
263.57	236.06
263.802	214.06
264.035	228.06
264.267	227.06
264.499	231.06
264.732	225.06
264.964	219.06
265.197	221.06
265.429	229.06
265.661	215.06
265.894	228.06
266.126	224.06
266.358	229.06
266.591	233.06
266.823	236.06
267.055	243.06
267.287	244.06
267.52	234.06
267.752	226.06
267.984	245.06
268.216	247.06
268.448	260.06
268.681	240.06
268.913	248.06
269.145	264.06
269.377	303.06
269.609	271.06
269.841	277.06
270.073	271.06
270.306	324.06
270.538	323.06
270.77	308.06
271.002	286.06
271.234	281.06
271.466	300.06
271.698	307.06
271.93	327.06
272.162	317.06
272.394	325.06
272.626	310.06
272.858	310.06
273.09	281.06
273.322	272.06
273.553	255.06
273.785	272.06
274.017	281.06
274.249	262.06
274.481	252.06
274.713	278.06
274.945	276.06
275.176	271.06
275.408	280.06
275.64	278.06
275.872	274.06
276.104	270.06
276.335	287.06
276.567	267.06
276.799	272.06
277.031	322.06
277.262	333.06
277.494	321.06
277.726	317.06
277.957	303.06
278.189	293.06
278.421	278.06
278.652	284.06
278.884	276.06
279.115	267.06
279.347	280.06
279.579	259.06
279.81	273.06
280.042	293.06
280.273	293.06
280.505	274.06
280.736	288.06
280.968	279.06
281.199	298.06
281.431	298.06
281.662	288.06
281.894	286.06
282.125	294.06
282.356	296.06
282.588	309.06
282.819	311.06
283.051	291.06
283.282	295.06
283.513	268.06
283.745	302.06
283.976	275.06
284.207	285.06
284.439	315.06
284.67	290.06
284.901	294.06
285.132	292.06
285.364	300.06
285.595	284.06
285.826	285.06
286.057	303.06
286.288	296.06
286.52	317.06
286.751	300.06
286.982	296.06
287.213	283.06
287.444	303.06
287.675	308.06
287.906	316.06
288.138	317.06
288.369	317.06
288.6	295.06
288.831	294.06
289.062	309.06
289.293	315.06
289.524	328.06
289.755	291.06
289.986	309.06
290.217	318.06
290.448	319.06
290.679	299.06
290.91	300.06
291.141	287.06
291.371	304.06
291.602	327.06
291.833	302.06
292.064	307.06
292.295	307.06
292.526	331.06
292.757	302.06
292.987	309.06
293.218	311.06
293.449	327.06
293.68	327.06
293.91	318.06
294.141	318.06
294.372	328.06
294.603	324.06
294.833	307.06
295.064	325.06
295.295	324.06
295.525	311.06
295.756	320.06
295.987	322.06
296.217	327.06
296.448	348.06
296.679	320.06
296.909	328.06
297.14	334.06
297.37	335.06
297.601	324.06
297.831	320.06
298.062	339.06
298.292	313.06
298.523	313.06
298.753	320.06
298.984	316.06
299.214	338.06
299.445	325.06
299.675	320.06
299.905	346.06
300.136	328.06
300.366	334.06
300.597	334.06
300.827	346.06
301.057	340.06
301.288	353.06
301.518	346.06
301.748	334.06
301.979	342.06
302.209	341.06
302.439	349.06
302.669	333.06
302.9	341.06
303.13	330.06
303.36	348.06
303.59	351.06
303.82	352.06
304.051	344.06
304.281	330.06
304.511	349.06
304.741	349.06
304.971	346.06
305.201	350.06
305.431	348.06
305.661	341.06
305.891	348.06
306.121	357.06
306.352	349.06
306.582	365.06
306.812	351.06
307.042	354.06
307.272	338.06
307.502	323.06
307.731	353.06
307.961	336.06
308.191	342.06
308.421	358.06
308.651	375.06
308.881	348.06
309.111	348.06
309.341	359.06
309.571	343.06
309.8	366.06
310.03	390.06
310.26	373.06
310.49	362.06
310.72	358.06
310.949	400.06
311.179	406.06
311.409	365.06
311.639	393.06
311.868	401.06
312.098	359.06
312.328	394.06
312.557	398.06
312.787	413.06
313.017	420.06
313.246	378.06
313.476	378.06
313.706	395.06
313.935	382.06
314.165	418.06
314.394	380.06
314.624	421.06
314.853	406.06
315.083	372.06
315.312	400.06
315.542	384.06
315.771	381.06
316.001	366.06
316.23	388.06
316.46	398.06
316.689	388.06
316.919	393.06
317.148	404.06
317.377	398.06
317.607	404.06
317.836	410.06
318.065	382.06
318.295	375.06
318.524	395.06
318.753	397.06
318.983	415.06
319.212	403.06
319.441	395.06
319.67	394.06
319.9	386.06
320.129	378.06
320.358	397.06
320.587	386.06
320.816	401.06
321.046	408.06
321.275	419.06
321.504	414.06
321.733	426.06
321.962	406.06
322.191	414.06
322.42	427.06
322.649	415.06
322.878	434.06
323.108	454.06
323.337	467.06
323.566	450.06
323.795	478.06
324.024	515.06
324.253	598.06
324.482	795.06
324.71	1198.06
324.939	1769.06
325.168	1567.06
325.397	799.06
325.626	582.06
325.855	494.06
326.084	482.06
326.313	482.06
326.542	483.06
326.77	518.06
326.999	568.06
327.228	736.06
327.457	1077.06
327.686	1325.06
327.914	928.06
328.143	630.06
328.372	558.06
328.6	533.06
328.829	520.06
329.058	517.06
329.287	536.06
329.515	522.06
329.744	491.06
329.972	482.06
330.201	497.06
330.43	517.06
330.658	559.06
330.887	573.06
331.115	567.06
331.344	491.06
331.572	479.06
331.801	488.06
332.03	485.06
332.258	467.06
332.486	476.06
332.715	471.06
332.943	480.06
333.172	462.06
333.4	471.06
333.629	473.06
333.857	504.06
334.085	499.06
334.314	512.06
334.542	542.06
334.771	562.06
334.999	522.06
335.227	502.06
335.455	512.06
335.684	486.06
335.912	481.06
336.14	491.06
336.369	475.06
336.597	487.06
336.825	486.06
337.053	469.06
337.281	469.06
337.51	476.06
337.738	472.06
337.966	468.06
338.194	464.06
338.422	459.06
338.65	456.06
338.878	446.06
339.106	447.06
339.334	464.06
339.562	442.06
339.79	452.06
340.018	461.06
340.246	439.06
340.474	469.06
340.702	461.06
340.93	442.06
341.158	439.06
341.386	432.06
341.614	464.06
341.842	449.06
342.07	458.06
342.298	446.06
342.526	453.06
342.754	420.06
342.981	428.06
343.209	440.06
343.437	464.06
343.665	437.06
343.893	466.06
344.12	490.06
344.348	497.06
344.576	485.06
344.804	473.06
345.031	461.06
345.259	447.06
345.487	457.06
345.714	437.06
345.942	447.06
346.17	431.06
346.397	428.06
346.625	443.06
346.853	424.06
347.08	435.06
347.308	426.06
347.535	427.06
347.763	458.06
347.99	458.06
348.218	436.06
348.445	443.06
348.673	434.06
348.9	436.06
349.128	458.06
349.355	444.06
349.583	412.06
349.81	429.06
350.037	434.06
350.265	438.06
350.492	434.06
350.72	436.06
350.947	426.06
351.174	429.06
351.402	456.06
351.629	435.06
351.856	427.06
352.083	435.06
352.311	444.06
352.538	424.06
352.765	458.06
352.992	416.06
353.22	441.06
353.447	437.06
353.674	442.06
353.901	404.06
354.128	407.06
354.355	423.06
354.583	428.06
354.81	413.06
355.037	420.06
355.264	402.06
355.491	424.06
355.718	418.06
355.945	440.06
356.172	411.06
356.399	410.06
356.626	431.06
356.853	420.06
357.08	407.06
357.307	403.06
357.534	407.06
357.761	417.06
357.988	414.06
358.215	423.06
358.441	417.06
358.668	414.06
358.895	422.06
359.122	428.06
359.349	414.06
359.576	440.06
359.802	454.06
360.029	455.06
360.256	462.06
360.483	470.06
360.709	439.06
360.936	451.06
361.163	444.06
361.39	444.06
361.616	436.06
361.843	418.06
362.07	442.06
362.296	446.06
362.523	427.06
362.749	450.06
362.976	440.06
363.203	428.06
363.429	428.06
363.656	430.06
363.882	445.06
364.109	420.06
364.335	416.06
364.562	421.06
364.788	442.06
365.015	437.06
365.241	415.06
365.468	414.06
365.694	429.06
365.92	430.06
366.147	412.06
366.373	429.06
366.599	448.06
366.826	418.06
367.052	416.06
367.278	435.06
367.505	441.06
367.731	446.06
367.957	430.06
368.184	415.06
368.41	437.06
368.636	432.06
368.862	441.06
369.089	445.06
369.315	419.06
369.541	422.06
369.767	441.06
369.993	422.06
370.219	427.06
370.445	446.06
370.672	442.06
370.898	450.06
371.124	424.06
371.35	444.06
371.576	423.06
371.802	450.06
372.028	459.06
372.254	429.06
372.48	444.06
372.706	450.06
372.932	454.06
373.158	458.06
373.384	459.06
373.61	423.06
373.835	440.06
374.061	448.06
374.287	444.06
374.513	453.06
374.739	460.06
374.965	462.06
375.191	436.06
375.416	459.06
375.642	442.06
375.868	454.06
376.094	442.06
376.319	445.06
376.545	460.06
376.771	457.06
376.997	443.06
377.222	429.06
377.448	437.06
377.674	455.06
377.899	429.06
378.125	429.06
378.35	438.06
378.576	428.06
378.802	431.06
379.027	449.06
379.253	442.06
379.478	451.06
379.704	436.06
379.929	445.06
380.155	446.06
380.38	423.06
380.606	430.06
380.831	451.06
381.057	443.06
381.282	418.06
381.507	443.06
381.733	443.06
381.958	454.06
382.184	467.06
382.409	458.06
382.634	480.06
382.86	442.06
383.085	456.06
383.31	447.06
383.535	462.06
383.761	462.06
383.986	469.06
384.211	470.06
384.436	462.06
384.662	462.06
384.887	484.06
385.112	492.06
385.337	471.06
385.562	470.06
385.787	478.06
386.013	499.06
386.238	510.06
386.463	508.06
386.688	509.06
386.913	498.06
387.138	494.06
387.363	489.06
387.588	498.06
387.813	507.06
388.038	487.06
388.263	493.06
388.488	480.06
388.713	501.06
388.938	503.06
389.163	494.06
389.387	511.06
389.612	506.06
389.837	492.06
390.062	475.06
390.287	501.06
390.512	488.06
390.736	511.06
390.961	500.06
391.186	502.06
391.411	501.06
391.636	491.06
391.86	506.06
392.085	510.06
392.31	524.06
392.534	523.06
392.759	512.06
392.984	504.06
393.208	509.06
393.433	516.06
393.658	508.06
393.882	501.06
394.107	525.06
394.331	489.06
394.556	511.06
394.78	498.06
395.005	542.06
395.229	510.06
395.454	503.06
395.678	491.06
395.903	531.06
396.127	552.06
396.352	532.06
396.576	517.06
396.801	524.06
397.025	536.06
397.249	530.06
397.474	526.06
397.698	543.06
397.922	519.06
398.147	554.06
398.371	542.06
398.595	550.06
398.82	558.06
399.044	588.06
399.268	622.06
399.492	650.06
399.717	696.06
399.941	717.06
400.165	717.06
400.389	723.06
400.613	651.06
400.837	630.06
401.062	568.06
401.286	568.06
401.51	586.06
401.734	600.06
401.958	583.06
402.182	582.06
402.406	575.06
402.63	579.06
402.854	571.06
403.078	586.06
403.302	605.06
403.526	591.06
403.75	616.06
403.974	619.06
404.198	609.06
404.422	602.06
404.645	628.06
404.869	630.06
405.093	672.06
405.317	674.06
405.541	726.06
405.765	666.06
405.988	626.06
406.212	645.06
406.436	632.06
406.66	687.06
406.883	628.06
407.107	681.06
407.331	716.06
407.555	814.06
407.778	808.06
408.002	732.06
408.226	692.06
408.449	654.06
408.673	650.06
408.896	663.06
409.12	723.06
409.344	667.06
409.567	623.06
409.791	604.06
410.014	602.06
410.238	619.06
410.461	594.06
410.685	598.06
410.908	611.06
411.132	653.06
411.355	699.06
411.578	642.06
411.802	630.06
412.025	605.06
412.249	603.06
412.472	599.06
412.695	659.06
412.919	640.06
413.142	590.06
413.365	589.06
413.589	585.06
413.812	585.06
414.035	550.06
414.258	570.06
414.482	562.06
414.705	555.06
414.928	570.06
415.151	587.06
415.374	584.06
415.597	582.06
415.821	587.06
416.044	558.06
416.267	551.06
416.49	546.06
416.713	550.06
416.936	569.06
417.159	543.06
417.382	592.06
417.605	571.06
417.828	595.06
418.051	603.06
418.274	587.06
418.497	571.06
418.72	583.06
418.943	602.06
419.166	605.06
419.389	622.06
419.611	613.06
419.834	606.06
420.057	626.06
420.28	614.06
420.503	592.06
420.726	599.06
420.948	588.06
421.171	628.06
421.394	679.06
421.617	615.06
421.839	610.06
422.062	617.06
422.285	603.06
422.507	668.06
422.73	734.06
422.953	719.06
423.175	638.06
423.398	630.06
423.621	598.06
423.843	638.06
424.066	637.06
424.288	644.06
424.511	669.06
424.733	681.06
424.956	783.06
425.178	746.06
425.401	724.06
425.623	758.06
425.846	669.06
426.068	642.06
426.291	624.06
426.513	604.06
426.735	635.06
426.958	653.06
427.18	742.06
427.402	854.06
427.625	934.06
427.847	819.06
428.069	724.06
428.292	675.06
428.514	618.06
428.736	567.06
428.958	573.06
429.181	574.06
429.403	569.06
429.625	586.06
429.847	603.06
430.069	685.06
430.292	678.06
430.514	602.06
430.736	574.06
430.958	597.06
431.18	552.06
431.402	537.06
431.624	537.06
431.846	548.06
432.068	572.06
432.29	548.06
432.512	552.06
432.734	560.06
432.956	544.06
433.178	584.06
433.4	563.06
433.622	585.06
433.844	544.06
434.066	543.06
434.287	549.06
434.509	563.06
434.731	573.06
434.953	580.06
435.175	591.06
435.397	613.06
435.618	616.06
435.84	649.06
436.062	735.06
436.284	804.06
436.505	671.06
436.727	616.06
436.949	588.06
437.17	558.06
437.392	564.06
437.614	594.06
437.835	611.06
438.057	700.06
438.278	806.06
438.5	783.06
438.721	878.06
438.943	848.06
439.165	691.06
439.386	639.06
439.608	618.06
439.829	623.06
440.05	626.06
440.272	676.06
440.493	658.06
440.715	614.06
440.936	588.06
441.158	616.06
441.379	583.06
441.6	608.06
441.822	624.06
442.043	660.06
442.264	744.06
442.486	805.06
442.707	691.06
442.928	619.06
443.149	630.06
443.371	648.06
443.592	719.06
443.813	798.06
444.034	879.06
444.255	739.06
444.476	662.06
444.698	640.06
444.919	638.06
445.14	778.06
445.361	733.06
445.582	668.06
445.803	719.06
446.024	803.06
446.245	834.06
446.466	747.06
446.687	649.06
446.908	601.06
447.129	578.06
447.35	587.06
447.571	574.06
447.792	573.06
448.013	568.06
448.234	598.06
448.455	641.06
448.675	746.06
448.896	875.06
449.117	729.06
449.338	698.06
449.559	814.06
449.779	919.06
450	715.06
450.221	620.06
450.442	587.06
450.662	540.06
450.883	551.06
451.104	559.06
451.324	567.06
451.545	552.06
451.766	513.06
451.986	517.06
452.207	512.06
452.428	514.06
452.648	510.06
452.869	501.06
453.089	524.06
453.31	518.06
453.53	527.06
453.751	524.06
453.971	501.06
454.192	536.06
454.412	499.06
454.633	502.06
454.853	479.06
455.073	506.06
455.294	523.06
455.514	580.06
455.734	596.06
455.955	498.06
456.175	479.06
456.395	484.06
456.616	469.06
456.836	477.06
457.056	459.06
457.276	461.06
457.497	460.06
457.717	482.06
457.937	492.06
458.157	513.06
458.377	513.06
458.598	511.06
458.818	544.06
459.038	639.06
459.258	671.06
459.478	579.06
459.698	564.06
459.918	550.06
460.138	560.06
460.358	585.06
460.578	578.06
460.798	569.06
461.018	581.06
461.238	593.06
461.458	563.06
461.678	579.06
461.898	559.06
462.118	550.06
462.338	583.06
462.558	605.06
462.777	610.06
462.997	635.06
463.217	654.06
463.437	666.06
463.657	624.06
463.876	640.06
464.096	621.06
464.316	632.06
464.536	620.06
464.755	604.06
464.975	596.06
465.195	644.06
465.414	686.06
465.634	617.06
465.854	605.06
466.073	578.06
466.293	552.06
466.512	549.06
466.732	539.06
466.951	532.06
467.171	543.06
467.391	536.06
467.61	560.06
467.829	556.06
468.049	563.06
468.268	542.06
468.488	518.06
468.707	513.06
468.927	515.06
469.146	523.06
469.365	532.06
469.585	512.06
469.804	504.06
470.023	534.06
470.243	531.06
470.462	541.06
470.681	553.06
470.901	566.06
471.12	545.06
471.339	537.06
471.558	542.06
471.777	555.06
471.997	531.06
472.216	531.06
472.435	581.06
472.654	546.06
472.873	521.06
473.092	523.06
473.311	527.06
473.53	531.06
473.749	542.06
473.968	582.06
474.187	669.06
474.406	690.06
474.625	590.06
474.844	543.06
475.063	545.06
475.282	527.06
475.501	539.06
475.72	543.06
475.939	568.06
476.158	535.06
476.377	542.06
476.596	568.06
476.814	565.06
477.033	571.06
477.252	567.06
477.471	558.06
477.69	584.06
477.908	609.06
478.127	583.06
478.346	581.06
478.564	594.06
478.783	628.06
479.002	614.06
479.22	606.06
479.439	629.06
479.658	648.06
479.876	646.06
480.095	679.06
480.313	696.06
480.532	690.06
480.751	677.06
480.969	648.06
481.188	682.06
481.406	714.06
481.624	666.06
481.843	628.06
482.061	622.06
482.28	614.06
482.498	632.06
482.717	604.06
482.935	639.06
483.153	602.06
483.372	644.06
483.59	654.06
483.808	629.06
484.027	620.06
484.245	627.06
484.463	636.06
484.681	659.06
484.9	647.06
485.118	649.06
485.336	636.06
485.554	630.06
485.772	663.06
485.99	654.06
486.209	646.06
486.427	645.06
486.645	651.06
486.863	655.06
487.081	663.06
487.299	670.06
487.517	667.06
487.735	663.06
487.953	678.06
488.171	679.06
488.389	680.06
488.607	685.06
488.825	667.06
489.043	650.06
489.261	678.06
489.479	685.06
489.696	668.06
489.914	684.06
490.132	696.06
490.35	695.06
490.568	693.06
490.786	712.06
491.003	702.06
491.221	734.06
491.439	744.06
491.657	764.06
491.874	792.06
492.092	770.06
492.31	786.06
492.527	792.06
492.745	794.06
492.963	764.06
493.18	776.06
493.398	801.06
493.615	807.06
493.833	791.06
494.05	829.06
494.268	815.06
494.485	800.06
494.703	787.06
494.92	788.06
495.138	804.06
495.355	784.06
495.573	780.06
495.79	789.06
496.008	804.06
496.225	808.06
496.442	829.06
496.66	805.06
496.877	805.06
497.094	803.06
497.312	812.06
497.529	845.06
497.746	826.06
497.963	824.06
498.181	857.06
498.398	887.06
498.615	918.06
498.832	918.06
499.049	960.06
499.267	1007.06
499.484	1024.06
499.701	1118.06
499.918	1114.06
500.135	1199.06
500.352	1243.06
500.569	1281.06
500.786	1330.06
501.003	1246.06
501.22	1197.06
501.437	1172.06
501.654	1125.06
501.871	1082.06
502.088	1030.06
502.305	958.06
502.522	946.06
502.739	935.06
502.956	912.06
503.172	880.06
503.389	871.06
503.606	855.06
503.823	844.06
504.04	803.06
504.256	809.06
504.473	811.06
504.69	818.06
504.907	815.06
505.123	799.06
505.34	813.06
505.557	769.06
505.773	735.06
505.99	756.06
506.207	757.06
506.423	765.06
506.64	755.06
506.856	748.06
507.073	728.06
507.289	754.06
507.506	734.06
507.722	735.06
507.939	720.06
508.155	704.06
508.372	710.06
508.588	677.06
508.805	707.06
509.021	738.06
509.238	738.06
509.454	731.06
509.67	712.06
509.887	703.06
510.103	691.06
510.319	678.06
510.536	738.06
510.752	1083.06
510.968	917.06
511.184	710.06
511.401	681.06
511.617	631.06
511.833	657.06
512.049	674.06
512.265	659.06
512.481	653.06
512.698	639.06
512.914	658.06
513.13	682.06
513.346	653.06
513.562	646.06
513.778	638.06
513.994	672.06
514.21	645.06
514.426	692.06
514.642	690.06
514.858	731.06
515.074	735.06
515.29	814.06
515.506	1071.06
515.721	947.06
515.937	762.06
516.153	694.06
516.369	687.06
516.585	695.06
516.801	671.06
517.016	694.06
517.232	714.06
517.448	719.06
517.664	731.06
517.879	729.06
518.095	714.06
518.311	710.06
518.527	679.06
518.742	659.06
518.958	698.06
519.173	674.06
519.389	654.06
519.605	644.06
519.82	654.06
520.036	677.06
520.251	642.06
520.467	692.06
520.682	681.06
520.898	678.06
521.113	715.06
521.329	682.06
521.544	781.06
521.76	899.06
521.975	1260.06
522.19	1300.06
522.406	828.06
522.621	701.06
522.836	649.06
523.052	632.06
523.267	609.06
523.482	598.06
523.698	577.06
523.913	604.06
524.128	605.06
524.343	607.06
524.559	596.06
524.774	580.06
524.989	577.06
525.204	605.06
525.419	589.06
525.634	587.06
525.849	563.06
526.064	582.06
526.28	575.06
526.495	550.06
526.71	564.06
526.925	546.06
527.14	546.06
527.355	563.06
527.57	550.06
527.785	550.06
527.999	529.06
528.214	548.06
528.429	544.06
528.644	564.06
528.859	557.06
529.074	562.06
529.289	554.06
529.503	619.06
529.718	584.06
529.933	570.06
530.148	546.06
530.363	558.06
530.577	535.06
530.792	549.06
531.007	520.06
531.221	543.06
531.436	515.06
531.651	553.06
531.865	543.06
532.08	559.06
532.295	546.06
532.509	546.06
532.724	522.06
532.938	525.06
533.153	552.06
533.367	542.06
533.582	513.06
533.796	541.06
534.011	528.06
534.225	520.06
534.44	528.06
534.654	510.06
534.868	538.06
535.083	546.06
535.297	538.06
535.511	532.06
535.726	519.06
535.94	527.06
536.154	531.06
536.369	523.06
536.583	519.06
536.797	513.06
537.011	506.06
537.225	511.06
537.44	498.06
537.654	504.06
537.868	501.06
538.082	506.06
538.296	529.06
538.51	495.06
538.724	520.06
538.938	522.06
539.153	526.06
539.367	548.06
539.581	528.06
539.795	494.06
540.009	502.06
540.222	503.06
540.436	513.06
540.65	500.06
540.864	515.06
541.078	503.06
541.292	502.06
541.506	498.06
541.72	506.06
541.934	526.06
542.147	494.06
542.361	526.06
542.575	506.06
542.789	484.06
543.002	508.06
543.216	518.06
543.43	502.06
543.644	526.06
543.857	514.06
544.071	479.06
544.285	520.06
544.498	514.06
544.712	509.06
544.925	511.06
545.139	520.06
545.352	486.06
545.566	507.06
545.779	482.06
545.993	532.06
546.206	513.06
546.42	504.06
546.633	532.06
546.847	480.06
547.06	504.06
547.274	490.06
547.487	504.06
547.7	512.06
547.914	494.06
548.127	504.06
548.34	493.06
548.554	493.06
548.767	493.06
548.98	486.06
549.193	501.06
549.407	479.06
549.62	506.06
549.833	515.06
550.046	478.06
550.259	493.06
550.473	499.06
550.686	488.06
550.899	504.06
551.112	487.06
551.325	504.06
551.538	485.06
551.751	467.06
551.964	500.06
552.177	484.06
552.39	490.06
552.603	526.06
552.816	526.06
553.029	492.06
553.242	507.06
553.455	523.06
553.667	505.06
553.88	543.06
554.093	500.06
554.306	523.06
554.519	500.06
554.732	503.06
554.944	511.06
555.157	495.06
555.37	474.06
555.583	493.06
555.795	488.06
556.008	476.06
556.221	463.06
556.433	451.06
556.646	476.06
556.859	448.06
557.071	444.06
557.284	470.06
557.496	449.06
557.709	440.06
557.921	434.06
558.134	446.06
558.346	463.06
558.559	446.06
558.771	438.06
558.984	437.06
559.196	428.06
559.409	442.06
559.621	424.06
559.833	428.06
560.046	417.06
560.258	428.06
560.47	444.06
560.683	452.06
560.895	447.06
561.107	425.06
561.32	438.06
561.532	423.06
561.744	450.06
561.956	456.06
562.168	435.06
562.381	438.06
562.593	444.06
562.805	427.06
563.017	449.06
563.229	435.06
563.441	452.06
563.653	447.06
563.865	448.06
564.077	455.06
564.289	441.06
564.501	464.06
564.713	491.06
564.925	485.06
565.137	476.06
565.349	482.06
565.561	490.06
565.773	481.06
565.985	510.06
566.197	502.06
566.408	543.06
566.62	538.06
566.832	568.06
567.044	590.06
567.255	579.06
567.467	563.06
567.679	589.06
567.891	624.06
568.102	618.06
568.314	596.06
568.526	573.06
568.737	558.06
568.949	528.06
569.161	500.06
569.372	472.06
569.584	483.06
569.795	463.06
570.007	464.06
570.218	491.06
570.43	476.06
570.641	457.06
570.853	467.06
571.064	436.06
571.276	435.06
571.487	433.06
571.698	427.06
571.91	418.06
572.121	431.06
572.333	431.06
572.544	407.06
572.755	389.06
572.966	403.06
573.178	390.06
573.389	409.06
573.6	404.06
573.811	386.06
574.023	371.06
574.234	357.06
574.445	367.06
574.656	370.06
574.867	388.06
575.078	381.06
575.289	390.06
575.501	382.06
575.712	371.06
575.923	378.06
576.134	364.06
576.345	364.06
576.556	389.06
576.767	380.06
576.978	356.06
577.188	372.06
577.399	364.06
577.61	360.06
577.821	364.06
578.032	367.06
578.243	377.06
578.454	510.06
578.665	407.06
578.875	348.06
579.086	347.06
579.297	342.06
579.508	356.06
579.718	359.06
579.929	344.06
580.14	349.06
580.35	357.06
580.561	340.06
580.772	356.06
580.982	327.06
581.193	353.06
581.403	375.06
581.614	320.06
581.825	332.06
582.035	336.06
582.246	353.06
582.456	354.06
582.667	344.06
582.877	342.06
583.087	347.06
583.298	336.06
583.508	351.06
583.719	340.06
583.929	340.06
584.139	335.06
584.35	341.06
584.56	355.06
584.77	334.06
584.981	346.06
585.191	336.06
585.401	339.06
585.611	331.06
585.821	334.06
586.032	341.06
586.242	316.06
586.452	323.06
586.662	321.06
586.872	326.06
587.082	325.06
587.292	323.06
587.502	337.06
587.713	336.06
587.923	329.06
588.133	331.06
588.343	313.06
588.553	303.06
588.762	334.06
588.972	342.06
589.182	323.06
589.392	326.06
589.602	332.06
589.812	329.06
590.022	326.06
590.232	330.06
590.441	330.06
590.651	323.06
590.861	323.06
591.071	328.06
591.281	343.06
591.49	355.06
591.7	336.06
591.91	330.06
592.119	352.06
592.329	346.06
592.539	347.06
592.748	374.06
592.958	357.06
593.167	354.06
593.377	370.06
593.587	368.06
593.796	363.06
594.006	348.06
594.215	359.06
594.424	356.06
594.634	358.06
594.843	348.06
595.053	351.06
595.262	341.06
595.472	343.06
595.681	343.06
595.89	350.06
596.1	326.06
596.309	323.06
596.518	340.06
596.727	328.06
596.937	324.06
597.146	304.06
597.355	320.06
597.564	301.06
597.774	309.06
597.983	301.06
598.192	307.06
598.401	296.06
598.61	285.06
598.819	288.06
599.028	298.06
599.237	298.06
599.446	311.06
599.655	314.06
599.864	303.06
600.073	306.06
600.282	282.06
600.491	284.06
600.7	289.06
600.909	276.06
601.118	280.06
601.327	293.06
601.536	288.06
601.745	296.06
601.953	306.06
602.162	288.06
602.371	287.06
602.58	285.06
602.789	292.06
602.997	304.06
603.206	297.06
603.415	282.06
603.623	308.06
603.832	290.06
604.041	296.06
604.249	280.06
604.458	275.06
604.666	256.06
604.875	276.06
605.084	267.06
605.292	272.06
605.501	267.06
605.709	275.06
605.918	268.06
606.126	263.06
606.334	287.06
606.543	276.06
606.751	294.06
606.96	283.06
607.168	275.06
607.376	280.06
607.585	273.06
607.793	279.06
608.001	286.06
608.21	274.06
608.418	266.06
608.626	282.06
608.834	273.06
609.043	291.06
609.251	277.06
609.459	266.06
609.667	260.06
609.875	290.06
610.083	284.06
610.291	270.06
610.499	268.06
610.707	235.06
610.916	269.06
611.124	263.06
611.332	290.06
611.54	292.06
611.748	278.06
611.955	287.06
612.163	286.06
612.371	275.06
612.579	253.06
612.787	266.06
612.995	266.06
613.203	269.06
613.411	247.06
613.618	283.06
613.826	270.06
614.034	262.06
614.242	252.06
614.449	269.06
614.657	261.06
614.865	264.06
615.072	255.06
615.28	272.06
615.488	273.06
615.695	274.06
615.903	267.06
616.111	281.06
616.318	262.06
616.526	264.06
616.733	262.06
616.941	255.06
617.148	275.06
617.356	269.06
617.563	273.06
617.771	265.06
617.978	250.06
618.185	263.06
618.393	271.06
618.6	265.06
618.807	268.06
619.015	278.06
619.222	258.06
619.429	266.06
619.637	258.06
619.844	248.06
620.051	262.06
620.258	245.06
620.466	237.06
620.673	260.06
620.88	242.06
621.087	260.06
621.294	260.06
621.501	246.06
621.708	231.06
621.915	233.06
622.122	235.06
622.329	248.06
622.536	235.06
622.743	233.06
622.95	234.06
623.157	242.06
623.364	256.06
623.571	259.06
623.778	246.06
623.985	256.06
624.192	241.06
624.399	237.06
624.606	236.06
624.812	236.06
625.019	230.06
625.226	252.06
625.433	239.06
625.639	220.06
625.846	248.06
626.053	218.06
626.259	240.06
626.466	226.06
626.673	226.06
626.879	227.06
627.086	224.06
627.293	227.06
627.499	240.06
627.706	240.06
627.912	215.06
628.119	237.06
628.325	223.06
628.532	217.06
628.738	237.06
628.945	245.06
629.151	238.06
629.357	230.06
629.564	211.06
629.77	219.06
629.976	207.06
630.183	227.06
630.389	217.06
630.595	227.06
630.802	234.06
631.008	215.06
631.214	231.06
631.42	225.06
631.627	217.06
631.833	203.06
632.039	213.06
632.245	198.06
632.451	215.06
632.657	205.06
632.863	202.06
633.069	212.06
633.275	195.06
633.481	195.06
633.688	210.06
633.893	212.06
634.099	211.06
634.305	206.06
634.511	189.06
634.717	196.06
634.923	198.06
635.129	212.06
635.335	203.06
635.541	204.06
635.747	216.06
635.952	208.06
636.158	203.06
636.364	212.06
636.57	212.06
636.775	209.06
636.981	205.06
637.187	214.06
637.392	205.06
637.598	195.06
637.804	196.06
638.009	206.06
638.215	190.06
638.421	191.06
638.626	193.06
638.832	186.06
639.037	188.06
639.243	194.06
639.448	188.06
639.654	188.06
639.859	203.06
640.065	198.06
640.27	188.06
640.475	206.06
640.681	196.06
640.886	190.06
641.091	186.06
641.297	191.06
641.502	202.06
641.707	194.06
641.913	188.06
642.118	190.06
642.323	188.06
642.528	190.06
642.733	184.06
642.939	201.06
643.144	190.06
643.349	188.06
643.554	180.06
643.759	192.06
643.964	173.06
644.169	183.06
644.374	198.06
644.579	180.06
644.784	182.06
644.989	183.06
645.194	185.06
645.399	192.06
645.604	168.06
645.809	172.06
646.014	184.06
646.219	202.06
646.423	192.06
646.628	195.06
646.833	194.06
647.038	195.06
647.243	179.06
647.447	187.06
647.652	190.06
647.857	186.06
648.062	174.06
648.266	195.06
648.471	172.06
648.676	206.06
648.88	194.06
649.085	164.06
649.289	182.06
649.494	170.06
649.698	192.06
649.903	180.06
650.107	174.06
650.312	187.06
650.516	162.06
650.721	182.06
650.925	175.06
651.13	177.06
651.334	162.06
651.539	163.06
651.743	160.06
651.947	165.06
652.152	142.06
652.356	166.06
652.56	151.06
652.764	162.06
652.969	160.06
653.173	148.06
653.377	143.06
653.581	136.06
653.785	145.06
653.99	136.06
654.194	149.06
654.398	146.06
654.602	145.06
654.806	137.06
655.01	140.06
655.214	166.06
655.418	133.06
655.622	150.06
655.826	135.06
656.03	144.06
656.234	144.06
656.438	143.06
656.642	151.06
656.846	153.06
657.049	141.06
657.253	143.06
657.457	117.06
657.661	133.06
657.865	113.06
658.068	112.06
658.272	105.06
658.476	124.06
658.68	117.06
658.883	111.06
659.087	95.06
659.291	102.06
659.494	107.06
659.698	111.06
659.901	101.06
660.105	111.06
660.309	94.06
660.512	93.06
660.716	101.06
660.919	104.06
661.123	96.06
661.326	91.06
661.53	89.06
661.733	88.06
661.936	90.06
662.14	96.06
662.343	87.06
662.546	79.06
662.75	84.06
662.953	87.06
663.156	83.06
663.36	87.06
663.563	87.06
663.766	61.06
663.969	84.06
664.173	94.06
664.376	92.06
664.579	95.06
664.782	94.06
664.985	77.06
665.188	96.06
665.391	84.06
665.594	96.06
665.797	98.06
666	77.06
666.203	61.06
666.406	83.06
666.609	83.06
666.812	80.06
667.015	78.06
667.218	82.06
667.421	79.06
667.624	70.06
667.827	77.06
668.03	82.06
668.232	81.06
668.435	86.06
668.638	87.06
668.841	80.06
669.043	85.06
669.246	77.06
669.449	76.06
669.651	80.06
669.854	75.06
670.057	91.06
670.259	87.06
670.462	73.06
670.665	77.06
670.867	77.06
671.07	81.06
671.272	79.06
671.475	83.06
671.677	87.06
671.88	75.06
672.082	74.06
672.284	87.06
672.487	86.06
672.689	78.06
672.892	80.06
