Data from 1974.PennyLincolnUp.Lamp.En5.5.200Scan.071719.P1.Changed Mount._HRD10591_15-53-30-857.txt Node
Date: Thu Jul 18 15:53:30 EDT 2019
User: cochatt
Spectrometer: HR+D1059
Trigger mode: 1
Integration Time (sec): 1.000000E-1
Scans to average: 1
Electric dark correction enabled: true
Nonlinearity correction enabled: false
Boxcar width: 0
XAxis mode: Wavelengths
Number of Pixels in Spectrum: 2048
>>>>>Begin Spectral Data<<<<<
223.165	-7.12
223.4	-7.12
223.635	-7.12
223.869	-3.12
224.104	-28.12
224.338	-12.12
224.573	-8.12
224.808	-19.12
225.042	-11.12
225.277	-8.12
225.511	-6.12
225.746	1.88
225.98	12.88
226.215	3.88
226.449	3.88
226.683	19.88
226.918	36.88
227.152	23.88
227.387	24.88
227.621	35.88
227.856	50.88
228.09	49.88
228.324	58.88
228.559	77.88
228.793	68.88
229.027	98.88
229.262	108.88
229.496	102.88
229.73	130.88
229.964	145.88
230.199	126.88
230.433	111.88
230.667	117.88
230.901	109.88
231.136	96.88
231.37	106.88
231.604	121.88
231.838	124.88
232.072	133.88
232.306	122.88
232.541	124.88
232.775	111.88
233.009	123.88
233.243	108.88
233.477	121.88
233.711	116.88
233.945	114.88
234.179	135.88
234.413	132.88
234.647	122.88
234.881	114.88
235.115	129.88
235.349	134.88
235.583	135.88
235.817	134.88
236.051	122.88
236.285	116.88
236.519	127.88
236.753	140.88
236.987	135.88
237.221	169.88
237.455	240.88
237.689	198.88
237.922	140.88
238.156	122.88
238.39	132.88
238.624	142.88
238.858	138.88
239.091	122.88
239.325	121.88
239.559	118.88
239.793	114.88
240.027	144.88
240.26	143.88
240.494	148.88
240.728	148.88
240.961	168.88
241.195	145.88
241.429	140.88
241.662	154.88
241.896	130.88
242.13	132.88
242.363	140.88
242.597	172.88
242.83	141.88
243.064	140.88
243.298	148.88
243.531	153.88
243.765	141.88
243.998	130.88
244.232	155.88
244.465	154.88
244.699	161.88
244.932	141.88
245.166	151.88
245.399	159.88
245.633	142.88
245.866	152.88
246.099	144.88
246.333	158.88
246.566	157.88
246.8	161.88
247.033	171.88
247.266	173.88
247.5	178.88
247.733	168.88
247.966	194.88
248.2	172.88
248.433	180.88
248.666	170.88
248.899	190.88
249.133	213.88
249.366	198.88
249.599	190.88
249.832	194.88
250.066	196.88
250.299	176.88
250.532	219.88
250.765	201.88
250.998	217.88
251.231	243.88
251.465	212.88
251.698	200.88
251.931	202.88
252.164	202.88
252.397	220.88
252.63	215.88
252.863	211.88
253.096	231.88
253.329	238.88
253.562	222.88
253.795	218.88
254.028	221.88
254.261	229.88
254.494	231.88
254.727	242.88
254.96	281.88
255.193	258.88
255.426	270.88
255.659	249.88
255.892	246.88
256.124	249.88
256.357	233.88
256.59	232.88
256.823	229.88
257.056	209.88
257.289	213.88
257.521	211.88
257.754	213.88
257.987	220.88
258.22	231.88
258.452	228.88
258.685	218.88
258.918	213.88
259.151	239.88
259.383	209.88
259.616	222.88
259.849	238.88
260.081	244.88
260.314	270.88
260.547	264.88
260.779	261.88
261.012	237.88
261.244	238.88
261.477	238.88
261.71	235.88
261.942	234.88
262.175	239.88
262.407	251.88
262.64	234.88
262.872	219.88
263.105	222.88
263.337	233.88
263.57	212.88
263.802	223.88
264.035	222.88
264.267	203.88
264.499	233.88
264.732	236.88
264.964	232.88
265.197	234.88
265.429	233.88
265.661	231.88
265.894	227.88
266.126	232.88
266.358	244.88
266.591	234.88
266.823	251.88
267.055	229.88
267.287	245.88
267.52	243.88
267.752	237.88
267.984	256.88
268.216	231.88
268.448	264.88
268.681	250.88
268.913	252.88
269.145	273.88
269.377	288.88
269.609	286.88
269.841	286.88
270.073	272.88
270.306	297.88
270.538	314.88
270.77	314.88
271.002	309.88
271.234	285.88
271.466	310.88
271.698	318.88
271.93	335.88
272.162	323.88
272.394	303.88
272.626	314.88
272.858	296.88
273.09	302.88
273.322	276.88
273.553	292.88
273.785	282.88
274.017	265.88
274.249	294.88
274.481	277.88
274.713	290.88
274.945	289.88
275.176	263.88
275.408	298.88
275.64	280.88
275.872	286.88
276.104	285.88
276.335	284.88
276.567	298.88
276.799	308.88
277.031	322.88
277.262	322.88
277.494	314.88
277.726	318.88
277.957	314.88
278.189	308.88
278.421	287.88
278.652	300.88
278.884	291.88
279.115	294.88
279.347	299.88
279.579	272.88
279.81	282.88
280.042	283.88
280.273	299.88
280.505	298.88
280.736	301.88
280.968	297.88
281.199	301.88
281.431	279.88
281.662	264.88
281.894	296.88
282.125	290.88
282.356	292.88
282.588	327.88
282.819	318.88
283.051	301.88
283.282	276.88
283.513	312.88
283.745	311.88
283.976	293.88
284.207	301.88
284.439	296.88
284.67	294.88
284.901	280.88
285.132	298.88
285.364	290.88
285.595	293.88
285.826	315.88
286.057	293.88
286.288	318.88
286.52	310.88
286.751	296.88
286.982	298.88
287.213	309.88
287.444	296.88
287.675	300.88
287.906	317.88
288.138	336.88
288.369	321.88
288.6	312.88
288.831	315.88
289.062	294.88
289.293	324.88
289.524	306.88
289.755	326.88
289.986	315.88
290.217	308.88
290.448	307.88
290.679	327.88
290.91	325.88
291.141	296.88
291.371	319.88
291.602	314.88
291.833	310.88
292.064	323.88
292.295	308.88
292.526	343.88
292.757	308.88
292.987	327.88
293.218	300.88
293.449	319.88
293.68	337.88
293.91	324.88
294.141	320.88
294.372	338.88
294.603	331.88
294.833	328.88
295.064	338.88
295.295	320.88
295.525	314.88
295.756	323.88
295.987	326.88
296.217	327.88
296.448	331.88
296.679	327.88
296.909	335.88
297.14	341.88
297.37	333.88
297.601	313.88
297.831	326.88
298.062	335.88
298.292	321.88
298.523	318.88
298.753	342.88
298.984	331.88
299.214	340.88
299.445	324.88
299.675	316.88
299.905	347.88
300.136	341.88
300.366	326.88
300.597	335.88
300.827	335.88
301.057	358.88
301.288	361.88
301.518	348.88
301.748	350.88
301.979	350.88
302.209	354.88
302.439	367.88
302.669	351.88
302.9	356.88
303.13	358.88
303.36	354.88
303.59	358.88
303.82	365.88
304.051	362.88
304.281	359.88
304.511	347.88
304.741	334.88
304.971	339.88
305.201	351.88
305.431	352.88
305.661	364.88
305.891	359.88
306.121	336.88
306.352	347.88
306.582	332.88
306.812	352.88
307.042	378.88
307.272	365.88
307.502	358.88
307.731	356.88
307.961	366.88
308.191	371.88
308.421	351.88
308.651	370.88
308.881	374.88
309.111	366.88
309.341	363.88
309.571	371.88
309.8	396.88
310.03	380.88
310.26	399.88
310.49	393.88
310.72	383.88
310.949	392.88
311.179	422.88
311.409	400.88
311.639	405.88
311.868	400.88
312.098	408.88
312.328	411.88
312.557	414.88
312.787	422.88
313.017	403.88
313.246	398.88
313.476	392.88
313.706	414.88
313.935	393.88
314.165	414.88
314.394	398.88
314.624	405.88
314.853	423.88
315.083	414.88
315.312	384.88
315.542	407.88
315.771	411.88
316.001	399.88
316.23	398.88
316.46	404.88
316.689	414.88
316.919	391.88
317.148	394.88
317.377	408.88
317.607	411.88
317.836	393.88
318.065	391.88
318.295	397.88
318.524	402.88
318.753	392.88
318.983	414.88
319.212	381.88
319.441	401.88
319.67	410.88
319.9	413.88
320.129	399.88
320.358	406.88
320.587	414.88
320.816	396.88
321.046	427.88
321.275	418.88
321.504	417.88
321.733	416.88
321.962	407.88
322.191	438.88
322.42	431.88
322.649	447.88
322.878	444.88
323.108	454.88
323.337	470.88
323.566	487.88
323.795	502.88
324.024	528.88
324.253	623.88
324.482	838.88
324.71	1232.88
324.939	1848.88
325.168	1645.88
325.397	856.88
325.626	603.88
325.855	520.88
326.084	539.88
326.313	492.88
326.542	494.88
326.77	543.88
326.999	606.88
327.228	780.88
327.457	1142.88
327.686	1410.88
327.914	966.88
328.143	629.88
328.372	566.88
328.6	536.88
328.829	542.88
329.058	546.88
329.287	574.88
329.515	522.88
329.744	490.88
329.972	500.88
330.201	526.88
330.43	545.88
330.658	572.88
330.887	602.88
331.115	573.88
331.344	533.88
331.572	489.88
331.801	487.88
332.03	520.88
332.258	485.88
332.486	492.88
332.715	503.88
332.943	477.88
333.172	517.88
333.4	490.88
333.629	515.88
333.857	530.88
334.085	526.88
334.314	532.88
334.542	556.88
334.771	588.88
334.999	541.88
335.227	511.88
335.455	506.88
335.684	502.88
335.912	491.88
336.14	480.88
336.369	484.88
336.597	490.88
336.825	501.88
337.053	488.88
337.281	468.88
337.51	473.88
337.738	475.88
337.966	472.88
338.194	486.88
338.422	489.88
338.65	489.88
338.878	470.88
339.106	464.88
339.334	476.88
339.562	448.88
339.79	452.88
340.018	453.88
340.246	450.88
340.474	456.88
340.702	458.88
340.93	482.88
341.158	463.88
341.386	457.88
341.614	444.88
341.842	463.88
342.07	464.88
342.298	447.88
342.526	442.88
342.754	425.88
342.981	451.88
343.209	455.88
343.437	464.88
343.665	484.88
343.893	500.88
344.12	498.88
344.348	490.88
344.576	485.88
344.804	473.88
345.031	470.88
345.259	480.88
345.487	488.88
345.714	461.88
345.942	445.88
346.17	469.88
346.397	452.88
346.625	446.88
346.853	456.88
347.08	448.88
347.308	446.88
347.535	448.88
347.763	457.88
347.99	461.88
348.218	441.88
348.445	458.88
348.673	469.88
348.9	446.88
349.128	464.88
349.355	457.88
349.583	430.88
349.81	432.88
350.037	430.88
350.265	444.88
350.492	432.88
350.72	449.88
350.947	463.88
351.174	460.88
351.402	453.88
351.629	437.88
351.856	463.88
352.083	458.88
352.311	442.88
352.538	448.88
352.765	459.88
352.992	446.88
353.22	447.88
353.447	469.88
353.674	440.88
353.901	456.88
354.128	436.88
354.355	425.88
354.583	412.88
354.81	431.88
355.037	428.88
355.264	409.88
355.491	436.88
355.718	440.88
355.945	405.88
356.172	434.88
356.399	443.88
356.626	429.88
356.853	446.88
357.08	422.88
357.307	442.88
357.534	414.88
357.761	424.88
357.988	441.88
358.215	443.88
358.441	447.88
358.668	426.88
358.895	437.88
359.122	436.88
359.349	444.88
359.576	435.88
359.802	462.88
360.029	481.88
360.256	475.88
360.483	471.88
360.709	453.88
360.936	462.88
361.163	448.88
361.39	448.88
361.616	450.88
361.843	452.88
362.07	450.88
362.296	458.88
362.523	436.88
362.749	455.88
362.976	454.88
363.203	440.88
363.429	438.88
363.656	413.88
363.882	426.88
364.109	449.88
364.335	449.88
364.562	421.88
364.788	427.88
365.015	419.88
365.241	430.88
365.468	447.88
365.694	462.88
365.92	438.88
366.147	436.88
366.373	432.88
366.599	443.88
366.826	429.88
367.052	430.88
367.278	451.88
367.505	440.88
367.731	444.88
367.957	437.88
368.184	419.88
368.41	450.88
368.636	463.88
368.862	458.88
369.089	441.88
369.315	464.88
369.541	469.88
369.767	459.88
369.993	444.88
370.219	458.88
370.445	452.88
370.672	465.88
370.898	447.88
371.124	469.88
371.35	437.88
371.576	441.88
371.802	452.88
372.028	463.88
372.254	441.88
372.48	428.88
372.706	460.88
372.932	441.88
373.158	451.88
373.384	444.88
373.61	475.88
373.835	455.88
374.061	434.88
374.287	454.88
374.513	440.88
374.739	438.88
374.965	471.88
375.191	470.88
375.416	462.88
375.642	466.88
375.868	460.88
376.094	455.88
376.319	464.88
376.545	456.88
376.771	463.88
376.997	455.88
377.222	446.88
377.448	457.88
377.674	448.88
377.899	443.88
378.125	440.88
378.35	451.88
378.576	462.88
378.802	459.88
379.027	431.88
379.253	446.88
379.478	446.88
379.704	456.88
379.929	467.88
380.155	450.88
380.38	458.88
380.606	461.88
380.831	443.88
381.057	430.88
381.282	432.88
381.507	445.88
381.733	467.88
381.958	441.88
382.184	466.88
382.409	442.88
382.634	453.88
382.86	480.88
383.085	462.88
383.31	458.88
383.535	491.88
383.761	506.88
383.986	485.88
384.211	481.88
384.436	499.88
384.662	507.88
384.887	472.88
385.112	486.88
385.337	491.88
385.562	490.88
385.787	504.88
386.013	514.88
386.238	509.88
386.463	516.88
386.688	506.88
386.913	496.88
387.138	489.88
387.363	502.88
387.588	500.88
387.813	489.88
388.038	504.88
388.263	511.88
388.488	505.88
388.713	518.88
388.938	492.88
389.163	495.88
389.387	490.88
389.612	516.88
389.837	505.88
390.062	479.88
390.287	503.88
390.512	495.88
390.736	520.88
390.961	531.88
391.186	524.88
391.411	534.88
391.636	508.88
391.86	514.88
392.085	515.88
392.31	526.88
392.534	524.88
392.759	517.88
392.984	523.88
393.208	526.88
393.433	516.88
393.658	502.88
393.882	502.88
394.107	493.88
394.331	545.88
394.556	483.88
394.78	521.88
395.005	520.88
395.229	498.88
395.454	536.88
395.678	534.88
395.903	559.88
396.127	570.88
396.352	584.88
396.576	547.88
396.801	506.88
397.025	524.88
397.249	525.88
397.474	550.88
397.698	546.88
397.922	551.88
398.147	571.88
398.371	588.88
398.595	588.88
398.82	570.88
399.044	604.88
399.268	608.88
399.492	663.88
399.717	694.88
399.941	727.88
400.165	742.88
400.389	735.88
400.613	669.88
400.837	630.88
401.062	594.88
401.286	604.88
401.51	611.88
401.734	596.88
401.958	616.88
402.182	587.88
402.406	630.88
402.63	597.88
402.854	603.88
403.078	610.88
403.302	596.88
403.526	592.88
403.75	619.88
403.974	605.88
404.198	603.88
404.422	634.88
404.645	626.88
404.869	630.88
405.093	641.88
405.317	703.88
405.541	714.88
405.765	676.88
405.988	666.88
406.212	663.88
406.436	637.88
406.66	674.88
406.883	669.88
407.107	711.88
407.331	760.88
407.555	798.88
407.778	805.88
408.002	724.88
408.226	697.88
408.449	694.88
408.673	662.88
408.896	679.88
409.12	744.88
409.344	684.88
409.567	623.88
409.791	630.88
410.014	622.88
410.238	629.88
410.461	610.88
410.685	615.88
410.908	626.88
411.132	632.88
411.355	688.88
411.578	664.88
411.802	631.88
412.025	610.88
412.249	632.88
412.472	646.88
412.695	674.88
412.919	667.88
413.142	603.88
413.365	596.88
413.589	605.88
413.812	594.88
414.035	594.88
414.258	567.88
414.482	571.88
414.705	592.88
414.928	600.88
415.151	599.88
415.374	607.88
415.597	574.88
415.821	564.88
416.044	589.88
416.267	607.88
416.49	584.88
416.713	557.88
416.936	596.88
417.159	570.88
417.382	589.88
417.605	602.88
417.828	596.88
418.051	603.88
418.274	614.88
418.497	592.88
418.72	588.88
418.943	590.88
419.166	596.88
419.389	640.88
419.611	641.88
419.834	611.88
420.057	619.88
420.28	630.88
420.503	592.88
420.726	631.88
420.948	610.88
421.171	672.88
421.394	695.88
421.617	636.88
421.839	612.88
422.062	597.88
422.285	603.88
422.507	674.88
422.73	744.88
422.953	742.88
423.175	659.88
423.398	635.88
423.621	638.88
423.843	651.88
424.066	656.88
424.288	648.88
424.511	667.88
424.733	731.88
424.956	807.88
425.178	788.88
425.401	770.88
425.623	779.88
425.846	679.88
426.068	640.88
426.291	656.88
426.513	646.88
426.735	656.88
426.958	673.88
427.18	758.88
427.402	897.88
427.625	996.88
427.847	834.88
428.069	711.88
428.292	677.88
428.514	633.88
428.736	598.88
428.958	607.88
429.181	556.88
429.403	597.88
429.625	607.88
429.847	635.88
430.069	680.88
430.292	688.88
430.514	638.88
430.736	583.88
430.958	592.88
431.18	568.88
431.402	587.88
431.624	546.88
431.846	546.88
432.068	534.88
432.29	580.88
432.512	569.88
432.734	586.88
432.956	596.88
433.178	581.88
433.4	590.88
433.622	602.88
433.844	576.88
434.066	572.88
434.287	559.88
434.509	564.88
434.731	574.88
434.953	581.88
435.175	628.88
435.397	644.88
435.618	637.88
435.84	683.88
436.062	775.88
436.284	842.88
436.505	720.88
436.727	640.88
436.949	582.88
437.17	586.88
437.392	598.88
437.614	610.88
437.835	622.88
438.057	720.88
438.278	831.88
438.5	792.88
438.721	912.88
438.943	879.88
439.165	716.88
439.386	634.88
439.608	623.88
439.829	646.88
440.05	645.88
440.272	692.88
440.493	658.88
440.715	628.88
440.936	607.88
441.158	612.88
441.379	584.88
441.6	623.88
441.822	622.88
442.043	687.88
442.264	760.88
442.486	815.88
442.707	688.88
442.928	664.88
443.149	642.88
443.371	666.88
443.592	722.88
443.813	830.88
444.034	923.88
444.255	774.88
444.476	680.88
444.698	658.88
444.919	704.88
445.14	800.88
445.361	685.88
445.582	686.88
445.803	715.88
446.024	854.88
446.245	862.88
446.466	763.88
446.687	670.88
446.908	642.88
447.129	596.88
447.35	599.88
447.571	575.88
447.792	580.88
448.013	557.88
448.234	606.88
448.455	645.88
448.675	770.88
448.896	877.88
449.117	749.88
449.338	729.88
449.559	828.88
449.779	912.88
450	753.88
450.221	636.88
450.442	592.88
450.662	568.88
450.883	580.88
451.104	600.88
451.324	579.88
451.545	568.88
451.766	559.88
451.986	523.88
452.207	532.88
452.428	521.88
452.648	517.88
452.869	509.88
453.089	531.88
453.31	542.88
453.53	535.88
453.751	528.88
453.971	529.88
454.192	509.88
454.412	526.88
454.633	519.88
454.853	518.88
455.073	516.88
455.294	535.88
455.514	589.88
455.734	622.88
455.955	530.88
456.175	502.88
456.395	504.88
456.616	481.88
456.836	513.88
457.056	506.88
457.276	479.88
457.497	512.88
457.717	500.88
457.937	498.88
458.157	534.88
458.377	506.88
458.598	548.88
458.818	590.88
459.038	652.88
459.258	682.88
459.478	628.88
459.698	567.88
459.918	573.88
460.138	602.88
460.358	599.88
460.578	592.88
460.798	606.88
461.018	593.88
461.238	601.88
461.458	579.88
461.678	582.88
461.898	598.88
462.118	615.88
462.338	617.88
462.558	609.88
462.777	629.88
462.997	648.88
463.217	660.88
463.437	698.88
463.657	644.88
463.876	651.88
464.096	634.88
464.316	664.88
464.536	611.88
464.755	647.88
464.975	645.88
465.195	650.88
465.414	697.88
465.634	627.88
465.854	622.88
466.073	576.88
466.293	546.88
466.512	555.88
466.732	554.88
466.951	554.88
467.171	535.88
467.391	535.88
467.61	527.88
467.829	542.88
468.049	543.88
468.268	551.88
468.488	515.88
468.707	539.88
468.927	527.88
469.146	528.88
469.365	537.88
469.585	539.88
469.804	546.88
470.023	542.88
470.243	547.88
470.462	541.88
470.681	571.88
470.901	589.88
471.12	550.88
471.339	540.88
471.558	551.88
471.777	547.88
471.997	537.88
472.216	525.88
472.435	559.88
472.654	573.88
472.873	564.88
473.092	556.88
473.311	534.88
473.53	558.88
473.749	564.88
473.968	578.88
474.187	655.88
474.406	696.88
474.625	603.88
474.844	578.88
475.063	550.88
475.282	564.88
475.501	572.88
475.72	553.88
475.939	567.88
476.158	564.88
476.377	587.88
476.596	553.88
476.814	574.88
477.033	588.88
477.252	583.88
477.471	586.88
477.69	586.88
477.908	599.88
478.127	624.88
478.346	620.88
478.564	622.88
478.783	613.88
479.002	605.88
479.22	633.88
479.439	663.88
479.658	657.88
479.876	647.88
480.095	668.88
480.313	696.88
480.532	703.88
480.751	671.88
480.969	695.88
481.188	705.88
481.406	775.88
481.624	680.88
481.843	660.88
482.061	655.88
482.28	648.88
482.498	649.88
482.717	638.88
482.935	666.88
483.153	643.88
483.372	637.88
483.59	663.88
483.808	646.88
484.027	635.88
484.245	644.88
484.463	638.88
484.681	673.88
484.9	644.88
485.118	645.88
485.336	650.88
485.554	664.88
485.772	661.88
485.99	665.88
486.209	648.88
486.427	692.88
486.645	698.88
486.863	683.88
487.081	716.88
487.299	683.88
487.517	680.88
487.735	666.88
487.953	677.88
488.171	686.88
488.389	706.88
488.607	678.88
488.825	707.88
489.043	700.88
489.261	710.88
489.479	678.88
489.696	709.88
489.914	716.88
490.132	711.88
490.35	726.88
490.568	697.88
490.786	756.88
491.003	748.88
491.221	755.88
491.439	773.88
491.657	773.88
491.874	773.88
492.092	754.88
492.31	751.88
492.527	811.88
492.745	804.88
492.963	772.88
493.18	809.88
493.398	829.88
493.615	818.88
493.833	805.88
494.05	796.88
494.268	805.88
494.485	802.88
494.703	779.88
494.92	809.88
495.138	810.88
495.355	810.88
495.573	831.88
495.79	814.88
496.008	825.88
496.225	829.88
496.442	840.88
496.66	810.88
496.877	844.88
497.094	845.88
497.312	831.88
497.529	835.88
497.746	843.88
497.963	874.88
498.181	920.88
498.398	904.88
498.615	927.88
498.832	958.88
499.049	990.88
499.267	1001.88
499.484	1060.88
499.701	1111.88
499.918	1148.88
500.135	1231.88
500.352	1275.88
500.569	1333.88
500.786	1320.88
501.003	1254.88
501.22	1238.88
501.437	1174.88
501.654	1120.88
501.871	1083.88
502.088	1054.88
502.305	986.88
502.522	956.88
502.739	920.88
502.956	899.88
503.172	886.88
503.389	889.88
503.606	868.88
503.823	868.88
504.04	837.88
504.256	845.88
504.473	821.88
504.69	826.88
504.907	834.88
505.123	804.88
505.34	789.88
505.557	792.88
505.773	789.88
505.99	783.88
506.207	774.88
506.423	762.88
506.64	788.88
506.856	745.88
507.073	763.88
507.289	739.88
507.506	739.88
507.722	733.88
507.939	760.88
508.155	738.88
508.372	739.88
508.588	690.88
508.805	714.88
509.021	720.88
509.238	738.88
509.454	744.88
509.67	722.88
509.887	725.88
510.103	717.88
510.319	747.88
510.536	788.88
510.752	1107.88
510.968	952.88
511.184	711.88
511.401	711.88
511.617	699.88
511.833	674.88
512.049	704.88
512.265	662.88
512.481	674.88
512.698	676.88
512.914	670.88
513.13	664.88
513.346	675.88
513.562	675.88
513.778	653.88
513.994	687.88
514.21	669.88
514.426	664.88
514.642	745.88
514.858	724.88
515.074	773.88
515.29	855.88
515.506	1114.88
515.721	974.88
515.937	747.88
516.153	719.88
516.369	714.88
516.585	714.88
516.801	713.88
517.016	703.88
517.232	711.88
517.448	722.88
517.664	750.88
517.879	743.88
518.095	724.88
518.311	750.88
518.527	710.88
518.742	719.88
518.958	691.88
519.173	690.88
519.389	687.88
519.605	682.88
519.82	686.88
520.036	707.88
520.251	714.88
520.467	731.88
520.682	701.88
520.898	699.88
521.113	728.88
521.329	751.88
521.544	775.88
521.76	931.88
521.975	1368.88
522.19	1370.88
522.406	862.88
522.621	720.88
522.836	651.88
523.052	634.88
523.267	650.88
523.482	606.88
523.698	616.88
523.913	636.88
524.128	628.88
524.343	611.88
524.559	601.88
524.774	571.88
524.989	604.88
525.204	608.88
525.419	580.88
525.634	577.88
525.849	570.88
526.064	570.88
526.28	582.88
526.495	567.88
526.71	568.88
526.925	559.88
527.14	543.88
527.355	587.88
527.57	576.88
527.785	574.88
527.999	583.88
528.214	538.88
528.429	566.88
528.644	531.88
528.859	555.88
529.074	567.88
529.289	592.88
529.503	608.88
529.718	608.88
529.933	562.88
530.148	560.88
530.363	568.88
530.577	572.88
530.792	582.88
531.007	550.88
531.221	547.88
531.436	554.88
531.651	538.88
531.865	557.88
532.08	522.88
532.295	526.88
532.509	545.88
532.724	546.88
532.938	544.88
533.153	556.88
533.367	552.88
533.582	557.88
533.796	541.88
534.011	551.88
534.225	564.88
534.44	538.88
534.654	548.88
534.868	526.88
535.083	531.88
535.297	546.88
535.511	539.88
535.726	538.88
535.94	549.88
536.154	521.88
536.369	535.88
536.583	524.88
536.797	509.88
537.011	528.88
537.225	509.88
537.44	513.88
537.654	492.88
537.868	528.88
538.082	535.88
538.296	519.88
538.51	514.88
538.724	536.88
538.938	531.88
539.153	522.88
539.367	529.88
539.581	529.88
539.795	526.88
540.009	525.88
540.222	529.88
540.436	548.88
540.65	518.88
540.864	524.88
541.078	527.88
541.292	535.88
541.506	515.88
541.72	512.88
541.934	537.88
542.147	519.88
542.361	521.88
542.575	503.88
542.789	509.88
543.002	524.88
543.216	521.88
543.43	536.88
543.644	524.88
543.857	507.88
544.071	515.88
544.285	545.88
544.498	527.88
544.712	518.88
544.925	522.88
545.139	507.88
545.352	531.88
545.566	522.88
545.779	516.88
545.993	536.88
546.206	530.88
546.42	516.88
546.633	516.88
546.847	526.88
547.06	502.88
547.274	517.88
547.487	521.88
547.7	531.88
547.914	502.88
548.127	516.88
548.34	475.88
548.554	498.88
548.767	516.88
548.98	516.88
549.193	503.88
549.407	504.88
549.62	507.88
549.833	511.88
550.046	519.88
550.259	499.88
550.473	534.88
550.686	532.88
550.899	519.88
551.112	503.88
551.325	486.88
551.538	500.88
551.751	505.88
551.964	515.88
552.177	494.88
552.39	520.88
552.603	500.88
552.816	531.88
553.029	523.88
553.242	512.88
553.455	529.88
553.667	552.88
553.88	545.88
554.093	517.88
554.306	524.88
554.519	527.88
554.732	500.88
554.944	498.88
555.157	503.88
555.37	473.88
555.583	483.88
555.795	484.88
556.008	489.88
556.221	472.88
556.433	474.88
556.646	456.88
556.859	460.88
557.071	463.88
557.284	459.88
557.496	458.88
557.709	471.88
557.921	450.88
558.134	452.88
558.346	460.88
558.559	444.88
558.771	469.88
558.984	418.88
559.196	450.88
559.409	472.88
559.621	443.88
559.833	450.88
560.046	444.88
560.258	469.88
560.47	431.88
560.683	453.88
560.895	468.88
561.107	450.88
561.32	448.88
561.532	448.88
561.744	441.88
561.956	451.88
562.168	444.88
562.381	450.88
562.593	447.88
562.805	460.88
563.017	477.88
563.229	476.88
563.441	471.88
563.653	445.88
563.865	457.88
564.077	467.88
564.289	477.88
564.501	463.88
564.713	496.88
564.925	463.88
565.137	482.88
565.349	509.88
565.561	513.88
565.773	502.88
565.985	499.88
566.197	542.88
566.408	503.88
566.62	564.88
566.832	548.88
567.044	599.88
567.255	606.88
567.467	613.88
567.679	591.88
567.891	635.88
568.102	644.88
568.314	602.88
568.526	605.88
568.737	560.88
568.949	536.88
569.161	522.88
569.372	497.88
569.584	470.88
569.795	475.88
570.007	475.88
570.218	489.88
570.43	460.88
570.641	456.88
570.853	465.88
571.064	467.88
571.276	448.88
571.487	428.88
571.698	437.88
571.91	440.88
572.121	425.88
572.333	412.88
572.544	411.88
572.755	393.88
572.966	398.88
573.178	407.88
573.389	399.88
573.6	391.88
573.811	382.88
574.023	388.88
574.234	390.88
574.445	390.88
574.656	392.88
574.867	376.88
575.078	380.88
575.289	375.88
575.501	400.88
575.712	384.88
575.923	365.88
576.134	396.88
576.345	385.88
576.556	366.88
576.767	373.88
576.978	379.88
577.188	367.88
577.399	370.88
577.61	378.88
577.821	377.88
578.032	375.88
578.243	381.88
578.454	526.88
578.665	441.88
578.875	363.88
579.086	342.88
579.297	365.88
579.508	359.88
579.718	345.88
579.929	354.88
580.14	360.88
580.35	346.88
580.561	358.88
580.772	351.88
580.982	337.88
581.193	348.88
581.403	356.88
581.614	335.88
581.825	332.88
582.035	355.88
582.246	345.88
582.456	341.88
582.667	333.88
582.877	340.88
583.087	349.88
583.298	348.88
583.508	330.88
583.719	343.88
583.929	342.88
584.139	358.88
584.35	331.88
584.56	314.88
584.77	349.88
584.981	332.88
585.191	343.88
585.401	330.88
585.611	345.88
585.821	338.88
586.032	339.88
586.242	328.88
586.452	322.88
586.662	342.88
586.872	344.88
587.082	353.88
587.292	322.88
587.502	343.88
587.713	350.88
587.923	342.88
588.133	340.88
588.343	336.88
588.553	323.88
588.762	316.88
588.972	334.88
589.182	352.88
589.392	323.88
589.602	350.88
589.812	321.88
590.022	326.88
590.232	334.88
590.441	331.88
590.651	321.88
590.861	334.88
591.071	333.88
591.281	348.88
591.49	343.88
591.7	347.88
591.91	334.88
592.119	340.88
592.329	347.88
592.539	373.88
592.748	345.88
592.958	369.88
593.167	365.88
593.377	373.88
593.587	407.88
593.796	372.88
594.006	380.88
594.215	374.88
594.424	346.88
594.634	361.88
594.843	373.88
595.053	370.88
595.262	343.88
595.472	340.88
595.681	340.88
595.89	329.88
596.1	349.88
596.309	328.88
596.518	321.88
596.727	303.88
596.937	319.88
597.146	327.88
597.355	297.88
597.564	296.88
597.774	302.88
597.983	299.88
598.192	310.88
598.401	319.88
598.61	300.88
598.819	306.88
599.028	298.88
599.237	311.88
599.446	306.88
599.655	306.88
599.864	294.88
600.073	299.88
600.282	299.88
600.491	288.88
600.7	297.88
600.909	291.88
601.118	311.88
601.327	274.88
601.536	284.88
601.745	292.88
601.953	290.88
602.162	298.88
602.371	285.88
602.58	292.88
602.789	287.88
602.997	286.88
603.206	290.88
603.415	292.88
603.623	263.88
603.832	305.88
604.041	293.88
604.249	286.88
604.458	287.88
604.666	291.88
604.875	267.88
605.084	277.88
605.292	285.88
605.501	268.88
605.709	271.88
605.918	275.88
606.126	266.88
606.334	286.88
606.543	285.88
606.751	280.88
606.96	292.88
607.168	270.88
607.376	278.88
607.585	278.88
607.793	278.88
608.001	273.88
608.21	270.88
608.418	266.88
608.626	257.88
608.834	284.88
609.043	276.88
609.251	272.88
609.459	285.88
609.667	279.88
609.875	273.88
610.083	291.88
610.291	275.88
610.499	265.88
610.707	275.88
610.916	304.88
611.124	288.88
611.332	294.88
611.54	294.88
611.748	273.88
611.955	263.88
612.163	266.88
612.371	294.88
612.579	265.88
612.787	268.88
612.995	268.88
613.203	269.88
613.411	274.88
613.618	269.88
613.826	277.88
614.034	292.88
614.242	277.88
614.449	282.88
614.657	279.88
614.865	279.88
615.072	250.88
615.28	276.88
615.488	283.88
615.695	267.88
615.903	271.88
616.111	275.88
616.318	269.88
616.526	270.88
616.733	275.88
616.941	284.88
617.148	276.88
617.356	279.88
617.563	275.88
617.771	281.88
617.978	263.88
618.185	281.88
618.393	271.88
618.6	261.88
618.807	277.88
619.015	278.88
619.222	267.88
619.429	273.88
619.637	274.88
619.844	270.88
620.051	260.88
620.258	258.88
620.466	279.88
620.673	273.88
620.88	234.88
621.087	242.88
621.294	252.88
621.501	239.88
621.708	274.88
621.915	262.88
622.122	260.88
622.329	260.88
622.536	239.88
622.743	260.88
622.95	264.88
623.157	257.88
623.364	236.88
623.571	239.88
623.778	227.88
623.985	255.88
624.192	250.88
624.399	259.88
624.606	226.88
624.812	234.88
625.019	236.88
625.226	242.88
625.433	229.88
625.639	221.88
625.846	226.88
626.053	221.88
626.259	220.88
626.466	233.88
626.673	230.88
626.879	220.88
627.086	244.88
627.293	258.88
627.499	243.88
627.706	228.88
627.912	232.88
628.119	233.88
628.325	238.88
628.532	213.88
628.738	231.88
628.945	226.88
629.151	216.88
629.357	229.88
629.564	238.88
629.77	224.88
629.976	210.88
630.183	214.88
630.389	214.88
630.595	222.88
630.802	231.88
631.008	228.88
631.214	220.88
631.42	235.88
631.627	226.88
631.833	218.88
632.039	216.88
632.245	227.88
632.451	227.88
632.657	224.88
632.863	184.88
633.069	216.88
633.275	217.88
633.481	191.88
633.688	220.88
633.893	205.88
634.099	204.88
634.305	213.88
634.511	206.88
634.717	195.88
634.923	209.88
635.129	205.88
635.335	191.88
635.541	201.88
635.747	218.88
635.952	195.88
636.158	210.88
636.364	209.88
636.57	194.88
636.775	205.88
636.981	188.88
637.187	206.88
637.392	207.88
637.598	201.88
637.804	211.88
638.009	206.88
638.215	206.88
638.421	201.88
638.626	180.88
638.832	182.88
639.037	191.88
639.243	199.88
639.448	200.88
639.654	197.88
639.859	188.88
640.065	202.88
640.27	189.88
640.475	203.88
640.681	205.88
640.886	198.88
641.091	185.88
641.297	194.88
641.502	196.88
641.707	175.88
641.913	199.88
642.118	187.88
642.323	173.88
642.528	199.88
642.733	184.88
642.939	208.88
643.144	204.88
643.349	188.88
643.554	204.88
643.759	188.88
643.964	191.88
644.169	194.88
644.374	186.88
644.579	164.88
644.784	190.88
644.989	187.88
645.194	172.88
645.399	180.88
645.604	174.88
645.809	189.88
646.014	178.88
646.219	190.88
646.423	183.88
646.628	178.88
646.833	184.88
647.038	187.88
647.243	180.88
647.447	193.88
647.652	191.88
647.857	182.88
648.062	196.88
648.266	178.88
648.471	190.88
648.676	189.88
648.88	191.88
649.085	169.88
649.289	182.88
649.494	179.88
649.698	203.88
649.903	200.88
650.107	183.88
650.312	194.88
650.516	174.88
650.721	180.88
650.925	168.88
651.13	158.88
651.334	155.88
651.539	160.88
651.743	163.88
651.947	157.88
652.152	156.88
652.356	157.88
652.56	159.88
652.764	164.88
652.969	161.88
653.173	144.88
653.377	140.88
653.581	162.88
653.785	145.88
653.99	150.88
654.194	142.88
654.398	160.88
654.602	168.88
654.806	134.88
655.01	150.88
655.214	151.88
655.418	152.88
655.622	161.88
655.826	156.88
656.03	149.88
656.234	150.88
656.438	144.88
656.642	161.88
656.846	146.88
657.049	142.88
657.253	158.88
657.457	129.88
657.661	138.88
657.865	138.88
658.068	129.88
658.272	116.88
658.476	109.88
658.68	110.88
658.883	99.88
659.087	100.88
659.291	112.88
659.494	117.88
659.698	102.88
659.901	106.88
660.105	111.88
660.309	96.88
660.512	90.88
660.716	101.88
660.919	88.88
661.123	108.88
661.326	101.88
661.53	84.88
661.733	94.88
661.936	92.88
662.14	91.88
662.343	79.88
662.546	98.88
662.75	85.88
662.953	98.88
663.156	87.88
663.36	84.88
663.563	95.88
663.766	90.88
663.969	79.88
664.173	86.88
664.376	88.88
664.579	95.88
664.782	88.88
664.985	83.88
665.188	87.88
665.391	79.88
665.594	90.88
665.797	88.88
666	76.88
666.203	74.88
666.406	66.88
666.609	97.88
666.812	86.88
667.015	82.88
667.218	85.88
667.421	92.88
667.624	83.88
667.827	90.88
668.03	78.88
668.232	79.88
668.435	98.88
668.638	75.88
668.841	91.88
669.043	85.88
669.246	90.88
669.449	82.88
669.651	66.88
669.854	77.88
670.057	84.88
670.259	90.88
670.462	80.88
670.665	85.88
670.867	74.88
671.07	82.88
671.272	85.88
671.475	88.88
671.677	102.88
671.88	70.88
672.082	82.88
672.284	91.88
672.487	80.88
672.689	92.88
672.892	83.88
