Data from 1974.PennyLincolnUp.Lamp.En5.5.200Scan.071719.P1.Changed Mount._HRD10591_15-52-24-856.txt Node
Date: Thu Jul 18 15:52:24 EDT 2019
User: cochatt
Spectrometer: HR+D1059
Trigger mode: 1
Integration Time (sec): 1.000000E-1
Scans to average: 1
Electric dark correction enabled: true
Nonlinearity correction enabled: false
Boxcar width: 0
XAxis mode: Wavelengths
Number of Pixels in Spectrum: 2048
>>>>>Begin Spectral Data<<<<<
223.165	-13.19
223.4	-13.19
223.635	-13.19
223.869	-21.19
224.104	-17.19
224.338	-13.19
224.573	-23.19
224.808	-14.19
225.042	-20.19
225.277	-3.19
225.511	8.81
225.746	-3.19
225.98	7.81
226.215	8.81
226.449	18.81
226.683	25.81
226.918	26.81
227.152	31.81
227.387	32.81
227.621	37.81
227.856	34.81
228.09	47.81
228.324	43.81
228.559	53.81
228.793	66.81
229.027	77.81
229.262	102.81
229.496	103.81
229.73	139.81
229.964	129.81
230.199	124.81
230.433	106.81
230.667	118.81
230.901	107.81
231.136	113.81
231.37	118.81
231.604	95.81
231.838	112.81
232.072	122.81
232.306	107.81
232.541	119.81
232.775	110.81
233.009	116.81
233.243	116.81
233.477	129.81
233.711	123.81
233.945	125.81
234.179	121.81
234.413	118.81
234.647	119.81
234.881	126.81
235.115	119.81
235.349	130.81
235.583	117.81
235.817	122.81
236.051	126.81
236.285	120.81
236.519	125.81
236.753	120.81
236.987	144.81
237.221	177.81
237.455	225.81
237.689	186.81
237.922	138.81
238.156	142.81
238.39	128.81
238.624	134.81
238.858	116.81
239.091	124.81
239.325	120.81
239.559	127.81
239.793	128.81
240.027	130.81
240.26	154.81
240.494	150.81
240.728	167.81
240.961	159.81
241.195	156.81
241.429	138.81
241.662	139.81
241.896	138.81
242.13	135.81
242.363	114.81
242.597	136.81
242.83	127.81
243.064	134.81
243.298	141.81
243.531	157.81
243.765	150.81
243.998	152.81
244.232	152.81
244.465	140.81
244.699	148.81
244.932	144.81
245.166	160.81
245.399	159.81
245.633	150.81
245.866	167.81
246.099	138.81
246.333	146.81
246.566	161.81
246.8	157.81
247.033	160.81
247.266	149.81
247.5	183.81
247.733	159.81
247.966	185.81
248.2	178.81
248.433	175.81
248.666	176.81
248.899	176.81
249.133	216.81
249.366	203.81
249.599	191.81
249.832	171.81
250.066	211.81
250.299	203.81
250.532	185.81
250.765	222.81
250.998	245.81
251.231	243.81
251.465	223.81
251.698	198.81
251.931	217.81
252.164	226.81
252.397	202.81
252.63	211.81
252.863	231.81
253.096	235.81
253.329	234.81
253.562	245.81
253.795	226.81
254.028	226.81
254.261	232.81
254.494	224.81
254.727	264.81
254.96	289.81
255.193	284.81
255.426	276.81
255.659	228.81
255.892	250.81
256.124	249.81
256.357	258.81
256.59	243.81
256.823	226.81
257.056	229.81
257.289	221.81
257.521	208.81
257.754	223.81
257.987	212.81
258.22	223.81
258.452	222.81
258.685	246.81
258.918	228.81
259.151	211.81
259.383	228.81
259.616	224.81
259.849	235.81
260.081	235.81
260.314	273.81
260.547	276.81
260.779	268.81
261.012	235.81
261.244	235.81
261.477	232.81
261.71	228.81
261.942	228.81
262.175	246.81
262.407	239.81
262.64	230.81
262.872	209.81
263.105	204.81
263.337	226.81
263.57	220.81
263.802	204.81
264.035	210.81
264.267	249.81
264.499	228.81
264.732	223.81
264.964	219.81
265.197	235.81
265.429	255.81
265.661	231.81
265.894	238.81
266.126	222.81
266.358	217.81
266.591	238.81
266.823	241.81
267.055	239.81
267.287	257.81
267.52	231.81
267.752	254.81
267.984	244.81
268.216	248.81
268.448	251.81
268.681	256.81
268.913	269.81
269.145	290.81
269.377	294.81
269.609	293.81
269.841	291.81
270.073	295.81
270.306	303.81
270.538	326.81
270.77	340.81
271.002	314.81
271.234	307.81
271.466	324.81
271.698	324.81
271.93	335.81
272.162	328.81
272.394	323.81
272.626	306.81
272.858	307.81
273.09	293.81
273.322	302.81
273.553	268.81
273.785	279.81
274.017	274.81
274.249	272.81
274.481	296.81
274.713	269.81
274.945	295.81
275.176	267.81
275.408	272.81
275.64	278.81
275.872	262.81
276.104	287.81
276.335	277.81
276.567	294.81
276.799	294.81
277.031	314.81
277.262	318.81
277.494	332.81
277.726	315.81
277.957	315.81
278.189	301.81
278.421	279.81
278.652	288.81
278.884	292.81
279.115	309.81
279.347	286.81
279.579	298.81
279.81	280.81
280.042	288.81
280.273	304.81
280.505	306.81
280.736	290.81
280.968	298.81
281.199	296.81
281.431	307.81
281.662	310.81
281.894	278.81
282.125	283.81
282.356	288.81
282.588	325.81
282.819	316.81
283.051	315.81
283.282	294.81
283.513	300.81
283.745	302.81
283.976	318.81
284.207	315.81
284.439	291.81
284.67	303.81
284.901	290.81
285.132	318.81
285.364	311.81
285.595	295.81
285.826	294.81
286.057	306.81
286.288	307.81
286.52	310.81
286.751	297.81
286.982	304.81
287.213	315.81
287.444	317.81
287.675	330.81
287.906	310.81
288.138	321.81
288.369	338.81
288.6	322.81
288.831	339.81
289.062	306.81
289.293	332.81
289.524	347.81
289.755	313.81
289.986	295.81
290.217	298.81
290.448	317.81
290.679	312.81
290.91	306.81
291.141	322.81
291.371	310.81
291.602	326.81
291.833	296.81
292.064	323.81
292.295	322.81
292.526	330.81
292.757	306.81
292.987	315.81
293.218	307.81
293.449	332.81
293.68	340.81
293.91	323.81
294.141	329.81
294.372	320.81
294.603	312.81
294.833	310.81
295.064	328.81
295.295	316.81
295.525	323.81
295.756	324.81
295.987	326.81
296.217	341.81
296.448	363.81
296.679	336.81
296.909	314.81
297.14	324.81
297.37	338.81
297.601	329.81
297.831	334.81
298.062	329.81
298.292	339.81
298.523	334.81
298.753	324.81
298.984	332.81
299.214	337.81
299.445	327.81
299.675	339.81
299.905	331.81
300.136	318.81
300.366	338.81
300.597	334.81
300.827	341.81
301.057	358.81
301.288	365.81
301.518	366.81
301.748	367.81
301.979	347.81
302.209	350.81
302.439	366.81
302.669	356.81
302.9	360.81
303.13	357.81
303.36	350.81
303.59	371.81
303.82	359.81
304.051	378.81
304.281	352.81
304.511	366.81
304.741	355.81
304.971	338.81
305.201	343.81
305.431	353.81
305.661	346.81
305.891	354.81
306.121	350.81
306.352	369.81
306.582	379.81
306.812	360.81
307.042	360.81
307.272	383.81
307.502	358.81
307.731	380.81
307.961	369.81
308.191	366.81
308.421	372.81
308.651	376.81
308.881	371.81
309.111	374.81
309.341	351.81
309.571	382.81
309.8	372.81
310.03	372.81
310.26	378.81
310.49	397.81
310.72	432.81
310.949	418.81
311.179	406.81
311.409	395.81
311.639	390.81
311.868	390.81
312.098	401.81
312.328	408.81
312.557	425.81
312.787	402.81
313.017	403.81
313.246	409.81
313.476	403.81
313.706	396.81
313.935	402.81
314.165	395.81
314.394	404.81
314.624	434.81
314.853	401.81
315.083	418.81
315.312	396.81
315.542	404.81
315.771	400.81
316.001	407.81
316.23	397.81
316.46	409.81
316.689	410.81
316.919	416.81
317.148	424.81
317.377	399.81
317.607	400.81
317.836	407.81
318.065	418.81
318.295	414.81
318.524	383.81
318.753	403.81
318.983	401.81
319.212	401.81
319.441	416.81
319.67	415.81
319.9	417.81
320.129	393.81
320.358	389.81
320.587	413.81
320.816	413.81
321.046	422.81
321.275	431.81
321.504	428.81
321.733	424.81
321.962	432.81
322.191	437.81
322.42	432.81
322.649	455.81
322.878	448.81
323.108	468.81
323.337	479.81
323.566	478.81
323.795	499.81
324.024	544.81
324.253	623.81
324.482	823.81
324.71	1256.81
324.939	1836.81
325.168	1599.81
325.397	856.81
325.626	602.81
325.855	538.81
326.084	481.81
326.313	499.81
326.542	480.81
326.77	517.81
326.999	591.81
327.228	763.81
327.457	1124.81
327.686	1406.81
327.914	949.81
328.143	662.81
328.372	585.81
328.6	554.81
328.829	538.81
329.058	552.81
329.287	533.81
329.515	532.81
329.744	524.81
329.972	525.81
330.201	518.81
330.43	562.81
330.658	576.81
330.887	562.81
331.115	577.81
331.344	519.81
331.572	516.81
331.801	520.81
332.03	531.81
332.258	478.81
332.486	474.81
332.715	477.81
332.943	468.81
333.172	490.81
333.4	527.81
333.629	519.81
333.857	545.81
334.085	530.81
334.314	562.81
334.542	554.81
334.771	579.81
334.999	544.81
335.227	522.81
335.455	517.81
335.684	519.81
335.912	498.81
336.14	499.81
336.369	488.81
336.597	485.81
336.825	505.81
337.053	476.81
337.281	490.81
337.51	495.81
337.738	478.81
337.966	481.81
338.194	483.81
338.422	476.81
338.65	486.81
338.878	481.81
339.106	463.81
339.334	464.81
339.562	451.81
339.79	462.81
340.018	483.81
340.246	484.81
340.474	463.81
340.702	476.81
340.93	456.81
341.158	476.81
341.386	460.81
341.614	476.81
341.842	453.81
342.07	442.81
342.298	456.81
342.526	455.81
342.754	462.81
342.981	430.81
343.209	460.81
343.437	473.81
343.665	460.81
343.893	470.81
344.12	501.81
344.348	506.81
344.576	483.81
344.804	466.81
345.031	485.81
345.259	497.81
345.487	476.81
345.714	448.81
345.942	458.81
346.17	471.81
346.397	450.81
346.625	462.81
346.853	443.81
347.08	439.81
347.308	435.81
347.535	455.81
347.763	465.81
347.99	435.81
348.218	475.81
348.445	451.81
348.673	450.81
348.9	458.81
349.128	442.81
349.355	441.81
349.583	417.81
349.81	430.81
350.037	436.81
350.265	434.81
350.492	454.81
350.72	441.81
350.947	455.81
351.174	428.81
351.402	452.81
351.629	454.81
351.856	444.81
352.083	447.81
352.311	434.81
352.538	458.81
352.765	472.81
352.992	464.81
353.22	464.81
353.447	439.81
353.674	446.81
353.901	426.81
354.128	444.81
354.355	431.81
354.583	430.81
354.81	433.81
355.037	449.81
355.264	425.81
355.491	425.81
355.718	425.81
355.945	426.81
356.172	438.81
356.399	433.81
356.626	441.81
356.853	428.81
357.08	427.81
357.307	428.81
357.534	427.81
357.761	412.81
357.988	441.81
358.215	431.81
358.441	448.81
358.668	433.81
358.895	446.81
359.122	447.81
359.349	440.81
359.576	466.81
359.802	482.81
360.029	487.81
360.256	470.81
360.483	490.81
360.709	473.81
360.936	461.81
361.163	451.81
361.39	451.81
361.616	461.81
361.843	472.81
362.07	450.81
362.296	444.81
362.523	451.81
362.749	457.81
362.976	443.81
363.203	448.81
363.429	433.81
363.656	426.81
363.882	431.81
364.109	434.81
364.335	436.81
364.562	437.81
364.788	457.81
365.015	436.81
365.241	470.81
365.468	449.81
365.694	444.81
365.92	442.81
366.147	433.81
366.373	440.81
366.599	455.81
366.826	441.81
367.052	432.81
367.278	444.81
367.505	439.81
367.731	450.81
367.957	439.81
368.184	448.81
368.41	439.81
368.636	459.81
368.862	491.81
369.089	464.81
369.315	480.81
369.541	456.81
369.767	442.81
369.993	448.81
370.219	437.81
370.445	439.81
370.672	449.81
370.898	456.81
371.124	461.81
371.35	466.81
371.576	463.81
371.802	442.81
372.028	460.81
372.254	455.81
372.48	448.81
372.706	450.81
372.932	457.81
373.158	461.81
373.384	466.81
373.61	440.81
373.835	446.81
374.061	437.81
374.287	470.81
374.513	455.81
374.739	454.81
374.965	478.81
375.191	481.81
375.416	483.81
375.642	470.81
375.868	460.81
376.094	451.81
376.319	460.81
376.545	476.81
376.771	471.81
376.997	439.81
377.222	452.81
377.448	436.81
377.674	440.81
377.899	470.81
378.125	463.81
378.35	451.81
378.576	482.81
378.802	460.81
379.027	448.81
379.253	458.81
379.478	441.81
379.704	425.81
379.929	451.81
380.155	459.81
380.38	453.81
380.606	465.81
380.831	460.81
381.057	449.81
381.282	470.81
381.507	470.81
381.733	474.81
381.958	462.81
382.184	468.81
382.409	456.81
382.634	479.81
382.86	477.81
383.085	489.81
383.31	474.81
383.535	499.81
383.761	460.81
383.986	506.81
384.211	485.81
384.436	510.81
384.662	498.81
384.887	489.81
385.112	494.81
385.337	485.81
385.562	503.81
385.787	512.81
386.013	512.81
386.238	528.81
386.463	516.81
386.688	516.81
386.913	491.81
387.138	516.81
387.363	521.81
387.588	528.81
387.813	531.81
388.038	506.81
388.263	524.81
388.488	498.81
388.713	513.81
388.938	523.81
389.163	512.81
389.387	525.81
389.612	494.81
389.837	488.81
390.062	510.81
390.287	522.81
390.512	522.81
390.736	509.81
390.961	513.81
391.186	513.81
391.411	510.81
391.636	539.81
391.86	545.81
392.085	523.81
392.31	538.81
392.534	533.81
392.759	529.81
392.984	532.81
393.208	502.81
393.433	512.81
393.658	510.81
393.882	510.81
394.107	487.81
394.331	521.81
394.556	517.81
394.78	530.81
395.005	521.81
395.229	515.81
395.454	534.81
395.678	556.81
395.903	558.81
396.127	572.81
396.352	559.81
396.576	552.81
396.801	516.81
397.025	528.81
397.249	539.81
397.474	538.81
397.698	531.81
397.922	572.81
398.147	587.81
398.371	603.81
398.595	604.81
398.82	601.81
399.044	619.81
399.268	642.81
399.492	665.81
399.717	714.81
399.941	742.81
400.165	745.81
400.389	728.81
400.613	686.81
400.837	633.81
401.062	634.81
401.286	616.81
401.51	632.81
401.734	588.81
401.958	584.81
402.182	595.81
402.406	595.81
402.63	626.81
402.854	604.81
403.078	627.81
403.302	608.81
403.526	636.81
403.75	633.81
403.974	642.81
404.198	636.81
404.422	635.81
404.645	630.81
404.869	649.81
405.093	683.81
405.317	722.81
405.541	760.81
405.765	720.81
405.988	651.81
406.212	650.81
406.436	689.81
406.66	697.81
406.883	691.81
407.107	696.81
407.331	753.81
407.555	830.81
407.778	799.81
408.002	740.81
408.226	698.81
408.449	693.81
408.673	683.81
408.896	718.81
409.12	750.81
409.344	713.81
409.567	628.81
409.791	642.81
410.014	620.81
410.238	628.81
410.461	599.81
410.685	631.81
410.908	624.81
411.132	659.81
411.355	721.81
411.578	690.81
411.802	641.81
412.025	630.81
412.249	638.81
412.472	659.81
412.695	698.81
412.919	664.81
413.142	619.81
413.365	627.81
413.589	609.81
413.812	594.81
414.035	609.81
414.258	583.81
414.482	585.81
414.705	592.81
414.928	573.81
415.151	585.81
415.374	600.81
415.597	584.81
415.821	594.81
416.044	574.81
416.267	594.81
416.49	599.81
416.713	581.81
416.936	582.81
417.159	583.81
417.382	581.81
417.605	579.81
417.828	605.81
418.051	617.81
418.274	596.81
418.497	612.81
418.72	605.81
418.943	592.81
419.166	621.81
419.389	636.81
419.611	614.81
419.834	631.81
420.057	636.81
420.28	625.81
420.503	619.81
420.726	601.81
420.948	644.81
421.171	663.81
421.394	702.81
421.617	626.81
421.839	638.81
422.062	632.81
422.285	629.81
422.507	709.81
422.73	767.81
422.953	739.81
423.175	644.81
423.398	649.81
423.621	636.81
423.843	647.81
424.066	649.81
424.288	672.81
424.511	658.81
424.733	731.81
424.956	814.81
425.178	790.81
425.401	760.81
425.623	784.81
425.846	695.81
426.068	627.81
426.291	624.81
426.513	658.81
426.735	646.81
426.958	707.81
427.18	746.81
427.402	909.81
427.625	998.81
427.847	838.81
428.069	751.81
428.292	689.81
428.514	626.81
428.736	613.81
428.958	612.81
429.181	599.81
429.403	596.81
429.625	599.81
429.847	643.81
430.069	686.81
430.292	708.81
430.514	639.81
430.736	610.81
430.958	607.81
431.18	568.81
431.402	586.81
431.624	576.81
431.846	566.81
432.068	577.81
432.29	589.81
432.512	560.81
432.734	591.81
432.956	548.81
433.178	583.81
433.4	586.81
433.622	586.81
433.844	583.81
434.066	561.81
434.287	580.81
434.509	564.81
434.731	562.81
434.953	608.81
435.175	638.81
435.397	635.81
435.618	650.81
435.84	686.81
436.062	742.81
436.284	822.81
436.505	716.81
436.727	647.81
436.949	600.81
437.17	598.81
437.392	596.81
437.614	615.81
437.835	640.81
438.057	727.81
438.278	824.81
438.5	824.81
438.721	908.81
438.943	865.81
439.165	680.81
439.386	645.81
439.608	647.81
439.829	651.81
440.05	658.81
440.272	720.81
440.493	647.81
440.715	639.81
440.936	633.81
441.158	610.81
441.379	629.81
441.6	614.81
441.822	640.81
442.043	694.81
442.264	780.81
442.486	795.81
442.707	712.81
442.928	654.81
443.149	675.81
443.371	692.81
443.592	748.81
443.813	829.81
444.034	868.81
444.255	766.81
444.476	690.81
444.698	675.81
444.919	689.81
445.14	770.81
445.361	709.81
445.582	698.81
445.803	726.81
446.024	837.81
446.245	855.81
446.466	796.81
446.687	690.81
446.908	647.81
447.129	602.81
447.35	564.81
447.571	582.81
447.792	594.81
448.013	573.81
448.234	608.81
448.455	619.81
448.675	764.81
448.896	902.81
449.117	786.81
449.338	734.81
449.559	828.81
449.779	930.81
450	745.81
450.221	634.81
450.442	571.81
450.662	589.81
450.883	573.81
451.104	565.81
451.324	553.81
451.545	524.81
451.766	556.81
451.986	530.81
452.207	522.81
452.428	502.81
452.648	523.81
452.869	522.81
453.089	538.81
453.31	560.81
453.53	537.81
453.751	537.81
453.971	524.81
454.192	539.81
454.412	533.81
454.633	543.81
454.853	533.81
455.073	502.81
455.294	565.81
455.514	614.81
455.734	588.81
455.955	546.81
456.175	498.81
456.395	519.81
456.616	499.81
456.836	522.81
457.056	502.81
457.276	488.81
457.497	486.81
457.717	517.81
457.937	511.81
458.157	519.81
458.377	530.81
458.598	526.81
458.818	594.81
459.038	639.81
459.258	694.81
459.478	633.81
459.698	598.81
459.918	594.81
460.138	594.81
460.358	598.81
460.578	609.81
460.798	594.81
461.018	613.81
461.238	580.81
461.458	581.81
461.678	589.81
461.898	606.81
462.118	592.81
462.338	606.81
462.558	634.81
462.777	640.81
462.997	642.81
463.217	675.81
463.437	688.81
463.657	664.81
463.876	636.81
464.096	643.81
464.316	634.81
464.536	662.81
464.755	652.81
464.975	644.81
465.195	659.81
465.414	706.81
465.634	624.81
465.854	599.81
466.073	581.81
466.293	552.81
466.512	568.81
466.732	531.81
466.951	569.81
467.171	556.81
467.391	550.81
467.61	567.81
467.829	561.81
468.049	561.81
468.268	549.81
468.488	540.81
468.707	538.81
468.927	531.81
469.146	521.81
469.365	510.81
469.585	531.81
469.804	546.81
470.023	558.81
470.243	571.81
470.462	549.81
470.681	568.81
470.901	589.81
471.12	568.81
471.339	570.81
471.558	545.81
471.777	579.81
471.997	554.81
472.216	551.81
472.435	580.81
472.654	569.81
472.873	554.81
473.092	548.81
473.311	554.81
473.53	543.81
473.749	545.81
473.968	593.81
474.187	704.81
474.406	726.81
474.625	611.81
474.844	559.81
475.063	545.81
475.282	555.81
475.501	575.81
475.72	595.81
475.939	581.81
476.158	574.81
476.377	568.81
476.596	576.81
476.814	573.81
477.033	583.81
477.252	584.81
477.471	595.81
477.69	588.81
477.908	619.81
478.127	622.81
478.346	624.81
478.564	644.81
478.783	638.81
479.002	634.81
479.22	645.81
479.439	656.81
479.658	695.81
479.876	666.81
480.095	676.81
480.313	709.81
480.532	693.81
480.751	690.81
480.969	719.81
481.188	730.81
481.406	747.81
481.624	680.81
481.843	658.81
482.061	660.81
482.28	647.81
482.498	635.81
482.717	668.81
482.935	664.81
483.153	641.81
483.372	639.81
483.59	665.81
483.808	646.81
484.027	625.81
484.245	642.81
484.463	648.81
484.681	670.81
484.9	662.81
485.118	678.81
485.336	656.81
485.554	662.81
485.772	697.81
485.99	690.81
486.209	666.81
486.427	685.81
486.645	670.81
486.863	700.81
487.081	685.81
487.299	670.81
487.517	710.81
487.735	712.81
487.953	715.81
488.171	690.81
488.389	720.81
488.607	708.81
488.825	707.81
489.043	712.81
489.261	707.81
489.479	725.81
489.696	696.81
489.914	728.81
490.132	736.81
490.35	753.81
490.568	743.81
490.786	788.81
491.003	759.81
491.221	786.81
491.439	761.81
491.657	786.81
491.874	814.81
492.092	828.81
492.31	810.81
492.527	831.81
492.745	825.81
492.963	823.81
493.18	843.81
493.398	834.81
493.615	864.81
493.833	826.81
494.05	833.81
494.268	842.81
494.485	835.81
494.703	818.81
494.92	828.81
495.138	820.81
495.355	844.81
495.573	854.81
495.79	850.81
496.008	836.81
496.225	845.81
496.442	846.81
496.66	849.81
496.877	852.81
497.094	852.81
497.312	883.81
497.529	869.81
497.746	898.81
497.963	900.81
498.181	917.81
498.398	922.81
498.615	954.81
498.832	998.81
499.049	995.81
499.267	1010.81
499.484	1055.81
499.701	1103.81
499.918	1195.81
500.135	1257.81
500.352	1298.81
500.569	1353.81
500.786	1293.81
501.003	1346.81
501.22	1259.81
501.437	1177.81
501.654	1135.81
501.871	1109.81
502.088	1055.81
502.305	1014.81
502.522	964.81
502.739	966.81
502.956	921.81
503.172	895.81
503.389	879.81
503.606	850.81
503.823	884.81
504.04	850.81
504.256	844.81
504.473	838.81
504.69	865.81
504.907	827.81
505.123	847.81
505.34	835.81
505.557	821.81
505.773	820.81
505.99	761.81
506.207	790.81
506.423	786.81
506.64	790.81
506.856	785.81
507.073	761.81
507.289	768.81
507.506	731.81
507.722	778.81
507.939	767.81
508.155	766.81
508.372	704.81
508.588	721.81
508.805	723.81
509.021	711.81
509.238	746.81
509.454	759.81
509.67	768.81
509.887	727.81
510.103	695.81
510.319	735.81
510.536	765.81
510.752	1139.81
510.968	971.81
511.184	728.81
511.401	690.81
511.617	680.81
511.833	692.81
512.049	702.81
512.265	683.81
512.481	696.81
512.698	691.81
512.914	669.81
513.13	699.81
513.346	686.81
513.562	668.81
513.778	668.81
513.994	700.81
514.21	700.81
514.426	706.81
514.642	742.81
514.858	799.81
515.074	805.81
515.29	892.81
515.506	1178.81
515.721	1026.81
515.937	784.81
516.153	728.81
516.369	722.81
516.585	702.81
516.801	739.81
517.016	720.81
517.232	743.81
517.448	713.81
517.664	756.81
517.879	744.81
518.095	757.81
518.311	731.81
518.527	698.81
518.742	712.81
518.958	705.81
519.173	702.81
519.389	678.81
519.605	675.81
519.82	689.81
520.036	710.81
520.251	694.81
520.467	717.81
520.682	728.81
520.898	705.81
521.113	738.81
521.329	754.81
521.544	804.81
521.76	937.81
521.975	1402.81
522.19	1394.81
522.406	901.81
522.621	726.81
522.836	674.81
523.052	650.81
523.267	642.81
523.482	638.81
523.698	615.81
523.913	600.81
524.128	625.81
524.343	614.81
524.559	586.81
524.774	576.81
524.989	589.81
525.204	612.81
525.419	611.81
525.634	588.81
525.849	603.81
526.064	571.81
526.28	585.81
526.495	575.81
526.71	581.81
526.925	572.81
527.14	579.81
527.355	578.81
527.57	550.81
527.785	574.81
527.999	581.81
528.214	568.81
528.429	550.81
528.644	538.81
528.859	583.81
529.074	571.81
529.289	570.81
529.503	626.81
529.718	664.81
529.933	606.81
530.148	569.81
530.363	584.81
530.577	575.81
530.792	566.81
531.007	555.81
531.221	546.81
531.436	554.81
531.651	555.81
531.865	541.81
532.08	564.81
532.295	558.81
532.509	539.81
532.724	534.81
532.938	547.81
533.153	568.81
533.367	525.81
533.582	515.81
533.796	555.81
534.011	556.81
534.225	536.81
534.44	551.81
534.654	551.81
534.868	525.81
535.083	529.81
535.297	540.81
535.511	555.81
535.726	555.81
535.94	561.81
536.154	575.81
536.369	535.81
536.583	521.81
536.797	548.81
537.011	522.81
537.225	538.81
537.44	528.81
537.654	533.81
537.868	528.81
538.082	538.81
538.296	524.81
538.51	538.81
538.724	534.81
538.938	527.81
539.153	500.81
539.367	545.81
539.581	541.81
539.795	537.81
540.009	521.81
540.222	529.81
540.436	526.81
540.65	530.81
540.864	552.81
541.078	518.81
541.292	553.81
541.506	542.81
541.72	533.81
541.934	525.81
542.147	545.81
542.361	512.81
542.575	531.81
542.789	521.81
543.002	526.81
543.216	534.81
543.43	531.81
543.644	529.81
543.857	547.81
544.071	545.81
544.285	521.81
544.498	533.81
544.712	518.81
544.925	540.81
545.139	538.81
545.352	529.81
545.566	508.81
545.779	512.81
545.993	500.81
546.206	532.81
546.42	531.81
546.633	502.81
546.847	509.81
547.06	534.81
547.274	508.81
547.487	516.81
547.7	502.81
547.914	494.81
548.127	520.81
548.34	515.81
548.554	518.81
548.767	505.81
548.98	515.81
549.193	541.81
549.407	512.81
549.62	495.81
549.833	514.81
550.046	529.81
550.259	513.81
550.473	514.81
550.686	505.81
550.899	498.81
551.112	500.81
551.325	511.81
551.538	501.81
551.751	523.81
551.964	514.81
552.177	519.81
552.39	518.81
552.603	512.81
552.816	523.81
553.029	522.81
553.242	527.81
553.455	529.81
553.667	537.81
553.88	545.81
554.093	533.81
554.306	514.81
554.519	546.81
554.732	503.81
554.944	487.81
555.157	509.81
555.37	485.81
555.583	506.81
555.795	481.81
556.008	463.81
556.221	452.81
556.433	460.81
556.646	457.81
556.859	469.81
557.071	453.81
557.284	456.81
557.496	487.81
557.709	484.81
557.921	452.81
558.134	456.81
558.346	466.81
558.559	468.81
558.771	466.81
558.984	448.81
559.196	451.81
559.409	433.81
559.621	442.81
559.833	463.81
560.046	471.81
560.258	450.81
560.47	452.81
560.683	443.81
560.895	446.81
561.107	471.81
561.32	442.81
561.532	453.81
561.744	448.81
561.956	449.81
562.168	460.81
562.381	450.81
562.593	456.81
562.805	475.81
563.017	464.81
563.229	455.81
563.441	455.81
563.653	437.81
563.865	470.81
564.077	483.81
564.289	467.81
564.501	482.81
564.713	459.81
564.925	462.81
565.137	479.81
565.349	503.81
565.561	487.81
565.773	505.81
565.985	523.81
566.197	526.81
566.408	564.81
566.62	561.81
566.832	578.81
567.044	629.81
567.255	602.81
567.467	599.81
567.679	620.81
567.891	635.81
568.102	638.81
568.314	616.81
568.526	606.81
568.737	585.81
568.949	547.81
569.161	529.81
569.372	497.81
569.584	491.81
569.795	489.81
570.007	474.81
570.218	501.81
570.43	487.81
570.641	451.81
570.853	465.81
571.064	462.81
571.276	468.81
571.487	436.81
571.698	450.81
571.91	441.81
572.121	415.81
572.333	418.81
572.544	411.81
572.755	417.81
572.966	382.81
573.178	379.81
573.389	395.81
573.6	375.81
573.811	396.81
574.023	410.81
574.234	400.81
574.445	382.81
574.656	412.81
574.867	403.81
575.078	386.81
575.289	376.81
575.501	388.81
575.712	380.81
575.923	384.81
576.134	368.81
576.345	386.81
576.556	362.81
576.767	386.81
576.978	411.81
577.188	392.81
577.399	370.81
577.61	397.81
577.821	371.81
578.032	364.81
578.243	370.81
578.454	560.81
578.665	460.81
578.875	386.81
579.086	360.81
579.297	368.81
579.508	360.81
579.718	368.81
579.929	354.81
580.14	355.81
580.35	352.81
580.561	369.81
580.772	347.81
580.982	344.81
581.193	352.81
581.403	355.81
581.614	363.81
581.825	370.81
582.035	358.81
582.246	364.81
582.456	352.81
582.667	337.81
582.877	350.81
583.087	350.81
583.298	335.81
583.508	337.81
583.719	338.81
583.929	349.81
584.139	343.81
584.35	334.81
584.56	340.81
584.77	324.81
584.981	335.81
585.191	332.81
585.401	328.81
585.611	340.81
585.821	366.81
586.032	346.81
586.242	338.81
586.452	332.81
586.662	328.81
586.872	312.81
587.082	323.81
587.292	312.81
587.502	331.81
587.713	319.81
587.923	348.81
588.133	358.81
588.343	331.81
588.553	328.81
588.762	340.81
588.972	315.81
589.182	325.81
589.392	324.81
589.602	338.81
589.812	336.81
590.022	327.81
590.232	338.81
590.441	321.81
590.651	310.81
590.861	331.81
591.071	348.81
591.281	332.81
591.49	343.81
591.7	351.81
591.91	346.81
592.119	339.81
592.329	343.81
592.539	368.81
592.748	362.81
592.958	378.81
593.167	362.81
593.377	374.81
593.587	367.81
593.796	344.81
594.006	372.81
594.215	403.81
594.424	372.81
594.634	380.81
594.843	352.81
595.053	354.81
595.262	362.81
595.472	357.81
595.681	350.81
595.89	331.81
596.1	350.81
596.309	339.81
596.518	330.81
596.727	327.81
596.937	339.81
597.146	321.81
597.355	313.81
597.564	303.81
597.774	309.81
597.983	324.81
598.192	305.81
598.401	317.81
598.61	291.81
598.819	292.81
599.028	294.81
599.237	297.81
599.446	311.81
599.655	291.81
599.864	304.81
600.073	290.81
600.282	298.81
600.491	296.81
600.7	283.81
600.909	299.81
601.118	274.81
601.327	310.81
601.536	291.81
601.745	286.81
601.953	291.81
602.162	300.81
602.371	296.81
602.58	308.81
602.789	299.81
602.997	290.81
603.206	297.81
603.415	280.81
603.623	284.81
603.832	289.81
604.041	276.81
604.249	280.81
604.458	286.81
604.666	271.81
604.875	262.81
605.084	270.81
605.292	286.81
605.501	267.81
605.709	294.81
605.918	274.81
606.126	274.81
606.334	294.81
606.543	293.81
606.751	274.81
606.96	299.81
607.168	266.81
607.376	295.81
607.585	280.81
607.793	276.81
608.001	284.81
608.21	278.81
608.418	281.81
608.626	279.81
608.834	279.81
609.043	268.81
609.251	282.81
609.459	273.81
609.667	275.81
609.875	282.81
610.083	290.81
610.291	280.81
610.499	271.81
610.707	282.81
610.916	277.81
611.124	291.81
611.332	299.81
611.54	307.81
611.748	291.81
611.955	290.81
612.163	278.81
612.371	276.81
612.579	264.81
612.787	282.81
612.995	283.81
613.203	268.81
613.411	274.81
613.618	267.81
613.826	259.81
614.034	281.81
614.242	275.81
614.449	277.81
614.657	273.81
614.865	251.81
615.072	248.81
615.28	269.81
615.488	286.81
615.695	282.81
615.903	269.81
616.111	272.81
616.318	277.81
616.526	267.81
616.733	292.81
616.941	279.81
617.148	277.81
617.356	258.81
617.563	278.81
617.771	238.81
617.978	258.81
618.185	251.81
618.393	274.81
618.6	270.81
618.807	271.81
619.015	267.81
619.222	248.81
619.429	258.81
619.637	272.81
619.844	252.81
620.051	263.81
620.258	264.81
620.466	248.81
620.673	274.81
620.88	247.81
621.087	252.81
621.294	273.81
621.501	244.81
621.708	245.81
621.915	254.81
622.122	235.81
622.329	251.81
622.536	263.81
622.743	264.81
622.95	259.81
623.157	251.81
623.364	248.81
623.571	253.81
623.778	256.81
623.985	253.81
624.192	218.81
624.399	246.81
624.606	242.81
624.812	242.81
625.019	231.81
625.226	258.81
625.433	250.81
625.639	242.81
625.846	212.81
626.053	232.81
626.259	226.81
626.466	236.81
626.673	243.81
626.879	238.81
627.086	231.81
627.293	243.81
627.499	231.81
627.706	240.81
627.912	230.81
628.119	231.81
628.325	254.81
628.532	230.81
628.738	223.81
628.945	235.81
629.151	228.81
629.357	225.81
629.564	211.81
629.77	225.81
629.976	222.81
630.183	206.81
630.389	232.81
630.595	220.81
630.802	218.81
631.008	221.81
631.214	231.81
631.42	219.81
631.627	204.81
631.833	222.81
632.039	201.81
632.245	199.81
632.451	221.81
632.657	223.81
632.863	222.81
633.069	215.81
633.275	207.81
633.481	215.81
633.688	198.81
633.893	225.81
634.099	211.81
634.305	204.81
634.511	193.81
634.717	199.81
634.923	198.81
635.129	206.81
635.335	218.81
635.541	217.81
635.747	210.81
635.952	218.81
636.158	204.81
636.364	204.81
636.57	208.81
636.775	204.81
636.981	208.81
637.187	211.81
637.392	191.81
637.598	211.81
637.804	198.81
638.009	193.81
638.215	212.81
638.421	201.81
638.626	184.81
638.832	203.81
639.037	203.81
639.243	200.81
639.448	210.81
639.654	212.81
639.859	186.81
640.065	203.81
640.27	192.81
640.475	197.81
640.681	191.81
640.886	202.81
641.091	190.81
641.297	224.81
641.502	193.81
641.707	199.81
641.913	201.81
642.118	195.81
642.323	176.81
642.528	189.81
642.733	187.81
642.939	193.81
643.144	200.81
643.349	192.81
643.554	182.81
643.759	182.81
643.964	193.81
644.169	192.81
644.374	176.81
644.579	187.81
644.784	198.81
644.989	193.81
645.194	186.81
645.399	178.81
645.604	181.81
645.809	163.81
646.014	168.81
646.219	168.81
646.423	188.81
646.628	180.81
646.833	177.81
647.038	195.81
647.243	186.81
647.447	185.81
647.652	206.81
647.857	183.81
648.062	181.81
648.266	163.81
648.471	168.81
648.676	192.81
648.88	192.81
649.085	195.81
649.289	185.81
649.494	187.81
649.698	197.81
649.903	203.81
650.107	195.81
650.312	191.81
650.516	164.81
650.721	173.81
650.925	168.81
651.13	156.81
651.334	166.81
651.539	176.81
651.743	164.81
651.947	170.81
652.152	184.81
652.356	171.81
652.56	179.81
652.764	166.81
652.969	146.81
653.173	159.81
653.377	140.81
653.581	138.81
653.785	145.81
653.99	134.81
654.194	162.81
654.398	149.81
654.602	146.81
654.806	166.81
655.01	147.81
655.214	134.81
655.418	138.81
655.622	155.81
655.826	147.81
656.03	156.81
656.234	136.81
656.438	148.81
656.642	146.81
656.846	143.81
657.049	148.81
657.253	136.81
657.457	134.81
657.661	117.81
657.865	121.81
658.068	122.81
658.272	111.81
658.476	110.81
658.68	103.81
658.883	110.81
659.087	114.81
659.291	114.81
659.494	105.81
659.698	99.81
659.901	98.81
660.105	94.81
660.309	98.81
660.512	90.81
660.716	102.81
660.919	87.81
661.123	82.81
661.326	96.81
661.53	103.81
661.733	81.81
661.936	83.81
662.14	93.81
662.343	90.81
662.546	83.81
662.75	86.81
662.953	68.81
663.156	74.81
663.36	76.81
663.563	76.81
663.766	89.81
663.969	77.81
664.173	74.81
664.376	74.81
664.579	74.81
664.782	90.81
664.985	81.81
665.188	91.81
665.391	90.81
665.594	83.81
665.797	76.81
666	76.81
666.203	74.81
666.406	90.81
666.609	89.81
666.812	69.81
667.015	91.81
667.218	78.81
667.421	87.81
667.624	83.81
667.827	94.81
668.03	68.81
668.232	80.81
668.435	78.81
668.638	75.81
668.841	73.81
669.043	86.81
669.246	74.81
669.449	78.81
669.651	74.81
669.854	91.81
670.057	79.81
670.259	67.81
670.462	81.81
670.665	86.81
670.867	77.81
671.07	76.81
671.272	70.81
671.475	82.81
671.677	80.81
671.88	67.81
672.082	77.81
672.284	87.81
672.487	85.81
672.689	80.81
672.892	82.81
