Data from 1974.PennyLincolnUp.Lamp.En5.5.200Scan.071719.P1.Changed Mount._HRD10591_15-53-16-857.txt Node
Date: Thu Jul 18 15:53:16 EDT 2019
User: cochatt
Spectrometer: HR+D1059
Trigger mode: 1
Integration Time (sec): 1.000000E-1
Scans to average: 1
Electric dark correction enabled: true
Nonlinearity correction enabled: false
Boxcar width: 0
XAxis mode: Wavelengths
Number of Pixels in Spectrum: 2048
>>>>>Begin Spectral Data<<<<<
223.165	-15.12
223.4	-15.12
223.635	-15.12
223.869	-22.12
224.104	-19.12
224.338	-12.12
224.573	-12.12
224.808	-10.12
225.042	-2.12
225.277	-14.12
225.511	7.88
225.746	5.88
225.98	9.88
226.215	8.88
226.449	14.88
226.683	9.88
226.918	16.88
227.152	32.88
227.387	32.88
227.621	32.88
227.856	31.88
228.09	40.88
228.324	54.88
228.559	68.88
228.793	52.88
229.027	102.88
229.262	105.88
229.496	128.88
229.73	139.88
229.964	151.88
230.199	127.88
230.433	131.88
230.667	125.88
230.901	125.88
231.136	127.88
231.37	127.88
231.604	121.88
231.838	117.88
232.072	116.88
232.306	117.88
232.541	120.88
232.775	122.88
233.009	122.88
233.243	116.88
233.477	112.88
233.711	141.88
233.945	116.88
234.179	144.88
234.413	132.88
234.647	132.88
234.881	125.88
235.115	122.88
235.349	115.88
235.583	134.88
235.817	131.88
236.051	123.88
236.285	152.88
236.519	135.88
236.753	137.88
236.987	146.88
237.221	183.88
237.455	239.88
237.689	195.88
237.922	156.88
238.156	160.88
238.39	144.88
238.624	131.88
238.858	128.88
239.091	127.88
239.325	131.88
239.559	133.88
239.793	127.88
240.027	144.88
240.26	146.88
240.494	180.88
240.728	167.88
240.961	151.88
241.195	149.88
241.429	154.88
241.662	143.88
241.896	145.88
242.13	145.88
242.363	153.88
242.597	146.88
242.83	139.88
243.064	144.88
243.298	146.88
243.531	157.88
243.765	159.88
243.998	162.88
244.232	144.88
244.465	163.88
244.699	153.88
244.932	139.88
245.166	181.88
245.399	173.88
245.633	159.88
245.866	175.88
246.099	154.88
246.333	167.88
246.566	158.88
246.8	138.88
247.033	149.88
247.266	163.88
247.5	172.88
247.733	166.88
247.966	199.88
248.2	185.88
248.433	183.88
248.666	183.88
248.899	195.88
249.133	201.88
249.366	216.88
249.599	208.88
249.832	191.88
250.066	197.88
250.299	191.88
250.532	203.88
250.765	216.88
250.998	229.88
251.231	245.88
251.465	233.88
251.698	222.88
251.931	221.88
252.164	206.88
252.397	223.88
252.63	212.88
252.863	229.88
253.096	225.88
253.329	244.88
253.562	237.88
253.795	246.88
254.028	230.88
254.261	213.88
254.494	247.88
254.727	271.88
254.96	303.88
255.193	276.88
255.426	270.88
255.659	240.88
255.892	252.88
256.124	234.88
256.357	254.88
256.59	237.88
256.823	240.88
257.056	237.88
257.289	228.88
257.521	219.88
257.754	221.88
257.987	234.88
258.22	222.88
258.452	216.88
258.685	235.88
258.918	232.88
259.151	228.88
259.383	243.88
259.616	243.88
259.849	244.88
260.081	267.88
260.314	271.88
260.547	274.88
260.779	256.88
261.012	248.88
261.244	248.88
261.477	247.88
261.71	215.88
261.942	234.88
262.175	246.88
262.407	246.88
262.64	236.88
262.872	232.88
263.105	220.88
263.337	231.88
263.57	223.88
263.802	228.88
264.035	234.88
264.267	224.88
264.499	230.88
264.732	230.88
264.964	226.88
265.197	240.88
265.429	235.88
265.661	234.88
265.894	231.88
266.126	237.88
266.358	237.88
266.591	252.88
266.823	232.88
267.055	255.88
267.287	264.88
267.52	259.88
267.752	250.88
267.984	244.88
268.216	253.88
268.448	244.88
268.681	274.88
268.913	266.88
269.145	279.88
269.377	290.88
269.609	280.88
269.841	297.88
270.073	311.88
270.306	315.88
270.538	348.88
270.77	340.88
271.002	314.88
271.234	322.88
271.466	298.88
271.698	339.88
271.93	324.88
272.162	346.88
272.394	342.88
272.626	330.88
272.858	317.88
273.09	307.88
273.322	318.88
273.553	293.88
273.785	281.88
274.017	284.88
274.249	282.88
274.481	285.88
274.713	282.88
274.945	308.88
275.176	315.88
275.408	293.88
275.64	299.88
275.872	288.88
276.104	275.88
276.335	285.88
276.567	291.88
276.799	292.88
277.031	313.88
277.262	331.88
277.494	349.88
277.726	315.88
277.957	311.88
278.189	309.88
278.421	307.88
278.652	301.88
278.884	307.88
279.115	301.88
279.347	308.88
279.579	295.88
279.81	304.88
280.042	295.88
280.273	306.88
280.505	289.88
280.736	284.88
280.968	296.88
281.199	299.88
281.431	297.88
281.662	300.88
281.894	298.88
282.125	291.88
282.356	323.88
282.588	335.88
282.819	325.88
283.051	313.88
283.282	297.88
283.513	295.88
283.745	287.88
283.976	313.88
284.207	320.88
284.439	307.88
284.67	310.88
284.901	326.88
285.132	300.88
285.364	322.88
285.595	294.88
285.826	305.88
286.057	319.88
286.288	311.88
286.52	348.88
286.751	319.88
286.982	312.88
287.213	307.88
287.444	318.88
287.675	316.88
287.906	333.88
288.138	333.88
288.369	332.88
288.6	341.88
288.831	332.88
289.062	340.88
289.293	307.88
289.524	342.88
289.755	334.88
289.986	323.88
290.217	325.88
290.448	318.88
290.679	326.88
290.91	309.88
291.141	321.88
291.371	339.88
291.602	333.88
291.833	322.88
292.064	337.88
292.295	336.88
292.526	328.88
292.757	327.88
292.987	325.88
293.218	325.88
293.449	339.88
293.68	338.88
293.91	313.88
294.141	310.88
294.372	321.88
294.603	314.88
294.833	321.88
295.064	356.88
295.295	310.88
295.525	335.88
295.756	337.88
295.987	327.88
296.217	355.88
296.448	360.88
296.679	326.88
296.909	320.88
297.14	315.88
297.37	347.88
297.601	347.88
297.831	341.88
298.062	331.88
298.292	334.88
298.523	340.88
298.753	333.88
298.984	321.88
299.214	349.88
299.445	338.88
299.675	353.88
299.905	363.88
300.136	335.88
300.366	336.88
300.597	356.88
300.827	358.88
301.057	370.88
301.288	393.88
301.518	374.88
301.748	372.88
301.979	355.88
302.209	362.88
302.439	365.88
302.669	366.88
302.9	377.88
303.13	335.88
303.36	363.88
303.59	376.88
303.82	368.88
304.051	351.88
304.281	361.88
304.511	373.88
304.741	351.88
304.971	363.88
305.201	384.88
305.431	359.88
305.661	356.88
305.891	355.88
306.121	361.88
306.352	375.88
306.582	351.88
306.812	358.88
307.042	355.88
307.272	358.88
307.502	384.88
307.731	369.88
307.961	378.88
308.191	377.88
308.421	381.88
308.651	356.88
308.881	379.88
309.111	387.88
309.341	383.88
309.571	370.88
309.8	402.88
310.03	393.88
310.26	391.88
310.49	396.88
310.72	413.88
310.949	428.88
311.179	427.88
311.409	389.88
311.639	399.88
311.868	406.88
312.098	417.88
312.328	417.88
312.557	428.88
312.787	423.88
313.017	439.88
313.246	433.88
313.476	410.88
313.706	427.88
313.935	424.88
314.165	448.88
314.394	431.88
314.624	437.88
314.853	421.88
315.083	399.88
315.312	397.88
315.542	411.88
315.771	417.88
316.001	409.88
316.23	419.88
316.46	421.88
316.689	398.88
316.919	407.88
317.148	428.88
317.377	421.88
317.607	414.88
317.836	413.88
318.065	414.88
318.295	410.88
318.524	407.88
318.753	406.88
318.983	415.88
319.212	410.88
319.441	411.88
319.67	430.88
319.9	422.88
320.129	426.88
320.358	410.88
320.587	414.88
320.816	441.88
321.046	428.88
321.275	427.88
321.504	427.88
321.733	429.88
321.962	443.88
322.191	421.88
322.42	451.88
322.649	460.88
322.878	444.88
323.108	485.88
323.337	486.88
323.566	501.88
323.795	549.88
324.024	556.88
324.253	645.88
324.482	846.88
324.71	1301.88
324.939	1923.88
325.168	1632.88
325.397	868.88
325.626	627.88
325.855	565.88
326.084	499.88
326.313	513.88
326.542	519.88
326.77	548.88
326.999	629.88
327.228	791.88
327.457	1204.88
327.686	1469.88
327.914	991.88
328.143	688.88
328.372	605.88
328.6	560.88
328.829	559.88
329.058	569.88
329.287	569.88
329.515	562.88
329.744	538.88
329.972	549.88
330.201	556.88
330.43	581.88
330.658	618.88
330.887	593.88
331.115	596.88
331.344	524.88
331.572	525.88
331.801	520.88
332.03	523.88
332.258	496.88
332.486	509.88
332.715	507.88
332.943	503.88
333.172	502.88
333.4	520.88
333.629	512.88
333.857	564.88
334.085	562.88
334.314	576.88
334.542	582.88
334.771	618.88
334.999	554.88
335.227	516.88
335.455	501.88
335.684	524.88
335.912	506.88
336.14	505.88
336.369	496.88
336.597	503.88
336.825	486.88
337.053	509.88
337.281	473.88
337.51	478.88
337.738	516.88
337.966	472.88
338.194	495.88
338.422	477.88
338.65	483.88
338.878	460.88
339.106	472.88
339.334	492.88
339.562	463.88
339.79	480.88
340.018	477.88
340.246	477.88
340.474	481.88
340.702	493.88
340.93	489.88
341.158	490.88
341.386	489.88
341.614	475.88
341.842	469.88
342.07	462.88
342.298	465.88
342.526	470.88
342.754	469.88
342.981	480.88
343.209	488.88
343.437	480.88
343.665	488.88
343.893	507.88
344.12	481.88
344.348	515.88
344.576	488.88
344.804	506.88
345.031	499.88
345.259	496.88
345.487	502.88
345.714	475.88
345.942	484.88
346.17	488.88
346.397	475.88
346.625	455.88
346.853	464.88
347.08	461.88
347.308	477.88
347.535	467.88
347.763	484.88
347.99	481.88
348.218	461.88
348.445	462.88
348.673	464.88
348.9	476.88
349.128	445.88
349.355	452.88
349.583	454.88
349.81	446.88
350.037	437.88
350.265	463.88
350.492	435.88
350.72	464.88
350.947	467.88
351.174	455.88
351.402	483.88
351.629	473.88
351.856	473.88
352.083	483.88
352.311	466.88
352.538	484.88
352.765	473.88
352.992	475.88
353.22	458.88
353.447	483.88
353.674	467.88
353.901	449.88
354.128	457.88
354.355	432.88
354.583	446.88
354.81	439.88
355.037	454.88
355.264	453.88
355.491	437.88
355.718	425.88
355.945	454.88
356.172	441.88
356.399	437.88
356.626	459.88
356.853	426.88
357.08	446.88
357.307	441.88
357.534	447.88
357.761	438.88
357.988	447.88
358.215	447.88
358.441	456.88
358.668	447.88
358.895	464.88
359.122	466.88
359.349	445.88
359.576	465.88
359.802	471.88
360.029	506.88
360.256	489.88
360.483	475.88
360.709	459.88
360.936	470.88
361.163	473.88
361.39	459.88
361.616	471.88
361.843	455.88
362.07	459.88
362.296	452.88
362.523	464.88
362.749	445.88
362.976	461.88
363.203	447.88
363.429	458.88
363.656	465.88
363.882	455.88
364.109	463.88
364.335	465.88
364.562	462.88
364.788	460.88
365.015	429.88
365.241	457.88
365.468	449.88
365.694	447.88
365.92	474.88
366.147	457.88
366.373	426.88
366.599	469.88
366.826	447.88
367.052	433.88
367.278	453.88
367.505	455.88
367.731	479.88
367.957	449.88
368.184	472.88
368.41	481.88
368.636	471.88
368.862	463.88
369.089	468.88
369.315	455.88
369.541	448.88
369.767	447.88
369.993	413.88
370.219	443.88
370.445	455.88
370.672	454.88
370.898	460.88
371.124	450.88
371.35	447.88
371.576	451.88
371.802	445.88
372.028	455.88
372.254	469.88
372.48	472.88
372.706	473.88
372.932	452.88
373.158	452.88
373.384	484.88
373.61	469.88
373.835	471.88
374.061	469.88
374.287	462.88
374.513	470.88
374.739	485.88
374.965	462.88
375.191	474.88
375.416	473.88
375.642	464.88
375.868	466.88
376.094	473.88
376.319	463.88
376.545	468.88
376.771	463.88
376.997	478.88
377.222	470.88
377.448	474.88
377.674	468.88
377.899	449.88
378.125	437.88
378.35	453.88
378.576	469.88
378.802	461.88
379.027	460.88
379.253	469.88
379.478	475.88
379.704	468.88
379.929	456.88
380.155	444.88
380.38	478.88
380.606	488.88
380.831	464.88
381.057	487.88
381.282	472.88
381.507	478.88
381.733	477.88
381.958	491.88
382.184	478.88
382.409	435.88
382.634	473.88
382.86	475.88
383.085	487.88
383.31	471.88
383.535	504.88
383.761	485.88
383.986	499.88
384.211	484.88
384.436	490.88
384.662	507.88
384.887	504.88
385.112	523.88
385.337	503.88
385.562	502.88
385.787	486.88
386.013	545.88
386.238	553.88
386.463	549.88
386.688	505.88
386.913	525.88
387.138	506.88
387.363	517.88
387.588	533.88
387.813	530.88
388.038	515.88
388.263	530.88
388.488	511.88
388.713	515.88
388.938	492.88
389.163	506.88
389.387	539.88
389.612	525.88
389.837	523.88
390.062	509.88
390.287	512.88
390.512	510.88
390.736	524.88
390.961	536.88
391.186	537.88
391.411	547.88
391.636	548.88
391.86	572.88
392.085	556.88
392.31	543.88
392.534	537.88
392.759	541.88
392.984	555.88
393.208	527.88
393.433	517.88
393.658	527.88
393.882	529.88
394.107	533.88
394.331	502.88
394.556	537.88
394.78	526.88
395.005	526.88
395.229	534.88
395.454	537.88
395.678	555.88
395.903	555.88
396.127	579.88
396.352	582.88
396.576	557.88
396.801	556.88
397.025	548.88
397.249	567.88
397.474	583.88
397.698	588.88
397.922	577.88
398.147	598.88
398.371	586.88
398.595	601.88
398.82	607.88
399.044	660.88
399.268	638.88
399.492	686.88
399.717	748.88
399.941	750.88
400.165	755.88
400.389	752.88
400.613	699.88
400.837	661.88
401.062	653.88
401.286	645.88
401.51	624.88
401.734	607.88
401.958	603.88
402.182	635.88
402.406	617.88
402.63	645.88
402.854	604.88
403.078	636.88
403.302	632.88
403.526	635.88
403.75	635.88
403.974	647.88
404.198	623.88
404.422	647.88
404.645	638.88
404.869	652.88
405.093	657.88
405.317	707.88
405.541	760.88
405.765	702.88
405.988	663.88
406.212	661.88
406.436	683.88
406.66	680.88
406.883	663.88
407.107	701.88
407.331	733.88
407.555	800.88
407.778	821.88
408.002	775.88
408.226	731.88
408.449	717.88
408.673	685.88
408.896	735.88
409.12	757.88
409.344	743.88
409.567	665.88
409.791	623.88
410.014	643.88
410.238	647.88
410.461	638.88
410.685	641.88
410.908	648.88
411.132	692.88
411.355	744.88
411.578	684.88
411.802	628.88
412.025	639.88
412.249	651.88
412.472	683.88
412.695	698.88
412.919	693.88
413.142	663.88
413.365	634.88
413.589	621.88
413.812	609.88
414.035	597.88
414.258	604.88
414.482	582.88
414.705	592.88
414.928	614.88
415.151	620.88
415.374	612.88
415.597	610.88
415.821	587.88
416.044	577.88
416.267	618.88
416.49	593.88
416.713	620.88
416.936	595.88
417.159	606.88
417.382	608.88
417.605	615.88
417.828	610.88
418.051	623.88
418.274	634.88
418.497	590.88
418.72	629.88
418.943	616.88
419.166	650.88
419.389	658.88
419.611	650.88
419.834	650.88
420.057	618.88
420.28	645.88
420.503	640.88
420.726	618.88
420.948	639.88
421.171	699.88
421.394	737.88
421.617	656.88
421.839	621.88
422.062	616.88
422.285	631.88
422.507	712.88
422.73	777.88
422.953	745.88
423.175	661.88
423.398	646.88
423.621	670.88
423.843	673.88
424.066	695.88
424.288	651.88
424.511	697.88
424.733	739.88
424.956	829.88
425.178	771.88
425.401	765.88
425.623	832.88
425.846	698.88
426.068	667.88
426.291	631.88
426.513	661.88
426.735	664.88
426.958	703.88
427.18	777.88
427.402	906.88
427.625	1015.88
427.847	883.88
428.069	761.88
428.292	715.88
428.514	666.88
428.736	638.88
428.958	625.88
429.181	616.88
429.403	617.88
429.625	614.88
429.847	646.88
430.069	725.88
430.292	717.88
430.514	618.88
430.736	612.88
430.958	613.88
431.18	584.88
431.402	586.88
431.624	572.88
431.846	590.88
432.068	575.88
432.29	603.88
432.512	598.88
432.734	612.88
432.956	592.88
433.178	608.88
433.4	610.88
433.622	587.88
433.844	581.88
434.066	593.88
434.287	598.88
434.509	593.88
434.731	598.88
434.953	639.88
435.175	619.88
435.397	667.88
435.618	636.88
435.84	695.88
436.062	803.88
436.284	888.88
436.505	739.88
436.727	665.88
436.949	599.88
437.17	593.88
437.392	591.88
437.614	621.88
437.835	643.88
438.057	744.88
438.278	821.88
438.5	851.88
438.721	952.88
438.943	889.88
439.165	720.88
439.386	657.88
439.608	676.88
439.829	651.88
440.05	675.88
440.272	708.88
440.493	699.88
440.715	624.88
440.936	635.88
441.158	636.88
441.379	613.88
441.6	635.88
441.822	665.88
442.043	686.88
442.264	780.88
442.486	851.88
442.707	705.88
442.928	688.88
443.149	679.88
443.371	694.88
443.592	712.88
443.813	879.88
444.034	899.88
444.255	789.88
444.476	708.88
444.698	667.88
444.919	675.88
445.14	760.88
445.361	726.88
445.582	714.88
445.803	772.88
446.024	857.88
446.245	869.88
446.466	812.88
446.687	712.88
446.908	665.88
447.129	635.88
447.35	612.88
447.571	598.88
447.792	589.88
448.013	608.88
448.234	610.88
448.455	659.88
448.675	789.88
448.896	900.88
449.117	786.88
449.338	755.88
449.559	847.88
449.779	948.88
450	747.88
450.221	657.88
450.442	630.88
450.662	598.88
450.883	605.88
451.104	585.88
451.324	605.88
451.545	577.88
451.766	555.88
451.986	529.88
452.207	533.88
452.428	536.88
452.648	535.88
452.869	518.88
453.089	543.88
453.31	570.88
453.53	565.88
453.751	529.88
453.971	526.88
454.192	545.88
454.412	555.88
454.633	537.88
454.853	534.88
455.073	533.88
455.294	555.88
455.514	647.88
455.734	629.88
455.955	555.88
456.175	508.88
456.395	515.88
456.616	523.88
456.836	502.88
457.056	512.88
457.276	500.88
457.497	525.88
457.717	542.88
457.937	534.88
458.157	540.88
458.377	534.88
458.598	550.88
458.818	586.88
459.038	655.88
459.258	700.88
459.478	606.88
459.698	581.88
459.918	577.88
460.138	592.88
460.358	599.88
460.578	607.88
460.798	614.88
461.018	608.88
461.238	617.88
461.458	604.88
461.678	605.88
461.898	620.88
462.118	619.88
462.338	643.88
462.558	619.88
462.777	653.88
462.997	657.88
463.217	700.88
463.437	697.88
463.657	689.88
463.876	675.88
464.096	670.88
464.316	664.88
464.536	648.88
464.755	683.88
464.975	675.88
465.195	650.88
465.414	719.88
465.634	640.88
465.854	608.88
466.073	591.88
466.293	572.88
466.512	575.88
466.732	563.88
466.951	571.88
467.171	572.88
467.391	584.88
467.61	563.88
467.829	560.88
468.049	559.88
468.268	564.88
468.488	547.88
468.707	533.88
468.927	569.88
469.146	520.88
469.365	556.88
469.585	541.88
469.804	568.88
470.023	565.88
470.243	584.88
470.462	558.88
470.681	587.88
470.901	593.88
471.12	559.88
471.339	567.88
471.558	573.88
471.777	597.88
471.997	583.88
472.216	566.88
472.435	576.88
472.654	588.88
472.873	572.88
473.092	563.88
473.311	557.88
473.53	560.88
473.749	575.88
473.968	609.88
474.187	698.88
474.406	714.88
474.625	644.88
474.844	573.88
475.063	563.88
475.282	571.88
475.501	582.88
475.72	581.88
475.939	580.88
476.158	576.88
476.377	576.88
476.596	586.88
476.814	587.88
477.033	602.88
477.252	598.88
477.471	602.88
477.69	613.88
477.908	634.88
478.127	636.88
478.346	631.88
478.564	631.88
478.783	639.88
479.002	675.88
479.22	662.88
479.439	670.88
479.658	685.88
479.876	686.88
480.095	680.88
480.313	712.88
480.532	713.88
480.751	703.88
480.969	709.88
481.188	717.88
481.406	776.88
481.624	705.88
481.843	674.88
482.061	678.88
482.28	661.88
482.498	670.88
482.717	649.88
482.935	688.88
483.153	671.88
483.372	667.88
483.59	669.88
483.808	660.88
484.027	647.88
484.245	672.88
484.463	675.88
484.681	679.88
484.9	684.88
485.118	689.88
485.336	661.88
485.554	654.88
485.772	668.88
485.99	669.88
486.209	657.88
486.427	722.88
486.645	709.88
486.863	720.88
487.081	722.88
487.299	694.88
487.517	707.88
487.735	721.88
487.953	707.88
488.171	716.88
488.389	709.88
488.607	711.88
488.825	704.88
489.043	727.88
489.261	720.88
489.479	733.88
489.696	744.88
489.914	726.88
490.132	728.88
490.35	738.88
490.568	750.88
490.786	775.88
491.003	780.88
491.221	796.88
491.439	797.88
491.657	817.88
491.874	798.88
492.092	810.88
492.31	795.88
492.527	825.88
492.745	840.88
492.963	857.88
493.18	854.88
493.398	841.88
493.615	827.88
493.833	828.88
494.05	826.88
494.268	835.88
494.485	855.88
494.703	839.88
494.92	840.88
495.138	859.88
495.355	836.88
495.573	841.88
495.79	849.88
496.008	876.88
496.225	833.88
496.442	842.88
496.66	856.88
496.877	867.88
497.094	891.88
497.312	874.88
497.529	895.88
497.746	923.88
497.963	897.88
498.181	941.88
498.398	943.88
498.615	959.88
498.832	982.88
499.049	1038.88
499.267	1049.88
499.484	1129.88
499.701	1137.88
499.918	1192.88
500.135	1248.88
500.352	1320.88
500.569	1361.88
500.786	1382.88
501.003	1310.88
501.22	1256.88
501.437	1207.88
501.654	1136.88
501.871	1130.88
502.088	1061.88
502.305	1054.88
502.522	989.88
502.739	967.88
502.956	930.88
503.172	916.88
503.389	896.88
503.606	885.88
503.823	893.88
504.04	875.88
504.256	839.88
504.473	874.88
504.69	853.88
504.907	831.88
505.123	865.88
505.34	838.88
505.557	821.88
505.773	829.88
505.99	822.88
506.207	779.88
506.423	809.88
506.64	794.88
506.856	772.88
507.073	771.88
507.289	760.88
507.506	761.88
507.722	768.88
507.939	779.88
508.155	761.88
508.372	748.88
508.588	752.88
508.805	765.88
509.021	740.88
509.238	742.88
509.454	763.88
509.67	753.88
509.887	750.88
510.103	724.88
510.319	737.88
510.536	816.88
510.752	1190.88
510.968	1012.88
511.184	744.88
511.401	718.88
511.617	682.88
511.833	705.88
512.049	707.88
512.265	709.88
512.481	704.88
512.698	671.88
512.914	682.88
513.13	695.88
513.346	712.88
513.562	709.88
513.778	676.88
513.994	697.88
514.21	713.88
514.426	739.88
514.642	745.88
514.858	776.88
515.074	789.88
515.29	912.88
515.506	1161.88
515.721	1027.88
515.937	782.88
516.153	750.88
516.369	729.88
516.585	743.88
516.801	716.88
517.016	728.88
517.232	735.88
517.448	780.88
517.664	753.88
517.879	772.88
518.095	793.88
518.311	755.88
518.527	724.88
518.742	711.88
518.958	713.88
519.173	712.88
519.389	726.88
519.605	697.88
519.82	721.88
520.036	701.88
520.251	726.88
520.467	718.88
520.682	740.88
520.898	750.88
521.113	732.88
521.329	757.88
521.544	835.88
521.76	975.88
521.975	1384.88
522.19	1406.88
522.406	881.88
522.621	726.88
522.836	677.88
523.052	672.88
523.267	655.88
523.482	676.88
523.698	632.88
523.913	638.88
524.128	629.88
524.343	618.88
524.559	601.88
524.774	615.88
524.989	599.88
525.204	629.88
525.419	601.88
525.634	605.88
525.849	613.88
526.064	569.88
526.28	606.88
526.495	599.88
526.71	565.88
526.925	586.88
527.14	581.88
527.355	567.88
527.57	580.88
527.785	569.88
527.999	567.88
528.214	595.88
528.429	580.88
528.644	592.88
528.859	581.88
529.074	592.88
529.289	611.88
529.503	659.88
529.718	610.88
529.933	604.88
530.148	600.88
530.363	583.88
530.577	581.88
530.792	566.88
531.007	573.88
531.221	577.88
531.436	558.88
531.651	581.88
531.865	550.88
532.08	554.88
532.295	575.88
532.509	536.88
532.724	563.88
532.938	539.88
533.153	563.88
533.367	552.88
533.582	560.88
533.796	564.88
534.011	567.88
534.225	552.88
534.44	550.88
534.654	540.88
534.868	558.88
535.083	555.88
535.297	546.88
535.511	556.88
535.726	563.88
535.94	552.88
536.154	543.88
536.369	547.88
536.583	555.88
536.797	533.88
537.011	539.88
537.225	531.88
537.44	532.88
537.654	521.88
537.868	536.88
538.082	534.88
538.296	549.88
538.51	540.88
538.724	550.88
538.938	534.88
539.153	535.88
539.367	536.88
539.581	533.88
539.795	536.88
540.009	540.88
540.222	535.88
540.436	552.88
540.65	519.88
540.864	519.88
541.078	544.88
541.292	538.88
541.506	552.88
541.72	533.88
541.934	535.88
542.147	565.88
542.361	533.88
542.575	533.88
542.789	519.88
543.002	530.88
543.216	524.88
543.43	550.88
543.644	543.88
543.857	535.88
544.071	548.88
544.285	551.88
544.498	525.88
544.712	516.88
544.925	532.88
545.139	538.88
545.352	529.88
545.566	535.88
545.779	527.88
545.993	517.88
546.206	533.88
546.42	519.88
546.633	547.88
546.847	539.88
547.06	533.88
547.274	505.88
547.487	537.88
547.7	527.88
547.914	547.88
548.127	515.88
548.34	547.88
548.554	538.88
548.767	529.88
548.98	538.88
549.193	507.88
549.407	518.88
549.62	503.88
549.833	533.88
550.046	530.88
550.259	522.88
550.473	541.88
550.686	528.88
550.899	533.88
551.112	519.88
551.325	494.88
551.538	511.88
551.751	507.88
551.964	492.88
552.177	511.88
552.39	518.88
552.603	517.88
552.816	545.88
553.029	535.88
553.242	539.88
553.455	533.88
553.667	557.88
553.88	555.88
554.093	559.88
554.306	544.88
554.519	544.88
554.732	529.88
554.944	513.88
555.157	493.88
555.37	503.88
555.583	499.88
555.795	489.88
556.008	471.88
556.221	490.88
556.433	476.88
556.646	480.88
556.859	484.88
557.071	470.88
557.284	463.88
557.496	470.88
557.709	479.88
557.921	469.88
558.134	484.88
558.346	472.88
558.559	476.88
558.771	477.88
558.984	454.88
559.196	470.88
559.409	458.88
559.621	458.88
559.833	457.88
560.046	459.88
560.258	462.88
560.47	455.88
560.683	456.88
560.895	448.88
561.107	475.88
561.32	448.88
561.532	449.88
561.744	452.88
561.956	464.88
562.168	455.88
562.381	495.88
562.593	462.88
562.805	472.88
563.017	465.88
563.229	455.88
563.441	464.88
563.653	470.88
563.865	472.88
564.077	467.88
564.289	472.88
564.501	488.88
564.713	455.88
564.925	499.88
565.137	475.88
565.349	527.88
565.561	532.88
565.773	529.88
565.985	528.88
566.197	542.88
566.408	543.88
566.62	581.88
566.832	606.88
567.044	599.88
567.255	630.88
567.467	618.88
567.679	643.88
567.891	661.88
568.102	657.88
568.314	627.88
568.526	605.88
568.737	579.88
568.949	531.88
569.161	522.88
569.372	509.88
569.584	501.88
569.795	486.88
570.007	489.88
570.218	513.88
570.43	496.88
570.641	487.88
570.853	445.88
571.064	460.88
571.276	460.88
571.487	454.88
571.698	464.88
571.91	436.88
572.121	432.88
572.333	430.88
572.544	404.88
572.755	419.88
572.966	408.88
573.178	416.88
573.389	407.88
573.6	398.88
573.811	399.88
574.023	404.88
574.234	399.88
574.445	383.88
574.656	399.88
574.867	408.88
575.078	415.88
575.289	395.88
575.501	397.88
575.712	391.88
575.923	383.88
576.134	382.88
576.345	373.88
576.556	396.88
576.767	383.88
576.978	371.88
577.188	377.88
577.399	394.88
577.61	368.88
577.821	385.88
578.032	385.88
578.243	407.88
578.454	557.88
578.665	451.88
578.875	373.88
579.086	377.88
579.297	369.88
579.508	367.88
579.718	353.88
579.929	352.88
580.14	371.88
580.35	384.88
580.561	355.88
580.772	355.88
580.982	353.88
581.193	360.88
581.403	343.88
581.614	365.88
581.825	352.88
582.035	347.88
582.246	342.88
582.456	355.88
582.667	363.88
582.877	350.88
583.087	361.88
583.298	355.88
583.508	343.88
583.719	327.88
583.929	354.88
584.139	352.88
584.35	345.88
584.56	344.88
584.77	340.88
584.981	340.88
585.191	356.88
585.401	344.88
585.611	338.88
585.821	351.88
586.032	348.88
586.242	330.88
586.452	353.88
586.662	329.88
586.872	367.88
587.082	344.88
587.292	337.88
587.502	349.88
587.713	337.88
587.923	331.88
588.133	328.88
588.343	345.88
588.553	328.88
588.762	355.88
588.972	337.88
589.182	349.88
589.392	352.88
589.602	319.88
589.812	352.88
590.022	349.88
590.232	343.88
590.441	352.88
590.651	344.88
590.861	346.88
591.071	344.88
591.281	353.88
591.49	328.88
591.7	343.88
591.91	366.88
592.119	328.88
592.329	352.88
592.539	381.88
592.748	367.88
592.958	375.88
593.167	407.88
593.377	371.88
593.587	388.88
593.796	383.88
594.006	396.88
594.215	380.88
594.424	379.88
594.634	370.88
594.843	373.88
595.053	363.88
595.262	360.88
595.472	334.88
595.681	340.88
595.89	366.88
596.1	329.88
596.309	316.88
596.518	341.88
596.727	339.88
596.937	353.88
597.146	332.88
597.355	337.88
597.564	330.88
597.774	313.88
597.983	336.88
598.192	313.88
598.401	310.88
598.61	315.88
598.819	323.88
599.028	312.88
599.237	287.88
599.446	283.88
599.655	304.88
599.864	300.88
600.073	302.88
600.282	279.88
600.491	303.88
600.7	313.88
600.909	283.88
601.118	310.88
601.327	316.88
601.536	303.88
601.745	292.88
601.953	295.88
602.162	300.88
602.371	300.88
602.58	305.88
602.789	318.88
602.997	301.88
603.206	280.88
603.415	291.88
603.623	288.88
603.832	295.88
604.041	297.88
604.249	281.88
604.458	292.88
604.666	285.88
604.875	283.88
605.084	288.88
605.292	302.88
605.501	275.88
605.709	295.88
605.918	270.88
606.126	276.88
606.334	295.88
606.543	286.88
606.751	286.88
606.96	283.88
607.168	288.88
607.376	299.88
607.585	287.88
607.793	280.88
608.001	286.88
608.21	272.88
608.418	283.88
608.626	290.88
608.834	281.88
609.043	301.88
609.251	300.88
609.459	286.88
609.667	302.88
609.875	262.88
610.083	274.88
610.291	283.88
610.499	288.88
610.707	303.88
610.916	297.88
611.124	297.88
611.332	276.88
611.54	271.88
611.748	285.88
611.955	284.88
612.163	283.88
612.371	277.88
612.579	276.88
612.787	276.88
612.995	265.88
613.203	283.88
613.411	279.88
613.618	275.88
613.826	281.88
614.034	274.88
614.242	271.88
614.449	262.88
614.657	251.88
614.865	286.88
615.072	281.88
615.28	294.88
615.488	264.88
615.695	300.88
615.903	277.88
616.111	256.88
616.318	271.88
616.526	254.88
616.733	268.88
616.941	259.88
617.148	273.88
617.356	290.88
617.563	295.88
617.771	281.88
617.978	267.88
618.185	281.88
618.393	281.88
618.6	262.88
618.807	266.88
619.015	267.88
619.222	292.88
619.429	263.88
619.637	261.88
619.844	269.88
620.051	238.88
620.258	247.88
620.466	265.88
620.673	252.88
620.88	251.88
621.087	259.88
621.294	243.88
621.501	255.88
621.708	263.88
621.915	243.88
622.122	268.88
622.329	260.88
622.536	238.88
622.743	260.88
622.95	265.88
623.157	257.88
623.364	268.88
623.571	249.88
623.778	245.88
623.985	255.88
624.192	267.88
624.399	244.88
624.606	246.88
624.812	238.88
625.019	239.88
625.226	240.88
625.433	254.88
625.639	232.88
625.846	232.88
626.053	240.88
626.259	223.88
626.466	240.88
626.673	240.88
626.879	236.88
627.086	229.88
627.293	229.88
627.499	239.88
627.706	224.88
627.912	223.88
628.119	228.88
628.325	226.88
628.532	235.88
628.738	236.88
628.945	236.88
629.151	234.88
629.357	231.88
629.564	237.88
629.77	235.88
629.976	248.88
630.183	230.88
630.389	235.88
630.595	225.88
630.802	208.88
631.008	204.88
631.214	212.88
631.42	210.88
631.627	227.88
631.833	209.88
632.039	227.88
632.245	223.88
632.451	226.88
632.657	213.88
632.863	217.88
633.069	199.88
633.275	209.88
633.481	212.88
633.688	211.88
633.893	220.88
634.099	234.88
634.305	208.88
634.511	204.88
634.717	197.88
634.923	196.88
635.129	189.88
635.335	194.88
635.541	206.88
635.747	216.88
635.952	210.88
636.158	212.88
636.364	210.88
636.57	221.88
636.775	205.88
636.981	220.88
637.187	210.88
637.392	214.88
637.598	209.88
637.804	211.88
638.009	201.88
638.215	203.88
638.421	202.88
638.626	201.88
638.832	180.88
639.037	189.88
639.243	202.88
639.448	190.88
639.654	217.88
639.859	191.88
640.065	192.88
640.27	196.88
640.475	173.88
640.681	203.88
640.886	209.88
641.091	209.88
641.297	191.88
641.502	187.88
641.707	205.88
641.913	206.88
642.118	198.88
642.323	180.88
642.528	184.88
642.733	184.88
642.939	204.88
643.144	177.88
643.349	193.88
643.554	196.88
643.759	186.88
643.964	191.88
644.169	186.88
644.374	191.88
644.579	196.88
644.784	200.88
644.989	193.88
645.194	179.88
645.399	182.88
645.604	188.88
645.809	183.88
646.014	194.88
646.219	200.88
646.423	201.88
646.628	201.88
646.833	180.88
647.038	192.88
647.243	181.88
647.447	187.88
647.652	200.88
647.857	202.88
648.062	193.88
648.266	198.88
648.471	191.88
648.676	204.88
648.88	192.88
649.085	188.88
649.289	183.88
649.494	186.88
649.698	206.88
649.903	199.88
650.107	189.88
650.312	173.88
650.516	195.88
650.721	171.88
650.925	168.88
651.13	161.88
651.334	168.88
651.539	170.88
651.743	166.88
651.947	167.88
652.152	168.88
652.356	167.88
652.56	160.88
652.764	166.88
652.969	160.88
653.173	163.88
653.377	174.88
653.581	167.88
653.785	144.88
653.99	162.88
654.194	157.88
654.398	147.88
654.602	140.88
654.806	179.88
655.01	155.88
655.214	157.88
655.418	154.88
655.622	150.88
655.826	153.88
656.03	152.88
656.234	144.88
656.438	155.88
656.642	139.88
656.846	155.88
657.049	141.88
657.253	141.88
657.457	143.88
657.661	124.88
657.865	126.88
658.068	134.88
658.272	118.88
658.476	111.88
658.68	108.88
658.883	109.88
659.087	110.88
659.291	99.88
659.494	99.88
659.698	105.88
659.901	109.88
660.105	109.88
660.309	105.88
660.512	107.88
660.716	89.88
660.919	93.88
661.123	91.88
661.326	100.88
661.53	96.88
661.733	90.88
661.936	88.88
662.14	97.88
662.343	88.88
662.546	85.88
662.75	96.88
662.953	102.88
663.156	82.88
663.36	91.88
663.563	93.88
663.766	80.88
663.969	88.88
664.173	77.88
664.376	78.88
664.579	80.88
664.782	90.88
664.985	83.88
665.188	93.88
665.391	79.88
665.594	84.88
665.797	101.88
666	90.88
666.203	97.88
666.406	95.88
666.609	83.88
666.812	97.88
667.015	85.88
667.218	90.88
667.421	73.88
667.624	85.88
667.827	87.88
668.03	94.88
668.232	90.88
668.435	88.88
668.638	76.88
668.841	91.88
669.043	78.88
669.246	75.88
669.449	74.88
669.651	88.88
669.854	83.88
670.057	80.88
670.259	82.88
670.462	85.88
670.665	93.88
670.867	96.88
671.07	95.88
671.272	72.88
671.475	92.88
671.677	83.88
671.88	83.88
672.082	86.88
672.284	97.88
672.487	88.88
672.689	92.88
672.892	94.88
