Data from 1974.PennyLincolnUp.Lamp.En5.5.200Scan.071719.P1.Changed Mount._HRD10591_15-53-52-856.txt Node
Date: Thu Jul 18 15:53:52 EDT 2019
User: cochatt
Spectrometer: HR+D1059
Trigger mode: 1
Integration Time (sec): 1.000000E-1
Scans to average: 1
Electric dark correction enabled: true
Nonlinearity correction enabled: false
Boxcar width: 0
XAxis mode: Wavelengths
Number of Pixels in Spectrum: 2048
>>>>>Begin Spectral Data<<<<<
223.165	-21.38
223.4	-21.38
223.635	-21.38
223.869	-25.38
224.104	-17.38
224.338	-9.38
224.573	-27.38
224.808	-12.38
225.042	-10.38
225.277	-7.38
225.511	2.62
225.746	4.62
225.98	6.62
226.215	21.62
226.449	11.62
226.683	16.62
226.918	31.62
227.152	35.62
227.387	38.62
227.621	35.62
227.856	38.62
228.09	44.62
228.324	44.62
228.559	50.62
228.793	78.62
229.027	90.62
229.262	94.62
229.496	102.62
229.73	147.62
229.964	163.62
230.199	129.62
230.433	97.62
230.667	114.62
230.901	113.62
231.136	115.62
231.37	114.62
231.604	120.62
231.838	116.62
232.072	118.62
232.306	108.62
232.541	115.62
232.775	114.62
233.009	115.62
233.243	121.62
233.477	110.62
233.711	123.62
233.945	122.62
234.179	126.62
234.413	129.62
234.647	131.62
234.881	126.62
235.115	122.62
235.349	124.62
235.583	118.62
235.817	140.62
236.051	119.62
236.285	135.62
236.519	118.62
236.753	139.62
236.987	148.62
237.221	183.62
237.455	232.62
237.689	183.62
237.922	157.62
238.156	139.62
238.39	129.62
238.624	142.62
238.858	145.62
239.091	129.62
239.325	130.62
239.559	117.62
239.793	123.62
240.027	139.62
240.26	158.62
240.494	155.62
240.728	152.62
240.961	162.62
241.195	165.62
241.429	139.62
241.662	137.62
241.896	131.62
242.13	132.62
242.363	144.62
242.597	144.62
242.83	157.62
243.064	166.62
243.298	147.62
243.531	139.62
243.765	137.62
243.998	154.62
244.232	152.62
244.465	168.62
244.699	148.62
244.932	141.62
245.166	151.62
245.399	155.62
245.633	163.62
245.866	152.62
246.099	151.62
246.333	147.62
246.566	147.62
246.8	159.62
247.033	164.62
247.266	161.62
247.5	161.62
247.733	181.62
247.966	186.62
248.2	193.62
248.433	177.62
248.666	198.62
248.899	197.62
249.133	206.62
249.366	228.62
249.599	214.62
249.832	195.62
250.066	183.62
250.299	189.62
250.532	212.62
250.765	207.62
250.998	217.62
251.231	238.62
251.465	225.62
251.698	217.62
251.931	228.62
252.164	207.62
252.397	204.62
252.63	207.62
252.863	215.62
253.096	220.62
253.329	225.62
253.562	235.62
253.795	226.62
254.028	230.62
254.261	220.62
254.494	232.62
254.727	272.62
254.96	287.62
255.193	290.62
255.426	265.62
255.659	237.62
255.892	247.62
256.124	243.62
256.357	262.62
256.59	235.62
256.823	225.62
257.056	231.62
257.289	232.62
257.521	220.62
257.754	222.62
257.987	215.62
258.22	215.62
258.452	220.62
258.685	219.62
258.918	224.62
259.151	234.62
259.383	234.62
259.616	226.62
259.849	246.62
260.081	257.62
260.314	276.62
260.547	263.62
260.779	234.62
261.012	253.62
261.244	244.62
261.477	245.62
261.71	245.62
261.942	237.62
262.175	242.62
262.407	228.62
262.64	237.62
262.872	237.62
263.105	238.62
263.337	242.62
263.57	227.62
263.802	226.62
264.035	229.62
264.267	226.62
264.499	226.62
264.732	241.62
264.964	241.62
265.197	221.62
265.429	238.62
265.661	223.62
265.894	251.62
266.126	227.62
266.358	224.62
266.591	249.62
266.823	243.62
267.055	269.62
267.287	249.62
267.52	224.62
267.752	237.62
267.984	231.62
268.216	260.62
268.448	246.62
268.681	259.62
268.913	252.62
269.145	243.62
269.377	294.62
269.609	308.62
269.841	278.62
270.073	285.62
270.306	308.62
270.538	313.62
270.77	337.62
271.002	315.62
271.234	304.62
271.466	307.62
271.698	327.62
271.93	338.62
272.162	339.62
272.394	341.62
272.626	320.62
272.858	291.62
273.09	283.62
273.322	297.62
273.553	291.62
273.785	289.62
274.017	263.62
274.249	283.62
274.481	276.62
274.713	287.62
274.945	298.62
275.176	301.62
275.408	278.62
275.64	281.62
275.872	265.62
276.104	287.62
276.335	298.62
276.567	285.62
276.799	306.62
277.031	311.62
277.262	307.62
277.494	329.62
277.726	321.62
277.957	318.62
278.189	310.62
278.421	294.62
278.652	293.62
278.884	299.62
279.115	302.62
279.347	292.62
279.579	300.62
279.81	291.62
280.042	302.62
280.273	292.62
280.505	281.62
280.736	317.62
280.968	282.62
281.199	277.62
281.431	284.62
281.662	284.62
281.894	269.62
282.125	269.62
282.356	311.62
282.588	314.62
282.819	315.62
283.051	290.62
283.282	311.62
283.513	288.62
283.745	304.62
283.976	302.62
284.207	326.62
284.439	313.62
284.67	323.62
284.901	306.62
285.132	317.62
285.364	281.62
285.595	315.62
285.826	296.62
286.057	297.62
286.288	311.62
286.52	307.62
286.751	293.62
286.982	303.62
287.213	313.62
287.444	309.62
287.675	317.62
287.906	318.62
288.138	310.62
288.369	317.62
288.6	321.62
288.831	314.62
289.062	309.62
289.293	318.62
289.524	315.62
289.755	311.62
289.986	324.62
290.217	295.62
290.448	318.62
290.679	318.62
290.91	310.62
291.141	311.62
291.371	321.62
291.602	329.62
291.833	321.62
292.064	324.62
292.295	307.62
292.526	319.62
292.757	303.62
292.987	327.62
293.218	317.62
293.449	321.62
293.68	306.62
293.91	333.62
294.141	315.62
294.372	330.62
294.603	334.62
294.833	326.62
295.064	312.62
295.295	324.62
295.525	329.62
295.756	332.62
295.987	339.62
296.217	348.62
296.448	350.62
296.679	333.62
296.909	325.62
297.14	333.62
297.37	327.62
297.601	325.62
297.831	324.62
298.062	317.62
298.292	330.62
298.523	333.62
298.753	338.62
298.984	332.62
299.214	321.62
299.445	328.62
299.675	350.62
299.905	345.62
300.136	333.62
300.366	353.62
300.597	359.62
300.827	338.62
301.057	344.62
301.288	374.62
301.518	361.62
301.748	345.62
301.979	347.62
302.209	355.62
302.439	364.62
302.669	331.62
302.9	340.62
303.13	355.62
303.36	365.62
303.59	348.62
303.82	353.62
304.051	370.62
304.281	379.62
304.511	354.62
304.741	332.62
304.971	351.62
305.201	361.62
305.431	355.62
305.661	370.62
305.891	346.62
306.121	359.62
306.352	386.62
306.582	363.62
306.812	348.62
307.042	363.62
307.272	350.62
307.502	369.62
307.731	370.62
307.961	364.62
308.191	337.62
308.421	363.62
308.651	370.62
308.881	349.62
309.111	365.62
309.341	369.62
309.571	371.62
309.8	366.62
310.03	370.62
310.26	400.62
310.49	402.62
310.72	372.62
310.949	408.62
311.179	405.62
311.409	400.62
311.639	398.62
311.868	397.62
312.098	409.62
312.328	412.62
312.557	417.62
312.787	422.62
313.017	397.62
313.246	405.62
313.476	407.62
313.706	394.62
313.935	388.62
314.165	406.62
314.394	410.62
314.624	413.62
314.853	403.62
315.083	409.62
315.312	407.62
315.542	400.62
315.771	411.62
316.001	380.62
316.23	394.62
316.46	415.62
316.689	406.62
316.919	400.62
317.148	402.62
317.377	412.62
317.607	415.62
317.836	409.62
318.065	388.62
318.295	405.62
318.524	418.62
318.753	403.62
318.983	398.62
319.212	399.62
319.441	399.62
319.67	403.62
319.9	402.62
320.129	406.62
320.358	408.62
320.587	400.62
320.816	434.62
321.046	436.62
321.275	429.62
321.504	438.62
321.733	439.62
321.962	429.62
322.191	435.62
322.42	442.62
322.649	446.62
322.878	453.62
323.108	475.62
323.337	499.62
323.566	488.62
323.795	485.62
324.024	545.62
324.253	620.62
324.482	845.62
324.71	1291.62
324.939	1893.62
325.168	1665.62
325.397	887.62
325.626	609.62
325.855	538.62
326.084	504.62
326.313	489.62
326.542	499.62
326.77	518.62
326.999	586.62
327.228	802.62
327.457	1186.62
327.686	1478.62
327.914	989.62
328.143	647.62
328.372	594.62
328.6	569.62
328.829	558.62
329.058	561.62
329.287	577.62
329.515	558.62
329.744	527.62
329.972	533.62
330.201	556.62
330.43	563.62
330.658	584.62
330.887	599.62
331.115	591.62
331.344	544.62
331.572	521.62
331.801	517.62
332.03	522.62
332.258	485.62
332.486	490.62
332.715	489.62
332.943	481.62
333.172	495.62
333.4	501.62
333.629	539.62
333.857	523.62
334.085	526.62
334.314	561.62
334.542	558.62
334.771	611.62
334.999	550.62
335.227	516.62
335.455	513.62
335.684	493.62
335.912	517.62
336.14	486.62
336.369	495.62
336.597	500.62
336.825	500.62
337.053	473.62
337.281	481.62
337.51	452.62
337.738	483.62
337.966	473.62
338.194	481.62
338.422	490.62
338.65	460.62
338.878	484.62
339.106	458.62
339.334	476.62
339.562	462.62
339.79	471.62
340.018	455.62
340.246	443.62
340.474	465.62
340.702	448.62
340.93	478.62
341.158	477.62
341.386	458.62
341.614	463.62
341.842	454.62
342.07	488.62
342.298	447.62
342.526	491.62
342.754	460.62
342.981	457.62
343.209	471.62
343.437	478.62
343.665	470.62
343.893	494.62
344.12	499.62
344.348	490.62
344.576	463.62
344.804	480.62
345.031	467.62
345.259	465.62
345.487	455.62
345.714	479.62
345.942	464.62
346.17	454.62
346.397	478.62
346.625	452.62
346.853	461.62
347.08	466.62
347.308	461.62
347.535	481.62
347.763	453.62
347.99	441.62
348.218	447.62
348.445	441.62
348.673	450.62
348.9	451.62
349.128	441.62
349.355	450.62
349.583	425.62
349.81	451.62
350.037	432.62
350.265	433.62
350.492	431.62
350.72	438.62
350.947	445.62
351.174	457.62
351.402	451.62
351.629	446.62
351.856	441.62
352.083	459.62
352.311	448.62
352.538	470.62
352.765	456.62
352.992	461.62
353.22	450.62
353.447	429.62
353.674	425.62
353.901	431.62
354.128	428.62
354.355	439.62
354.583	437.62
354.81	437.62
355.037	437.62
355.264	438.62
355.491	426.62
355.718	414.62
355.945	438.62
356.172	406.62
356.399	406.62
356.626	441.62
356.853	421.62
357.08	420.62
357.307	426.62
357.534	427.62
357.761	438.62
357.988	426.62
358.215	430.62
358.441	436.62
358.668	432.62
358.895	433.62
359.122	446.62
359.349	425.62
359.576	437.62
359.802	449.62
360.029	513.62
360.256	504.62
360.483	493.62
360.709	467.62
360.936	467.62
361.163	454.62
361.39	469.62
361.616	475.62
361.843	449.62
362.07	457.62
362.296	451.62
362.523	450.62
362.749	453.62
362.976	444.62
363.203	448.62
363.429	427.62
363.656	445.62
363.882	437.62
364.109	439.62
364.335	449.62
364.562	442.62
364.788	447.62
365.015	422.62
365.241	430.62
365.468	439.62
365.694	456.62
365.92	449.62
366.147	459.62
366.373	441.62
366.599	449.62
366.826	440.62
367.052	431.62
367.278	446.62
367.505	428.62
367.731	447.62
367.957	435.62
368.184	449.62
368.41	463.62
368.636	470.62
368.862	466.62
369.089	475.62
369.315	447.62
369.541	428.62
369.767	443.62
369.993	418.62
370.219	437.62
370.445	452.62
370.672	461.62
370.898	442.62
371.124	443.62
371.35	441.62
371.576	418.62
371.802	438.62
372.028	472.62
372.254	445.62
372.48	451.62
372.706	458.62
372.932	455.62
373.158	461.62
373.384	454.62
373.61	446.62
373.835	461.62
374.061	449.62
374.287	468.62
374.513	458.62
374.739	478.62
374.965	477.62
375.191	483.62
375.416	470.62
375.642	453.62
375.868	477.62
376.094	462.62
376.319	455.62
376.545	451.62
376.771	451.62
376.997	454.62
377.222	438.62
377.448	454.62
377.674	452.62
377.899	466.62
378.125	448.62
378.35	432.62
378.576	456.62
378.802	449.62
379.027	433.62
379.253	455.62
379.478	453.62
379.704	457.62
379.929	452.62
380.155	456.62
380.38	451.62
380.606	437.62
380.831	441.62
381.057	442.62
381.282	438.62
381.507	467.62
381.733	473.62
381.958	437.62
382.184	478.62
382.409	466.62
382.634	445.62
382.86	454.62
383.085	469.62
383.31	469.62
383.535	463.62
383.761	478.62
383.986	473.62
384.211	490.62
384.436	495.62
384.662	489.62
384.887	486.62
385.112	481.62
385.337	497.62
385.562	506.62
385.787	517.62
386.013	502.62
386.238	509.62
386.463	531.62
386.688	524.62
386.913	503.62
387.138	491.62
387.363	479.62
387.588	497.62
387.813	504.62
388.038	531.62
388.263	505.62
388.488	505.62
388.713	499.62
388.938	499.62
389.163	524.62
389.387	507.62
389.612	511.62
389.837	504.62
390.062	517.62
390.287	526.62
390.512	503.62
390.736	534.62
390.961	514.62
391.186	513.62
391.411	499.62
391.636	521.62
391.86	531.62
392.085	519.62
392.31	526.62
392.534	522.62
392.759	521.62
392.984	529.62
393.208	537.62
393.433	516.62
393.658	509.62
393.882	521.62
394.107	485.62
394.331	504.62
394.556	518.62
394.78	529.62
395.005	522.62
395.229	508.62
395.454	545.62
395.678	543.62
395.903	537.62
396.127	541.62
396.352	570.62
396.576	531.62
396.801	534.62
397.025	549.62
397.249	545.62
397.474	554.62
397.698	558.62
397.922	569.62
398.147	570.62
398.371	581.62
398.595	555.62
398.82	571.62
399.044	620.62
399.268	633.62
399.492	677.62
399.717	679.62
399.941	741.62
400.165	738.62
400.389	730.62
400.613	702.62
400.837	620.62
401.062	606.62
401.286	612.62
401.51	609.62
401.734	589.62
401.958	575.62
402.182	603.62
402.406	610.62
402.63	599.62
402.854	602.62
403.078	603.62
403.302	625.62
403.526	626.62
403.75	628.62
403.974	619.62
404.198	625.62
404.422	644.62
404.645	641.62
404.869	645.62
405.093	629.62
405.317	705.62
405.541	737.62
405.765	684.62
405.988	645.62
406.212	634.62
406.436	653.62
406.66	662.62
406.883	663.62
407.107	687.62
407.331	729.62
407.555	779.62
407.778	801.62
408.002	723.62
408.226	717.62
408.449	701.62
408.673	681.62
408.896	677.62
409.12	743.62
409.344	711.62
409.567	641.62
409.791	656.62
410.014	603.62
410.238	605.62
410.461	642.62
410.685	633.62
410.908	628.62
411.132	685.62
411.355	708.62
411.578	698.62
411.802	627.62
412.025	632.62
412.249	614.62
412.472	641.62
412.695	679.62
412.919	659.62
413.142	635.62
413.365	617.62
413.589	618.62
413.812	599.62
414.035	561.62
414.258	570.62
414.482	586.62
414.705	601.62
414.928	595.62
415.151	603.62
415.374	579.62
415.597	585.62
415.821	597.62
416.044	600.62
416.267	577.62
416.49	579.62
416.713	589.62
416.936	579.62
417.159	577.62
417.382	613.62
417.605	573.62
417.828	592.62
418.051	605.62
418.274	596.62
418.497	610.62
418.72	584.62
418.943	592.62
419.166	616.62
419.389	669.62
419.611	634.62
419.834	634.62
420.057	638.62
420.28	626.62
420.503	612.62
420.726	605.62
420.948	618.62
421.171	662.62
421.394	676.62
421.617	639.62
421.839	581.62
422.062	624.62
422.285	620.62
422.507	681.62
422.73	771.62
422.953	723.62
423.175	658.62
423.398	654.62
423.621	635.62
423.843	650.62
424.066	680.62
424.288	648.62
424.511	655.62
424.733	727.62
424.956	793.62
425.178	743.62
425.401	756.62
425.623	797.62
425.846	698.62
426.068	665.62
426.291	645.62
426.513	670.62
426.735	666.62
426.958	708.62
427.18	773.62
427.402	906.62
427.625	979.62
427.847	854.62
428.069	726.62
428.292	696.62
428.514	633.62
428.736	623.62
428.958	634.62
429.181	603.62
429.403	569.62
429.625	595.62
429.847	639.62
430.069	709.62
430.292	690.62
430.514	605.62
430.736	579.62
430.958	588.62
431.18	597.62
431.402	568.62
431.624	561.62
431.846	577.62
432.068	557.62
432.29	581.62
432.512	562.62
432.734	575.62
432.956	575.62
433.178	599.62
433.4	591.62
433.622	588.62
433.844	587.62
434.066	566.62
434.287	570.62
434.509	570.62
434.731	615.62
434.953	609.62
435.175	647.62
435.397	649.62
435.618	647.62
435.84	664.62
436.062	782.62
436.284	832.62
436.505	709.62
436.727	636.62
436.949	617.62
437.17	603.62
437.392	597.62
437.614	614.62
437.835	645.62
438.057	734.62
438.278	801.62
438.5	803.62
438.721	899.62
438.943	866.62
439.165	710.62
439.386	659.62
439.608	645.62
439.829	619.62
440.05	644.62
440.272	698.62
440.493	677.62
440.715	635.62
440.936	591.62
441.158	610.62
441.379	616.62
441.6	637.62
441.822	645.62
442.043	651.62
442.264	770.62
442.486	820.62
442.707	733.62
442.928	669.62
443.149	697.62
443.371	703.62
443.592	734.62
443.813	833.62
444.034	886.62
444.255	742.62
444.476	666.62
444.698	666.62
444.919	685.62
445.14	777.62
445.361	731.62
445.582	709.62
445.803	762.62
446.024	858.62
446.245	846.62
446.466	808.62
446.687	689.62
446.908	638.62
447.129	619.62
447.35	572.62
447.571	582.62
447.792	568.62
448.013	583.62
448.234	608.62
448.455	657.62
448.675	777.62
448.896	888.62
449.117	742.62
449.338	704.62
449.559	801.62
449.779	945.62
450	775.62
450.221	635.62
450.442	615.62
450.662	569.62
450.883	597.62
451.104	587.62
451.324	584.62
451.545	571.62
451.766	535.62
451.986	529.62
452.207	535.62
452.428	520.62
452.648	522.62
452.869	527.62
453.089	549.62
453.31	567.62
453.53	523.62
453.751	538.62
453.971	564.62
454.192	533.62
454.412	545.62
454.633	526.62
454.853	506.62
455.073	532.62
455.294	541.62
455.514	630.62
455.734	612.62
455.955	537.62
456.175	500.62
456.395	486.62
456.616	512.62
456.836	485.62
457.056	498.62
457.276	493.62
457.497	507.62
457.717	486.62
457.937	487.62
458.157	510.62
458.377	513.62
458.598	527.62
458.818	594.62
459.038	649.62
459.258	683.62
459.478	633.62
459.698	582.62
459.918	570.62
460.138	575.62
460.358	595.62
460.578	583.62
460.798	600.62
461.018	625.62
461.238	613.62
461.458	595.62
461.678	586.62
461.898	584.62
462.118	597.62
462.338	604.62
462.558	650.62
462.777	634.62
462.997	654.62
463.217	670.62
463.437	674.62
463.657	648.62
463.876	639.62
464.096	644.62
464.316	641.62
464.536	643.62
464.755	633.62
464.975	627.62
465.195	680.62
465.414	672.62
465.634	639.62
465.854	603.62
466.073	579.62
466.293	570.62
466.512	565.62
466.732	557.62
466.951	539.62
467.171	546.62
467.391	551.62
467.61	573.62
467.829	543.62
468.049	573.62
468.268	559.62
468.488	525.62
468.707	520.62
468.927	539.62
469.146	511.62
469.365	549.62
469.585	521.62
469.804	540.62
470.023	561.62
470.243	558.62
470.462	577.62
470.681	573.62
470.901	554.62
471.12	561.62
471.339	533.62
471.558	545.62
471.777	552.62
471.997	553.62
472.216	549.62
472.435	566.62
472.654	569.62
472.873	558.62
473.092	527.62
473.311	532.62
473.53	566.62
473.749	579.62
473.968	618.62
474.187	685.62
474.406	713.62
474.625	616.62
474.844	561.62
475.063	539.62
475.282	553.62
475.501	562.62
475.72	561.62
475.939	569.62
476.158	572.62
476.377	578.62
476.596	568.62
476.814	597.62
477.033	581.62
477.252	574.62
477.471	606.62
477.69	594.62
477.908	611.62
478.127	639.62
478.346	620.62
478.564	619.62
478.783	636.62
479.002	651.62
479.22	657.62
479.439	657.62
479.658	672.62
479.876	661.62
480.095	683.62
480.313	687.62
480.532	716.62
480.751	714.62
480.969	709.62
481.188	748.62
481.406	763.62
481.624	681.62
481.843	665.62
482.061	671.62
482.28	647.62
482.498	676.62
482.717	653.62
482.935	651.62
483.153	639.62
483.372	653.62
483.59	660.62
483.808	636.62
484.027	625.62
484.245	668.62
484.463	617.62
484.681	670.62
484.9	655.62
485.118	642.62
485.336	661.62
485.554	674.62
485.772	659.62
485.99	674.62
486.209	685.62
486.427	669.62
486.645	674.62
486.863	706.62
487.081	699.62
487.299	673.62
487.517	699.62
487.735	693.62
487.953	705.62
488.171	693.62
488.389	703.62
488.607	680.62
488.825	714.62
489.043	710.62
489.261	696.62
489.479	694.62
489.696	730.62
489.914	703.62
490.132	715.62
490.35	714.62
490.568	713.62
490.786	755.62
491.003	752.62
491.221	774.62
491.439	805.62
491.657	808.62
491.874	805.62
492.092	794.62
492.31	802.62
492.527	813.62
492.745	790.62
492.963	819.62
493.18	822.62
493.398	811.62
493.615	839.62
493.833	825.62
494.05	815.62
494.268	819.62
494.485	803.62
494.703	794.62
494.92	823.62
495.138	848.62
495.355	821.62
495.573	822.62
495.79	838.62
496.008	818.62
496.225	822.62
496.442	812.62
496.66	837.62
496.877	815.62
497.094	830.62
497.312	843.62
497.529	865.62
497.746	865.62
497.963	848.62
498.181	929.62
498.398	893.62
498.615	932.62
498.832	974.62
499.049	990.62
499.267	986.62
499.484	1070.62
499.701	1105.62
499.918	1170.62
500.135	1238.62
500.352	1303.62
500.569	1329.62
500.786	1320.62
501.003	1275.62
501.22	1225.62
501.437	1201.62
501.654	1148.62
501.871	1081.62
502.088	1045.62
502.305	993.62
502.522	964.62
502.739	928.62
502.956	930.62
503.172	917.62
503.389	872.62
503.606	849.62
503.823	839.62
504.04	839.62
504.256	827.62
504.473	861.62
504.69	859.62
504.907	850.62
505.123	828.62
505.34	814.62
505.557	795.62
505.773	805.62
505.99	795.62
506.207	795.62
506.423	772.62
506.64	772.62
506.856	775.62
507.073	769.62
507.289	743.62
507.506	766.62
507.722	740.62
507.939	755.62
508.155	784.62
508.372	750.62
508.588	727.62
508.805	712.62
509.021	721.62
509.238	726.62
509.454	746.62
509.67	711.62
509.887	734.62
510.103	721.62
510.319	710.62
510.536	807.62
510.752	1189.62
510.968	975.62
511.184	731.62
511.401	713.62
511.617	671.62
511.833	679.62
512.049	705.62
512.265	691.62
512.481	683.62
512.698	668.62
512.914	673.62
513.13	679.62
513.346	665.62
513.562	684.62
513.778	671.62
513.994	687.62
514.21	689.62
514.426	698.62
514.642	715.62
514.858	740.62
515.074	775.62
515.29	878.62
515.506	1181.62
515.721	1011.62
515.937	789.62
516.153	728.62
516.369	732.62
516.585	745.62
516.801	703.62
517.016	734.62
517.232	731.62
517.448	725.62
517.664	751.62
517.879	736.62
518.095	732.62
518.311	725.62
518.527	719.62
518.742	724.62
518.958	697.62
519.173	705.62
519.389	715.62
519.605	703.62
519.82	706.62
520.036	689.62
520.251	699.62
520.467	726.62
520.682	696.62
520.898	709.62
521.113	733.62
521.329	741.62
521.544	820.62
521.76	961.62
521.975	1436.62
522.19	1421.62
522.406	912.62
522.621	726.62
522.836	671.62
523.052	663.62
523.267	613.62
523.482	634.62
523.698	607.62
523.913	653.62
524.128	638.62
524.343	607.62
524.559	601.62
524.774	569.62
524.989	587.62
525.204	575.62
525.419	576.62
525.634	591.62
525.849	594.62
526.064	579.62
526.28	595.62
526.495	552.62
526.71	600.62
526.925	572.62
527.14	574.62
527.355	581.62
527.57	556.62
527.785	545.62
527.999	562.62
528.214	570.62
528.429	541.62
528.644	581.62
528.859	570.62
529.074	570.62
529.289	583.62
529.503	627.62
529.718	641.62
529.933	589.62
530.148	576.62
530.363	561.62
530.577	570.62
530.792	568.62
531.007	557.62
531.221	571.62
531.436	562.62
531.651	561.62
531.865	550.62
532.08	543.62
532.295	538.62
532.509	545.62
532.724	545.62
532.938	540.62
533.153	540.62
533.367	556.62
533.582	550.62
533.796	547.62
534.011	539.62
534.225	546.62
534.44	520.62
534.654	538.62
534.868	533.62
535.083	550.62
535.297	545.62
535.511	569.62
535.726	541.62
535.94	539.62
536.154	541.62
536.369	541.62
536.583	519.62
536.797	519.62
537.011	539.62
537.225	546.62
537.44	527.62
537.654	539.62
537.868	525.62
538.082	527.62
538.296	537.62
538.51	527.62
538.724	516.62
538.938	525.62
539.153	532.62
539.367	543.62
539.581	528.62
539.795	534.62
540.009	549.62
540.222	531.62
540.436	500.62
540.65	534.62
540.864	505.62
541.078	527.62
541.292	549.62
541.506	522.62
541.72	550.62
541.934	522.62
542.147	542.62
542.361	541.62
542.575	517.62
542.789	486.62
543.002	519.62
543.216	522.62
543.43	519.62
543.644	521.62
543.857	536.62
544.071	529.62
544.285	521.62
544.498	533.62
544.712	513.62
544.925	516.62
545.139	531.62
545.352	501.62
545.566	497.62
545.779	518.62
545.993	518.62
546.206	518.62
546.42	553.62
546.633	542.62
546.847	534.62
547.06	516.62
547.274	511.62
547.487	513.62
547.7	518.62
547.914	517.62
548.127	503.62
548.34	502.62
548.554	509.62
548.767	528.62
548.98	504.62
549.193	510.62
549.407	519.62
549.62	528.62
549.833	517.62
550.046	527.62
550.259	506.62
550.473	511.62
550.686	519.62
550.899	513.62
551.112	520.62
551.325	498.62
551.538	498.62
551.751	514.62
551.964	523.62
552.177	522.62
552.39	501.62
552.603	513.62
552.816	513.62
553.029	510.62
553.242	533.62
553.455	522.62
553.667	542.62
553.88	564.62
554.093	517.62
554.306	519.62
554.519	506.62
554.732	520.62
554.944	502.62
555.157	517.62
555.37	501.62
555.583	486.62
555.795	494.62
556.008	459.62
556.221	463.62
556.433	471.62
556.646	488.62
556.859	455.62
557.071	463.62
557.284	452.62
557.496	469.62
557.709	469.62
557.921	462.62
558.134	458.62
558.346	454.62
558.559	423.62
558.771	445.62
558.984	443.62
559.196	463.62
559.409	459.62
559.621	486.62
559.833	454.62
560.046	440.62
560.258	423.62
560.47	457.62
560.683	457.62
560.895	450.62
561.107	438.62
561.32	445.62
561.532	442.62
561.744	433.62
561.956	453.62
562.168	434.62
562.381	447.62
562.593	476.62
562.805	442.62
563.017	458.62
563.229	453.62
563.441	465.62
563.653	476.62
563.865	478.62
564.077	463.62
564.289	460.62
564.501	455.62
564.713	477.62
564.925	486.62
565.137	495.62
565.349	482.62
565.561	492.62
565.773	521.62
565.985	523.62
566.197	519.62
566.408	545.62
566.62	573.62
566.832	588.62
567.044	594.62
567.255	592.62
567.467	599.62
567.679	610.62
567.891	649.62
568.102	643.62
568.314	607.62
568.526	589.62
568.737	555.62
568.949	529.62
569.161	535.62
569.372	513.62
569.584	502.62
569.795	468.62
570.007	460.62
570.218	487.62
570.43	483.62
570.641	449.62
570.853	459.62
571.064	436.62
571.276	445.62
571.487	443.62
571.698	431.62
571.91	445.62
572.121	433.62
572.333	398.62
572.544	430.62
572.755	406.62
572.966	394.62
573.178	417.62
573.389	402.62
573.6	395.62
573.811	377.62
574.023	408.62
574.234	400.62
574.445	391.62
574.656	383.62
574.867	370.62
575.078	382.62
575.289	375.62
575.501	410.62
575.712	386.62
575.923	386.62
576.134	389.62
576.345	348.62
576.556	376.62
576.767	364.62
576.978	371.62
577.188	377.62
577.399	364.62
577.61	365.62
577.821	371.62
578.032	353.62
578.243	377.62
578.454	566.62
578.665	459.62
578.875	377.62
579.086	362.62
579.297	380.62
579.508	325.62
579.718	349.62
579.929	373.62
580.14	347.62
580.35	372.62
580.561	353.62
580.772	351.62
580.982	342.62
581.193	358.62
581.403	370.62
581.614	362.62
581.825	335.62
582.035	364.62
582.246	329.62
582.456	355.62
582.667	359.62
582.877	350.62
583.087	342.62
583.298	342.62
583.508	343.62
583.719	334.62
583.929	337.62
584.139	345.62
584.35	316.62
584.56	343.62
584.77	349.62
584.981	351.62
585.191	331.62
585.401	341.62
585.611	338.62
585.821	346.62
586.032	338.62
586.242	322.62
586.452	338.62
586.662	330.62
586.872	332.62
587.082	349.62
587.292	339.62
587.502	328.62
587.713	322.62
587.923	320.62
588.133	338.62
588.343	326.62
588.553	311.62
588.762	330.62
588.972	339.62
589.182	342.62
589.392	329.62
589.602	352.62
589.812	341.62
590.022	342.62
590.232	321.62
590.441	316.62
590.651	344.62
590.861	349.62
591.071	366.62
591.281	343.62
591.49	351.62
591.7	341.62
591.91	359.62
592.119	334.62
592.329	362.62
592.539	351.62
592.748	363.62
592.958	372.62
593.167	368.62
593.377	381.62
593.587	368.62
593.796	382.62
594.006	364.62
594.215	381.62
594.424	381.62
594.634	379.62
594.843	330.62
595.053	371.62
595.262	356.62
595.472	329.62
595.681	335.62
595.89	335.62
596.1	330.62
596.309	340.62
596.518	321.62
596.727	327.62
596.937	315.62
597.146	311.62
597.355	318.62
597.564	303.62
597.774	301.62
597.983	305.62
598.192	315.62
598.401	307.62
598.61	318.62
598.819	311.62
599.028	300.62
599.237	299.62
599.446	317.62
599.655	305.62
599.864	301.62
600.073	302.62
600.282	317.62
600.491	295.62
600.7	298.62
600.909	279.62
601.118	302.62
601.327	275.62
601.536	288.62
601.745	308.62
601.953	299.62
602.162	293.62
602.371	297.62
602.58	279.62
602.789	283.62
602.997	293.62
603.206	302.62
603.415	295.62
603.623	277.62
603.832	290.62
604.041	286.62
604.249	291.62
604.458	277.62
604.666	276.62
604.875	288.62
605.084	271.62
605.292	292.62
605.501	286.62
605.709	273.62
605.918	279.62
606.126	285.62
606.334	287.62
606.543	293.62
606.751	272.62
606.96	291.62
607.168	283.62
607.376	266.62
607.585	295.62
607.793	282.62
608.001	276.62
608.21	273.62
608.418	272.62
608.626	269.62
608.834	289.62
609.043	290.62
609.251	279.62
609.459	266.62
609.667	267.62
609.875	292.62
610.083	272.62
610.291	283.62
610.499	287.62
610.707	270.62
610.916	262.62
611.124	279.62
611.332	281.62
611.54	272.62
611.748	296.62
611.955	274.62
612.163	272.62
612.371	290.62
612.579	277.62
612.787	275.62
612.995	284.62
613.203	281.62
613.411	266.62
613.618	268.62
613.826	276.62
614.034	273.62
614.242	277.62
614.449	260.62
614.657	245.62
614.865	269.62
615.072	265.62
615.28	263.62
615.488	286.62
615.695	269.62
615.903	275.62
616.111	296.62
616.318	281.62
616.526	279.62
616.733	277.62
616.941	270.62
617.148	265.62
617.356	260.62
617.563	281.62
617.771	255.62
617.978	262.62
618.185	268.62
618.393	277.62
618.6	257.62
618.807	263.62
619.015	265.62
619.222	269.62
619.429	267.62
619.637	264.62
619.844	269.62
620.051	253.62
620.258	247.62
620.466	242.62
620.673	251.62
620.88	245.62
621.087	250.62
621.294	251.62
621.501	247.62
621.708	249.62
621.915	258.62
622.122	256.62
622.329	247.62
622.536	238.62
622.743	248.62
622.95	263.62
623.157	236.62
623.364	267.62
623.571	241.62
623.778	232.62
623.985	241.62
624.192	253.62
624.399	250.62
624.606	238.62
624.812	245.62
625.019	233.62
625.226	218.62
625.433	222.62
625.639	233.62
625.846	228.62
626.053	229.62
626.259	226.62
626.466	239.62
626.673	232.62
626.879	244.62
627.086	237.62
627.293	227.62
627.499	228.62
627.706	218.62
627.912	237.62
628.119	229.62
628.325	234.62
628.532	237.62
628.738	238.62
628.945	223.62
629.151	233.62
629.357	205.62
629.564	237.62
629.77	232.62
629.976	214.62
630.183	210.62
630.389	241.62
630.595	223.62
630.802	230.62
631.008	196.62
631.214	197.62
631.42	213.62
631.627	226.62
631.833	220.62
632.039	214.62
632.245	212.62
632.451	201.62
632.657	209.62
632.863	211.62
633.069	196.62
633.275	209.62
633.481	194.62
633.688	209.62
633.893	212.62
634.099	200.62
634.305	193.62
634.511	199.62
634.717	195.62
634.923	207.62
635.129	189.62
635.335	201.62
635.541	203.62
635.747	201.62
635.952	197.62
636.158	213.62
636.364	190.62
636.57	209.62
636.775	215.62
636.981	203.62
637.187	206.62
637.392	199.62
637.598	192.62
637.804	210.62
638.009	218.62
638.215	197.62
638.421	204.62
638.626	194.62
638.832	191.62
639.037	189.62
639.243	187.62
639.448	196.62
639.654	210.62
639.859	198.62
640.065	173.62
640.27	183.62
640.475	189.62
640.681	200.62
640.886	185.62
641.091	188.62
641.297	199.62
641.502	187.62
641.707	179.62
641.913	197.62
642.118	201.62
642.323	196.62
642.528	187.62
642.733	186.62
642.939	187.62
643.144	182.62
643.349	184.62
643.554	177.62
643.759	181.62
643.964	181.62
644.169	189.62
644.374	190.62
644.579	189.62
644.784	185.62
644.989	197.62
645.194	181.62
645.399	182.62
645.604	194.62
645.809	156.62
646.014	182.62
646.219	195.62
646.423	178.62
646.628	179.62
646.833	190.62
647.038	186.62
647.243	185.62
647.447	182.62
647.652	180.62
647.857	181.62
648.062	180.62
648.266	192.62
648.471	188.62
648.676	201.62
648.88	187.62
649.085	203.62
649.289	192.62
649.494	199.62
649.698	203.62
649.903	206.62
650.107	183.62
650.312	181.62
650.516	178.62
650.721	180.62
650.925	164.62
651.13	167.62
651.334	145.62
651.539	167.62
651.743	157.62
651.947	172.62
652.152	158.62
652.356	162.62
652.56	168.62
652.764	173.62
652.969	159.62
653.173	151.62
653.377	152.62
653.581	137.62
653.785	145.62
653.99	141.62
654.194	147.62
654.398	147.62
654.602	139.62
654.806	151.62
655.01	143.62
655.214	149.62
655.418	135.62
655.622	142.62
655.826	153.62
656.03	135.62
656.234	143.62
656.438	149.62
656.642	148.62
656.846	154.62
657.049	147.62
657.253	139.62
657.457	116.62
657.661	130.62
657.865	137.62
658.068	135.62
658.272	110.62
658.476	113.62
658.68	108.62
658.883	121.62
659.087	106.62
659.291	115.62
659.494	111.62
659.698	116.62
659.901	95.62
660.105	106.62
660.309	101.62
660.512	91.62
660.716	101.62
660.919	102.62
661.123	115.62
661.326	86.62
661.53	95.62
661.733	92.62
661.936	85.62
662.14	80.62
662.343	87.62
662.546	89.62
662.75	86.62
662.953	90.62
663.156	87.62
663.36	95.62
663.563	99.62
663.766	91.62
663.969	88.62
664.173	73.62
664.376	85.62
664.579	96.62
664.782	89.62
664.985	93.62
665.188	90.62
665.391	77.62
665.594	95.62
665.797	84.62
666	91.62
666.203	81.62
666.406	74.62
666.609	86.62
666.812	74.62
667.015	73.62
667.218	76.62
667.421	80.62
667.624	85.62
667.827	83.62
668.03	97.62
668.232	68.62
668.435	95.62
668.638	88.62
668.841	97.62
669.043	87.62
669.246	78.62
669.449	76.62
669.651	84.62
669.854	75.62
670.057	76.62
670.259	82.62
670.462	89.62
670.665	79.62
670.867	84.62
671.07	83.62
671.272	94.62
671.475	86.62
671.677	77.62
671.88	77.62
672.082	83.62
672.284	75.62
672.487	85.62
672.689	76.62
672.892	74.62
