Data from 1974.PennyLincolnUp.Lamp.En5.5.200Scan.071719.P1.Changed Mount._HRD10591_15-52-19-857.txt Node
Date: Thu Jul 18 15:52:19 EDT 2019
User: cochatt
Spectrometer: HR+D1059
Trigger mode: 1
Integration Time (sec): 1.000000E-1
Scans to average: 1
Electric dark correction enabled: true
Nonlinearity correction enabled: false
Boxcar width: 0
XAxis mode: Wavelengths
Number of Pixels in Spectrum: 2048
>>>>>Begin Spectral Data<<<<<
223.165	-18.94
223.4	-18.94
223.635	-18.94
223.869	-16.94
224.104	-23.94
224.338	-4.94
224.573	-7.94
224.808	-20.94
225.042	-0.94
225.277	-6.94
225.511	0.06
225.746	2.06
225.98	8.06
226.215	1.06
226.449	21.06
226.683	11.06
226.918	24.06
227.152	34.06
227.387	29.06
227.621	28.06
227.856	41.06
228.09	35.06
228.324	37.06
228.559	57.06
228.793	51.06
229.027	76.06
229.262	108.06
229.496	116.06
229.73	118.06
229.964	137.06
230.199	125.06
230.433	102.06
230.667	123.06
230.901	100.06
231.136	111.06
231.37	101.06
231.604	98.06
231.838	116.06
232.072	111.06
232.306	101.06
232.541	115.06
232.775	109.06
233.009	120.06
233.243	101.06
233.477	117.06
233.711	126.06
233.945	105.06
234.179	121.06
234.413	120.06
234.647	100.06
234.881	117.06
235.115	123.06
235.349	117.06
235.583	116.06
235.817	106.06
236.051	133.06
236.285	125.06
236.519	121.06
236.753	132.06
236.987	135.06
237.221	171.06
237.455	227.06
237.689	179.06
237.922	151.06
238.156	148.06
238.39	121.06
238.624	122.06
238.858	108.06
239.091	131.06
239.325	117.06
239.559	112.06
239.793	126.06
240.027	138.06
240.26	144.06
240.494	159.06
240.728	162.06
240.961	167.06
241.195	147.06
241.429	131.06
241.662	134.06
241.896	156.06
242.13	130.06
242.363	151.06
242.597	133.06
242.83	120.06
243.064	133.06
243.298	149.06
243.531	153.06
243.765	126.06
243.998	139.06
244.232	148.06
244.465	149.06
244.699	151.06
244.932	139.06
245.166	136.06
245.399	142.06
245.633	151.06
245.866	149.06
246.099	148.06
246.333	143.06
246.566	141.06
246.8	164.06
247.033	162.06
247.266	173.06
247.5	172.06
247.733	152.06
247.966	169.06
248.2	165.06
248.433	176.06
248.666	181.06
248.899	179.06
249.133	188.06
249.366	202.06
249.599	195.06
249.832	186.06
250.066	193.06
250.299	181.06
250.532	195.06
250.765	205.06
250.998	224.06
251.231	232.06
251.465	216.06
251.698	207.06
251.931	213.06
252.164	194.06
252.397	180.06
252.63	202.06
252.863	199.06
253.096	211.06
253.329	225.06
253.562	231.06
253.795	214.06
254.028	222.06
254.261	205.06
254.494	220.06
254.727	236.06
254.96	280.06
255.193	255.06
255.426	251.06
255.659	216.06
255.892	216.06
256.124	240.06
256.357	255.06
256.59	221.06
256.823	213.06
257.056	202.06
257.289	211.06
257.521	205.06
257.754	202.06
257.987	211.06
258.22	206.06
258.452	197.06
258.685	223.06
258.918	217.06
259.151	212.06
259.383	224.06
259.616	206.06
259.849	218.06
260.081	257.06
260.314	275.06
260.547	280.06
260.779	251.06
261.012	217.06
261.244	231.06
261.477	239.06
261.71	221.06
261.942	213.06
262.175	242.06
262.407	239.06
262.64	226.06
262.872	219.06
263.105	213.06
263.337	222.06
263.57	218.06
263.802	208.06
264.035	205.06
264.267	207.06
264.499	234.06
264.732	215.06
264.964	245.06
265.197	224.06
265.429	214.06
265.661	223.06
265.894	226.06
266.126	226.06
266.358	215.06
266.591	228.06
266.823	230.06
267.055	221.06
267.287	243.06
267.52	227.06
267.752	234.06
267.984	238.06
268.216	227.06
268.448	233.06
268.681	234.06
268.913	255.06
269.145	261.06
269.377	265.06
269.609	282.06
269.841	280.06
270.073	283.06
270.306	293.06
270.538	337.06
270.77	304.06
271.002	284.06
271.234	278.06
271.466	291.06
271.698	287.06
271.93	322.06
272.162	304.06
272.394	318.06
272.626	283.06
272.858	288.06
273.09	282.06
273.322	259.06
273.553	256.06
273.785	269.06
274.017	285.06
274.249	288.06
274.481	258.06
274.713	269.06
274.945	272.06
275.176	273.06
275.408	272.06
275.64	263.06
275.872	257.06
276.104	273.06
276.335	265.06
276.567	289.06
276.799	269.06
277.031	303.06
277.262	321.06
277.494	326.06
277.726	305.06
277.957	293.06
278.189	287.06
278.421	282.06
278.652	275.06
278.884	287.06
279.115	284.06
279.347	284.06
279.579	287.06
279.81	275.06
280.042	259.06
280.273	276.06
280.505	292.06
280.736	268.06
280.968	272.06
281.199	264.06
281.431	276.06
281.662	272.06
281.894	283.06
282.125	259.06
282.356	290.06
282.588	306.06
282.819	317.06
283.051	297.06
283.282	263.06
283.513	278.06
283.745	310.06
283.976	285.06
284.207	295.06
284.439	288.06
284.67	283.06
284.901	283.06
285.132	300.06
285.364	306.06
285.595	280.06
285.826	288.06
286.057	298.06
286.288	279.06
286.52	292.06
286.751	302.06
286.982	294.06
287.213	269.06
287.444	305.06
287.675	309.06
287.906	317.06
288.138	319.06
288.369	299.06
288.6	298.06
288.831	300.06
289.062	312.06
289.293	313.06
289.524	308.06
289.755	311.06
289.986	303.06
290.217	293.06
290.448	311.06
290.679	293.06
290.91	296.06
291.141	293.06
291.371	303.06
291.602	292.06
291.833	284.06
292.064	302.06
292.295	299.06
292.526	312.06
292.757	297.06
292.987	312.06
293.218	296.06
293.449	307.06
293.68	293.06
293.91	292.06
294.141	308.06
294.372	284.06
294.603	307.06
294.833	307.06
295.064	308.06
295.295	316.06
295.525	311.06
295.756	299.06
295.987	319.06
296.217	331.06
296.448	330.06
296.679	320.06
296.909	300.06
297.14	304.06
297.37	306.06
297.601	323.06
297.831	300.06
298.062	322.06
298.292	303.06
298.523	328.06
298.753	315.06
298.984	331.06
299.214	328.06
299.445	309.06
299.675	309.06
299.905	327.06
300.136	326.06
300.366	325.06
300.597	318.06
300.827	313.06
301.057	325.06
301.288	364.06
301.518	331.06
301.748	339.06
301.979	347.06
302.209	344.06
302.439	347.06
302.669	336.06
302.9	311.06
303.13	339.06
303.36	336.06
303.59	347.06
303.82	359.06
304.051	341.06
304.281	360.06
304.511	329.06
304.741	340.06
304.971	333.06
305.201	339.06
305.431	317.06
305.661	364.06
305.891	334.06
306.121	341.06
306.352	326.06
306.582	329.06
306.812	358.06
307.042	352.06
307.272	327.06
307.502	344.06
307.731	349.06
307.961	331.06
308.191	359.06
308.421	339.06
308.651	340.06
308.881	344.06
309.111	337.06
309.341	347.06
309.571	355.06
309.8	368.06
310.03	375.06
310.26	377.06
310.49	376.06
310.72	352.06
310.949	385.06
311.179	381.06
311.409	374.06
311.639	397.06
311.868	377.06
312.098	394.06
312.328	383.06
312.557	376.06
312.787	410.06
313.017	412.06
313.246	389.06
313.476	395.06
313.706	379.06
313.935	376.06
314.165	355.06
314.394	403.06
314.624	393.06
314.853	379.06
315.083	383.06
315.312	374.06
315.542	366.06
315.771	387.06
316.001	371.06
316.23	363.06
316.46	389.06
316.689	378.06
316.919	399.06
317.148	386.06
317.377	417.06
317.607	375.06
317.836	377.06
318.065	366.06
318.295	392.06
318.524	383.06
318.753	372.06
318.983	381.06
319.212	373.06
319.441	394.06
319.67	386.06
319.9	380.06
320.129	384.06
320.358	385.06
320.587	388.06
320.816	386.06
321.046	389.06
321.275	382.06
321.504	401.06
321.733	391.06
321.962	392.06
322.191	395.06
322.42	409.06
322.649	422.06
322.878	434.06
323.108	436.06
323.337	440.06
323.566	459.06
323.795	456.06
324.024	508.06
324.253	595.06
324.482	817.06
324.71	1175.06
324.939	1749.06
325.168	1516.06
325.397	787.06
325.626	583.06
325.855	479.06
326.084	480.06
326.313	465.06
326.542	464.06
326.77	503.06
326.999	563.06
327.228	723.06
327.457	1091.06
327.686	1350.06
327.914	884.06
328.143	597.06
328.372	558.06
328.6	519.06
328.829	510.06
329.058	498.06
329.287	522.06
329.515	523.06
329.744	481.06
329.972	475.06
330.201	517.06
330.43	522.06
330.658	551.06
330.887	553.06
331.115	535.06
331.344	498.06
331.572	468.06
331.801	493.06
332.03	463.06
332.258	479.06
332.486	457.06
332.715	452.06
332.943	461.06
333.172	468.06
333.4	498.06
333.629	471.06
333.857	467.06
334.085	510.06
334.314	518.06
334.542	535.06
334.771	533.06
334.999	504.06
335.227	499.06
335.455	488.06
335.684	457.06
335.912	454.06
336.14	459.06
336.369	450.06
336.597	462.06
336.825	469.06
337.053	463.06
337.281	440.06
337.51	445.06
337.738	455.06
337.966	448.06
338.194	449.06
338.422	448.06
338.65	440.06
338.878	446.06
339.106	443.06
339.334	414.06
339.562	443.06
339.79	419.06
340.018	449.06
340.246	435.06
340.474	438.06
340.702	462.06
340.93	446.06
341.158	448.06
341.386	449.06
341.614	435.06
341.842	450.06
342.07	461.06
342.298	422.06
342.526	422.06
342.754	417.06
342.981	408.06
343.209	457.06
343.437	450.06
343.665	430.06
343.893	456.06
344.12	489.06
344.348	466.06
344.576	441.06
344.804	465.06
345.031	436.06
345.259	460.06
345.487	454.06
345.714	446.06
345.942	423.06
346.17	420.06
346.397	445.06
346.625	416.06
346.853	447.06
347.08	406.06
347.308	424.06
347.535	434.06
347.763	441.06
347.99	433.06
348.218	420.06
348.445	438.06
348.673	421.06
348.9	431.06
349.128	439.06
349.355	415.06
349.583	401.06
349.81	421.06
350.037	405.06
350.265	412.06
350.492	407.06
350.72	428.06
350.947	407.06
351.174	420.06
351.402	426.06
351.629	428.06
351.856	419.06
352.083	426.06
352.311	441.06
352.538	399.06
352.765	449.06
352.992	415.06
353.22	412.06
353.447	426.06
353.674	428.06
353.901	424.06
354.128	414.06
354.355	392.06
354.583	400.06
354.81	387.06
355.037	424.06
355.264	410.06
355.491	410.06
355.718	412.06
355.945	420.06
356.172	403.06
356.399	408.06
356.626	413.06
356.853	408.06
357.08	408.06
357.307	412.06
357.534	417.06
357.761	405.06
357.988	403.06
358.215	417.06
358.441	417.06
358.668	411.06
358.895	416.06
359.122	434.06
359.349	410.06
359.576	420.06
359.802	431.06
360.029	457.06
360.256	452.06
360.483	445.06
360.709	439.06
360.936	439.06
361.163	442.06
361.39	439.06
361.616	442.06
361.843	405.06
362.07	399.06
362.296	435.06
362.523	439.06
362.749	415.06
362.976	418.06
363.203	405.06
363.429	403.06
363.656	412.06
363.882	407.06
364.109	432.06
364.335	418.06
364.562	409.06
364.788	424.06
365.015	424.06
365.241	426.06
365.468	420.06
365.694	426.06
365.92	416.06
366.147	403.06
366.373	431.06
366.599	420.06
366.826	418.06
367.052	422.06
367.278	421.06
367.505	403.06
367.731	428.06
367.957	417.06
368.184	431.06
368.41	424.06
368.636	435.06
368.862	441.06
369.089	429.06
369.315	409.06
369.541	425.06
369.767	427.06
369.993	418.06
370.219	416.06
370.445	427.06
370.672	413.06
370.898	420.06
371.124	419.06
371.35	428.06
371.576	431.06
371.802	423.06
372.028	412.06
372.254	427.06
372.48	442.06
372.706	416.06
372.932	438.06
373.158	421.06
373.384	437.06
373.61	434.06
373.835	437.06
374.061	441.06
374.287	452.06
374.513	451.06
374.739	442.06
374.965	429.06
375.191	449.06
375.416	440.06
375.642	445.06
375.868	438.06
376.094	436.06
376.319	438.06
376.545	439.06
376.771	425.06
376.997	435.06
377.222	445.06
377.448	421.06
377.674	427.06
377.899	425.06
378.125	425.06
378.35	426.06
378.576	440.06
378.802	398.06
379.027	423.06
379.253	437.06
379.478	423.06
379.704	419.06
379.929	435.06
380.155	410.06
380.38	438.06
380.606	429.06
380.831	432.06
381.057	418.06
381.282	444.06
381.507	430.06
381.733	441.06
381.958	414.06
382.184	443.06
382.409	443.06
382.634	464.06
382.86	463.06
383.085	435.06
383.31	450.06
383.535	449.06
383.761	447.06
383.986	472.06
384.211	471.06
384.436	449.06
384.662	474.06
384.887	469.06
385.112	480.06
385.337	467.06
385.562	474.06
385.787	468.06
386.013	495.06
386.238	465.06
386.463	473.06
386.688	483.06
386.913	491.06
387.138	495.06
387.363	482.06
387.588	482.06
387.813	487.06
388.038	472.06
388.263	476.06
388.488	485.06
388.713	510.06
388.938	495.06
389.163	488.06
389.387	493.06
389.612	495.06
389.837	475.06
390.062	464.06
390.287	465.06
390.512	491.06
390.736	496.06
390.961	497.06
391.186	504.06
391.411	482.06
391.636	484.06
391.86	508.06
392.085	497.06
392.31	509.06
392.534	514.06
392.759	500.06
392.984	491.06
393.208	503.06
393.433	476.06
393.658	503.06
393.882	491.06
394.107	505.06
394.331	497.06
394.556	485.06
394.78	490.06
395.005	508.06
395.229	507.06
395.454	498.06
395.678	501.06
395.903	515.06
396.127	528.06
396.352	563.06
396.576	532.06
396.801	516.06
397.025	508.06
397.249	521.06
397.474	511.06
397.698	527.06
397.922	499.06
398.147	545.06
398.371	554.06
398.595	542.06
398.82	551.06
399.044	587.06
399.268	590.06
399.492	631.06
399.717	692.06
399.941	708.06
400.165	706.06
400.389	708.06
400.613	643.06
400.837	595.06
401.062	586.06
401.286	587.06
401.51	564.06
401.734	567.06
401.958	558.06
402.182	562.06
402.406	579.06
402.63	556.06
402.854	567.06
403.078	594.06
403.302	583.06
403.526	594.06
403.75	593.06
403.974	596.06
404.198	585.06
404.422	589.06
404.645	586.06
404.869	632.06
405.093	633.06
405.317	665.06
405.541	707.06
405.765	646.06
405.988	609.06
406.212	635.06
406.436	630.06
406.66	636.06
406.883	640.06
407.107	665.06
407.331	687.06
407.555	748.06
407.778	769.06
408.002	717.06
408.226	644.06
408.449	665.06
408.673	643.06
408.896	655.06
409.12	708.06
409.344	667.06
409.567	611.06
409.791	591.06
410.014	603.06
410.238	580.06
410.461	557.06
410.685	593.06
410.908	593.06
411.132	618.06
411.355	690.06
411.578	638.06
411.802	590.06
412.025	610.06
412.249	603.06
412.472	633.06
412.695	665.06
412.919	635.06
413.142	576.06
413.365	586.06
413.589	569.06
413.812	568.06
414.035	557.06
414.258	554.06
414.482	570.06
414.705	536.06
414.928	554.06
415.151	551.06
415.374	551.06
415.597	539.06
415.821	559.06
416.044	575.06
416.267	547.06
416.49	548.06
416.713	555.06
416.936	551.06
417.159	546.06
417.382	563.06
417.605	563.06
417.828	590.06
418.051	579.06
418.274	579.06
418.497	553.06
418.72	576.06
418.943	571.06
419.166	597.06
419.389	603.06
419.611	601.06
419.834	608.06
420.057	602.06
420.28	616.06
420.503	587.06
420.726	577.06
420.948	575.06
421.171	627.06
421.394	665.06
421.617	595.06
421.839	603.06
422.062	594.06
422.285	585.06
422.507	635.06
422.73	728.06
422.953	707.06
423.175	627.06
423.398	604.06
423.621	590.06
423.843	629.06
424.066	650.06
424.288	619.06
424.511	641.06
424.733	687.06
424.956	796.06
425.178	728.06
425.401	725.06
425.623	760.06
425.846	663.06
426.068	636.06
426.291	619.06
426.513	628.06
426.735	609.06
426.958	636.06
427.18	731.06
427.402	832.06
427.625	891.06
427.847	787.06
428.069	719.06
428.292	633.06
428.514	605.06
428.736	571.06
428.958	572.06
429.181	539.06
429.403	561.06
429.625	559.06
429.847	602.06
430.069	652.06
430.292	652.06
430.514	593.06
430.736	580.06
430.958	532.06
431.18	550.06
431.402	540.06
431.624	525.06
431.846	560.06
432.068	511.06
432.29	543.06
432.512	514.06
432.734	550.06
432.956	563.06
433.178	545.06
433.4	572.06
433.622	546.06
433.844	547.06
434.066	549.06
434.287	556.06
434.509	562.06
434.731	562.06
434.953	596.06
435.175	605.06
435.397	623.06
435.618	617.06
435.84	645.06
436.062	714.06
436.284	811.06
436.505	669.06
436.727	592.06
436.949	582.06
437.17	564.06
437.392	567.06
437.614	572.06
437.835	579.06
438.057	680.06
438.278	779.06
438.5	800.06
438.721	873.06
438.943	827.06
439.165	663.06
439.386	605.06
439.608	595.06
439.829	605.06
440.05	626.06
440.272	665.06
440.493	643.06
440.715	587.06
440.936	569.06
441.158	552.06
441.379	563.06
441.6	606.06
441.822	624.06
442.043	649.06
442.264	738.06
442.486	759.06
442.707	673.06
442.928	619.06
443.149	621.06
443.371	641.06
443.592	664.06
443.813	779.06
444.034	851.06
444.255	719.06
444.476	646.06
444.698	635.06
444.919	632.06
445.14	717.06
445.361	692.06
445.582	672.06
445.803	681.06
446.024	799.06
446.245	816.06
446.466	743.06
446.687	630.06
446.908	612.06
447.129	588.06
447.35	566.06
447.571	569.06
447.792	549.06
448.013	536.06
448.234	564.06
448.455	596.06
448.675	723.06
448.896	841.06
449.117	708.06
449.338	683.06
449.559	778.06
449.779	898.06
450	741.06
450.221	632.06
450.442	575.06
450.662	541.06
450.883	516.06
451.104	540.06
451.324	529.06
451.545	514.06
451.766	514.06
451.986	510.06
452.207	501.06
452.428	485.06
452.648	487.06
452.869	508.06
453.089	524.06
453.31	530.06
453.53	516.06
453.751	502.06
453.971	487.06
454.192	507.06
454.412	507.06
454.633	493.06
454.853	474.06
455.073	472.06
455.294	539.06
455.514	570.06
455.734	547.06
455.955	499.06
456.175	495.06
456.395	470.06
456.616	457.06
456.836	470.06
457.056	452.06
457.276	445.06
457.497	481.06
457.717	470.06
457.937	476.06
458.157	473.06
458.377	497.06
458.598	495.06
458.818	531.06
459.038	633.06
459.258	641.06
459.478	552.06
459.698	544.06
459.918	532.06
460.138	534.06
460.358	555.06
460.578	563.06
460.798	573.06
461.018	558.06
461.238	555.06
461.458	552.06
461.678	539.06
461.898	550.06
462.118	566.06
462.338	569.06
462.558	581.06
462.777	602.06
462.997	604.06
463.217	635.06
463.437	644.06
463.657	636.06
463.876	611.06
464.096	646.06
464.316	612.06
464.536	605.06
464.755	606.06
464.975	578.06
465.195	599.06
465.414	649.06
465.634	589.06
465.854	561.06
466.073	554.06
466.293	512.06
466.512	521.06
466.732	521.06
466.951	518.06
467.171	529.06
467.391	537.06
467.61	513.06
467.829	529.06
468.049	536.06
468.268	493.06
468.488	515.06
468.707	517.06
468.927	507.06
469.146	487.06
469.365	500.06
469.585	507.06
469.804	513.06
470.023	501.06
470.243	525.06
470.462	523.06
470.681	543.06
470.901	543.06
471.12	516.06
471.339	529.06
471.558	481.06
471.777	521.06
471.997	514.06
472.216	527.06
472.435	541.06
472.654	543.06
472.873	524.06
473.092	527.06
473.311	523.06
473.53	520.06
473.749	546.06
473.968	555.06
474.187	630.06
474.406	673.06
474.625	563.06
474.844	527.06
475.063	519.06
475.282	527.06
475.501	540.06
475.72	523.06
475.939	519.06
476.158	543.06
476.377	521.06
476.596	547.06
476.814	541.06
477.033	538.06
477.252	549.06
477.471	535.06
477.69	551.06
477.908	581.06
478.127	596.06
478.346	606.06
478.564	588.06
478.783	606.06
479.002	597.06
479.22	623.06
479.439	607.06
479.658	620.06
479.876	632.06
480.095	659.06
480.313	664.06
480.532	645.06
480.751	643.06
480.969	678.06
481.188	681.06
481.406	708.06
481.624	640.06
481.843	609.06
482.061	628.06
482.28	610.06
482.498	616.06
482.717	604.06
482.935	623.06
483.153	615.06
483.372	611.06
483.59	625.06
483.808	602.06
484.027	604.06
484.245	609.06
484.463	625.06
484.681	662.06
484.9	621.06
485.118	641.06
485.336	623.06
485.554	626.06
485.772	622.06
485.99	607.06
486.209	633.06
486.427	623.06
486.645	620.06
486.863	666.06
487.081	643.06
487.299	651.06
487.517	663.06
487.735	670.06
487.953	655.06
488.171	654.06
488.389	663.06
488.607	650.06
488.825	657.06
489.043	646.06
489.261	651.06
489.479	661.06
489.696	671.06
489.914	676.06
490.132	682.06
490.35	694.06
490.568	685.06
490.786	707.06
491.003	703.06
491.221	726.06
491.439	739.06
491.657	735.06
491.874	756.06
492.092	759.06
492.31	771.06
492.527	774.06
492.745	752.06
492.963	737.06
493.18	809.06
493.398	789.06
493.615	803.06
493.833	795.06
494.05	805.06
494.268	780.06
494.485	777.06
494.703	796.06
494.92	755.06
495.138	787.06
495.355	781.06
495.573	790.06
495.79	770.06
496.008	767.06
496.225	786.06
496.442	777.06
496.66	797.06
496.877	813.06
497.094	800.06
497.312	836.06
497.529	791.06
497.746	832.06
497.963	810.06
498.181	865.06
498.398	861.06
498.615	893.06
498.832	910.06
499.049	936.06
499.267	950.06
499.484	1004.06
499.701	1044.06
499.918	1075.06
500.135	1172.06
500.352	1217.06
500.569	1252.06
500.786	1260.06
501.003	1233.06
501.22	1156.06
501.437	1113.06
501.654	1092.06
501.871	1056.06
502.088	975.06
502.305	927.06
502.522	930.06
502.739	904.06
502.956	877.06
503.172	867.06
503.389	827.06
503.606	845.06
503.823	808.06
504.04	809.06
504.256	800.06
504.473	797.06
504.69	799.06
504.907	792.06
505.123	771.06
505.34	753.06
505.557	735.06
505.773	759.06
505.99	750.06
506.207	711.06
506.423	736.06
506.64	738.06
506.856	725.06
507.073	707.06
507.289	715.06
507.506	714.06
507.722	709.06
507.939	731.06
508.155	696.06
508.372	695.06
508.588	679.06
508.805	695.06
509.021	710.06
509.238	698.06
509.454	712.06
509.67	688.06
509.887	697.06
510.103	671.06
510.319	704.06
510.536	757.06
510.752	1077.06
510.968	920.06
511.184	676.06
511.401	646.06
511.617	632.06
511.833	637.06
512.049	638.06
512.265	635.06
512.481	646.06
512.698	637.06
512.914	647.06
513.13	635.06
513.346	627.06
513.562	644.06
513.778	637.06
513.994	626.06
514.21	643.06
514.426	671.06
514.642	681.06
514.858	685.06
515.074	703.06
515.29	797.06
515.506	1054.06
515.721	935.06
515.937	738.06
516.153	700.06
516.369	692.06
516.585	673.06
516.801	681.06
517.016	671.06
517.232	684.06
517.448	684.06
517.664	714.06
517.879	689.06
518.095	697.06
518.311	706.06
518.527	697.06
518.742	697.06
518.958	685.06
519.173	652.06
519.389	662.06
519.605	632.06
519.82	636.06
520.036	650.06
520.251	685.06
520.467	675.06
520.682	700.06
520.898	673.06
521.113	666.06
521.329	697.06
521.544	744.06
521.76	874.06
521.975	1303.06
522.19	1272.06
522.406	784.06
522.621	674.06
522.836	638.06
523.052	610.06
523.267	597.06
523.482	586.06
523.698	599.06
523.913	585.06
524.128	584.06
524.343	560.06
524.559	572.06
524.774	552.06
524.989	564.06
525.204	563.06
525.419	559.06
525.634	564.06
525.849	563.06
526.064	539.06
526.28	551.06
526.495	546.06
526.71	543.06
526.925	551.06
527.14	544.06
527.355	539.06
527.57	534.06
527.785	540.06
527.999	519.06
528.214	560.06
528.429	521.06
528.644	533.06
528.859	555.06
529.074	556.06
529.289	558.06
529.503	587.06
529.718	569.06
529.933	570.06
530.148	552.06
530.363	554.06
530.577	526.06
530.792	553.06
531.007	526.06
531.221	532.06
531.436	534.06
531.651	528.06
531.865	537.06
532.08	501.06
532.295	545.06
532.509	520.06
532.724	510.06
532.938	506.06
533.153	521.06
533.367	532.06
533.582	505.06
533.796	519.06
534.011	526.06
534.225	519.06
534.44	515.06
534.654	512.06
534.868	497.06
535.083	519.06
535.297	504.06
535.511	516.06
535.726	542.06
535.94	513.06
536.154	500.06
536.369	522.06
536.583	489.06
536.797	500.06
537.011	507.06
537.225	483.06
537.44	495.06
537.654	492.06
537.868	499.06
538.082	492.06
538.296	507.06
538.51	492.06
538.724	544.06
538.938	502.06
539.153	504.06
539.367	506.06
539.581	500.06
539.795	498.06
540.009	488.06
540.222	488.06
540.436	490.06
540.65	496.06
540.864	490.06
541.078	511.06
541.292	485.06
541.506	507.06
541.72	511.06
541.934	526.06
542.147	514.06
542.361	477.06
542.575	522.06
542.789	470.06
543.002	497.06
543.216	482.06
543.43	495.06
543.644	490.06
543.857	482.06
544.071	504.06
544.285	491.06
544.498	498.06
544.712	510.06
544.925	497.06
545.139	467.06
545.352	479.06
545.566	487.06
545.779	500.06
545.993	485.06
546.206	473.06
546.42	501.06
546.633	480.06
546.847	493.06
547.06	493.06
547.274	480.06
547.487	510.06
547.7	471.06
547.914	492.06
548.127	471.06
548.34	491.06
548.554	486.06
548.767	468.06
548.98	483.06
549.193	489.06
549.407	484.06
549.62	485.06
549.833	473.06
550.046	471.06
550.259	509.06
550.473	477.06
550.686	477.06
550.899	473.06
551.112	471.06
551.325	479.06
551.538	476.06
551.751	478.06
551.964	467.06
552.177	465.06
552.39	483.06
552.603	484.06
552.816	508.06
553.029	492.06
553.242	491.06
553.455	514.06
553.667	518.06
553.88	537.06
554.093	520.06
554.306	484.06
554.519	469.06
554.732	496.06
554.944	480.06
555.157	467.06
555.37	479.06
555.583	481.06
555.795	477.06
556.008	473.06
556.221	448.06
556.433	459.06
556.646	452.06
556.859	420.06
557.071	424.06
557.284	450.06
557.496	433.06
557.709	451.06
557.921	431.06
558.134	436.06
558.346	443.06
558.559	453.06
558.771	438.06
558.984	449.06
559.196	436.06
559.409	407.06
559.621	429.06
559.833	418.06
560.046	417.06
560.258	431.06
560.47	429.06
560.683	424.06
560.895	441.06
561.107	440.06
561.32	419.06
561.532	433.06
561.744	446.06
561.956	437.06
562.168	424.06
562.381	425.06
562.593	439.06
562.805	428.06
563.017	437.06
563.229	433.06
563.441	454.06
563.653	455.06
563.865	456.06
564.077	422.06
564.289	457.06
564.501	443.06
564.713	460.06
564.925	434.06
565.137	467.06
565.349	472.06
565.561	465.06
565.773	484.06
565.985	491.06
566.197	505.06
566.408	505.06
566.62	557.06
566.832	577.06
567.044	565.06
567.255	562.06
567.467	578.06
567.679	581.06
567.891	592.06
568.102	611.06
568.314	585.06
568.526	542.06
568.737	521.06
568.949	504.06
569.161	485.06
569.372	473.06
569.584	457.06
569.795	451.06
570.007	440.06
570.218	475.06
570.43	447.06
570.641	446.06
570.853	449.06
571.064	431.06
571.276	416.06
571.487	436.06
571.698	423.06
571.91	397.06
572.121	409.06
572.333	373.06
572.544	402.06
572.755	395.06
572.966	385.06
573.178	392.06
573.389	392.06
573.6	397.06
573.811	370.06
574.023	369.06
574.234	374.06
574.445	387.06
574.656	367.06
574.867	369.06
575.078	353.06
575.289	354.06
575.501	355.06
575.712	357.06
575.923	370.06
576.134	352.06
576.345	355.06
576.556	366.06
576.767	355.06
576.978	362.06
577.188	347.06
577.399	350.06
577.61	348.06
577.821	347.06
578.032	345.06
578.243	364.06
578.454	487.06
578.665	418.06
578.875	349.06
579.086	343.06
579.297	352.06
579.508	361.06
579.718	358.06
579.929	345.06
580.14	344.06
580.35	349.06
580.561	350.06
580.772	334.06
580.982	338.06
581.193	343.06
581.403	340.06
581.614	323.06
581.825	348.06
582.035	330.06
582.246	343.06
582.456	336.06
582.667	327.06
582.877	344.06
583.087	335.06
583.298	331.06
583.508	344.06
583.719	318.06
583.929	339.06
584.139	332.06
584.35	301.06
584.56	319.06
584.77	331.06
584.981	321.06
585.191	324.06
585.401	326.06
585.611	321.06
585.821	321.06
586.032	332.06
586.242	311.06
586.452	329.06
586.662	327.06
586.872	331.06
587.082	324.06
587.292	325.06
587.502	326.06
587.713	324.06
587.923	314.06
588.133	320.06
588.343	321.06
588.553	332.06
588.762	320.06
588.972	314.06
589.182	323.06
589.392	315.06
589.602	308.06
589.812	300.06
590.022	308.06
590.232	316.06
590.441	324.06
590.651	318.06
590.861	323.06
591.071	328.06
591.281	321.06
591.49	324.06
591.7	339.06
591.91	358.06
592.119	350.06
592.329	339.06
592.539	362.06
592.748	356.06
592.958	363.06
593.167	356.06
593.377	341.06
593.587	353.06
593.796	361.06
594.006	357.06
594.215	378.06
594.424	348.06
594.634	340.06
594.843	351.06
595.053	327.06
595.262	348.06
595.472	330.06
595.681	327.06
595.89	315.06
596.1	305.06
596.309	299.06
596.518	313.06
596.727	307.06
596.937	307.06
597.146	289.06
597.355	300.06
597.564	309.06
597.774	294.06
597.983	303.06
598.192	289.06
598.401	289.06
598.61	263.06
598.819	289.06
599.028	286.06
599.237	297.06
599.446	306.06
599.655	296.06
599.864	289.06
600.073	277.06
600.282	283.06
600.491	293.06
600.7	273.06
600.909	280.06
601.118	280.06
601.327	277.06
601.536	284.06
601.745	287.06
601.953	276.06
602.162	291.06
602.371	267.06
602.58	268.06
602.789	281.06
602.997	271.06
603.206	293.06
603.415	286.06
603.623	276.06
603.832	278.06
604.041	277.06
604.249	270.06
604.458	257.06
604.666	268.06
604.875	276.06
605.084	267.06
605.292	261.06
605.501	268.06
605.709	246.06
605.918	248.06
606.126	262.06
606.334	265.06
606.543	264.06
606.751	281.06
606.96	274.06
607.168	267.06
607.376	270.06
607.585	269.06
607.793	259.06
608.001	269.06
608.21	253.06
608.418	255.06
608.626	267.06
608.834	275.06
609.043	257.06
609.251	292.06
609.459	267.06
609.667	258.06
609.875	250.06
610.083	264.06
610.291	266.06
610.499	270.06
610.707	275.06
610.916	243.06
611.124	274.06
611.332	260.06
611.54	281.06
611.748	283.06
611.955	270.06
612.163	289.06
612.371	283.06
612.579	255.06
612.787	261.06
612.995	276.06
613.203	266.06
613.411	256.06
613.618	254.06
613.826	242.06
614.034	252.06
614.242	275.06
614.449	257.06
614.657	261.06
614.865	242.06
615.072	263.06
615.28	250.06
615.488	244.06
615.695	260.06
615.903	259.06
616.111	259.06
616.318	255.06
616.526	273.06
616.733	263.06
616.941	255.06
617.148	268.06
617.356	244.06
617.563	263.06
617.771	263.06
617.978	260.06
618.185	251.06
618.393	255.06
618.6	252.06
618.807	235.06
619.015	245.06
619.222	247.06
619.429	252.06
619.637	232.06
619.844	255.06
620.051	255.06
620.258	240.06
620.466	232.06
620.673	215.06
620.88	236.06
621.087	237.06
621.294	245.06
621.501	243.06
621.708	242.06
621.915	243.06
622.122	241.06
622.329	230.06
622.536	232.06
622.743	248.06
622.95	244.06
623.157	231.06
623.364	240.06
623.571	230.06
623.778	220.06
623.985	236.06
624.192	235.06
624.399	229.06
624.606	230.06
624.812	243.06
625.019	230.06
625.226	222.06
625.433	229.06
625.639	203.06
625.846	226.06
626.053	229.06
626.259	223.06
626.466	221.06
626.673	218.06
626.879	223.06
627.086	205.06
627.293	223.06
627.499	219.06
627.706	219.06
627.912	223.06
628.119	213.06
628.325	224.06
628.532	217.06
628.738	226.06
628.945	232.06
629.151	219.06
629.357	221.06
629.564	217.06
629.77	202.06
629.976	221.06
630.183	211.06
630.389	219.06
630.595	228.06
630.802	212.06
631.008	197.06
631.214	210.06
631.42	204.06
631.627	202.06
631.833	209.06
632.039	213.06
632.245	218.06
632.451	209.06
632.657	227.06
632.863	205.06
633.069	201.06
633.275	213.06
633.481	203.06
633.688	226.06
633.893	215.06
634.099	215.06
634.305	212.06
634.511	199.06
634.717	201.06
634.923	202.06
635.129	177.06
635.335	181.06
635.541	193.06
635.747	197.06
635.952	196.06
636.158	184.06
636.364	210.06
636.57	208.06
636.775	193.06
636.981	193.06
637.187	194.06
637.392	185.06
637.598	191.06
637.804	199.06
638.009	185.06
638.215	211.06
638.421	190.06
638.626	197.06
638.832	195.06
639.037	196.06
639.243	185.06
639.448	197.06
639.654	180.06
639.859	178.06
640.065	180.06
640.27	193.06
640.475	195.06
640.681	175.06
640.886	186.06
641.091	184.06
641.297	184.06
641.502	179.06
641.707	177.06
641.913	184.06
642.118	197.06
642.323	172.06
642.528	182.06
642.733	169.06
642.939	195.06
643.144	184.06
643.349	186.06
643.554	189.06
643.759	181.06
643.964	170.06
644.169	193.06
644.374	169.06
644.579	177.06
644.784	179.06
644.989	172.06
645.194	184.06
645.399	192.06
645.604	159.06
645.809	179.06
646.014	176.06
646.219	186.06
646.423	177.06
646.628	190.06
646.833	183.06
647.038	179.06
647.243	186.06
647.447	181.06
647.652	173.06
647.857	189.06
648.062	179.06
648.266	194.06
648.471	203.06
648.676	184.06
648.88	195.06
649.085	187.06
649.289	183.06
649.494	184.06
649.698	182.06
649.903	192.06
650.107	182.06
650.312	180.06
650.516	190.06
650.721	178.06
650.925	180.06
651.13	163.06
651.334	163.06
651.539	161.06
651.743	164.06
651.947	160.06
652.152	154.06
652.356	155.06
652.56	167.06
652.764	145.06
652.969	159.06
653.173	137.06
653.377	146.06
653.581	143.06
653.785	132.06
653.99	143.06
654.194	139.06
654.398	147.06
654.602	135.06
654.806	137.06
655.01	147.06
655.214	141.06
655.418	159.06
655.622	138.06
655.826	129.06
656.03	123.06
656.234	134.06
656.438	148.06
656.642	140.06
656.846	141.06
657.049	137.06
657.253	141.06
657.457	131.06
657.661	116.06
657.865	129.06
658.068	119.06
658.272	112.06
658.476	108.06
658.68	117.06
658.883	116.06
659.087	121.06
659.291	103.06
659.494	98.06
659.698	95.06
659.901	85.06
660.105	90.06
660.309	98.06
660.512	94.06
660.716	88.06
660.919	91.06
661.123	80.06
661.326	93.06
661.53	93.06
661.733	91.06
661.936	85.06
662.14	87.06
662.343	92.06
662.546	76.06
662.75	96.06
662.953	99.06
663.156	75.06
663.36	78.06
663.563	86.06
663.766	86.06
663.969	84.06
664.173	87.06
664.376	91.06
664.579	94.06
664.782	91.06
664.985	84.06
665.188	97.06
665.391	95.06
665.594	84.06
665.797	81.06
666	87.06
666.203	73.06
666.406	86.06
666.609	83.06
666.812	80.06
667.015	83.06
667.218	90.06
667.421	88.06
667.624	88.06
667.827	83.06
668.03	66.06
668.232	93.06
668.435	70.06
668.638	84.06
668.841	101.06
669.043	80.06
669.246	75.06
669.449	76.06
669.651	85.06
669.854	91.06
670.057	77.06
670.259	79.06
670.462	68.06
670.665	81.06
670.867	84.06
671.07	77.06
671.272	88.06
671.475	93.06
671.677	85.06
671.88	77.06
672.082	86.06
672.284	79.06
672.487	95.06
672.689	82.06
672.892	79.06
