Data from 1974.PennyLincolnUp.Lamp.En5.5.200Scan.071719.P1.Changed Mount._HRD10591_15-53-35-857.txt Node
Date: Thu Jul 18 15:53:35 EDT 2019
User: cochatt
Spectrometer: HR+D1059
Trigger mode: 1
Integration Time (sec): 1.000000E-1
Scans to average: 1
Electric dark correction enabled: true
Nonlinearity correction enabled: false
Boxcar width: 0
XAxis mode: Wavelengths
Number of Pixels in Spectrum: 2048
>>>>>Begin Spectral Data<<<<<
223.165	-19.5
223.4	-19.5
223.635	-19.5
223.869	-8.5
224.104	-15.5
224.338	-26.5
224.573	-10.5
224.808	-10.5
225.042	-7.5
225.277	-6.5
225.511	-3.5
225.746	3.5
225.98	8.5
226.215	6.5
226.449	19.5
226.683	15.5
226.918	22.5
227.152	32.5
227.387	46.5
227.621	14.5
227.856	33.5
228.09	37.5
228.324	38.5
228.559	44.5
228.793	69.5
229.027	108.5
229.262	109.5
229.496	107.5
229.73	132.5
229.964	153.5
230.199	127.5
230.433	120.5
230.667	119.5
230.901	115.5
231.136	106.5
231.37	123.5
231.604	110.5
231.838	119.5
232.072	129.5
232.306	116.5
232.541	116.5
232.775	134.5
233.009	113.5
233.243	123.5
233.477	127.5
233.711	129.5
233.945	125.5
234.179	127.5
234.413	135.5
234.647	125.5
234.881	120.5
235.115	138.5
235.349	133.5
235.583	125.5
235.817	121.5
236.051	139.5
236.285	140.5
236.519	138.5
236.753	143.5
236.987	141.5
237.221	190.5
237.455	229.5
237.689	176.5
237.922	145.5
238.156	150.5
238.39	139.5
238.624	138.5
238.858	143.5
239.091	131.5
239.325	132.5
239.559	152.5
239.793	142.5
240.027	151.5
240.26	149.5
240.494	167.5
240.728	172.5
240.961	169.5
241.195	155.5
241.429	149.5
241.662	139.5
241.896	157.5
242.13	146.5
242.363	152.5
242.597	151.5
242.83	150.5
243.064	160.5
243.298	157.5
243.531	147.5
243.765	159.5
243.998	168.5
244.232	153.5
244.465	152.5
244.699	169.5
244.932	156.5
245.166	167.5
245.399	172.5
245.633	173.5
245.866	154.5
246.099	167.5
246.333	173.5
246.566	170.5
246.8	156.5
247.033	179.5
247.266	164.5
247.5	168.5
247.733	180.5
247.966	189.5
248.2	193.5
248.433	190.5
248.666	195.5
248.899	205.5
249.133	215.5
249.366	224.5
249.599	202.5
249.832	208.5
250.066	203.5
250.299	203.5
250.532	200.5
250.765	225.5
250.998	256.5
251.231	236.5
251.465	230.5
251.698	213.5
251.931	228.5
252.164	222.5
252.397	211.5
252.63	215.5
252.863	222.5
253.096	243.5
253.329	235.5
253.562	251.5
253.795	229.5
254.028	243.5
254.261	246.5
254.494	236.5
254.727	272.5
254.96	297.5
255.193	296.5
255.426	276.5
255.659	241.5
255.892	228.5
256.124	263.5
256.357	260.5
256.59	248.5
256.823	244.5
257.056	237.5
257.289	223.5
257.521	221.5
257.754	222.5
257.987	232.5
258.22	246.5
258.452	209.5
258.685	219.5
258.918	219.5
259.151	248.5
259.383	248.5
259.616	238.5
259.849	236.5
260.081	246.5
260.314	266.5
260.547	272.5
260.779	262.5
261.012	251.5
261.244	240.5
261.477	247.5
261.71	236.5
261.942	238.5
262.175	264.5
262.407	254.5
262.64	235.5
262.872	259.5
263.105	231.5
263.337	244.5
263.57	232.5
263.802	243.5
264.035	238.5
264.267	225.5
264.499	236.5
264.732	232.5
264.964	252.5
265.197	240.5
265.429	245.5
265.661	235.5
265.894	246.5
266.126	232.5
266.358	230.5
266.591	246.5
266.823	247.5
267.055	264.5
267.287	257.5
267.52	268.5
267.752	251.5
267.984	232.5
268.216	249.5
268.448	235.5
268.681	260.5
268.913	274.5
269.145	290.5
269.377	303.5
269.609	291.5
269.841	269.5
270.073	286.5
270.306	287.5
270.538	335.5
270.77	350.5
271.002	321.5
271.234	305.5
271.466	341.5
271.698	326.5
271.93	356.5
272.162	336.5
272.394	349.5
272.626	320.5
272.858	294.5
273.09	308.5
273.322	294.5
273.553	300.5
273.785	295.5
274.017	291.5
274.249	314.5
274.481	311.5
274.713	288.5
274.945	292.5
275.176	294.5
275.408	291.5
275.64	313.5
275.872	300.5
276.104	281.5
276.335	281.5
276.567	292.5
276.799	289.5
277.031	342.5
277.262	326.5
277.494	337.5
277.726	331.5
277.957	311.5
278.189	311.5
278.421	306.5
278.652	286.5
278.884	284.5
279.115	302.5
279.347	278.5
279.579	297.5
279.81	318.5
280.042	296.5
280.273	309.5
280.505	295.5
280.736	292.5
280.968	311.5
281.199	275.5
281.431	299.5
281.662	310.5
281.894	290.5
282.125	310.5
282.356	334.5
282.588	345.5
282.819	349.5
283.051	309.5
283.282	302.5
283.513	309.5
283.745	321.5
283.976	312.5
284.207	317.5
284.439	339.5
284.67	304.5
284.901	317.5
285.132	309.5
285.364	308.5
285.595	300.5
285.826	295.5
286.057	322.5
286.288	317.5
286.52	317.5
286.751	310.5
286.982	310.5
287.213	302.5
287.444	345.5
287.675	317.5
287.906	342.5
288.138	363.5
288.369	346.5
288.6	335.5
288.831	324.5
289.062	323.5
289.293	340.5
289.524	328.5
289.755	324.5
289.986	368.5
290.217	334.5
290.448	307.5
290.679	332.5
290.91	329.5
291.141	327.5
291.371	324.5
291.602	343.5
291.833	322.5
292.064	339.5
292.295	326.5
292.526	315.5
292.757	330.5
292.987	335.5
293.218	310.5
293.449	324.5
293.68	333.5
293.91	329.5
294.141	339.5
294.372	329.5
294.603	331.5
294.833	344.5
295.064	317.5
295.295	335.5
295.525	323.5
295.756	347.5
295.987	340.5
296.217	383.5
296.448	362.5
296.679	355.5
296.909	334.5
297.14	332.5
297.37	334.5
297.601	345.5
297.831	349.5
298.062	340.5
298.292	339.5
298.523	348.5
298.753	354.5
298.984	339.5
299.214	316.5
299.445	344.5
299.675	355.5
299.905	345.5
300.136	340.5
300.366	343.5
300.597	331.5
300.827	339.5
301.057	375.5
301.288	379.5
301.518	362.5
301.748	358.5
301.979	371.5
302.209	380.5
302.439	371.5
302.669	379.5
302.9	392.5
303.13	375.5
303.36	357.5
303.59	371.5
303.82	364.5
304.051	367.5
304.281	373.5
304.511	378.5
304.741	363.5
304.971	359.5
305.201	376.5
305.431	369.5
305.661	379.5
305.891	366.5
306.121	379.5
306.352	368.5
306.582	362.5
306.812	382.5
307.042	366.5
307.272	375.5
307.502	374.5
307.731	373.5
307.961	373.5
308.191	371.5
308.421	365.5
308.651	375.5
308.881	368.5
309.111	390.5
309.341	377.5
309.571	379.5
309.8	387.5
310.03	407.5
310.26	409.5
310.49	399.5
310.72	414.5
310.949	426.5
311.179	433.5
311.409	413.5
311.639	415.5
311.868	407.5
312.098	422.5
312.328	412.5
312.557	409.5
312.787	428.5
313.017	422.5
313.246	412.5
313.476	413.5
313.706	410.5
313.935	411.5
314.165	426.5
314.394	430.5
314.624	428.5
314.853	429.5
315.083	422.5
315.312	421.5
315.542	398.5
315.771	405.5
316.001	401.5
316.23	410.5
316.46	405.5
316.689	419.5
316.919	429.5
317.148	426.5
317.377	453.5
317.607	428.5
317.836	426.5
318.065	420.5
318.295	431.5
318.524	437.5
318.753	397.5
318.983	426.5
319.212	419.5
319.441	433.5
319.67	416.5
319.9	401.5
320.129	392.5
320.358	428.5
320.587	429.5
320.816	432.5
321.046	460.5
321.275	435.5
321.504	416.5
321.733	436.5
321.962	449.5
322.191	429.5
322.42	455.5
322.649	457.5
322.878	476.5
323.108	490.5
323.337	485.5
323.566	526.5
323.795	530.5
324.024	566.5
324.253	678.5
324.482	888.5
324.71	1325.5
324.939	1964.5
325.168	1725.5
325.397	885.5
325.626	641.5
325.855	551.5
326.084	534.5
326.313	512.5
326.542	490.5
326.77	522.5
326.999	608.5
327.228	804.5
327.457	1205.5
327.686	1520.5
327.914	1012.5
328.143	673.5
328.372	616.5
328.6	611.5
328.829	557.5
329.058	584.5
329.287	579.5
329.515	575.5
329.744	548.5
329.972	529.5
330.201	567.5
330.43	578.5
330.658	569.5
330.887	617.5
331.115	625.5
331.344	544.5
331.572	545.5
331.801	527.5
332.03	529.5
332.258	534.5
332.486	530.5
332.715	510.5
332.943	505.5
333.172	513.5
333.4	532.5
333.629	536.5
333.857	536.5
334.085	537.5
334.314	572.5
334.542	599.5
334.771	620.5
334.999	577.5
335.227	524.5
335.455	525.5
335.684	518.5
335.912	516.5
336.14	503.5
336.369	504.5
336.597	508.5
336.825	503.5
337.053	518.5
337.281	503.5
337.51	490.5
337.738	498.5
337.966	499.5
338.194	488.5
338.422	493.5
338.65	484.5
338.878	485.5
339.106	477.5
339.334	479.5
339.562	483.5
339.79	466.5
340.018	494.5
340.246	491.5
340.474	471.5
340.702	476.5
340.93	485.5
341.158	468.5
341.386	492.5
341.614	485.5
341.842	494.5
342.07	483.5
342.298	485.5
342.526	466.5
342.754	475.5
342.981	458.5
343.209	464.5
343.437	468.5
343.665	477.5
343.893	505.5
344.12	514.5
344.348	503.5
344.576	485.5
344.804	492.5
345.031	503.5
345.259	519.5
345.487	512.5
345.714	485.5
345.942	489.5
346.17	476.5
346.397	475.5
346.625	482.5
346.853	477.5
347.08	465.5
347.308	470.5
347.535	473.5
347.763	489.5
347.99	495.5
348.218	461.5
348.445	488.5
348.673	463.5
348.9	461.5
349.128	451.5
349.355	454.5
349.583	460.5
349.81	461.5
350.037	445.5
350.265	440.5
350.492	448.5
350.72	446.5
350.947	469.5
351.174	461.5
351.402	478.5
351.629	471.5
351.856	469.5
352.083	473.5
352.311	484.5
352.538	478.5
352.765	460.5
352.992	459.5
353.22	475.5
353.447	482.5
353.674	461.5
353.901	460.5
354.128	464.5
354.355	427.5
354.583	459.5
354.81	448.5
355.037	462.5
355.264	447.5
355.491	453.5
355.718	456.5
355.945	430.5
356.172	423.5
356.399	432.5
356.626	457.5
356.853	452.5
357.08	440.5
357.307	452.5
357.534	463.5
357.761	449.5
357.988	437.5
358.215	431.5
358.441	447.5
358.668	456.5
358.895	446.5
359.122	449.5
359.349	463.5
359.576	452.5
359.802	470.5
360.029	492.5
360.256	508.5
360.483	501.5
360.709	468.5
360.936	460.5
361.163	462.5
361.39	481.5
361.616	469.5
361.843	461.5
362.07	451.5
362.296	473.5
362.523	485.5
362.749	500.5
362.976	466.5
363.203	484.5
363.429	433.5
363.656	449.5
363.882	468.5
364.109	462.5
364.335	463.5
364.562	441.5
364.788	446.5
365.015	459.5
365.241	465.5
365.468	471.5
365.694	477.5
365.92	461.5
366.147	429.5
366.373	470.5
366.599	469.5
366.826	459.5
367.052	436.5
367.278	438.5
367.505	457.5
367.731	462.5
367.957	469.5
368.184	454.5
368.41	460.5
368.636	461.5
368.862	482.5
369.089	471.5
369.315	448.5
369.541	457.5
369.767	459.5
369.993	459.5
370.219	480.5
370.445	453.5
370.672	454.5
370.898	457.5
371.124	461.5
371.35	469.5
371.576	467.5
371.802	452.5
372.028	460.5
372.254	450.5
372.48	460.5
372.706	482.5
372.932	473.5
373.158	476.5
373.384	470.5
373.61	448.5
373.835	449.5
374.061	468.5
374.287	474.5
374.513	459.5
374.739	500.5
374.965	504.5
375.191	472.5
375.416	500.5
375.642	491.5
375.868	472.5
376.094	461.5
376.319	471.5
376.545	484.5
376.771	462.5
376.997	485.5
377.222	475.5
377.448	462.5
377.674	442.5
377.899	475.5
378.125	440.5
378.35	463.5
378.576	464.5
378.802	462.5
379.027	456.5
379.253	454.5
379.478	456.5
379.704	475.5
379.929	475.5
380.155	458.5
380.38	467.5
380.606	479.5
380.831	468.5
381.057	465.5
381.282	466.5
381.507	475.5
381.733	488.5
381.958	487.5
382.184	483.5
382.409	482.5
382.634	472.5
382.86	476.5
383.085	478.5
383.31	473.5
383.535	494.5
383.761	524.5
383.986	503.5
384.211	494.5
384.436	503.5
384.662	524.5
384.887	517.5
385.112	523.5
385.337	499.5
385.562	504.5
385.787	519.5
386.013	524.5
386.238	554.5
386.463	547.5
386.688	525.5
386.913	526.5
387.138	540.5
387.363	503.5
387.588	522.5
387.813	517.5
388.038	537.5
388.263	531.5
388.488	527.5
388.713	529.5
388.938	522.5
389.163	519.5
389.387	517.5
389.612	517.5
389.837	528.5
390.062	513.5
390.287	520.5
390.512	527.5
390.736	525.5
390.961	502.5
391.186	533.5
391.411	519.5
391.636	525.5
391.86	551.5
392.085	575.5
392.31	543.5
392.534	557.5
392.759	532.5
392.984	535.5
393.208	550.5
393.433	542.5
393.658	528.5
393.882	521.5
394.107	542.5
394.331	539.5
394.556	544.5
394.78	533.5
395.005	542.5
395.229	539.5
395.454	565.5
395.678	553.5
395.903	561.5
396.127	559.5
396.352	586.5
396.576	582.5
396.801	564.5
397.025	565.5
397.249	566.5
397.474	567.5
397.698	581.5
397.922	587.5
398.147	596.5
398.371	613.5
398.595	603.5
398.82	607.5
399.044	613.5
399.268	647.5
399.492	708.5
399.717	750.5
399.941	774.5
400.165	784.5
400.389	757.5
400.613	704.5
400.837	645.5
401.062	640.5
401.286	621.5
401.51	627.5
401.734	611.5
401.958	608.5
402.182	635.5
402.406	605.5
402.63	632.5
402.854	640.5
403.078	634.5
403.302	640.5
403.526	659.5
403.75	651.5
403.974	649.5
404.198	625.5
404.422	657.5
404.645	661.5
404.869	647.5
405.093	705.5
405.317	738.5
405.541	761.5
405.765	699.5
405.988	680.5
406.212	673.5
406.436	698.5
406.66	701.5
406.883	707.5
407.107	707.5
407.331	739.5
407.555	839.5
407.778	868.5
408.002	789.5
408.226	728.5
408.449	717.5
408.673	709.5
408.896	732.5
409.12	767.5
409.344	740.5
409.567	687.5
409.791	672.5
410.014	647.5
410.238	652.5
410.461	659.5
410.685	661.5
410.908	646.5
411.132	728.5
411.355	740.5
411.578	715.5
411.802	637.5
412.025	661.5
412.249	670.5
412.472	669.5
412.695	732.5
412.919	706.5
413.142	667.5
413.365	653.5
413.589	639.5
413.812	622.5
414.035	604.5
414.258	623.5
414.482	621.5
414.705	584.5
414.928	610.5
415.151	609.5
415.374	607.5
415.597	610.5
415.821	572.5
416.044	604.5
416.267	591.5
416.49	592.5
416.713	592.5
416.936	613.5
417.159	600.5
417.382	616.5
417.605	603.5
417.828	624.5
418.051	633.5
418.274	633.5
418.497	643.5
418.72	614.5
418.943	611.5
419.166	639.5
419.389	666.5
419.611	662.5
419.834	645.5
420.057	649.5
420.28	640.5
420.503	647.5
420.726	648.5
420.948	649.5
421.171	687.5
421.394	734.5
421.617	653.5
421.839	659.5
422.062	646.5
422.285	656.5
422.507	714.5
422.73	779.5
422.953	764.5
423.175	669.5
423.398	675.5
423.621	661.5
423.843	657.5
424.066	695.5
424.288	685.5
424.511	715.5
424.733	754.5
424.956	812.5
425.178	780.5
425.401	814.5
425.623	815.5
425.846	720.5
426.068	693.5
426.291	652.5
426.513	654.5
426.735	677.5
426.958	710.5
427.18	786.5
427.402	936.5
427.625	988.5
427.847	863.5
428.069	775.5
428.292	703.5
428.514	629.5
428.736	605.5
428.958	633.5
429.181	611.5
429.403	601.5
429.625	629.5
429.847	656.5
430.069	745.5
430.292	742.5
430.514	637.5
430.736	603.5
430.958	611.5
431.18	581.5
431.402	596.5
431.624	583.5
431.846	616.5
432.068	590.5
432.29	593.5
432.512	584.5
432.734	603.5
432.956	592.5
433.178	589.5
433.4	596.5
433.622	613.5
433.844	599.5
434.066	556.5
434.287	586.5
434.509	607.5
434.731	619.5
434.953	592.5
435.175	646.5
435.397	656.5
435.618	651.5
435.84	717.5
436.062	833.5
436.284	868.5
436.505	750.5
436.727	656.5
436.949	612.5
437.17	635.5
437.392	618.5
437.614	643.5
437.835	661.5
438.057	732.5
438.278	848.5
438.5	858.5
438.721	919.5
438.943	928.5
439.165	725.5
439.386	665.5
439.608	666.5
439.829	672.5
440.05	690.5
440.272	740.5
440.493	688.5
440.715	635.5
440.936	646.5
441.158	641.5
441.379	627.5
441.6	651.5
441.822	659.5
442.043	719.5
442.264	804.5
442.486	843.5
442.707	721.5
442.928	670.5
443.149	695.5
443.371	708.5
443.592	755.5
443.813	879.5
444.034	892.5
444.255	797.5
444.476	710.5
444.698	693.5
444.919	692.5
445.14	807.5
445.361	750.5
445.582	722.5
445.803	747.5
446.024	862.5
446.245	873.5
446.466	821.5
446.687	681.5
446.908	675.5
447.129	627.5
447.35	604.5
447.571	627.5
447.792	599.5
448.013	629.5
448.234	621.5
448.455	662.5
448.675	778.5
448.896	935.5
449.117	787.5
449.338	721.5
449.559	853.5
449.779	976.5
450	767.5
450.221	645.5
450.442	616.5
450.662	620.5
450.883	597.5
451.104	611.5
451.324	599.5
451.545	568.5
451.766	590.5
451.986	538.5
452.207	555.5
452.428	528.5
452.648	558.5
452.869	565.5
453.089	549.5
453.31	556.5
453.53	556.5
453.751	556.5
453.971	545.5
454.192	567.5
454.412	553.5
454.633	565.5
454.853	552.5
455.073	534.5
455.294	568.5
455.514	624.5
455.734	628.5
455.955	549.5
456.175	546.5
456.395	508.5
456.616	530.5
456.836	511.5
457.056	528.5
457.276	508.5
457.497	517.5
457.717	504.5
457.937	539.5
458.157	542.5
458.377	538.5
458.598	560.5
458.818	623.5
459.038	671.5
459.258	714.5
459.478	619.5
459.698	586.5
459.918	594.5
460.138	612.5
460.358	614.5
460.578	579.5
460.798	601.5
461.018	631.5
461.238	627.5
461.458	623.5
461.678	624.5
461.898	633.5
462.118	593.5
462.338	639.5
462.558	629.5
462.777	652.5
462.997	695.5
463.217	713.5
463.437	730.5
463.657	685.5
463.876	671.5
464.096	664.5
464.316	664.5
464.536	683.5
464.755	669.5
464.975	673.5
465.195	694.5
465.414	717.5
465.634	654.5
465.854	617.5
466.073	602.5
466.293	577.5
466.512	560.5
466.732	580.5
466.951	584.5
467.171	565.5
467.391	574.5
467.61	587.5
467.829	575.5
468.049	594.5
468.268	569.5
468.488	527.5
468.707	549.5
468.927	550.5
469.146	537.5
469.365	540.5
469.585	533.5
469.804	566.5
470.023	592.5
470.243	570.5
470.462	559.5
470.681	589.5
470.901	570.5
471.12	589.5
471.339	565.5
471.558	584.5
471.777	583.5
471.997	563.5
472.216	570.5
472.435	600.5
472.654	593.5
472.873	568.5
473.092	574.5
473.311	564.5
473.53	569.5
473.749	559.5
473.968	627.5
474.187	735.5
474.406	727.5
474.625	617.5
474.844	572.5
475.063	558.5
475.282	568.5
475.501	579.5
475.72	577.5
475.939	584.5
476.158	605.5
476.377	598.5
476.596	577.5
476.814	590.5
477.033	623.5
477.252	610.5
477.471	617.5
477.69	618.5
477.908	621.5
478.127	639.5
478.346	644.5
478.564	650.5
478.783	637.5
479.002	658.5
479.22	653.5
479.439	688.5
479.658	677.5
479.876	698.5
480.095	691.5
480.313	758.5
480.532	724.5
480.751	761.5
480.969	716.5
481.188	781.5
481.406	786.5
481.624	714.5
481.843	691.5
482.061	681.5
482.28	659.5
482.498	697.5
482.717	646.5
482.935	697.5
483.153	683.5
483.372	657.5
483.59	672.5
483.808	676.5
484.027	672.5
484.245	686.5
484.463	664.5
484.681	704.5
484.9	688.5
485.118	688.5
485.336	688.5
485.554	668.5
485.772	686.5
485.99	693.5
486.209	720.5
486.427	700.5
486.645	684.5
486.863	725.5
487.081	731.5
487.299	694.5
487.517	701.5
487.735	742.5
487.953	721.5
488.171	719.5
488.389	700.5
488.607	735.5
488.825	718.5
489.043	718.5
489.261	716.5
489.479	710.5
489.696	729.5
489.914	718.5
490.132	743.5
490.35	751.5
490.568	763.5
490.786	776.5
491.003	788.5
491.221	809.5
491.439	795.5
491.657	827.5
491.874	834.5
492.092	811.5
492.31	833.5
492.527	813.5
492.745	827.5
492.963	814.5
493.18	846.5
493.398	854.5
493.615	832.5
493.833	822.5
494.05	838.5
494.268	871.5
494.485	858.5
494.703	859.5
494.92	842.5
495.138	842.5
495.355	822.5
495.573	889.5
495.79	857.5
496.008	859.5
496.225	859.5
496.442	893.5
496.66	865.5
496.877	855.5
497.094	871.5
497.312	889.5
497.529	880.5
497.746	893.5
497.963	935.5
498.181	947.5
498.398	945.5
498.615	969.5
498.832	976.5
499.049	1023.5
499.267	1032.5
499.484	1087.5
499.701	1144.5
499.918	1194.5
500.135	1282.5
500.352	1344.5
500.569	1367.5
500.786	1368.5
501.003	1336.5
501.22	1304.5
501.437	1223.5
501.654	1169.5
501.871	1128.5
502.088	1091.5
502.305	1056.5
502.522	998.5
502.739	998.5
502.956	937.5
503.172	903.5
503.389	904.5
503.606	893.5
503.823	898.5
504.04	878.5
504.256	837.5
504.473	878.5
504.69	854.5
504.907	852.5
505.123	863.5
505.34	813.5
505.557	805.5
505.773	832.5
505.99	806.5
506.207	791.5
506.423	807.5
506.64	773.5
506.856	810.5
507.073	794.5
507.289	792.5
507.506	774.5
507.722	813.5
507.939	779.5
508.155	779.5
508.372	746.5
508.588	742.5
508.805	740.5
509.021	739.5
509.238	792.5
509.454	773.5
509.67	746.5
509.887	742.5
510.103	741.5
510.319	762.5
510.536	817.5
510.752	1181.5
510.968	1024.5
511.184	752.5
511.401	735.5
511.617	716.5
511.833	703.5
512.049	694.5
512.265	720.5
512.481	729.5
512.698	697.5
512.914	728.5
513.13	699.5
513.346	704.5
513.562	692.5
513.778	697.5
513.994	711.5
514.21	724.5
514.426	737.5
514.642	748.5
514.858	791.5
515.074	796.5
515.29	923.5
515.506	1197.5
515.721	1013.5
515.937	793.5
516.153	769.5
516.369	757.5
516.585	772.5
516.801	763.5
517.016	741.5
517.232	763.5
517.448	746.5
517.664	785.5
517.879	751.5
518.095	771.5
518.311	717.5
518.527	749.5
518.742	746.5
518.958	742.5
519.173	729.5
519.389	721.5
519.605	725.5
519.82	689.5
520.036	717.5
520.251	721.5
520.467	765.5
520.682	748.5
520.898	738.5
521.113	735.5
521.329	779.5
521.544	836.5
521.76	1006.5
521.975	1454.5
522.19	1431.5
522.406	910.5
522.621	744.5
522.836	684.5
523.052	689.5
523.267	672.5
523.482	669.5
523.698	625.5
523.913	629.5
524.128	651.5
524.343	631.5
524.559	618.5
524.774	622.5
524.989	607.5
525.204	615.5
525.419	621.5
525.634	597.5
525.849	593.5
526.064	592.5
526.28	601.5
526.495	616.5
526.71	602.5
526.925	591.5
527.14	580.5
527.355	599.5
527.57	587.5
527.785	595.5
527.999	575.5
528.214	587.5
528.429	593.5
528.644	586.5
528.859	593.5
529.074	580.5
529.289	636.5
529.503	648.5
529.718	650.5
529.933	625.5
530.148	581.5
530.363	611.5
530.577	594.5
530.792	568.5
531.007	578.5
531.221	573.5
531.436	563.5
531.651	576.5
531.865	576.5
532.08	561.5
532.295	551.5
532.509	582.5
532.724	566.5
532.938	585.5
533.153	573.5
533.367	550.5
533.582	563.5
533.796	573.5
534.011	540.5
534.225	574.5
534.44	563.5
534.654	545.5
534.868	552.5
535.083	549.5
535.297	568.5
535.511	536.5
535.726	552.5
535.94	549.5
536.154	566.5
536.369	562.5
536.583	569.5
536.797	545.5
537.011	532.5
537.225	530.5
537.44	534.5
537.654	534.5
537.868	525.5
538.082	529.5
538.296	540.5
538.51	543.5
538.724	561.5
538.938	542.5
539.153	548.5
539.367	524.5
539.581	549.5
539.795	545.5
540.009	520.5
540.222	532.5
540.436	529.5
540.65	509.5
540.864	544.5
541.078	559.5
541.292	554.5
541.506	542.5
541.72	531.5
541.934	537.5
542.147	528.5
542.361	549.5
542.575	533.5
542.789	529.5
543.002	522.5
543.216	535.5
543.43	557.5
543.644	545.5
543.857	555.5
544.071	565.5
544.285	565.5
544.498	559.5
544.712	552.5
544.925	541.5
545.139	524.5
545.352	536.5
545.566	525.5
545.779	535.5
545.993	536.5
546.206	532.5
546.42	541.5
546.633	531.5
546.847	542.5
547.06	544.5
547.274	525.5
547.487	529.5
547.7	546.5
547.914	513.5
548.127	525.5
548.34	539.5
548.554	518.5
548.767	548.5
548.98	519.5
549.193	537.5
549.407	528.5
549.62	553.5
549.833	520.5
550.046	512.5
550.259	523.5
550.473	524.5
550.686	530.5
550.899	529.5
551.112	524.5
551.325	517.5
551.538	519.5
551.751	508.5
551.964	503.5
552.177	529.5
552.39	512.5
552.603	533.5
552.816	532.5
553.029	545.5
553.242	536.5
553.455	540.5
553.667	563.5
553.88	552.5
554.093	537.5
554.306	543.5
554.519	549.5
554.732	526.5
554.944	508.5
555.157	492.5
555.37	513.5
555.583	503.5
555.795	491.5
556.008	491.5
556.221	493.5
556.433	474.5
556.646	472.5
556.859	485.5
557.071	485.5
557.284	453.5
557.496	487.5
557.709	458.5
557.921	473.5
558.134	476.5
558.346	462.5
558.559	472.5
558.771	477.5
558.984	457.5
559.196	464.5
559.409	470.5
559.621	459.5
559.833	484.5
560.046	469.5
560.258	449.5
560.47	462.5
560.683	478.5
560.895	461.5
561.107	477.5
561.32	448.5
561.532	478.5
561.744	467.5
561.956	465.5
562.168	471.5
562.381	465.5
562.593	448.5
562.805	464.5
563.017	462.5
563.229	464.5
563.441	465.5
563.653	487.5
563.865	465.5
564.077	467.5
564.289	478.5
564.501	477.5
564.713	485.5
564.925	486.5
565.137	496.5
565.349	496.5
565.561	496.5
565.773	539.5
565.985	543.5
566.197	558.5
566.408	563.5
566.62	588.5
566.832	595.5
567.044	616.5
567.255	619.5
567.467	633.5
567.679	623.5
567.891	657.5
568.102	653.5
568.314	643.5
568.526	609.5
568.737	585.5
568.949	538.5
569.161	527.5
569.372	509.5
569.584	511.5
569.795	525.5
570.007	504.5
570.218	493.5
570.43	515.5
570.641	462.5
570.853	473.5
571.064	455.5
571.276	462.5
571.487	453.5
571.698	439.5
571.91	431.5
572.121	432.5
572.333	444.5
572.544	431.5
572.755	406.5
572.966	419.5
573.178	394.5
573.389	398.5
573.6	396.5
573.811	406.5
574.023	404.5
574.234	395.5
574.445	401.5
574.656	404.5
574.867	407.5
575.078	392.5
575.289	395.5
575.501	405.5
575.712	394.5
575.923	383.5
576.134	401.5
576.345	393.5
576.556	399.5
576.767	387.5
576.978	392.5
577.188	385.5
577.399	386.5
577.61	375.5
577.821	396.5
578.032	385.5
578.243	411.5
578.454	541.5
578.665	470.5
578.875	392.5
579.086	381.5
579.297	372.5
579.508	358.5
579.718	363.5
579.929	383.5
580.14	371.5
580.35	370.5
580.561	384.5
580.772	361.5
580.982	366.5
581.193	367.5
581.403	353.5
581.614	364.5
581.825	355.5
582.035	353.5
582.246	363.5
582.456	345.5
582.667	383.5
582.877	352.5
583.087	359.5
583.298	359.5
583.508	355.5
583.719	358.5
583.929	358.5
584.139	341.5
584.35	356.5
584.56	341.5
584.77	339.5
584.981	327.5
585.191	358.5
585.401	359.5
585.611	340.5
585.821	351.5
586.032	338.5
586.242	323.5
586.452	352.5
586.662	343.5
586.872	353.5
587.082	347.5
587.292	337.5
587.502	342.5
587.713	355.5
587.923	327.5
588.133	346.5
588.343	343.5
588.553	335.5
588.762	327.5
588.972	357.5
589.182	331.5
589.392	336.5
589.602	347.5
589.812	335.5
590.022	360.5
590.232	338.5
590.441	359.5
590.651	362.5
590.861	351.5
591.071	346.5
591.281	344.5
591.49	349.5
591.7	333.5
591.91	355.5
592.119	353.5
592.329	371.5
592.539	364.5
592.748	375.5
592.958	375.5
593.167	394.5
593.377	350.5
593.587	383.5
593.796	389.5
594.006	385.5
594.215	376.5
594.424	374.5
594.634	378.5
594.843	366.5
595.053	371.5
595.262	367.5
595.472	346.5
595.681	344.5
595.89	319.5
596.1	350.5
596.309	330.5
596.518	335.5
596.727	316.5
596.937	343.5
597.146	318.5
597.355	330.5
597.564	331.5
597.774	318.5
597.983	313.5
598.192	309.5
598.401	308.5
598.61	318.5
598.819	313.5
599.028	309.5
599.237	321.5
599.446	312.5
599.655	311.5
599.864	280.5
600.073	287.5
600.282	301.5
600.491	294.5
600.7	302.5
600.909	308.5
601.118	303.5
601.327	298.5
601.536	319.5
601.745	313.5
601.953	302.5
602.162	301.5
602.371	307.5
602.58	294.5
602.789	295.5
602.997	318.5
603.206	294.5
603.415	300.5
603.623	285.5
603.832	287.5
604.041	295.5
604.249	289.5
604.458	295.5
604.666	302.5
604.875	315.5
605.084	294.5
605.292	299.5
605.501	297.5
605.709	311.5
605.918	287.5
606.126	288.5
606.334	298.5
606.543	267.5
606.751	295.5
606.96	296.5
607.168	282.5
607.376	291.5
607.585	278.5
607.793	287.5
608.001	284.5
608.21	285.5
608.418	282.5
608.626	292.5
608.834	291.5
609.043	298.5
609.251	287.5
609.459	301.5
609.667	280.5
609.875	285.5
610.083	280.5
610.291	283.5
610.499	293.5
610.707	292.5
610.916	277.5
611.124	276.5
611.332	277.5
611.54	309.5
611.748	301.5
611.955	297.5
612.163	283.5
612.371	270.5
612.579	278.5
612.787	301.5
612.995	277.5
613.203	282.5
613.411	281.5
613.618	268.5
613.826	258.5
614.034	270.5
614.242	288.5
614.449	275.5
614.657	266.5
614.865	263.5
615.072	273.5
615.28	280.5
615.488	286.5
615.695	283.5
615.903	269.5
616.111	302.5
616.318	279.5
616.526	303.5
616.733	282.5
616.941	294.5
617.148	277.5
617.356	285.5
617.563	272.5
617.771	273.5
617.978	276.5
618.185	281.5
618.393	273.5
618.6	288.5
618.807	270.5
619.015	271.5
619.222	269.5
619.429	272.5
619.637	288.5
619.844	281.5
620.051	284.5
620.258	251.5
620.466	267.5
620.673	262.5
620.88	255.5
621.087	247.5
621.294	274.5
621.501	265.5
621.708	247.5
621.915	257.5
622.122	277.5
622.329	247.5
622.536	281.5
622.743	252.5
622.95	274.5
623.157	266.5
623.364	267.5
623.571	243.5
623.778	246.5
623.985	268.5
624.192	253.5
624.399	244.5
624.606	247.5
624.812	240.5
625.019	256.5
625.226	254.5
625.433	254.5
625.639	238.5
625.846	248.5
626.053	233.5
626.259	238.5
626.466	248.5
626.673	269.5
626.879	242.5
627.086	239.5
627.293	244.5
627.499	237.5
627.706	237.5
627.912	226.5
628.119	232.5
628.325	249.5
628.532	227.5
628.738	233.5
628.945	232.5
629.151	246.5
629.357	228.5
629.564	230.5
629.77	226.5
629.976	237.5
630.183	247.5
630.389	225.5
630.595	221.5
630.802	229.5
631.008	230.5
631.214	225.5
631.42	241.5
631.627	224.5
631.833	240.5
632.039	227.5
632.245	224.5
632.451	222.5
632.657	212.5
632.863	213.5
633.069	231.5
633.275	220.5
633.481	224.5
633.688	202.5
633.893	220.5
634.099	231.5
634.305	211.5
634.511	200.5
634.717	217.5
634.923	204.5
635.129	212.5
635.335	201.5
635.541	201.5
635.747	198.5
635.952	214.5
636.158	221.5
636.364	215.5
636.57	218.5
636.775	227.5
636.981	201.5
637.187	216.5
637.392	210.5
637.598	212.5
637.804	208.5
638.009	219.5
638.215	208.5
638.421	197.5
638.626	210.5
638.832	216.5
639.037	207.5
639.243	201.5
639.448	209.5
639.654	193.5
639.859	214.5
640.065	195.5
640.27	196.5
640.475	199.5
640.681	197.5
640.886	206.5
641.091	215.5
641.297	224.5
641.502	187.5
641.707	204.5
641.913	192.5
642.118	198.5
642.323	199.5
642.528	187.5
642.733	192.5
642.939	190.5
643.144	190.5
643.349	203.5
643.554	203.5
643.759	176.5
643.964	189.5
644.169	177.5
644.374	195.5
644.579	211.5
644.784	185.5
644.989	181.5
645.194	183.5
645.399	188.5
645.604	176.5
645.809	186.5
646.014	193.5
646.219	183.5
646.423	189.5
646.628	192.5
646.833	194.5
647.038	188.5
647.243	172.5
647.447	188.5
647.652	201.5
647.857	197.5
648.062	208.5
648.266	199.5
648.471	187.5
648.676	199.5
648.88	205.5
649.085	199.5
649.289	189.5
649.494	195.5
649.698	224.5
649.903	199.5
650.107	199.5
650.312	172.5
650.516	183.5
650.721	172.5
650.925	169.5
651.13	159.5
651.334	174.5
651.539	173.5
651.743	180.5
651.947	179.5
652.152	174.5
652.356	161.5
652.56	171.5
652.764	159.5
652.969	154.5
653.173	153.5
653.377	157.5
653.581	159.5
653.785	154.5
653.99	165.5
654.194	164.5
654.398	153.5
654.602	160.5
654.806	161.5
655.01	155.5
655.214	152.5
655.418	163.5
655.622	156.5
655.826	137.5
656.03	157.5
656.234	153.5
656.438	144.5
656.642	144.5
656.846	141.5
657.049	151.5
657.253	153.5
657.457	138.5
657.661	134.5
657.865	131.5
658.068	127.5
658.272	120.5
658.476	129.5
658.68	116.5
658.883	110.5
659.087	106.5
659.291	100.5
659.494	103.5
659.698	92.5
659.901	109.5
660.105	118.5
660.309	104.5
660.512	103.5
660.716	103.5
660.919	109.5
661.123	93.5
661.326	100.5
661.53	99.5
661.733	92.5
661.936	80.5
662.14	89.5
662.343	85.5
662.546	99.5
662.75	89.5
662.953	86.5
663.156	79.5
663.36	72.5
663.563	108.5
663.766	91.5
663.969	92.5
664.173	88.5
664.376	92.5
664.579	92.5
664.782	86.5
664.985	86.5
665.188	98.5
665.391	86.5
665.594	91.5
665.797	93.5
666	101.5
666.203	90.5
666.406	73.5
666.609	81.5
666.812	92.5
667.015	96.5
667.218	88.5
667.421	92.5
667.624	88.5
667.827	100.5
668.03	96.5
668.232	93.5
668.435	83.5
668.638	82.5
668.841	84.5
669.043	72.5
669.246	73.5
669.449	92.5
669.651	85.5
669.854	80.5
670.057	98.5
670.259	79.5
670.462	91.5
670.665	91.5
670.867	73.5
671.07	76.5
671.272	85.5
671.475	91.5
671.677	88.5
671.88	87.5
672.082	70.5
672.284	81.5
672.487	90.5
672.689	94.5
672.892	67.5
