Data from 1974.PennyLincolnUp.Lamp.En5.5.200Scan.071719.P1.Changed Mount._HRD10591_15-51-51-855.txt Node
Date: Thu Jul 18 15:51:51 EDT 2019
User: cochatt
Spectrometer: HR+D1059
Trigger mode: 1
Integration Time (sec): 1.000000E-1
Scans to average: 1
Electric dark correction enabled: true
Nonlinearity correction enabled: false
Boxcar width: 0
XAxis mode: Wavelengths
Number of Pixels in Spectrum: 2048
>>>>>Begin Spectral Data<<<<<
223.165	-10.25
223.4	-10.25
223.635	-10.25
223.869	-22.25
224.104	-17.25
224.338	-18.25
224.573	-9.25
224.808	-9.25
225.042	4.75
225.277	-6.25
225.511	-11.25
225.746	13.75
225.98	-3.25
226.215	9.75
226.449	8.75
226.683	21.75
226.918	15.75
227.152	32.75
227.387	40.75
227.621	41.75
227.856	41.75
228.09	51.75
228.324	65.75
228.559	59.75
228.793	64.75
229.027	89.75
229.262	105.75
229.496	124.75
229.73	122.75
229.964	152.75
230.199	137.75
230.433	106.75
230.667	101.75
230.901	120.75
231.136	110.75
231.37	117.75
231.604	116.75
231.838	110.75
232.072	120.75
232.306	122.75
232.541	121.75
232.775	130.75
233.009	113.75
233.243	126.75
233.477	127.75
233.711	117.75
233.945	119.75
234.179	119.75
234.413	113.75
234.647	122.75
234.881	124.75
235.115	122.75
235.349	131.75
235.583	123.75
235.817	104.75
236.051	132.75
236.285	122.75
236.519	132.75
236.753	130.75
236.987	142.75
237.221	192.75
237.455	216.75
237.689	185.75
237.922	137.75
238.156	130.75
238.39	129.75
238.624	126.75
238.858	126.75
239.091	134.75
239.325	131.75
239.559	145.75
239.793	135.75
240.027	147.75
240.26	154.75
240.494	139.75
240.728	149.75
240.961	155.75
241.195	137.75
241.429	140.75
241.662	148.75
241.896	134.75
242.13	152.75
242.363	153.75
242.597	142.75
242.83	139.75
243.064	143.75
243.298	145.75
243.531	144.75
243.765	154.75
243.998	141.75
244.232	145.75
244.465	165.75
244.699	161.75
244.932	151.75
245.166	152.75
245.399	153.75
245.633	154.75
245.866	149.75
246.099	159.75
246.333	153.75
246.566	151.75
246.8	143.75
247.033	166.75
247.266	167.75
247.5	184.75
247.733	192.75
247.966	171.75
248.2	183.75
248.433	188.75
248.666	173.75
248.899	195.75
249.133	178.75
249.366	203.75
249.599	195.75
249.832	178.75
250.066	209.75
250.299	219.75
250.532	209.75
250.765	201.75
250.998	220.75
251.231	242.75
251.465	232.75
251.698	214.75
251.931	206.75
252.164	204.75
252.397	207.75
252.63	209.75
252.863	213.75
253.096	227.75
253.329	230.75
253.562	230.75
253.795	216.75
254.028	222.75
254.261	245.75
254.494	236.75
254.727	264.75
254.96	272.75
255.193	287.75
255.426	244.75
255.659	253.75
255.892	241.75
256.124	235.75
256.357	227.75
256.59	215.75
256.823	232.75
257.056	221.75
257.289	227.75
257.521	237.75
257.754	214.75
257.987	201.75
258.22	225.75
258.452	200.75
258.685	229.75
258.918	226.75
259.151	211.75
259.383	226.75
259.616	233.75
259.849	224.75
260.081	227.75
260.314	243.75
260.547	256.75
260.779	243.75
261.012	237.75
261.244	221.75
261.477	229.75
261.71	225.75
261.942	233.75
262.175	236.75
262.407	247.75
262.64	225.75
262.872	221.75
263.105	226.75
263.337	224.75
263.57	220.75
263.802	232.75
264.035	238.75
264.267	226.75
264.499	234.75
264.732	234.75
264.964	229.75
265.197	234.75
265.429	226.75
265.661	246.75
265.894	222.75
266.126	221.75
266.358	230.75
266.591	229.75
266.823	235.75
267.055	248.75
267.287	225.75
267.52	234.75
267.752	234.75
267.984	248.75
268.216	237.75
268.448	242.75
268.681	253.75
268.913	240.75
269.145	273.75
269.377	295.75
269.609	289.75
269.841	273.75
270.073	282.75
270.306	292.75
270.538	315.75
270.77	323.75
271.002	315.75
271.234	306.75
271.466	300.75
271.698	317.75
271.93	320.75
272.162	305.75
272.394	331.75
272.626	276.75
272.858	298.75
273.09	286.75
273.322	281.75
273.553	266.75
273.785	284.75
274.017	261.75
274.249	260.75
274.481	280.75
274.713	272.75
274.945	275.75
275.176	276.75
275.408	273.75
275.64	282.75
275.872	267.75
276.104	273.75
276.335	275.75
276.567	276.75
276.799	297.75
277.031	317.75
277.262	322.75
277.494	327.75
277.726	304.75
277.957	284.75
278.189	293.75
278.421	280.75
278.652	288.75
278.884	289.75
279.115	275.75
279.347	264.75
279.579	279.75
279.81	287.75
280.042	270.75
280.273	291.75
280.505	290.75
280.736	289.75
280.968	293.75
281.199	269.75
281.431	285.75
281.662	298.75
281.894	292.75
282.125	278.75
282.356	316.75
282.588	312.75
282.819	300.75
283.051	294.75
283.282	301.75
283.513	300.75
283.745	298.75
283.976	270.75
284.207	294.75
284.439	304.75
284.67	294.75
284.901	306.75
285.132	309.75
285.364	294.75
285.595	289.75
285.826	303.75
286.057	312.75
286.288	298.75
286.52	291.75
286.751	322.75
286.982	305.75
287.213	305.75
287.444	331.75
287.675	309.75
287.906	340.75
288.138	324.75
288.369	327.75
288.6	329.75
288.831	304.75
289.062	312.75
289.293	314.75
289.524	302.75
289.755	307.75
289.986	307.75
290.217	328.75
290.448	296.75
290.679	288.75
290.91	300.75
291.141	305.75
291.371	321.75
291.602	326.75
291.833	326.75
292.064	304.75
292.295	305.75
292.526	305.75
292.757	311.75
292.987	317.75
293.218	290.75
293.449	317.75
293.68	312.75
293.91	306.75
294.141	315.75
294.372	314.75
294.603	317.75
294.833	316.75
295.064	295.75
295.295	317.75
295.525	317.75
295.756	307.75
295.987	320.75
296.217	341.75
296.448	346.75
296.679	328.75
296.909	323.75
297.14	297.75
297.37	325.75
297.601	306.75
297.831	335.75
298.062	324.75
298.292	331.75
298.523	333.75
298.753	356.75
298.984	326.75
299.214	345.75
299.445	319.75
299.675	321.75
299.905	330.75
300.136	356.75
300.366	341.75
300.597	337.75
300.827	329.75
301.057	322.75
301.288	340.75
301.518	340.75
301.748	329.75
301.979	363.75
302.209	353.75
302.439	328.75
302.669	341.75
302.9	334.75
303.13	368.75
303.36	371.75
303.59	353.75
303.82	348.75
304.051	364.75
304.281	350.75
304.511	359.75
304.741	344.75
304.971	326.75
305.201	332.75
305.431	358.75
305.661	370.75
305.891	348.75
306.121	356.75
306.352	347.75
306.582	352.75
306.812	371.75
307.042	339.75
307.272	349.75
307.502	360.75
307.731	353.75
307.961	349.75
308.191	338.75
308.421	347.75
308.651	355.75
308.881	348.75
309.111	338.75
309.341	364.75
309.571	368.75
309.8	380.75
310.03	366.75
310.26	377.75
310.49	368.75
310.72	374.75
310.949	392.75
311.179	394.75
311.409	383.75
311.639	386.75
311.868	378.75
312.098	398.75
312.328	377.75
312.557	406.75
312.787	411.75
313.017	402.75
313.246	397.75
313.476	387.75
313.706	383.75
313.935	430.75
314.165	410.75
314.394	408.75
314.624	388.75
314.853	382.75
315.083	406.75
315.312	406.75
315.542	395.75
315.771	410.75
316.001	375.75
316.23	386.75
316.46	358.75
316.689	389.75
316.919	408.75
317.148	398.75
317.377	387.75
317.607	404.75
317.836	395.75
318.065	392.75
318.295	390.75
318.524	385.75
318.753	399.75
318.983	393.75
319.212	404.75
319.441	404.75
319.67	400.75
319.9	413.75
320.129	382.75
320.358	406.75
320.587	408.75
320.816	414.75
321.046	403.75
321.275	412.75
321.504	424.75
321.733	390.75
321.962	424.75
322.191	423.75
322.42	429.75
322.649	413.75
322.878	430.75
323.108	427.75
323.337	478.75
323.566	461.75
323.795	506.75
324.024	550.75
324.253	600.75
324.482	804.75
324.71	1173.75
324.939	1730.75
325.168	1540.75
325.397	790.75
325.626	562.75
325.855	495.75
326.084	485.75
326.313	475.75
326.542	493.75
326.77	517.75
326.999	562.75
327.228	721.75
327.457	1060.75
327.686	1352.75
327.914	874.75
328.143	625.75
328.372	557.75
328.6	541.75
328.829	517.75
329.058	536.75
329.287	564.75
329.515	515.75
329.744	490.75
329.972	476.75
330.201	505.75
330.43	541.75
330.658	545.75
330.887	564.75
331.115	577.75
331.344	498.75
331.572	477.75
331.801	486.75
332.03	502.75
332.258	503.75
332.486	458.75
332.715	467.75
332.943	458.75
333.172	484.75
333.4	485.75
333.629	479.75
333.857	515.75
334.085	523.75
334.314	517.75
334.542	536.75
334.771	558.75
334.999	531.75
335.227	516.75
335.455	491.75
335.684	504.75
335.912	496.75
336.14	461.75
336.369	483.75
336.597	470.75
336.825	468.75
337.053	476.75
337.281	453.75
337.51	453.75
337.738	464.75
337.966	487.75
338.194	479.75
338.422	472.75
338.65	465.75
338.878	443.75
339.106	446.75
339.334	448.75
339.562	449.75
339.79	450.75
340.018	466.75
340.246	441.75
340.474	465.75
340.702	453.75
340.93	461.75
341.158	454.75
341.386	454.75
341.614	458.75
341.842	467.75
342.07	444.75
342.298	468.75
342.526	454.75
342.754	448.75
342.981	436.75
343.209	443.75
343.437	451.75
343.665	458.75
343.893	472.75
344.12	504.75
344.348	478.75
344.576	473.75
344.804	470.75
345.031	471.75
345.259	479.75
345.487	480.75
345.714	451.75
345.942	456.75
346.17	441.75
346.397	441.75
346.625	421.75
346.853	446.75
347.08	434.75
347.308	446.75
347.535	446.75
347.763	455.75
347.99	435.75
348.218	446.75
348.445	452.75
348.673	439.75
348.9	448.75
349.128	422.75
349.355	436.75
349.583	435.75
349.81	446.75
350.037	430.75
350.265	414.75
350.492	433.75
350.72	424.75
350.947	417.75
351.174	418.75
351.402	452.75
351.629	452.75
351.856	452.75
352.083	445.75
352.311	443.75
352.538	446.75
352.765	459.75
352.992	456.75
353.22	442.75
353.447	420.75
353.674	432.75
353.901	439.75
354.128	430.75
354.355	433.75
354.583	408.75
354.81	430.75
355.037	415.75
355.264	419.75
355.491	405.75
355.718	413.75
355.945	416.75
356.172	409.75
356.399	393.75
356.626	420.75
356.853	407.75
357.08	437.75
357.307	428.75
357.534	426.75
357.761	419.75
357.988	428.75
358.215	399.75
358.441	416.75
358.668	413.75
358.895	412.75
359.122	426.75
359.349	434.75
359.576	448.75
359.802	472.75
360.029	482.75
360.256	476.75
360.483	446.75
360.709	440.75
360.936	444.75
361.163	462.75
361.39	451.75
361.616	452.75
361.843	450.75
362.07	433.75
362.296	437.75
362.523	440.75
362.749	435.75
362.976	452.75
363.203	439.75
363.429	419.75
363.656	420.75
363.882	416.75
364.109	445.75
364.335	454.75
364.562	439.75
364.788	422.75
365.015	430.75
365.241	436.75
365.468	423.75
365.694	436.75
365.92	445.75
366.147	422.75
366.373	449.75
366.599	412.75
366.826	438.75
367.052	418.75
367.278	432.75
367.505	446.75
367.731	426.75
367.957	436.75
368.184	429.75
368.41	427.75
368.636	446.75
368.862	464.75
369.089	447.75
369.315	430.75
369.541	434.75
369.767	458.75
369.993	409.75
370.219	436.75
370.445	432.75
370.672	413.75
370.898	422.75
371.124	433.75
371.35	454.75
371.576	455.75
371.802	438.75
372.028	451.75
372.254	448.75
372.48	438.75
372.706	445.75
372.932	437.75
373.158	453.75
373.384	450.75
373.61	456.75
373.835	454.75
374.061	446.75
374.287	460.75
374.513	459.75
374.739	462.75
374.965	457.75
375.191	460.75
375.416	432.75
375.642	457.75
375.868	425.75
376.094	458.75
376.319	446.75
376.545	447.75
376.771	436.75
376.997	450.75
377.222	437.75
377.448	466.75
377.674	453.75
377.899	436.75
378.125	453.75
378.35	436.75
378.576	454.75
378.802	462.75
379.027	451.75
379.253	469.75
379.478	449.75
379.704	446.75
379.929	454.75
380.155	443.75
380.38	448.75
380.606	451.75
380.831	438.75
381.057	461.75
381.282	454.75
381.507	446.75
381.733	430.75
381.958	456.75
382.184	466.75
382.409	454.75
382.634	461.75
382.86	474.75
383.085	465.75
383.31	465.75
383.535	469.75
383.761	465.75
383.986	484.75
384.211	487.75
384.436	492.75
384.662	485.75
384.887	482.75
385.112	490.75
385.337	489.75
385.562	483.75
385.787	493.75
386.013	497.75
386.238	506.75
386.463	509.75
386.688	510.75
386.913	496.75
387.138	470.75
387.363	520.75
387.588	508.75
387.813	474.75
388.038	515.75
388.263	498.75
388.488	472.75
388.713	485.75
388.938	482.75
389.163	503.75
389.387	525.75
389.612	484.75
389.837	496.75
390.062	482.75
390.287	507.75
390.512	468.75
390.736	482.75
390.961	500.75
391.186	512.75
391.411	493.75
391.636	506.75
391.86	515.75
392.085	512.75
392.31	531.75
392.534	506.75
392.759	518.75
392.984	507.75
393.208	519.75
393.433	515.75
393.658	508.75
393.882	520.75
394.107	482.75
394.331	515.75
394.556	506.75
394.78	529.75
395.005	500.75
395.229	510.75
395.454	526.75
395.678	564.75
395.903	544.75
396.127	557.75
396.352	562.75
396.576	520.75
396.801	511.75
397.025	500.75
397.249	541.75
397.474	519.75
397.698	540.75
397.922	539.75
398.147	577.75
398.371	574.75
398.595	559.75
398.82	578.75
399.044	601.75
399.268	634.75
399.492	651.75
399.717	724.75
399.941	731.75
400.165	738.75
400.389	724.75
400.613	661.75
400.837	594.75
401.062	631.75
401.286	611.75
401.51	628.75
401.734	582.75
401.958	588.75
402.182	583.75
402.406	596.75
402.63	601.75
402.854	596.75
403.078	596.75
403.302	597.75
403.526	612.75
403.75	617.75
403.974	600.75
404.198	613.75
404.422	625.75
404.645	620.75
404.869	628.75
405.093	641.75
405.317	688.75
405.541	744.75
405.765	645.75
405.988	616.75
406.212	653.75
406.436	650.75
406.66	667.75
406.883	679.75
407.107	661.75
407.331	727.75
407.555	776.75
407.778	783.75
408.002	728.75
408.226	683.75
408.449	671.75
408.673	666.75
408.896	675.75
409.12	723.75
409.344	693.75
409.567	630.75
409.791	635.75
410.014	611.75
410.238	595.75
410.461	624.75
410.685	606.75
410.908	631.75
411.132	666.75
411.355	678.75
411.578	645.75
411.802	624.75
412.025	598.75
412.249	618.75
412.472	660.75
412.695	676.75
412.919	664.75
413.142	628.75
413.365	616.75
413.589	606.75
413.812	608.75
414.035	585.75
414.258	562.75
414.482	545.75
414.705	569.75
414.928	573.75
415.151	546.75
415.374	558.75
415.597	574.75
415.821	574.75
416.044	580.75
416.267	572.75
416.49	574.75
416.713	573.75
416.936	563.75
417.159	589.75
417.382	570.75
417.605	602.75
417.828	579.75
418.051	596.75
418.274	610.75
418.497	590.75
418.72	592.75
418.943	585.75
419.166	615.75
419.389	622.75
419.611	635.75
419.834	612.75
420.057	624.75
420.28	620.75
420.503	610.75
420.726	604.75
420.948	634.75
421.171	637.75
421.394	677.75
421.617	628.75
421.839	602.75
422.062	604.75
422.285	608.75
422.507	685.75
422.73	755.75
422.953	727.75
423.175	658.75
423.398	614.75
423.621	595.75
423.843	641.75
424.066	650.75
424.288	602.75
424.511	637.75
424.733	704.75
424.956	775.75
425.178	778.75
425.401	756.75
425.623	763.75
425.846	682.75
426.068	620.75
426.291	651.75
426.513	618.75
426.735	628.75
426.958	685.75
427.18	754.75
427.402	896.75
427.625	970.75
427.847	841.75
428.069	718.75
428.292	649.75
428.514	616.75
428.736	608.75
428.958	589.75
429.181	588.75
429.403	592.75
429.625	576.75
429.847	613.75
430.069	670.75
430.292	701.75
430.514	626.75
430.736	586.75
430.958	558.75
431.18	572.75
431.402	584.75
431.624	536.75
431.846	545.75
432.068	556.75
432.29	549.75
432.512	565.75
432.734	550.75
432.956	562.75
433.178	548.75
433.4	586.75
433.622	572.75
433.844	561.75
434.066	547.75
434.287	551.75
434.509	550.75
434.731	577.75
434.953	581.75
435.175	604.75
435.397	628.75
435.618	619.75
435.84	679.75
436.062	764.75
436.284	825.75
436.505	701.75
436.727	599.75
436.949	589.75
437.17	582.75
437.392	586.75
437.614	586.75
437.835	616.75
438.057	698.75
438.278	818.75
438.5	819.75
438.721	890.75
438.943	845.75
439.165	662.75
439.386	638.75
439.608	626.75
439.829	618.75
440.05	638.75
440.272	700.75
440.493	663.75
440.715	616.75
440.936	583.75
441.158	594.75
441.379	600.75
441.6	621.75
441.822	650.75
442.043	673.75
442.264	749.75
442.486	786.75
442.707	658.75
442.928	666.75
443.149	662.75
443.371	646.75
443.592	707.75
443.813	816.75
444.034	895.75
444.255	753.75
444.476	682.75
444.698	653.75
444.919	674.75
445.14	780.75
445.361	716.75
445.582	654.75
445.803	723.75
446.024	819.75
446.245	826.75
446.466	734.75
446.687	658.75
446.908	641.75
447.129	586.75
447.35	568.75
447.571	555.75
447.792	565.75
448.013	597.75
448.234	602.75
448.455	622.75
448.675	747.75
448.896	864.75
449.117	742.75
449.338	689.75
449.559	802.75
449.779	918.75
450	727.75
450.221	616.75
450.442	564.75
450.662	565.75
450.883	555.75
451.104	576.75
451.324	549.75
451.545	545.75
451.766	532.75
451.986	532.75
452.207	513.75
452.428	526.75
452.648	514.75
452.869	523.75
453.089	520.75
453.31	533.75
453.53	524.75
453.751	513.75
453.971	507.75
454.192	546.75
454.412	532.75
454.633	508.75
454.853	512.75
455.073	502.75
455.294	516.75
455.514	613.75
455.734	597.75
455.955	514.75
456.175	506.75
456.395	512.75
456.616	491.75
456.836	485.75
457.056	490.75
457.276	489.75
457.497	494.75
457.717	490.75
457.937	483.75
458.157	499.75
458.377	504.75
458.598	520.75
458.818	572.75
459.038	632.75
459.258	669.75
459.478	596.75
459.698	558.75
459.918	567.75
460.138	557.75
460.358	576.75
460.578	571.75
460.798	598.75
461.018	568.75
461.238	594.75
461.458	593.75
461.678	583.75
461.898	599.75
462.118	581.75
462.338	591.75
462.558	621.75
462.777	619.75
462.997	653.75
463.217	661.75
463.437	673.75
463.657	668.75
463.876	631.75
464.096	643.75
464.316	639.75
464.536	622.75
464.755	612.75
464.975	618.75
465.195	640.75
465.414	688.75
465.634	633.75
465.854	601.75
466.073	590.75
466.293	544.75
466.512	544.75
466.732	525.75
466.951	556.75
467.171	536.75
467.391	548.75
467.61	544.75
467.829	545.75
468.049	534.75
468.268	522.75
468.488	526.75
468.707	509.75
468.927	543.75
469.146	532.75
469.365	518.75
469.585	531.75
469.804	541.75
470.023	559.75
470.243	570.75
470.462	578.75
470.681	558.75
470.901	544.75
471.12	549.75
471.339	544.75
471.558	547.75
471.777	519.75
471.997	531.75
472.216	558.75
472.435	571.75
472.654	557.75
472.873	533.75
473.092	531.75
473.311	526.75
473.53	525.75
473.749	531.75
473.968	576.75
474.187	672.75
474.406	712.75
474.625	601.75
474.844	562.75
475.063	566.75
475.282	540.75
475.501	552.75
475.72	537.75
475.939	569.75
476.158	549.75
476.377	568.75
476.596	573.75
476.814	556.75
477.033	577.75
477.252	576.75
477.471	598.75
477.69	569.75
477.908	588.75
478.127	603.75
478.346	597.75
478.564	633.75
478.783	624.75
479.002	646.75
479.22	631.75
479.439	658.75
479.658	632.75
479.876	649.75
480.095	670.75
480.313	690.75
480.532	682.75
480.751	684.75
480.969	661.75
481.188	714.75
481.406	708.75
481.624	660.75
481.843	633.75
482.061	644.75
482.28	622.75
482.498	635.75
482.717	629.75
482.935	634.75
483.153	616.75
483.372	656.75
483.59	638.75
483.808	640.75
484.027	640.75
484.245	638.75
484.463	628.75
484.681	658.75
484.9	646.75
485.118	652.75
485.336	647.75
485.554	649.75
485.772	640.75
485.99	648.75
486.209	653.75
486.427	659.75
486.645	667.75
486.863	684.75
487.081	674.75
487.299	670.75
487.517	667.75
487.735	694.75
487.953	688.75
488.171	685.75
488.389	700.75
488.607	678.75
488.825	656.75
489.043	700.75
489.261	703.75
489.479	678.75
489.696	727.75
489.914	683.75
490.132	706.75
490.35	710.75
490.568	711.75
490.786	696.75
491.003	748.75
491.221	745.75
491.439	758.75
491.657	748.75
491.874	780.75
492.092	779.75
492.31	791.75
492.527	805.75
492.745	792.75
492.963	796.75
493.18	808.75
493.398	798.75
493.615	797.75
493.833	818.75
494.05	819.75
494.268	801.75
494.485	801.75
494.703	797.75
494.92	796.75
495.138	792.75
495.355	802.75
495.573	802.75
495.79	828.75
496.008	824.75
496.225	813.75
496.442	807.75
496.66	816.75
496.877	824.75
497.094	821.75
497.312	839.75
497.529	854.75
497.746	847.75
497.963	876.75
498.181	869.75
498.398	889.75
498.615	922.75
498.832	941.75
499.049	956.75
499.267	1021.75
499.484	1047.75
499.701	1094.75
499.918	1145.75
500.135	1214.75
500.352	1272.75
500.569	1321.75
500.786	1297.75
501.003	1282.75
501.22	1204.75
501.437	1142.75
501.654	1116.75
501.871	1092.75
502.088	997.75
502.305	979.75
502.522	946.75
502.739	941.75
502.956	913.75
503.172	863.75
503.389	881.75
503.606	882.75
503.823	855.75
504.04	847.75
504.256	826.75
504.473	818.75
504.69	822.75
504.907	849.75
505.123	805.75
505.34	804.75
505.557	760.75
505.773	781.75
505.99	756.75
506.207	774.75
506.423	774.75
506.64	768.75
506.856	749.75
507.073	732.75
507.289	736.75
507.506	720.75
507.722	739.75
507.939	728.75
508.155	727.75
508.372	695.75
508.588	716.75
508.805	693.75
509.021	692.75
509.238	704.75
509.454	735.75
509.67	706.75
509.887	693.75
510.103	668.75
510.319	694.75
510.536	764.75
510.752	1063.75
510.968	948.75
511.184	686.75
511.401	673.75
511.617	665.75
511.833	681.75
512.049	684.75
512.265	655.75
512.481	688.75
512.698	658.75
512.914	666.75
513.13	660.75
513.346	666.75
513.562	645.75
513.778	669.75
513.994	649.75
514.21	663.75
514.426	702.75
514.642	699.75
514.858	710.75
515.074	714.75
515.29	830.75
515.506	1051.75
515.721	928.75
515.937	752.75
516.153	700.75
516.369	705.75
516.585	705.75
516.801	712.75
517.016	661.75
517.232	700.75
517.448	712.75
517.664	737.75
517.879	748.75
518.095	725.75
518.311	719.75
518.527	693.75
518.742	688.75
518.958	680.75
519.173	685.75
519.389	659.75
519.605	660.75
519.82	654.75
520.036	665.75
520.251	672.75
520.467	692.75
520.682	703.75
520.898	683.75
521.113	691.75
521.329	730.75
521.544	765.75
521.76	886.75
521.975	1309.75
522.19	1246.75
522.406	809.75
522.621	689.75
522.836	660.75
523.052	645.75
523.267	628.75
523.482	624.75
523.698	600.75
523.913	609.75
524.128	619.75
524.343	598.75
524.559	583.75
524.774	558.75
524.989	585.75
525.204	582.75
525.419	584.75
525.634	553.75
525.849	578.75
526.064	572.75
526.28	582.75
526.495	564.75
526.71	554.75
526.925	555.75
527.14	536.75
527.355	552.75
527.57	532.75
527.785	542.75
527.999	553.75
528.214	551.75
528.429	549.75
528.644	540.75
528.859	579.75
529.074	576.75
529.289	566.75
529.503	611.75
529.718	603.75
529.933	569.75
530.148	565.75
530.363	549.75
530.577	542.75
530.792	560.75
531.007	526.75
531.221	552.75
531.436	520.75
531.651	530.75
531.865	537.75
532.08	534.75
532.295	546.75
532.509	539.75
532.724	546.75
532.938	541.75
533.153	520.75
533.367	534.75
533.582	548.75
533.796	531.75
534.011	557.75
534.225	540.75
534.44	528.75
534.654	521.75
534.868	512.75
535.083	502.75
535.297	531.75
535.511	542.75
535.726	536.75
535.94	543.75
536.154	546.75
536.369	530.75
536.583	522.75
536.797	513.75
537.011	521.75
537.225	527.75
537.44	504.75
537.654	521.75
537.868	530.75
538.082	515.75
538.296	512.75
538.51	509.75
538.724	501.75
538.938	523.75
539.153	512.75
539.367	525.75
539.581	527.75
539.795	513.75
540.009	485.75
540.222	508.75
540.436	489.75
540.65	501.75
540.864	512.75
541.078	538.75
541.292	526.75
541.506	497.75
541.72	518.75
541.934	516.75
542.147	501.75
542.361	530.75
542.575	513.75
542.789	523.75
543.002	508.75
543.216	512.75
543.43	513.75
543.644	514.75
543.857	509.75
544.071	492.75
544.285	530.75
544.498	520.75
544.712	513.75
544.925	516.75
545.139	489.75
545.352	513.75
545.566	505.75
545.779	502.75
545.993	522.75
546.206	493.75
546.42	516.75
546.633	517.75
546.847	516.75
547.06	525.75
547.274	508.75
547.487	508.75
547.7	512.75
547.914	516.75
548.127	512.75
548.34	505.75
548.554	496.75
548.767	488.75
548.98	497.75
549.193	523.75
549.407	520.75
549.62	512.75
549.833	504.75
550.046	508.75
550.259	522.75
550.473	498.75
550.686	513.75
550.899	500.75
551.112	499.75
551.325	514.75
551.538	501.75
551.751	489.75
551.964	516.75
552.177	504.75
552.39	505.75
552.603	525.75
552.816	509.75
553.029	489.75
553.242	504.75
553.455	512.75
553.667	522.75
553.88	539.75
554.093	492.75
554.306	526.75
554.519	523.75
554.732	502.75
554.944	486.75
555.157	485.75
555.37	496.75
555.583	486.75
555.795	492.75
556.008	493.75
556.221	471.75
556.433	462.75
556.646	461.75
556.859	456.75
557.071	472.75
557.284	448.75
557.496	461.75
557.709	466.75
557.921	443.75
558.134	444.75
558.346	446.75
558.559	442.75
558.771	472.75
558.984	453.75
559.196	453.75
559.409	456.75
559.621	433.75
559.833	429.75
560.046	436.75
560.258	448.75
560.47	445.75
560.683	438.75
560.895	439.75
561.107	414.75
561.32	424.75
561.532	454.75
561.744	443.75
561.956	420.75
562.168	448.75
562.381	437.75
562.593	457.75
562.805	454.75
563.017	456.75
563.229	429.75
563.441	474.75
563.653	454.75
563.865	446.75
564.077	449.75
564.289	470.75
564.501	486.75
564.713	467.75
564.925	484.75
565.137	497.75
565.349	498.75
565.561	492.75
565.773	509.75
565.985	515.75
566.197	516.75
566.408	560.75
566.62	577.75
566.832	592.75
567.044	587.75
567.255	581.75
567.467	614.75
567.679	616.75
567.891	631.75
568.102	602.75
568.314	608.75
568.526	590.75
568.737	549.75
568.949	530.75
569.161	513.75
569.372	493.75
569.584	486.75
569.795	460.75
570.007	474.75
570.218	487.75
570.43	482.75
570.641	429.75
570.853	442.75
571.064	443.75
571.276	438.75
571.487	446.75
571.698	451.75
571.91	420.75
572.121	411.75
572.333	416.75
572.544	402.75
572.755	395.75
572.966	386.75
573.178	414.75
573.389	392.75
573.6	404.75
573.811	400.75
574.023	393.75
574.234	376.75
574.445	378.75
574.656	390.75
574.867	385.75
575.078	368.75
575.289	375.75
575.501	375.75
575.712	382.75
575.923	357.75
576.134	377.75
576.345	353.75
576.556	365.75
576.767	361.75
576.978	363.75
577.188	358.75
577.399	361.75
577.61	346.75
577.821	352.75
578.032	370.75
578.243	381.75
578.454	535.75
578.665	442.75
578.875	371.75
579.086	351.75
579.297	343.75
579.508	348.75
579.718	349.75
579.929	367.75
580.14	338.75
580.35	362.75
580.561	356.75
580.772	333.75
580.982	341.75
581.193	362.75
581.403	342.75
581.614	339.75
581.825	328.75
582.035	346.75
582.246	346.75
582.456	361.75
582.667	342.75
582.877	325.75
583.087	317.75
583.298	343.75
583.508	345.75
583.719	332.75
583.929	324.75
584.139	337.75
584.35	327.75
584.56	330.75
584.77	332.75
584.981	345.75
585.191	353.75
585.401	334.75
585.611	332.75
585.821	317.75
586.032	338.75
586.242	342.75
586.452	318.75
586.662	325.75
586.872	325.75
587.082	325.75
587.292	316.75
587.502	349.75
587.713	342.75
587.923	326.75
588.133	332.75
588.343	345.75
588.553	327.75
588.762	332.75
588.972	333.75
589.182	328.75
589.392	324.75
589.602	330.75
589.812	323.75
590.022	320.75
590.232	324.75
590.441	326.75
590.651	331.75
590.861	332.75
591.071	334.75
591.281	323.75
591.49	355.75
591.7	330.75
591.91	344.75
592.119	339.75
592.329	348.75
592.539	352.75
592.748	346.75
592.958	362.75
593.167	364.75
593.377	369.75
593.587	372.75
593.796	384.75
594.006	382.75
594.215	349.75
594.424	379.75
594.634	363.75
594.843	354.75
595.053	344.75
595.262	344.75
595.472	337.75
595.681	328.75
595.89	347.75
596.1	323.75
596.309	343.75
596.518	330.75
596.727	328.75
596.937	341.75
597.146	327.75
597.355	330.75
597.564	298.75
597.774	315.75
597.983	325.75
598.192	304.75
598.401	304.75
598.61	321.75
598.819	309.75
599.028	300.75
599.237	318.75
599.446	304.75
599.655	294.75
599.864	308.75
600.073	312.75
600.282	304.75
600.491	297.75
600.7	299.75
600.909	279.75
601.118	302.75
601.327	306.75
601.536	295.75
601.745	302.75
601.953	308.75
602.162	290.75
602.371	288.75
602.58	291.75
602.789	298.75
602.997	285.75
603.206	274.75
603.415	283.75
603.623	275.75
603.832	270.75
604.041	288.75
604.249	276.75
604.458	283.75
604.666	284.75
604.875	260.75
605.084	268.75
605.292	288.75
605.501	290.75
605.709	293.75
605.918	274.75
606.126	271.75
606.334	269.75
606.543	283.75
606.751	274.75
606.96	289.75
607.168	277.75
607.376	268.75
607.585	277.75
607.793	301.75
608.001	262.75
608.21	282.75
608.418	276.75
608.626	269.75
608.834	283.75
609.043	269.75
609.251	284.75
609.459	269.75
609.667	269.75
609.875	281.75
610.083	282.75
610.291	285.75
610.499	284.75
610.707	271.75
610.916	281.75
611.124	280.75
611.332	274.75
611.54	300.75
611.748	274.75
611.955	280.75
612.163	282.75
612.371	298.75
612.579	268.75
612.787	248.75
612.995	263.75
613.203	261.75
613.411	257.75
613.618	261.75
613.826	272.75
614.034	249.75
614.242	269.75
614.449	287.75
614.657	250.75
614.865	276.75
615.072	267.75
615.28	269.75
615.488	276.75
615.695	271.75
615.903	260.75
616.111	261.75
616.318	278.75
616.526	273.75
616.733	275.75
616.941	261.75
617.148	253.75
617.356	253.75
617.563	258.75
617.771	270.75
617.978	250.75
618.185	273.75
618.393	277.75
618.6	273.75
618.807	269.75
619.015	256.75
619.222	266.75
619.429	260.75
619.637	246.75
619.844	262.75
620.051	270.75
620.258	252.75
620.466	266.75
620.673	230.75
620.88	240.75
621.087	243.75
621.294	246.75
621.501	258.75
621.708	256.75
621.915	245.75
622.122	261.75
622.329	269.75
622.536	260.75
622.743	244.75
622.95	252.75
623.157	258.75
623.364	238.75
623.571	245.75
623.778	243.75
623.985	250.75
624.192	242.75
624.399	252.75
624.606	252.75
624.812	250.75
625.019	226.75
625.226	237.75
625.433	253.75
625.639	233.75
625.846	218.75
626.053	236.75
626.259	228.75
626.466	229.75
626.673	241.75
626.879	214.75
627.086	240.75
627.293	215.75
627.499	244.75
627.706	240.75
627.912	234.75
628.119	228.75
628.325	234.75
628.532	224.75
628.738	242.75
628.945	214.75
629.151	209.75
629.357	209.75
629.564	211.75
629.77	229.75
629.976	225.75
630.183	217.75
630.389	212.75
630.595	220.75
630.802	225.75
631.008	213.75
631.214	216.75
631.42	218.75
631.627	222.75
631.833	200.75
632.039	211.75
632.245	224.75
632.451	226.75
632.657	219.75
632.863	218.75
633.069	211.75
633.275	227.75
633.481	200.75
633.688	212.75
633.893	199.75
634.099	195.75
634.305	215.75
634.511	217.75
634.717	186.75
634.923	196.75
635.129	184.75
635.335	200.75
635.541	219.75
635.747	217.75
635.952	211.75
636.158	201.75
636.364	209.75
636.57	193.75
636.775	186.75
636.981	213.75
637.187	216.75
637.392	205.75
637.598	209.75
637.804	208.75
638.009	210.75
638.215	217.75
638.421	211.75
638.626	185.75
638.832	208.75
639.037	190.75
639.243	192.75
639.448	190.75
639.654	196.75
639.859	197.75
640.065	183.75
640.27	190.75
640.475	186.75
640.681	184.75
640.886	197.75
641.091	180.75
641.297	192.75
641.502	199.75
641.707	186.75
641.913	206.75
642.118	193.75
642.323	199.75
642.528	204.75
642.733	192.75
642.939	188.75
643.144	196.75
643.349	179.75
643.554	178.75
643.759	189.75
643.964	179.75
644.169	186.75
644.374	186.75
644.579	189.75
644.784	177.75
644.989	190.75
645.194	189.75
645.399	183.75
645.604	177.75
645.809	176.75
646.014	182.75
646.219	188.75
646.423	182.75
646.628	184.75
646.833	190.75
647.038	181.75
647.243	187.75
647.447	177.75
647.652	187.75
647.857	190.75
648.062	196.75
648.266	196.75
648.471	210.75
648.676	195.75
648.88	193.75
649.085	184.75
649.289	170.75
649.494	167.75
649.698	194.75
649.903	215.75
650.107	171.75
650.312	175.75
650.516	169.75
650.721	177.75
650.925	168.75
651.13	163.75
651.334	169.75
651.539	155.75
651.743	170.75
651.947	155.75
652.152	166.75
652.356	146.75
652.56	160.75
652.764	172.75
652.969	157.75
653.173	161.75
653.377	148.75
653.581	158.75
653.785	157.75
653.99	140.75
654.194	157.75
654.398	150.75
654.602	127.75
654.806	147.75
655.01	148.75
655.214	161.75
655.418	130.75
655.622	136.75
655.826	157.75
656.03	150.75
656.234	143.75
656.438	135.75
656.642	148.75
656.846	143.75
657.049	140.75
657.253	130.75
657.457	129.75
657.661	113.75
657.865	128.75
658.068	126.75
658.272	130.75
658.476	113.75
658.68	114.75
658.883	109.75
659.087	114.75
659.291	93.75
659.494	99.75
659.698	93.75
659.901	92.75
660.105	97.75
660.309	103.75
660.512	94.75
660.716	93.75
660.919	85.75
661.123	105.75
661.326	92.75
661.53	79.75
661.733	76.75
661.936	104.75
662.14	91.75
662.343	85.75
662.546	94.75
662.75	91.75
662.953	90.75
663.156	86.75
663.36	83.75
663.563	88.75
663.766	72.75
663.969	81.75
664.173	85.75
664.376	77.75
664.579	77.75
664.782	78.75
664.985	84.75
665.188	88.75
665.391	84.75
665.594	81.75
665.797	60.75
666	86.75
666.203	82.75
666.406	92.75
666.609	87.75
666.812	70.75
667.015	82.75
667.218	89.75
667.421	75.75
667.624	82.75
667.827	88.75
668.03	73.75
668.232	86.75
668.435	84.75
668.638	91.75
668.841	82.75
669.043	72.75
669.246	88.75
669.449	76.75
669.651	98.75
669.854	83.75
670.057	86.75
670.259	92.75
670.462	93.75
670.665	80.75
670.867	104.75
671.07	74.75
671.272	89.75
671.475	82.75
671.677	81.75
671.88	76.75
672.082	83.75
672.284	97.75
672.487	86.75
672.689	76.75
672.892	92.75
