Data from 1974.PennyLincolnUp.Lamp.En5.5.200Scan.071719.P1.Changed Mount._HRD10591_15-51-08-856.txt Node
Date: Thu Jul 18 15:51:08 EDT 2019
User: cochatt
Spectrometer: HR+D1059
Trigger mode: 1
Integration Time (sec): 1.000000E-1
Scans to average: 1
Electric dark correction enabled: true
Nonlinearity correction enabled: false
Boxcar width: 0
XAxis mode: Wavelengths
Number of Pixels in Spectrum: 2048
>>>>>Begin Spectral Data<<<<<
223.165	-7.56
223.4	-7.56
223.635	-7.56
223.869	-20.56
224.104	-26.56
224.338	-19.56
224.573	-17.56
224.808	-24.56
225.042	5.44
225.277	-2.56
225.511	3.44
225.746	5.44
225.98	18.44
226.215	15.44
226.449	11.44
226.683	11.44
226.918	17.44
227.152	30.44
227.387	28.44
227.621	35.44
227.856	41.44
228.09	31.44
228.324	43.44
228.559	53.44
228.793	72.44
229.027	106.44
229.262	115.44
229.496	125.44
229.73	158.44
229.964	158.44
230.199	150.44
230.433	98.44
230.667	103.44
230.901	116.44
231.136	115.44
231.37	106.44
231.604	112.44
231.838	128.44
232.072	117.44
232.306	112.44
232.541	126.44
232.775	113.44
233.009	137.44
233.243	116.44
233.477	115.44
233.711	122.44
233.945	131.44
234.179	128.44
234.413	122.44
234.647	111.44
234.881	113.44
235.115	125.44
235.349	127.44
235.583	118.44
235.817	131.44
236.051	135.44
236.285	137.44
236.519	133.44
236.753	139.44
236.987	152.44
237.221	181.44
237.455	251.44
237.689	187.44
237.922	152.44
238.156	138.44
238.39	142.44
238.624	124.44
238.858	129.44
239.091	120.44
239.325	140.44
239.559	150.44
239.793	132.44
240.027	135.44
240.26	137.44
240.494	167.44
240.728	181.44
240.961	161.44
241.195	149.44
241.429	149.44
241.662	136.44
241.896	154.44
242.13	133.44
242.363	155.44
242.597	160.44
242.83	147.44
243.064	139.44
243.298	167.44
243.531	147.44
243.765	151.44
243.998	135.44
244.232	139.44
244.465	161.44
244.699	154.44
244.932	168.44
245.166	142.44
245.399	153.44
245.633	145.44
245.866	139.44
246.099	155.44
246.333	147.44
246.566	169.44
246.8	157.44
247.033	156.44
247.266	170.44
247.5	172.44
247.733	180.44
247.966	206.44
248.2	213.44
248.433	187.44
248.666	187.44
248.899	196.44
249.133	201.44
249.366	232.44
249.599	216.44
249.832	197.44
250.066	208.44
250.299	190.44
250.532	208.44
250.765	217.44
250.998	209.44
251.231	255.44
251.465	241.44
251.698	226.44
251.931	223.44
252.164	224.44
252.397	219.44
252.63	211.44
252.863	229.44
253.096	222.44
253.329	240.44
253.562	224.44
253.795	236.44
254.028	225.44
254.261	245.44
254.494	257.44
254.727	267.44
254.96	290.44
255.193	283.44
255.426	253.44
255.659	252.44
255.892	239.44
256.124	235.44
256.357	261.44
256.59	247.44
256.823	229.44
257.056	235.44
257.289	236.44
257.521	230.44
257.754	220.44
257.987	215.44
258.22	223.44
258.452	221.44
258.685	230.44
258.918	217.44
259.151	215.44
259.383	225.44
259.616	231.44
259.849	264.44
260.081	258.44
260.314	262.44
260.547	277.44
260.779	248.44
261.012	252.44
261.244	258.44
261.477	257.44
261.71	236.44
261.942	231.44
262.175	266.44
262.407	248.44
262.64	234.44
262.872	234.44
263.105	235.44
263.337	251.44
263.57	239.44
263.802	243.44
264.035	225.44
264.267	229.44
264.499	243.44
264.732	233.44
264.964	237.44
265.197	240.44
265.429	232.44
265.661	231.44
265.894	237.44
266.126	261.44
266.358	246.44
266.591	255.44
266.823	234.44
267.055	234.44
267.287	242.44
267.52	237.44
267.752	261.44
267.984	254.44
268.216	260.44
268.448	248.44
268.681	263.44
268.913	283.44
269.145	302.44
269.377	290.44
269.609	294.44
269.841	273.44
270.073	287.44
270.306	312.44
270.538	339.44
270.77	349.44
271.002	330.44
271.234	310.44
271.466	323.44
271.698	335.44
271.93	345.44
272.162	352.44
272.394	330.44
272.626	329.44
272.858	316.44
273.09	313.44
273.322	301.44
273.553	289.44
273.785	294.44
274.017	288.44
274.249	304.44
274.481	296.44
274.713	296.44
274.945	299.44
275.176	316.44
275.408	293.44
275.64	307.44
275.872	286.44
276.104	301.44
276.335	297.44
276.567	290.44
276.799	308.44
277.031	337.44
277.262	344.44
277.494	328.44
277.726	332.44
277.957	319.44
278.189	329.44
278.421	317.44
278.652	301.44
278.884	325.44
279.115	322.44
279.347	324.44
279.579	384.44
279.81	427.44
280.042	389.44
280.273	374.44
280.505	369.44
280.736	362.44
280.968	309.44
281.199	290.44
281.431	309.44
281.662	321.44
281.894	319.44
282.125	323.44
282.356	325.44
282.588	348.44
282.819	336.44
283.051	320.44
283.282	320.44
283.513	309.44
283.745	314.44
283.976	324.44
284.207	328.44
284.439	317.44
284.67	313.44
284.901	315.44
285.132	315.44
285.364	329.44
285.595	343.44
285.826	312.44
286.057	328.44
286.288	335.44
286.52	330.44
286.751	316.44
286.982	301.44
287.213	321.44
287.444	341.44
287.675	326.44
287.906	348.44
288.138	348.44
288.369	346.44
288.6	371.44
288.831	346.44
289.062	337.44
289.293	326.44
289.524	329.44
289.755	322.44
289.986	337.44
290.217	325.44
290.448	327.44
290.679	337.44
290.91	349.44
291.141	337.44
291.371	349.44
291.602	320.44
291.833	339.44
292.064	332.44
292.295	321.44
292.526	316.44
292.757	336.44
292.987	327.44
293.218	333.44
293.449	327.44
293.68	332.44
293.91	342.44
294.141	338.44
294.372	327.44
294.603	328.44
294.833	338.44
295.064	317.44
295.295	340.44
295.525	352.44
295.756	336.44
295.987	350.44
296.217	385.44
296.448	386.44
296.679	361.44
296.909	348.44
297.14	353.44
297.37	356.44
297.601	342.44
297.831	341.44
298.062	347.44
298.292	352.44
298.523	343.44
298.753	353.44
298.984	345.44
299.214	348.44
299.445	343.44
299.675	360.44
299.905	355.44
300.136	367.44
300.366	370.44
300.597	350.44
300.827	385.44
301.057	375.44
301.288	372.44
301.518	374.44
301.748	354.44
301.979	365.44
302.209	372.44
302.439	369.44
302.669	371.44
302.9	379.44
303.13	364.44
303.36	363.44
303.59	375.44
303.82	405.44
304.051	390.44
304.281	389.44
304.511	383.44
304.741	359.44
304.971	389.44
305.201	373.44
305.431	379.44
305.661	391.44
305.891	377.44
306.121	371.44
306.352	368.44
306.582	382.44
306.812	380.44
307.042	359.44
307.272	372.44
307.502	373.44
307.731	381.44
307.961	381.44
308.191	384.44
308.421	408.44
308.651	363.44
308.881	385.44
309.111	389.44
309.341	411.44
309.571	396.44
309.8	386.44
310.03	401.44
310.26	423.44
310.49	434.44
310.72	433.44
310.949	451.44
311.179	441.44
311.409	412.44
311.639	415.44
311.868	431.44
312.098	439.44
312.328	428.44
312.557	450.44
312.787	466.44
313.017	457.44
313.246	419.44
313.476	432.44
313.706	416.44
313.935	433.44
314.165	448.44
314.394	444.44
314.624	473.44
314.853	435.44
315.083	428.44
315.312	429.44
315.542	416.44
315.771	435.44
316.001	451.44
316.23	433.44
316.46	435.44
316.689	424.44
316.919	439.44
317.148	433.44
317.377	429.44
317.607	454.44
317.836	434.44
318.065	419.44
318.295	437.44
318.524	447.44
318.753	424.44
318.983	415.44
319.212	415.44
319.441	425.44
319.67	452.44
319.9	423.44
320.129	431.44
320.358	435.44
320.587	446.44
320.816	416.44
321.046	442.44
321.275	445.44
321.504	450.44
321.733	453.44
321.962	449.44
322.191	440.44
322.42	473.44
322.649	504.44
322.878	491.44
323.108	499.44
323.337	549.44
323.566	563.44
323.795	596.44
324.024	612.44
324.253	775.44
324.482	1101.44
324.71	1744.44
324.939	2607.44
325.168	2285.44
325.397	1109.44
325.626	724.44
325.855	607.44
326.084	577.44
326.313	548.44
326.542	555.44
326.77	616.44
326.999	706.44
327.228	1018.44
327.457	1571.44
327.686	2024.44
327.914	1231.44
328.143	791.44
328.372	690.44
328.6	651.44
328.829	623.44
329.058	622.44
329.287	617.44
329.515	593.44
329.744	562.44
329.972	553.44
330.201	554.44
330.43	596.44
330.658	606.44
330.887	666.44
331.115	639.44
331.344	586.44
331.572	547.44
331.801	569.44
332.03	563.44
332.258	522.44
332.486	544.44
332.715	511.44
332.943	544.44
333.172	537.44
333.4	542.44
333.629	552.44
333.857	562.44
334.085	567.44
334.314	569.44
334.542	572.44
334.771	578.44
334.999	579.44
335.227	562.44
335.455	534.44
335.684	555.44
335.912	525.44
336.14	541.44
336.369	529.44
336.597	517.44
336.825	531.44
337.053	504.44
337.281	528.44
337.51	497.44
337.738	489.44
337.966	510.44
338.194	533.44
338.422	524.44
338.65	511.44
338.878	497.44
339.106	484.44
339.334	496.44
339.562	498.44
339.79	469.44
340.018	488.44
340.246	485.44
340.474	487.44
340.702	478.44
340.93	501.44
341.158	497.44
341.386	483.44
341.614	498.44
341.842	501.44
342.07	492.44
342.298	489.44
342.526	489.44
342.754	474.44
342.981	470.44
343.209	485.44
343.437	498.44
343.665	470.44
343.893	485.44
344.12	516.44
344.348	524.44
344.576	514.44
344.804	520.44
345.031	510.44
345.259	515.44
345.487	508.44
345.714	497.44
345.942	487.44
346.17	474.44
346.397	475.44
346.625	477.44
346.853	477.44
347.08	461.44
347.308	474.44
347.535	480.44
347.763	484.44
347.99	500.44
348.218	497.44
348.445	507.44
348.673	486.44
348.9	466.44
349.128	480.44
349.355	461.44
349.583	465.44
349.81	470.44
350.037	467.44
350.265	480.44
350.492	477.44
350.72	465.44
350.947	474.44
351.174	487.44
351.402	502.44
351.629	494.44
351.856	499.44
352.083	519.44
352.311	476.44
352.538	480.44
352.765	519.44
352.992	492.44
353.22	497.44
353.447	474.44
353.674	482.44
353.901	476.44
354.128	455.44
354.355	430.44
354.583	473.44
354.81	431.44
355.037	473.44
355.264	449.44
355.491	450.44
355.718	443.44
355.945	437.44
356.172	458.44
356.399	456.44
356.626	447.44
356.853	461.44
357.08	465.44
357.307	453.44
357.534	451.44
357.761	458.44
357.988	464.44
358.215	492.44
358.441	476.44
358.668	461.44
358.895	462.44
359.122	464.44
359.349	469.44
359.576	497.44
359.802	504.44
360.029	525.44
360.256	538.44
360.483	530.44
360.709	506.44
360.936	485.44
361.163	502.44
361.39	495.44
361.616	508.44
361.843	481.44
362.07	476.44
362.296	475.44
362.523	475.44
362.749	477.44
362.976	491.44
363.203	470.44
363.429	465.44
363.656	481.44
363.882	470.44
364.109	479.44
364.335	480.44
364.562	464.44
364.788	453.44
365.015	465.44
365.241	481.44
365.468	475.44
365.694	489.44
365.92	492.44
366.147	465.44
366.373	475.44
366.599	457.44
366.826	476.44
367.052	458.44
367.278	473.44
367.505	458.44
367.731	473.44
367.957	468.44
368.184	471.44
368.41	455.44
368.636	493.44
368.862	500.44
369.089	475.44
369.315	468.44
369.541	497.44
369.767	462.44
369.993	464.44
370.219	468.44
370.445	466.44
370.672	484.44
370.898	484.44
371.124	477.44
371.35	480.44
371.576	483.44
371.802	458.44
372.028	461.44
372.254	486.44
372.48	470.44
372.706	466.44
372.932	476.44
373.158	474.44
373.384	479.44
373.61	497.44
373.835	472.44
374.061	467.44
374.287	482.44
374.513	484.44
374.739	512.44
374.965	478.44
375.191	508.44
375.416	495.44
375.642	477.44
375.868	492.44
376.094	485.44
376.319	487.44
376.545	483.44
376.771	485.44
376.997	468.44
377.222	489.44
377.448	473.44
377.674	464.44
377.899	480.44
378.125	476.44
378.35	485.44
378.576	473.44
378.802	471.44
379.027	492.44
379.253	473.44
379.478	474.44
379.704	475.44
379.929	492.44
380.155	484.44
380.38	481.44
380.606	490.44
380.831	493.44
381.057	497.44
381.282	501.44
381.507	472.44
381.733	500.44
381.958	508.44
382.184	512.44
382.409	500.44
382.634	513.44
382.86	525.44
383.085	525.44
383.31	534.44
383.535	535.44
383.761	528.44
383.986	551.44
384.211	552.44
384.436	539.44
384.662	550.44
384.887	565.44
385.112	571.44
385.337	588.44
385.562	583.44
385.787	587.44
386.013	615.44
386.238	600.44
386.463	564.44
386.688	571.44
386.913	572.44
387.138	584.44
387.363	572.44
387.588	582.44
387.813	563.44
388.038	543.44
388.263	589.44
388.488	596.44
388.713	565.44
388.938	545.44
389.163	531.44
389.387	551.44
389.612	532.44
389.837	558.44
390.062	533.44
390.287	546.44
390.512	531.44
390.736	535.44
390.961	551.44
391.186	533.44
391.411	544.44
391.636	574.44
391.86	578.44
392.085	588.44
392.31	560.44
392.534	576.44
392.759	583.44
392.984	592.44
393.208	672.44
393.433	810.44
393.658	843.44
393.882	649.44
394.107	586.44
394.331	565.44
394.556	560.44
394.78	578.44
395.005	569.44
395.229	557.44
395.454	543.44
395.678	577.44
395.903	578.44
396.127	595.44
396.352	647.44
396.576	625.44
396.801	659.44
397.025	747.44
397.249	685.44
397.474	593.44
397.698	583.44
397.922	603.44
398.147	611.44
398.371	627.44
398.595	600.44
398.82	625.44
399.044	637.44
399.268	691.44
399.492	719.44
399.717	747.44
399.941	802.44
400.165	817.44
400.389	796.44
400.613	713.44
400.837	643.44
401.062	654.44
401.286	662.44
401.51	654.44
401.734	643.44
401.958	639.44
402.182	630.44
402.406	656.44
402.63	650.44
402.854	637.44
403.078	657.44
403.302	649.44
403.526	652.44
403.75	680.44
403.974	676.44
404.198	657.44
404.422	687.44
404.645	668.44
404.869	669.44
405.093	675.44
405.317	723.44
405.541	778.44
405.765	715.44
405.988	672.44
406.212	712.44
406.436	704.44
406.66	744.44
406.883	729.44
407.107	757.44
407.331	807.44
407.555	879.44
407.778	885.44
408.002	828.44
408.226	779.44
408.449	715.44
408.673	714.44
408.896	739.44
409.12	791.44
409.344	773.44
409.567	672.44
409.791	683.44
410.014	668.44
410.238	651.44
410.461	678.44
410.685	678.44
410.908	702.44
411.132	690.44
411.355	773.44
411.578	708.44
411.802	659.44
412.025	637.44
412.249	656.44
412.472	660.44
412.695	685.44
412.919	662.44
413.142	628.44
413.365	659.44
413.589	644.44
413.812	639.44
414.035	602.44
414.258	634.44
414.482	613.44
414.705	643.44
414.928	625.44
415.151	657.44
415.374	609.44
415.597	625.44
415.821	601.44
416.044	624.44
416.267	636.44
416.49	643.44
416.713	620.44
416.936	625.44
417.159	632.44
417.382	627.44
417.605	618.44
417.828	627.44
418.051	642.44
418.274	656.44
418.497	630.44
418.72	644.44
418.943	628.44
419.166	655.44
419.389	659.44
419.611	692.44
419.834	663.44
420.057	634.44
420.28	659.44
420.503	631.44
420.726	644.44
420.948	662.44
421.171	694.44
421.394	728.44
421.617	678.44
421.839	628.44
422.062	641.44
422.285	667.44
422.507	716.44
422.73	881.44
422.953	875.44
423.175	716.44
423.398	691.44
423.621	691.44
423.843	715.44
424.066	704.44
424.288	701.44
424.511	729.44
424.733	777.44
424.956	840.44
425.178	843.44
425.401	843.44
425.623	852.44
425.846	732.44
426.068	696.44
426.291	701.44
426.513	687.44
426.735	701.44
426.958	709.44
427.18	843.44
427.402	976.44
427.625	1087.44
427.847	927.44
428.069	797.44
428.292	719.44
428.514	684.44
428.736	660.44
428.958	643.44
429.181	649.44
429.403	634.44
429.625	636.44
429.847	680.44
430.069	756.44
430.292	743.44
430.514	655.44
430.736	657.44
430.958	625.44
431.18	610.44
431.402	623.44
431.624	627.44
431.846	611.44
432.068	610.44
432.29	607.44
432.512	618.44
432.734	623.44
432.956	607.44
433.178	633.44
433.4	629.44
433.622	610.44
433.844	639.44
434.066	607.44
434.287	620.44
434.509	619.44
434.731	634.44
434.953	657.44
435.175	665.44
435.397	675.44
435.618	706.44
435.84	728.44
436.062	809.44
436.284	931.44
436.505	773.44
436.727	678.44
436.949	628.44
437.17	619.44
437.392	645.44
437.614	629.44
437.835	686.44
438.057	781.44
438.278	895.44
438.5	876.44
438.721	1003.44
438.943	925.44
439.165	754.44
439.386	716.44
439.608	691.44
439.829	703.44
440.05	727.44
440.272	781.44
440.493	739.44
440.715	687.44
440.936	667.44
441.158	637.44
441.379	678.44
441.6	668.44
441.822	692.44
442.043	723.44
442.264	827.44
442.486	885.44
442.707	759.44
442.928	712.44
443.149	709.44
443.371	758.44
443.592	803.44
443.813	897.44
444.034	981.44
444.255	810.44
444.476	746.44
444.698	744.44
444.919	737.44
445.14	867.44
445.361	809.44
445.582	769.44
445.803	855.44
446.024	936.44
446.245	917.44
446.466	855.44
446.687	748.44
446.908	705.44
447.129	651.44
447.35	635.44
447.571	633.44
447.792	634.44
448.013	646.44
448.234	649.44
448.455	696.44
448.675	816.44
448.896	948.44
449.117	809.44
449.338	759.44
449.559	889.44
449.779	1010.44
450	823.44
450.221	688.44
450.442	625.44
450.662	628.44
450.883	626.44
451.104	636.44
451.324	631.44
451.545	604.44
451.766	597.44
451.986	571.44
452.207	567.44
452.428	577.44
452.648	569.44
452.869	574.44
453.089	593.44
453.31	601.44
453.53	568.44
453.751	570.44
453.971	591.44
454.192	602.44
454.412	589.44
454.633	579.44
454.853	570.44
455.073	576.44
455.294	592.44
455.514	667.44
455.734	649.44
455.955	563.44
456.175	553.44
456.395	529.44
456.616	529.44
456.836	542.44
457.056	527.44
457.276	499.44
457.497	515.44
457.717	557.44
457.937	548.44
458.157	573.44
458.377	563.44
458.598	583.44
458.818	663.44
459.038	738.44
459.258	775.44
459.478	674.44
459.698	638.44
459.918	626.44
460.138	620.44
460.358	609.44
460.578	638.44
460.798	623.44
461.018	641.44
461.238	636.44
461.458	647.44
461.678	625.44
461.898	677.44
462.118	616.44
462.338	638.44
462.558	674.44
462.777	684.44
462.997	715.44
463.217	721.44
463.437	725.44
463.657	718.44
463.876	709.44
464.096	693.44
464.316	682.44
464.536	684.44
464.755	673.44
464.975	691.44
465.195	738.44
465.414	832.44
465.634	715.44
465.854	658.44
466.073	654.44
466.293	616.44
466.512	578.44
466.732	609.44
466.951	605.44
467.171	574.44
467.391	599.44
467.61	610.44
467.829	624.44
468.049	591.44
468.268	588.44
468.488	584.44
468.707	550.44
468.927	580.44
469.146	565.44
469.365	562.44
469.585	559.44
469.804	603.44
470.023	598.44
470.243	586.44
470.462	611.44
470.681	631.44
470.901	619.44
471.12	604.44
471.339	610.44
471.558	588.44
471.777	608.44
471.997	601.44
472.216	585.44
472.435	595.44
472.654	596.44
472.873	581.44
473.092	585.44
473.311	588.44
473.53	584.44
473.749	609.44
473.968	634.44
474.187	741.44
474.406	802.44
474.625	647.44
474.844	607.44
475.063	583.44
475.282	579.44
475.501	613.44
475.72	622.44
475.939	603.44
476.158	591.44
476.377	627.44
476.596	598.44
476.814	641.44
477.033	641.44
477.252	638.44
477.471	633.44
477.69	639.44
477.908	667.44
478.127	672.44
478.346	667.44
478.564	675.44
478.783	669.44
479.002	692.44
479.22	705.44
479.439	719.44
479.658	709.44
479.876	749.44
480.095	730.44
480.313	783.44
480.532	733.44
480.751	730.44
480.969	758.44
481.188	795.44
481.406	769.44
481.624	759.44
481.843	739.44
482.061	743.44
482.28	724.44
482.498	725.44
482.717	705.44
482.935	696.44
483.153	698.44
483.372	689.44
483.59	705.44
483.808	735.44
484.027	687.44
484.245	737.44
484.463	724.44
484.681	714.44
484.9	752.44
485.118	733.44
485.336	721.44
485.554	769.44
485.772	755.44
485.99	742.44
486.209	753.44
486.427	757.44
486.645	771.44
486.863	775.44
487.081	787.44
487.299	755.44
487.517	770.44
487.735	785.44
487.953	745.44
488.171	770.44
488.389	779.44
488.607	746.44
488.825	773.44
489.043	766.44
489.261	767.44
489.479	769.44
489.696	756.44
489.914	770.44
490.132	790.44
490.35	789.44
490.568	796.44
490.786	796.44
491.003	837.44
491.221	825.44
491.439	855.44
491.657	839.44
491.874	878.44
492.092	839.44
492.31	860.44
492.527	877.44
492.745	869.44
492.963	853.44
493.18	848.44
493.398	873.44
493.615	883.44
493.833	893.44
494.05	890.44
494.268	884.44
494.485	871.44
494.703	883.44
494.92	899.44
495.138	899.44
495.355	859.44
495.573	897.44
495.79	887.44
496.008	931.44
496.225	920.44
496.442	885.44
496.66	923.44
496.877	887.44
497.094	900.44
497.312	911.44
497.529	933.44
497.746	908.44
497.963	916.44
498.181	974.44
498.398	986.44
498.615	1009.44
498.832	1051.44
499.049	1076.44
499.267	1101.44
499.484	1151.44
499.701	1210.44
499.918	1257.44
500.135	1305.44
500.352	1437.44
500.569	1433.44
500.786	1417.44
501.003	1395.44
501.22	1363.44
501.437	1287.44
501.654	1247.44
501.871	1236.44
502.088	1125.44
502.305	1089.44
502.522	1071.44
502.739	1023.44
502.956	983.44
503.172	979.44
503.389	955.44
503.606	933.44
503.823	946.44
504.04	931.44
504.256	941.44
504.473	896.44
504.69	910.44
504.907	878.44
505.123	895.44
505.34	872.44
505.557	855.44
505.773	862.44
505.99	847.44
506.207	850.44
506.423	849.44
506.64	825.44
506.856	824.44
507.073	796.44
507.289	803.44
507.506	798.44
507.722	806.44
507.939	834.44
508.155	800.44
508.372	789.44
508.588	804.44
508.805	772.44
509.021	774.44
509.238	791.44
509.454	796.44
509.67	788.44
509.887	777.44
510.103	758.44
510.319	799.44
510.536	934.44
510.752	1567.44
510.968	1275.44
511.184	792.44
511.401	759.44
511.617	756.44
511.833	765.44
512.049	727.44
512.265	743.44
512.481	731.44
512.698	747.44
512.914	754.44
513.13	711.44
513.346	709.44
513.562	744.44
513.778	725.44
513.994	740.44
514.21	772.44
514.426	826.44
514.642	866.44
514.858	874.44
515.074	910.44
515.29	1071.44
515.506	1591.44
515.721	1332.44
515.937	924.44
516.153	817.44
516.369	823.44
516.585	805.44
516.801	807.44
517.016	832.44
517.232	791.44
517.448	789.44
517.664	824.44
517.879	801.44
518.095	802.44
518.311	813.44
518.527	807.44
518.742	799.44
518.958	788.44
519.173	775.44
519.389	799.44
519.605	770.44
519.82	755.44
520.036	760.44
520.251	800.44
520.467	830.44
520.682	815.44
520.898	824.44
521.113	839.44
521.329	897.44
521.544	994.44
521.76	1243.44
521.975	2091.44
522.19	2019.44
522.406	1106.44
522.621	856.44
522.836	788.44
523.052	736.44
523.267	739.44
523.482	690.44
523.698	705.44
523.913	690.44
524.128	705.44
524.343	657.44
524.559	643.44
524.774	641.44
524.989	655.44
525.204	679.44
525.419	683.44
525.634	642.44
525.849	653.44
526.064	616.44
526.28	631.44
526.495	651.44
526.71	619.44
526.925	629.44
527.14	615.44
527.355	629.44
527.57	629.44
527.785	627.44
527.999	594.44
528.214	607.44
528.429	603.44
528.644	623.44
528.859	620.44
529.074	618.44
529.289	632.44
529.503	743.44
529.718	739.44
529.933	656.44
530.148	642.44
530.363	628.44
530.577	617.44
530.792	609.44
531.007	604.44
531.221	629.44
531.436	599.44
531.651	602.44
531.865	582.44
532.08	586.44
532.295	613.44
532.509	610.44
532.724	600.44
532.938	584.44
533.153	593.44
533.367	594.44
533.582	581.44
533.796	597.44
534.011	589.44
534.225	587.44
534.44	569.44
534.654	587.44
534.868	595.44
535.083	593.44
535.297	564.44
535.511	588.44
535.726	600.44
535.94	593.44
536.154	605.44
536.369	594.44
536.583	587.44
536.797	567.44
537.011	562.44
537.225	565.44
537.44	555.44
537.654	589.44
537.868	582.44
538.082	577.44
538.296	584.44
538.51	579.44
538.724	609.44
538.938	558.44
539.153	589.44
539.367	578.44
539.581	581.44
539.795	561.44
540.009	577.44
540.222	564.44
540.436	564.44
540.65	589.44
540.864	570.44
541.078	563.44
541.292	573.44
541.506	560.44
541.72	580.44
541.934	568.44
542.147	577.44
542.361	574.44
542.575	557.44
542.789	557.44
543.002	574.44
543.216	562.44
543.43	568.44
543.644	591.44
543.857	564.44
544.071	581.44
544.285	585.44
544.498	588.44
544.712	579.44
544.925	579.44
545.139	567.44
545.352	539.44
545.566	548.44
545.779	547.44
545.993	571.44
546.206	574.44
546.42	563.44
546.633	568.44
546.847	579.44
547.06	556.44
547.274	566.44
547.487	549.44
547.7	570.44
547.914	549.44
548.127	542.44
548.34	559.44
548.554	559.44
548.767	575.44
548.98	565.44
549.193	568.44
549.407	540.44
549.62	573.44
549.833	583.44
550.046	570.44
550.259	538.44
550.473	562.44
550.686	541.44
550.899	563.44
551.112	519.44
551.325	553.44
551.538	521.44
551.751	545.44
551.964	543.44
552.177	560.44
552.39	527.44
552.603	535.44
552.816	581.44
553.029	561.44
553.242	580.44
553.455	592.44
553.667	587.44
553.88	593.44
554.093	590.44
554.306	564.44
554.519	576.44
554.732	543.44
554.944	544.44
555.157	536.44
555.37	520.44
555.583	543.44
555.795	524.44
556.008	537.44
556.221	521.44
556.433	503.44
556.646	508.44
556.859	512.44
557.071	513.44
557.284	522.44
557.496	509.44
557.709	516.44
557.921	503.44
558.134	525.44
558.346	517.44
558.559	513.44
558.771	501.44
558.984	523.44
559.196	529.44
559.409	519.44
559.621	504.44
559.833	497.44
560.046	503.44
560.258	477.44
560.47	505.44
560.683	502.44
560.895	469.44
561.107	493.44
561.32	487.44
561.532	496.44
561.744	492.44
561.956	499.44
562.168	482.44
562.381	508.44
562.593	477.44
562.805	501.44
563.017	493.44
563.229	476.44
563.441	504.44
563.653	492.44
563.865	489.44
564.077	503.44
564.289	513.44
564.501	532.44
564.713	530.44
564.925	511.44
565.137	538.44
565.349	540.44
565.561	560.44
565.773	581.44
565.985	555.44
566.197	584.44
566.408	606.44
566.62	615.44
566.832	654.44
567.044	657.44
567.255	653.44
567.467	657.44
567.679	682.44
567.891	683.44
568.102	705.44
568.314	703.44
568.526	664.44
568.737	645.44
568.949	594.44
569.161	568.44
569.372	561.44
569.584	548.44
569.795	524.44
570.007	524.44
570.218	568.44
570.43	548.44
570.641	513.44
570.853	512.44
571.064	487.44
571.276	496.44
571.487	475.44
571.698	471.44
571.91	464.44
572.121	461.44
572.333	462.44
572.544	459.44
572.755	439.44
572.966	447.44
573.178	439.44
573.389	426.44
573.6	449.44
573.811	454.44
574.023	425.44
574.234	436.44
574.445	435.44
574.656	414.44
574.867	426.44
575.078	415.44
575.289	426.44
575.501	411.44
575.712	426.44
575.923	426.44
576.134	406.44
576.345	425.44
576.556	425.44
576.767	451.44
576.978	409.44
577.188	418.44
577.399	409.44
577.61	409.44
577.821	409.44
578.032	427.44
578.243	458.44
578.454	738.44
578.665	544.44
578.875	422.44
579.086	387.44
579.297	389.44
579.508	406.44
579.718	397.44
579.929	386.44
580.14	397.44
580.35	396.44
580.561	387.44
580.772	383.44
580.982	396.44
581.193	388.44
581.403	375.44
581.614	371.44
581.825	389.44
582.035	386.44
582.246	380.44
582.456	393.44
582.667	406.44
582.877	382.44
583.087	369.44
583.298	381.44
583.508	380.44
583.719	373.44
583.929	374.44
584.139	370.44
584.35	370.44
584.56	376.44
584.77	378.44
584.981	370.44
585.191	386.44
585.401	380.44
585.611	380.44
585.821	376.44
586.032	403.44
586.242	379.44
586.452	388.44
586.662	361.44
586.872	365.44
587.082	356.44
587.292	365.44
587.502	381.44
587.713	359.44
587.923	382.44
588.133	376.44
588.343	342.44
588.553	385.44
588.762	371.44
588.972	381.44
589.182	420.44
589.392	415.44
589.602	377.44
589.812	410.44
590.022	409.44
590.232	373.44
590.441	389.44
590.651	395.44
590.861	370.44
591.071	383.44
591.281	378.44
591.49	387.44
591.7	378.44
591.91	396.44
592.119	387.44
592.329	388.44
592.539	391.44
592.748	403.44
592.958	409.44
593.167	419.44
593.377	421.44
593.587	432.44
593.796	428.44
594.006	422.44
594.215	414.44
594.424	400.44
594.634	395.44
594.843	413.44
595.053	421.44
595.262	395.44
595.472	388.44
595.681	392.44
595.89	388.44
596.1	371.44
596.309	378.44
596.518	351.44
596.727	371.44
596.937	373.44
597.146	348.44
597.355	361.44
597.564	337.44
597.774	352.44
597.983	347.44
598.192	364.44
598.401	341.44
598.61	341.44
598.819	327.44
599.028	331.44
599.237	341.44
599.446	328.44
599.655	340.44
599.864	339.44
600.073	342.44
600.282	345.44
600.491	351.44
600.7	337.44
600.909	327.44
601.118	309.44
601.327	312.44
601.536	318.44
601.745	316.44
601.953	313.44
602.162	313.44
602.371	305.44
602.58	319.44
602.789	323.44
602.997	346.44
603.206	328.44
603.415	320.44
603.623	321.44
603.832	315.44
604.041	328.44
604.249	313.44
604.458	314.44
604.666	306.44
604.875	295.44
605.084	316.44
605.292	318.44
605.501	322.44
605.709	338.44
605.918	319.44
606.126	301.44
606.334	313.44
606.543	329.44
606.751	320.44
606.96	302.44
607.168	322.44
607.376	294.44
607.585	313.44
607.793	325.44
608.001	323.44
608.21	300.44
608.418	307.44
608.626	322.44
608.834	312.44
609.043	317.44
609.251	293.44
609.459	310.44
609.667	311.44
609.875	298.44
610.083	291.44
610.291	320.44
610.499	304.44
610.707	288.44
610.916	308.44
611.124	311.44
611.332	292.44
611.54	300.44
611.748	306.44
611.955	293.44
612.163	291.44
612.371	304.44
612.579	310.44
612.787	314.44
612.995	315.44
613.203	304.44
613.411	312.44
613.618	302.44
613.826	305.44
614.034	313.44
614.242	296.44
614.449	315.44
614.657	288.44
614.865	288.44
615.072	296.44
615.28	295.44
615.488	291.44
615.695	323.44
615.903	286.44
616.111	305.44
616.318	321.44
616.526	314.44
616.733	315.44
616.941	322.44
617.148	308.44
617.356	311.44
617.563	320.44
617.771	276.44
617.978	287.44
618.185	287.44
618.393	304.44
618.6	296.44
618.807	301.44
619.015	303.44
619.222	303.44
619.429	301.44
619.637	314.44
619.844	283.44
620.051	299.44
620.258	287.44
620.466	279.44
620.673	285.44
620.88	288.44
621.087	285.44
621.294	278.44
621.501	275.44
621.708	279.44
621.915	292.44
622.122	300.44
622.329	297.44
622.536	286.44
622.743	269.44
622.95	285.44
623.157	262.44
623.364	295.44
623.571	297.44
623.778	271.44
623.985	269.44
624.192	271.44
624.399	261.44
624.606	266.44
624.812	247.44
625.019	260.44
625.226	269.44
625.433	265.44
625.639	284.44
625.846	283.44
626.053	281.44
626.259	271.44
626.466	260.44
626.673	271.44
626.879	260.44
627.086	256.44
627.293	254.44
627.499	270.44
627.706	272.44
627.912	280.44
628.119	272.44
628.325	248.44
628.532	259.44
628.738	259.44
628.945	230.44
629.151	255.44
629.357	245.44
629.564	254.44
629.77	229.44
629.976	249.44
630.183	242.44
630.389	235.44
630.595	258.44
630.802	255.44
631.008	248.44
631.214	245.44
631.42	233.44
631.627	263.44
631.833	229.44
632.039	240.44
632.245	218.44
632.451	237.44
632.657	232.44
632.863	242.44
633.069	240.44
633.275	231.44
633.481	227.44
633.688	225.44
633.893	259.44
634.099	224.44
634.305	225.44
634.511	197.44
634.717	244.44
634.923	223.44
635.129	219.44
635.335	222.44
635.541	232.44
635.747	219.44
635.952	224.44
636.158	213.44
636.364	215.44
636.57	246.44
636.775	232.44
636.981	227.44
637.187	221.44
637.392	222.44
637.598	241.44
637.804	213.44
638.009	234.44
638.215	223.44
638.421	212.44
638.626	210.44
638.832	199.44
639.037	217.44
639.243	217.44
639.448	210.44
639.654	224.44
639.859	198.44
640.065	207.44
640.27	229.44
640.475	213.44
640.681	221.44
640.886	214.44
641.091	209.44
641.297	228.44
641.502	209.44
641.707	219.44
641.913	216.44
642.118	216.44
642.323	213.44
642.528	216.44
642.733	211.44
642.939	192.44
643.144	200.44
643.349	198.44
643.554	206.44
643.759	199.44
643.964	199.44
644.169	205.44
644.374	209.44
644.579	207.44
644.784	215.44
644.989	221.44
645.194	211.44
645.399	203.44
645.604	213.44
645.809	220.44
646.014	228.44
646.219	222.44
646.423	204.44
646.628	202.44
646.833	203.44
647.038	215.44
647.243	224.44
647.447	223.44
647.652	216.44
647.857	205.44
648.062	214.44
648.266	232.44
648.471	230.44
648.676	218.44
648.88	217.44
649.085	212.44
649.289	217.44
649.494	214.44
649.698	245.44
649.903	224.44
650.107	210.44
650.312	221.44
650.516	218.44
650.721	221.44
650.925	204.44
651.13	206.44
651.334	201.44
651.539	209.44
651.743	215.44
651.947	189.44
652.152	190.44
652.356	185.44
652.56	203.44
652.764	185.44
652.969	171.44
653.173	182.44
653.377	161.44
653.581	175.44
653.785	177.44
653.99	178.44
654.194	179.44
654.398	192.44
654.602	187.44
654.806	182.44
655.01	195.44
655.214	188.44
655.418	187.44
655.622	199.44
655.826	199.44
656.03	205.44
656.234	211.44
656.438	233.44
656.642	208.44
656.846	197.44
657.049	195.44
657.253	178.44
657.457	159.44
657.661	168.44
657.865	168.44
658.068	153.44
658.272	144.44
658.476	145.44
658.68	130.44
658.883	119.44
659.087	118.44
659.291	116.44
659.494	145.44
659.698	123.44
659.901	111.44
660.105	114.44
660.309	95.44
660.512	98.44
660.716	108.44
660.919	108.44
661.123	117.44
661.326	98.44
661.53	91.44
661.733	98.44
661.936	89.44
662.14	92.44
662.343	93.44
662.546	94.44
662.75	89.44
662.953	102.44
663.156	76.44
663.36	91.44
663.563	95.44
663.766	89.44
663.969	77.44
664.173	85.44
664.376	92.44
664.579	90.44
664.782	74.44
664.985	79.44
665.188	88.44
665.391	83.44
665.594	77.44
665.797	77.44
666	90.44
666.203	82.44
666.406	74.44
666.609	88.44
666.812	88.44
667.015	68.44
667.218	81.44
667.421	89.44
667.624	88.44
667.827	92.44
668.03	80.44
668.232	82.44
668.435	75.44
668.638	80.44
668.841	85.44
669.043	80.44
669.246	89.44
669.449	83.44
669.651	74.44
669.854	68.44
670.057	87.44
670.259	76.44
670.462	79.44
670.665	81.44
670.867	77.44
671.07	95.44
671.272	73.44
671.475	85.44
671.677	69.44
671.88	93.44
672.082	81.44
672.284	90.44
672.487	83.44
672.689	95.44
672.892	83.44
