Data from 1974.PennyLincolnUp.Lamp.En5.5.200Scan.071719.P1.Changed Mount._HRD10591_15-54-14-857.txt Node
Date: Thu Jul 18 15:54:14 EDT 2019
User: cochatt
Spectrometer: HR+D1059
Trigger mode: 1
Integration Time (sec): 1.000000E-1
Scans to average: 1
Electric dark correction enabled: true
Nonlinearity correction enabled: false
Boxcar width: 0
XAxis mode: Wavelengths
Number of Pixels in Spectrum: 2048
>>>>>Begin Spectral Data<<<<<
223.165	-15.62
223.4	-15.62
223.635	-15.62
223.869	-20.62
224.104	-22.62
224.338	-8.62
224.573	-13.62
224.808	-13.62
225.042	-13.62
225.277	-9.62
225.511	-4.62
225.746	11.38
225.98	15.38
226.215	14.38
226.449	9.38
226.683	12.38
226.918	20.38
227.152	39.38
227.387	55.38
227.621	37.38
227.856	41.38
228.09	39.38
228.324	37.38
228.559	59.38
228.793	72.38
229.027	103.38
229.262	120.38
229.496	117.38
229.73	140.38
229.964	165.38
230.199	142.38
230.433	107.38
230.667	113.38
230.901	101.38
231.136	117.38
231.37	107.38
231.604	121.38
231.838	122.38
232.072	120.38
232.306	128.38
232.541	132.38
232.775	109.38
233.009	118.38
233.243	111.38
233.477	127.38
233.711	126.38
233.945	129.38
234.179	128.38
234.413	130.38
234.647	123.38
234.881	120.38
235.115	126.38
235.349	153.38
235.583	123.38
235.817	125.38
236.051	136.38
236.285	146.38
236.519	144.38
236.753	139.38
236.987	148.38
237.221	182.38
237.455	228.38
237.689	204.38
237.922	144.38
238.156	147.38
238.39	138.38
238.624	130.38
238.858	145.38
239.091	126.38
239.325	121.38
239.559	145.38
239.793	135.38
240.027	143.38
240.26	149.38
240.494	164.38
240.728	166.38
240.961	155.38
241.195	159.38
241.429	143.38
241.662	153.38
241.896	140.38
242.13	123.38
242.363	139.38
242.597	134.38
242.83	157.38
243.064	154.38
243.298	140.38
243.531	157.38
243.765	150.38
243.998	150.38
244.232	150.38
244.465	168.38
244.699	148.38
244.932	167.38
245.166	164.38
245.399	159.38
245.633	167.38
245.866	168.38
246.099	178.38
246.333	179.38
246.566	165.38
246.8	170.38
247.033	179.38
247.266	181.38
247.5	167.38
247.733	181.38
247.966	200.38
248.2	189.38
248.433	192.38
248.666	191.38
248.899	195.38
249.133	217.38
249.366	219.38
249.599	205.38
249.832	202.38
250.066	213.38
250.299	204.38
250.532	215.38
250.765	219.38
250.998	261.38
251.231	255.38
251.465	241.38
251.698	217.38
251.931	219.38
252.164	220.38
252.397	224.38
252.63	219.38
252.863	231.38
253.096	231.38
253.329	228.38
253.562	252.38
253.795	234.38
254.028	242.38
254.261	251.38
254.494	263.38
254.727	284.38
254.96	322.38
255.193	302.38
255.426	278.38
255.659	259.38
255.892	254.38
256.124	260.38
256.357	253.38
256.59	231.38
256.823	238.38
257.056	243.38
257.289	216.38
257.521	243.38
257.754	230.38
257.987	235.38
258.22	234.38
258.452	229.38
258.685	228.38
258.918	221.38
259.151	241.38
259.383	243.38
259.616	260.38
259.849	249.38
260.081	260.38
260.314	285.38
260.547	284.38
260.779	274.38
261.012	234.38
261.244	238.38
261.477	237.38
261.71	249.38
261.942	251.38
262.175	247.38
262.407	244.38
262.64	235.38
262.872	243.38
263.105	241.38
263.337	249.38
263.57	248.38
263.802	229.38
264.035	228.38
264.267	239.38
264.499	222.38
264.732	243.38
264.964	233.38
265.197	236.38
265.429	229.38
265.661	230.38
265.894	245.38
266.126	254.38
266.358	236.38
266.591	234.38
266.823	248.38
267.055	259.38
267.287	243.38
267.52	248.38
267.752	242.38
267.984	249.38
268.216	238.38
268.448	268.38
268.681	262.38
268.913	259.38
269.145	278.38
269.377	298.38
269.609	299.38
269.841	284.38
270.073	307.38
270.306	313.38
270.538	335.38
270.77	346.38
271.002	331.38
271.234	323.38
271.466	332.38
271.698	343.38
271.93	329.38
272.162	345.38
272.394	350.38
272.626	327.38
272.858	321.38
273.09	311.38
273.322	305.38
273.553	307.38
273.785	290.38
274.017	289.38
274.249	305.38
274.481	300.38
274.713	293.38
274.945	306.38
275.176	288.38
275.408	298.38
275.64	291.38
275.872	290.38
276.104	298.38
276.335	295.38
276.567	299.38
276.799	305.38
277.031	328.38
277.262	340.38
277.494	331.38
277.726	333.38
277.957	317.38
278.189	304.38
278.421	296.38
278.652	305.38
278.884	308.38
279.115	307.38
279.347	299.38
279.579	313.38
279.81	309.38
280.042	302.38
280.273	294.38
280.505	296.38
280.736	306.38
280.968	279.38
281.199	285.38
281.431	303.38
281.662	309.38
281.894	309.38
282.125	308.38
282.356	314.38
282.588	333.38
282.819	318.38
283.051	309.38
283.282	309.38
283.513	306.38
283.745	327.38
283.976	321.38
284.207	298.38
284.439	331.38
284.67	323.38
284.901	320.38
285.132	337.38
285.364	311.38
285.595	313.38
285.826	318.38
286.057	308.38
286.288	313.38
286.52	331.38
286.751	322.38
286.982	326.38
287.213	340.38
287.444	324.38
287.675	334.38
287.906	328.38
288.138	340.38
288.369	332.38
288.6	322.38
288.831	348.38
289.062	321.38
289.293	336.38
289.524	316.38
289.755	340.38
289.986	338.38
290.217	312.38
290.448	339.38
290.679	313.38
290.91	330.38
291.141	333.38
291.371	329.38
291.602	355.38
291.833	319.38
292.064	317.38
292.295	334.38
292.526	329.38
292.757	330.38
292.987	339.38
293.218	311.38
293.449	318.38
293.68	338.38
293.91	335.38
294.141	344.38
294.372	333.38
294.603	335.38
294.833	333.38
295.064	338.38
295.295	323.38
295.525	344.38
295.756	339.38
295.987	337.38
296.217	353.38
296.448	372.38
296.679	354.38
296.909	354.38
297.14	349.38
297.37	343.38
297.601	315.38
297.831	343.38
298.062	349.38
298.292	333.38
298.523	362.38
298.753	362.38
298.984	356.38
299.214	360.38
299.445	346.38
299.675	349.38
299.905	347.38
300.136	370.38
300.366	359.38
300.597	361.38
300.827	356.38
301.057	371.38
301.288	373.38
301.518	377.38
301.748	370.38
301.979	366.38
302.209	374.38
302.439	372.38
302.669	387.38
302.9	370.38
303.13	353.38
303.36	370.38
303.59	368.38
303.82	377.38
304.051	379.38
304.281	377.38
304.511	352.38
304.741	349.38
304.971	363.38
305.201	369.38
305.431	353.38
305.661	378.38
305.891	361.38
306.121	371.38
306.352	369.38
306.582	369.38
306.812	365.38
307.042	385.38
307.272	366.38
307.502	375.38
307.731	378.38
307.961	367.38
308.191	377.38
308.421	381.38
308.651	380.38
308.881	383.38
309.111	367.38
309.341	381.38
309.571	399.38
309.8	388.38
310.03	397.38
310.26	389.38
310.49	399.38
310.72	391.38
310.949	438.38
311.179	421.38
311.409	407.38
311.639	405.38
311.868	410.38
312.098	405.38
312.328	406.38
312.557	430.38
312.787	444.38
313.017	434.38
313.246	404.38
313.476	423.38
313.706	402.38
313.935	427.38
314.165	424.38
314.394	426.38
314.624	438.38
314.853	422.38
315.083	427.38
315.312	421.38
315.542	415.38
315.771	410.38
316.001	394.38
316.23	425.38
316.46	415.38
316.689	419.38
316.919	436.38
317.148	435.38
317.377	430.38
317.607	421.38
317.836	418.38
318.065	418.38
318.295	409.38
318.524	421.38
318.753	426.38
318.983	423.38
319.212	417.38
319.441	431.38
319.67	419.38
319.9	418.38
320.129	430.38
320.358	427.38
320.587	441.38
320.816	426.38
321.046	423.38
321.275	431.38
321.504	440.38
321.733	429.38
321.962	462.38
322.191	454.38
322.42	474.38
322.649	463.38
322.878	474.38
323.108	472.38
323.337	489.38
323.566	525.38
323.795	527.38
324.024	585.38
324.253	646.38
324.482	917.38
324.71	1354.38
324.939	2109.38
325.168	1797.38
325.397	917.38
325.626	659.38
325.855	558.38
326.084	522.38
326.313	513.38
326.542	541.38
326.77	564.38
326.999	631.38
327.228	858.38
327.457	1285.38
327.686	1601.38
327.914	1035.38
328.143	707.38
328.372	635.38
328.6	595.38
328.829	574.38
329.058	575.38
329.287	585.38
329.515	559.38
329.744	539.38
329.972	532.38
330.201	541.38
330.43	604.38
330.658	594.38
330.887	638.38
331.115	630.38
331.344	566.38
331.572	521.38
331.801	529.38
332.03	543.38
332.258	501.38
332.486	523.38
332.715	521.38
332.943	506.38
333.172	518.38
333.4	530.38
333.629	525.38
333.857	565.38
334.085	570.38
334.314	569.38
334.542	605.38
334.771	616.38
334.999	569.38
335.227	544.38
335.455	534.38
335.684	511.38
335.912	535.38
336.14	509.38
336.369	503.38
336.597	537.38
336.825	524.38
337.053	534.38
337.281	521.38
337.51	494.38
337.738	505.38
337.966	490.38
338.194	482.38
338.422	486.38
338.65	504.38
338.878	491.38
339.106	461.38
339.334	499.38
339.562	491.38
339.79	463.38
340.018	485.38
340.246	463.38
340.474	488.38
340.702	481.38
340.93	482.38
341.158	471.38
341.386	463.38
341.614	487.38
341.842	486.38
342.07	476.38
342.298	464.38
342.526	468.38
342.754	460.38
342.981	495.38
343.209	450.38
343.437	483.38
343.665	500.38
343.893	499.38
344.12	504.38
344.348	514.38
344.576	502.38
344.804	495.38
345.031	506.38
345.259	518.38
345.487	486.38
345.714	477.38
345.942	481.38
346.17	468.38
346.397	473.38
346.625	463.38
346.853	450.38
347.08	450.38
347.308	463.38
347.535	469.38
347.763	492.38
347.99	477.38
348.218	493.38
348.445	466.38
348.673	466.38
348.9	471.38
349.128	457.38
349.355	473.38
349.583	463.38
349.81	466.38
350.037	436.38
350.265	443.38
350.492	474.38
350.72	446.38
350.947	469.38
351.174	468.38
351.402	482.38
351.629	487.38
351.856	466.38
352.083	481.38
352.311	457.38
352.538	473.38
352.765	471.38
352.992	461.38
353.22	466.38
353.447	475.38
353.674	451.38
353.901	461.38
354.128	455.38
354.355	456.38
354.583	452.38
354.81	447.38
355.037	458.38
355.264	435.38
355.491	442.38
355.718	449.38
355.945	443.38
356.172	456.38
356.399	442.38
356.626	441.38
356.853	441.38
357.08	435.38
357.307	422.38
357.534	447.38
357.761	420.38
357.988	438.38
358.215	441.38
358.441	459.38
358.668	446.38
358.895	441.38
359.122	453.38
359.349	467.38
359.576	435.38
359.802	507.38
360.029	524.38
360.256	517.38
360.483	522.38
360.709	471.38
360.936	488.38
361.163	465.38
361.39	455.38
361.616	470.38
361.843	456.38
362.07	467.38
362.296	460.38
362.523	456.38
362.749	469.38
362.976	480.38
363.203	467.38
363.429	451.38
363.656	438.38
363.882	463.38
364.109	448.38
364.335	445.38
364.562	461.38
364.788	464.38
365.015	453.38
365.241	441.38
365.468	455.38
365.694	457.38
365.92	459.38
366.147	445.38
366.373	439.38
366.599	441.38
366.826	421.38
367.052	457.38
367.278	454.38
367.505	463.38
367.731	473.38
367.957	461.38
368.184	460.38
368.41	463.38
368.636	473.38
368.862	481.38
369.089	447.38
369.315	454.38
369.541	468.38
369.767	477.38
369.993	465.38
370.219	457.38
370.445	454.38
370.672	449.38
370.898	455.38
371.124	449.38
371.35	455.38
371.576	456.38
371.802	465.38
372.028	446.38
372.254	461.38
372.48	458.38
372.706	482.38
372.932	466.38
373.158	452.38
373.384	477.38
373.61	478.38
373.835	495.38
374.061	470.38
374.287	485.38
374.513	462.38
374.739	495.38
374.965	486.38
375.191	476.38
375.416	493.38
375.642	479.38
375.868	475.38
376.094	475.38
376.319	465.38
376.545	461.38
376.771	443.38
376.997	467.38
377.222	462.38
377.448	470.38
377.674	477.38
377.899	470.38
378.125	467.38
378.35	447.38
378.576	445.38
378.802	453.38
379.027	466.38
379.253	455.38
379.478	463.38
379.704	462.38
379.929	470.38
380.155	476.38
380.38	463.38
380.606	466.38
380.831	485.38
381.057	490.38
381.282	471.38
381.507	454.38
381.733	471.38
381.958	464.38
382.184	476.38
382.409	477.38
382.634	469.38
382.86	464.38
383.085	481.38
383.31	490.38
383.535	481.38
383.761	517.38
383.986	495.38
384.211	499.38
384.436	532.38
384.662	505.38
384.887	493.38
385.112	504.38
385.337	513.38
385.562	516.38
385.787	517.38
386.013	524.38
386.238	541.38
386.463	518.38
386.688	504.38
386.913	515.38
387.138	517.38
387.363	515.38
387.588	515.38
387.813	491.38
388.038	521.38
388.263	531.38
388.488	539.38
388.713	502.38
388.938	523.38
389.163	524.38
389.387	534.38
389.612	535.38
389.837	506.38
390.062	515.38
390.287	547.38
390.512	519.38
390.736	533.38
390.961	527.38
391.186	539.38
391.411	541.38
391.636	513.38
391.86	531.38
392.085	549.38
392.31	547.38
392.534	571.38
392.759	552.38
392.984	531.38
393.208	529.38
393.433	551.38
393.658	534.38
393.882	503.38
394.107	531.38
394.331	543.38
394.556	532.38
394.78	538.38
395.005	526.38
395.229	537.38
395.454	573.38
395.678	570.38
395.903	567.38
396.127	588.38
396.352	575.38
396.576	552.38
396.801	550.38
397.025	547.38
397.249	562.38
397.474	578.38
397.698	551.38
397.922	565.38
398.147	588.38
398.371	616.38
398.595	607.38
398.82	618.38
399.044	635.38
399.268	663.38
399.492	674.38
399.717	750.38
399.941	783.38
400.165	769.38
400.389	771.38
400.613	698.38
400.837	637.38
401.062	627.38
401.286	621.38
401.51	612.38
401.734	616.38
401.958	617.38
402.182	609.38
402.406	635.38
402.63	623.38
402.854	625.38
403.078	614.38
403.302	625.38
403.526	649.38
403.75	648.38
403.974	646.38
404.198	667.38
404.422	661.38
404.645	655.38
404.869	647.38
405.093	656.38
405.317	716.38
405.541	763.38
405.765	702.38
405.988	657.38
406.212	676.38
406.436	684.38
406.66	707.38
406.883	715.38
407.107	753.38
407.331	785.38
407.555	820.38
407.778	860.38
408.002	773.38
408.226	705.38
408.449	698.38
408.673	718.38
408.896	738.38
409.12	781.38
409.344	718.38
409.567	668.38
409.791	661.38
410.014	647.38
410.238	619.38
410.461	627.38
410.685	637.38
410.908	697.38
411.132	697.38
411.355	731.38
411.578	689.38
411.802	679.38
412.025	628.38
412.249	646.38
412.472	669.38
412.695	705.38
412.919	702.38
413.142	643.38
413.365	641.38
413.589	629.38
413.812	609.38
414.035	639.38
414.258	612.38
414.482	617.38
414.705	609.38
414.928	628.38
415.151	622.38
415.374	616.38
415.597	598.38
415.821	597.38
416.044	602.38
416.267	596.38
416.49	602.38
416.713	593.38
416.936	585.38
417.159	590.38
417.382	612.38
417.605	629.38
417.828	632.38
418.051	631.38
418.274	637.38
418.497	580.38
418.72	601.38
418.943	600.38
419.166	646.38
419.389	653.38
419.611	664.38
419.834	679.38
420.057	647.38
420.28	642.38
420.503	635.38
420.726	654.38
420.948	641.38
421.171	685.38
421.394	728.38
421.617	655.38
421.839	614.38
422.062	635.38
422.285	631.38
422.507	713.38
422.73	790.38
422.953	765.38
423.175	677.38
423.398	673.38
423.621	638.38
423.843	675.38
424.066	685.38
424.288	678.38
424.511	677.38
424.733	770.38
424.956	839.38
425.178	812.38
425.401	827.38
425.623	848.38
425.846	729.38
426.068	659.38
426.291	643.38
426.513	646.38
426.735	662.38
426.958	697.38
427.18	793.38
427.402	943.38
427.625	1043.38
427.847	918.38
428.069	795.38
428.292	708.38
428.514	630.38
428.736	628.38
428.958	631.38
429.181	619.38
429.403	626.38
429.625	616.38
429.847	656.38
430.069	736.38
430.292	735.38
430.514	641.38
430.736	597.38
430.958	628.38
431.18	590.38
431.402	565.38
431.624	573.38
431.846	586.38
432.068	587.38
432.29	605.38
432.512	581.38
432.734	629.38
432.956	583.38
433.178	619.38
433.4	609.38
433.622	604.38
433.844	595.38
434.066	609.38
434.287	605.38
434.509	620.38
434.731	628.38
434.953	611.38
435.175	641.38
435.397	662.38
435.618	667.38
435.84	733.38
436.062	810.38
436.284	876.38
436.505	747.38
436.727	677.38
436.949	620.38
437.17	607.38
437.392	611.38
437.614	645.38
437.835	668.38
438.057	739.38
438.278	869.38
438.5	859.38
438.721	953.38
438.943	898.38
439.165	720.38
439.386	679.38
439.608	689.38
439.829	649.38
440.05	702.38
440.272	726.38
440.493	724.38
440.715	641.38
440.936	645.38
441.158	620.38
441.379	641.38
441.6	638.38
441.822	681.38
442.043	725.38
442.264	815.38
442.486	851.38
442.707	718.38
442.928	693.38
443.149	701.38
443.371	729.38
443.592	767.38
443.813	858.38
444.034	931.38
444.255	759.38
444.476	726.38
444.698	717.38
444.919	705.38
445.14	789.38
445.361	726.38
445.582	694.38
445.803	793.38
446.024	891.38
446.245	901.38
446.466	807.38
446.687	697.38
446.908	668.38
447.129	622.38
447.35	618.38
447.571	602.38
447.792	596.38
448.013	602.38
448.234	621.38
448.455	678.38
448.675	809.38
448.896	921.38
449.117	781.38
449.338	748.38
449.559	853.38
449.779	966.38
450	779.38
450.221	652.38
450.442	638.38
450.662	575.38
450.883	600.38
451.104	609.38
451.324	594.38
451.545	548.38
451.766	570.38
451.986	577.38
452.207	561.38
452.428	547.38
452.648	562.38
452.869	549.38
453.089	555.38
453.31	565.38
453.53	567.38
453.751	570.38
453.971	567.38
454.192	565.38
454.412	540.38
454.633	548.38
454.853	545.38
455.073	555.38
455.294	547.38
455.514	635.38
455.734	617.38
455.955	542.38
456.175	539.38
456.395	511.38
456.616	506.38
456.836	528.38
457.056	506.38
457.276	498.38
457.497	528.38
457.717	524.38
457.937	525.38
458.157	534.38
458.377	548.38
458.598	546.38
458.818	613.38
459.038	655.38
459.258	717.38
459.478	652.38
459.698	594.38
459.918	595.38
460.138	588.38
460.358	595.38
460.578	620.38
460.798	619.38
461.018	631.38
461.238	610.38
461.458	627.38
461.678	593.38
461.898	605.38
462.118	604.38
462.338	634.38
462.558	646.38
462.777	669.38
462.997	681.38
463.217	699.38
463.437	716.38
463.657	678.38
463.876	640.38
464.096	673.38
464.316	662.38
464.536	639.38
464.755	666.38
464.975	658.38
465.195	682.38
465.414	725.38
465.634	650.38
465.854	605.38
466.073	616.38
466.293	572.38
466.512	571.38
466.732	573.38
466.951	567.38
467.171	594.38
467.391	567.38
467.61	576.38
467.829	577.38
468.049	591.38
468.268	586.38
468.488	569.38
468.707	546.38
468.927	542.38
469.146	552.38
469.365	554.38
469.585	526.38
469.804	564.38
470.023	578.38
470.243	561.38
470.462	597.38
470.681	591.38
470.901	604.38
471.12	603.38
471.339	583.38
471.558	584.38
471.777	562.38
471.997	590.38
472.216	567.38
472.435	598.38
472.654	570.38
472.873	569.38
473.092	563.38
473.311	573.38
473.53	565.38
473.749	564.38
473.968	606.38
474.187	729.38
474.406	733.38
474.625	617.38
474.844	587.38
475.063	578.38
475.282	569.38
475.501	533.38
475.72	585.38
475.939	593.38
476.158	605.38
476.377	599.38
476.596	603.38
476.814	605.38
477.033	621.38
477.252	632.38
477.471	603.38
477.69	633.38
477.908	633.38
478.127	614.38
478.346	641.38
478.564	653.38
478.783	661.38
479.002	670.38
479.22	685.38
479.439	703.38
479.658	683.38
479.876	685.38
480.095	688.38
480.313	705.38
480.532	720.38
480.751	694.38
480.969	714.38
481.188	767.38
481.406	783.38
481.624	694.38
481.843	664.38
482.061	669.38
482.28	663.38
482.498	669.38
482.717	662.38
482.935	663.38
483.153	682.38
483.372	683.38
483.59	659.38
483.808	684.38
484.027	663.38
484.245	674.38
484.463	650.38
484.681	674.38
484.9	703.38
485.118	686.38
485.336	686.38
485.554	652.38
485.772	701.38
485.99	710.38
486.209	716.38
486.427	710.38
486.645	697.38
486.863	702.38
487.081	718.38
487.299	714.38
487.517	724.38
487.735	718.38
487.953	730.38
488.171	702.38
488.389	715.38
488.607	713.38
488.825	728.38
489.043	726.38
489.261	730.38
489.479	710.38
489.696	732.38
489.914	743.38
490.132	723.38
490.35	758.38
490.568	767.38
490.786	773.38
491.003	778.38
491.221	817.38
491.439	829.38
491.657	835.38
491.874	805.38
492.092	817.38
492.31	825.38
492.527	853.38
492.745	829.38
492.963	839.38
493.18	857.38
493.398	859.38
493.615	884.38
493.833	855.38
494.05	859.38
494.268	869.38
494.485	859.38
494.703	860.38
494.92	860.38
495.138	859.38
495.355	858.38
495.573	846.38
495.79	857.38
496.008	861.38
496.225	884.38
496.442	870.38
496.66	881.38
496.877	857.38
497.094	856.38
497.312	861.38
497.529	906.38
497.746	903.38
497.963	899.38
498.181	951.38
498.398	959.38
498.615	962.38
498.832	994.38
499.049	1025.38
499.267	1058.38
499.484	1096.38
499.701	1129.38
499.918	1213.38
500.135	1288.38
500.352	1341.38
500.569	1387.38
500.786	1405.38
501.003	1382.38
501.22	1279.38
501.437	1217.38
501.654	1180.38
501.871	1145.38
502.088	1092.38
502.305	1043.38
502.522	998.38
502.739	1003.38
502.956	966.38
503.172	939.38
503.389	892.38
503.606	894.38
503.823	894.38
504.04	876.38
504.256	902.38
504.473	877.38
504.69	872.38
504.907	872.38
505.123	857.38
505.34	848.38
505.557	828.38
505.773	844.38
505.99	798.38
506.207	809.38
506.423	829.38
506.64	810.38
506.856	795.38
507.073	791.38
507.289	777.38
507.506	758.38
507.722	814.38
507.939	782.38
508.155	796.38
508.372	753.38
508.588	762.38
508.805	754.38
509.021	753.38
509.238	774.38
509.454	768.38
509.67	742.38
509.887	742.38
510.103	764.38
510.319	739.38
510.536	801.38
510.752	1194.38
510.968	1028.38
511.184	755.38
511.401	722.38
511.617	718.38
511.833	711.38
512.049	698.38
512.265	713.38
512.481	724.38
512.698	717.38
512.914	714.38
513.13	721.38
513.346	689.38
513.562	687.38
513.778	714.38
513.994	713.38
514.21	721.38
514.426	750.38
514.642	761.38
514.858	782.38
515.074	820.38
515.29	910.38
515.506	1220.38
515.721	1075.38
515.937	815.38
516.153	766.38
516.369	754.38
516.585	758.38
516.801	759.38
517.016	726.38
517.232	754.38
517.448	755.38
517.664	795.38
517.879	773.38
518.095	804.38
518.311	782.38
518.527	738.38
518.742	758.38
518.958	734.38
519.173	709.38
519.389	714.38
519.605	711.38
519.82	713.38
520.036	715.38
520.251	718.38
520.467	740.38
520.682	722.38
520.898	727.38
521.113	743.38
521.329	778.38
521.544	830.38
521.76	999.38
521.975	1499.38
522.19	1520.38
522.406	910.38
522.621	747.38
522.836	706.38
523.052	667.38
523.267	653.38
523.482	654.38
523.698	644.38
523.913	629.38
524.128	651.38
524.343	637.38
524.559	628.38
524.774	602.38
524.989	631.38
525.204	610.38
525.419	619.38
525.634	595.38
525.849	604.38
526.064	594.38
526.28	614.38
526.495	581.38
526.71	597.38
526.925	579.38
527.14	588.38
527.355	587.38
527.57	579.38
527.785	590.38
527.999	580.38
528.214	567.38
528.429	589.38
528.644	584.38
528.859	589.38
529.074	599.38
529.289	591.38
529.503	652.38
529.718	642.38
529.933	604.38
530.148	577.38
530.363	601.38
530.577	581.38
530.792	569.38
531.007	584.38
531.221	590.38
531.436	560.38
531.651	581.38
531.865	579.38
532.08	552.38
532.295	581.38
532.509	579.38
532.724	559.38
532.938	564.38
533.153	572.38
533.367	581.38
533.582	568.38
533.796	577.38
534.011	571.38
534.225	561.38
534.44	569.38
534.654	571.38
534.868	567.38
535.083	551.38
535.297	563.38
535.511	553.38
535.726	577.38
535.94	547.38
536.154	558.38
536.369	566.38
536.583	570.38
536.797	543.38
537.011	532.38
537.225	554.38
537.44	546.38
537.654	524.38
537.868	532.38
538.082	515.38
538.296	535.38
538.51	534.38
538.724	537.38
538.938	547.38
539.153	559.38
539.367	571.38
539.581	545.38
539.795	529.38
540.009	543.38
540.222	505.38
540.436	548.38
540.65	547.38
540.864	544.38
541.078	554.38
541.292	521.38
541.506	554.38
541.72	550.38
541.934	561.38
542.147	555.38
542.361	535.38
542.575	543.38
542.789	514.38
543.002	526.38
543.216	528.38
543.43	547.38
543.644	522.38
543.857	526.38
544.071	552.38
544.285	577.38
544.498	550.38
544.712	558.38
544.925	548.38
545.139	564.38
545.352	541.38
545.566	542.38
545.779	548.38
545.993	550.38
546.206	566.38
546.42	533.38
546.633	525.38
546.847	540.38
547.06	534.38
547.274	521.38
547.487	550.38
547.7	551.38
547.914	526.38
548.127	520.38
548.34	509.38
548.554	530.38
548.767	545.38
548.98	539.38
549.193	524.38
549.407	525.38
549.62	531.38
549.833	533.38
550.046	523.38
550.259	506.38
550.473	511.38
550.686	540.38
550.899	526.38
551.112	521.38
551.325	510.38
551.538	502.38
551.751	517.38
551.964	526.38
552.177	539.38
552.39	502.38
552.603	522.38
552.816	546.38
553.029	533.38
553.242	550.38
553.455	537.38
553.667	561.38
553.88	554.38
554.093	549.38
554.306	521.38
554.519	546.38
554.732	529.38
554.944	527.38
555.157	516.38
555.37	525.38
555.583	502.38
555.795	504.38
556.008	482.38
556.221	479.38
556.433	479.38
556.646	461.38
556.859	483.38
557.071	490.38
557.284	486.38
557.496	498.38
557.709	481.38
557.921	477.38
558.134	482.38
558.346	491.38
558.559	471.38
558.771	470.38
558.984	456.38
559.196	461.38
559.409	436.38
559.621	456.38
559.833	452.38
560.046	467.38
560.258	442.38
560.47	452.38
560.683	451.38
560.895	463.38
561.107	466.38
561.32	439.38
561.532	462.38
561.744	480.38
561.956	453.38
562.168	464.38
562.381	458.38
562.593	480.38
562.805	483.38
563.017	456.38
563.229	461.38
563.441	488.38
563.653	473.38
563.865	474.38
564.077	463.38
564.289	466.38
564.501	482.38
564.713	481.38
564.925	507.38
565.137	484.38
565.349	511.38
565.561	526.38
565.773	536.38
565.985	534.38
566.197	534.38
566.408	570.38
566.62	590.38
566.832	603.38
567.044	585.38
567.255	622.38
567.467	618.38
567.679	641.38
567.891	626.38
568.102	650.38
568.314	639.38
568.526	618.38
568.737	579.38
568.949	537.38
569.161	520.38
569.372	514.38
569.584	499.38
569.795	463.38
570.007	471.38
570.218	492.38
570.43	478.38
570.641	473.38
570.853	456.38
571.064	455.38
571.276	460.38
571.487	459.38
571.698	430.38
571.91	462.38
572.121	429.38
572.333	425.38
572.544	438.38
572.755	415.38
572.966	413.38
573.178	421.38
573.389	423.38
573.6	410.38
573.811	421.38
574.023	400.38
574.234	411.38
574.445	412.38
574.656	380.38
574.867	377.38
575.078	381.38
575.289	402.38
575.501	390.38
575.712	399.38
575.923	394.38
576.134	380.38
576.345	399.38
576.556	398.38
576.767	389.38
576.978	390.38
577.188	393.38
577.399	382.38
577.61	381.38
577.821	382.38
578.032	371.38
578.243	419.38
578.454	564.38
578.665	464.38
578.875	401.38
579.086	377.38
579.297	381.38
579.508	375.38
579.718	374.38
579.929	370.38
580.14	348.38
580.35	352.38
580.561	358.38
580.772	363.38
580.982	354.38
581.193	374.38
581.403	377.38
581.614	352.38
581.825	360.38
582.035	357.38
582.246	341.38
582.456	351.38
582.667	357.38
582.877	346.38
583.087	361.38
583.298	362.38
583.508	347.38
583.719	343.38
583.929	363.38
584.139	358.38
584.35	350.38
584.56	360.38
584.77	337.38
584.981	343.38
585.191	348.38
585.401	366.38
585.611	337.38
585.821	332.38
586.032	343.38
586.242	346.38
586.452	345.38
586.662	363.38
586.872	341.38
587.082	340.38
587.292	350.38
587.502	363.38
587.713	334.38
587.923	351.38
588.133	362.38
588.343	338.38
588.553	350.38
588.762	334.38
588.972	334.38
589.182	305.38
589.392	343.38
589.602	348.38
589.812	343.38
590.022	338.38
590.232	332.38
590.441	353.38
590.651	331.38
590.861	351.38
591.071	353.38
591.281	363.38
591.49	338.38
591.7	354.38
591.91	341.38
592.119	369.38
592.329	377.38
592.539	367.38
592.748	373.38
592.958	361.38
593.167	366.38
593.377	378.38
593.587	390.38
593.796	369.38
594.006	388.38
594.215	398.38
594.424	386.38
594.634	393.38
594.843	375.38
595.053	378.38
595.262	383.38
595.472	367.38
595.681	354.38
595.89	338.38
596.1	331.38
596.309	326.38
596.518	321.38
596.727	341.38
596.937	321.38
597.146	329.38
597.355	344.38
597.564	334.38
597.774	344.38
597.983	334.38
598.192	293.38
598.401	308.38
598.61	318.38
598.819	310.38
599.028	313.38
599.237	302.38
599.446	297.38
599.655	316.38
599.864	312.38
600.073	313.38
600.282	309.38
600.491	301.38
600.7	299.38
600.909	292.38
601.118	301.38
601.327	306.38
601.536	311.38
601.745	301.38
601.953	306.38
602.162	307.38
602.371	292.38
602.58	298.38
602.789	294.38
602.997	300.38
603.206	302.38
603.415	292.38
603.623	291.38
603.832	291.38
604.041	274.38
604.249	274.38
604.458	289.38
604.666	276.38
604.875	294.38
605.084	295.38
605.292	293.38
605.501	285.38
605.709	292.38
605.918	290.38
606.126	285.38
606.334	296.38
606.543	287.38
606.751	267.38
606.96	290.38
607.168	277.38
607.376	278.38
607.585	286.38
607.793	295.38
608.001	269.38
608.21	299.38
608.418	296.38
608.626	275.38
608.834	287.38
609.043	286.38
609.251	294.38
609.459	275.38
609.667	300.38
609.875	264.38
610.083	305.38
610.291	291.38
610.499	285.38
610.707	279.38
610.916	265.38
611.124	282.38
611.332	297.38
611.54	294.38
611.748	293.38
611.955	282.38
612.163	286.38
612.371	271.38
612.579	291.38
612.787	265.38
612.995	276.38
613.203	281.38
613.411	285.38
613.618	287.38
613.826	268.38
614.034	274.38
614.242	267.38
614.449	280.38
614.657	270.38
614.865	283.38
615.072	277.38
615.28	278.38
615.488	271.38
615.695	287.38
615.903	258.38
616.111	266.38
616.318	292.38
616.526	268.38
616.733	272.38
616.941	281.38
617.148	278.38
617.356	279.38
617.563	271.38
617.771	285.38
617.978	283.38
618.185	271.38
618.393	264.38
618.6	277.38
618.807	275.38
619.015	280.38
619.222	268.38
619.429	275.38
619.637	261.38
619.844	269.38
620.051	263.38
620.258	262.38
620.466	261.38
620.673	259.38
620.88	249.38
621.087	246.38
621.294	238.38
621.501	257.38
621.708	251.38
621.915	275.38
622.122	266.38
622.329	270.38
622.536	254.38
622.743	258.38
622.95	269.38
623.157	256.38
623.364	253.38
623.571	267.38
623.778	249.38
623.985	244.38
624.192	257.38
624.399	259.38
624.606	237.38
624.812	229.38
625.019	250.38
625.226	260.38
625.433	257.38
625.639	247.38
625.846	254.38
626.053	231.38
626.259	242.38
626.466	253.38
626.673	238.38
626.879	238.38
627.086	242.38
627.293	234.38
627.499	231.38
627.706	257.38
627.912	238.38
628.119	227.38
628.325	239.38
628.532	231.38
628.738	203.38
628.945	218.38
629.151	227.38
629.357	235.38
629.564	234.38
629.77	214.38
629.976	230.38
630.183	227.38
630.389	218.38
630.595	223.38
630.802	229.38
631.008	216.38
631.214	226.38
631.42	231.38
631.627	229.38
631.833	206.38
632.039	225.38
632.245	218.38
632.451	211.38
632.657	218.38
632.863	214.38
633.069	200.38
633.275	227.38
633.481	216.38
633.688	220.38
633.893	226.38
634.099	204.38
634.305	214.38
634.511	198.38
634.717	204.38
634.923	216.38
635.129	219.38
635.335	196.38
635.541	208.38
635.747	198.38
635.952	189.38
636.158	211.38
636.364	209.38
636.57	203.38
636.775	220.38
636.981	207.38
637.187	212.38
637.392	206.38
637.598	209.38
637.804	193.38
638.009	208.38
638.215	202.38
638.421	220.38
638.626	208.38
638.832	203.38
639.037	210.38
639.243	198.38
639.448	202.38
639.654	207.38
639.859	203.38
640.065	190.38
640.27	201.38
640.475	200.38
640.681	206.38
640.886	194.38
641.091	192.38
641.297	206.38
641.502	202.38
641.707	190.38
641.913	201.38
642.118	197.38
642.323	197.38
642.528	192.38
642.733	182.38
642.939	202.38
643.144	193.38
643.349	183.38
643.554	200.38
643.759	189.38
643.964	173.38
644.169	185.38
644.374	184.38
644.579	203.38
644.784	183.38
644.989	190.38
645.194	184.38
645.399	193.38
645.604	175.38
645.809	189.38
646.014	195.38
646.219	197.38
646.423	183.38
646.628	189.38
646.833	190.38
647.038	187.38
647.243	203.38
647.447	198.38
647.652	182.38
647.857	191.38
648.062	195.38
648.266	179.38
648.471	183.38
648.676	215.38
648.88	182.38
649.085	182.38
649.289	183.38
649.494	179.38
649.698	192.38
649.903	200.38
650.107	199.38
650.312	182.38
650.516	189.38
650.721	173.38
650.925	171.38
651.13	177.38
651.334	174.38
651.539	162.38
651.743	174.38
651.947	159.38
652.152	169.38
652.356	170.38
652.56	144.38
652.764	181.38
652.969	160.38
653.173	151.38
653.377	170.38
653.581	149.38
653.785	142.38
653.99	159.38
654.194	157.38
654.398	154.38
654.602	145.38
654.806	153.38
655.01	159.38
655.214	155.38
655.418	137.38
655.622	147.38
655.826	138.38
656.03	136.38
656.234	147.38
656.438	147.38
656.642	138.38
656.846	157.38
657.049	151.38
657.253	142.38
657.457	126.38
657.661	147.38
657.865	127.38
658.068	119.38
658.272	117.38
658.476	120.38
658.68	106.38
658.883	102.38
659.087	115.38
659.291	108.38
659.494	106.38
659.698	92.38
659.901	91.38
660.105	87.38
660.309	103.38
660.512	97.38
660.716	104.38
660.919	95.38
661.123	94.38
661.326	92.38
661.53	95.38
661.733	83.38
661.936	76.38
662.14	91.38
662.343	79.38
662.546	77.38
662.75	100.38
662.953	89.38
663.156	78.38
663.36	103.38
663.563	69.38
663.766	89.38
663.969	96.38
664.173	96.38
664.376	81.38
664.579	78.38
664.782	81.38
664.985	79.38
665.188	94.38
665.391	82.38
665.594	78.38
665.797	86.38
666	84.38
666.203	89.38
666.406	84.38
666.609	86.38
666.812	71.38
667.015	102.38
667.218	77.38
667.421	81.38
667.624	85.38
667.827	87.38
668.03	90.38
668.232	77.38
668.435	99.38
668.638	76.38
668.841	101.38
669.043	103.38
669.246	88.38
669.449	71.38
669.651	84.38
669.854	87.38
670.057	94.38
670.259	91.38
670.462	81.38
670.665	86.38
670.867	90.38
671.07	90.38
671.272	89.38
671.475	90.38
671.677	81.38
671.88	92.38
672.082	72.38
672.284	82.38
672.487	87.38
672.689	91.38
672.892	76.38
