Data from 1974.PennyLincolnUp.Lamp.En5.5.200Scan.071719.P1.Changed Mount._HRD10591_15-52-42-856.txt Node
Date: Thu Jul 18 15:52:42 EDT 2019
User: cochatt
Spectrometer: HR+D1059
Trigger mode: 1
Integration Time (sec): 1.000000E-1
Scans to average: 1
Electric dark correction enabled: true
Nonlinearity correction enabled: false
Boxcar width: 0
XAxis mode: Wavelengths
Number of Pixels in Spectrum: 2048
>>>>>Begin Spectral Data<<<<<
223.165	-19.25
223.4	-19.25
223.635	-19.25
223.869	-24.25
224.104	-13.25
224.338	-19.25
224.573	-15.25
224.808	-16.25
225.042	-0.25
225.277	-10.25
225.511	-2.25
225.746	5.75
225.98	7.75
226.215	18.75
226.449	10.75
226.683	10.75
226.918	35.75
227.152	30.75
227.387	18.75
227.621	30.75
227.856	28.75
228.09	49.75
228.324	49.75
228.559	56.75
228.793	71.75
229.027	114.75
229.262	95.75
229.496	121.75
229.73	124.75
229.964	154.75
230.199	145.75
230.433	121.75
230.667	125.75
230.901	116.75
231.136	105.75
231.37	115.75
231.604	104.75
231.838	104.75
232.072	102.75
232.306	107.75
232.541	113.75
232.775	106.75
233.009	113.75
233.243	118.75
233.477	106.75
233.711	107.75
233.945	123.75
234.179	137.75
234.413	125.75
234.647	122.75
234.881	119.75
235.115	127.75
235.349	135.75
235.583	119.75
235.817	129.75
236.051	135.75
236.285	120.75
236.519	142.75
236.753	122.75
236.987	135.75
237.221	183.75
237.455	254.75
237.689	187.75
237.922	144.75
238.156	145.75
238.39	146.75
238.624	124.75
238.858	122.75
239.091	125.75
239.325	122.75
239.559	121.75
239.793	140.75
240.027	128.75
240.26	151.75
240.494	163.75
240.728	144.75
240.961	156.75
241.195	157.75
241.429	165.75
241.662	147.75
241.896	146.75
242.13	126.75
242.363	147.75
242.597	151.75
242.83	148.75
243.064	167.75
243.298	145.75
243.531	151.75
243.765	135.75
243.998	147.75
244.232	148.75
244.465	158.75
244.699	160.75
244.932	167.75
245.166	162.75
245.399	174.75
245.633	153.75
245.866	153.75
246.099	156.75
246.333	158.75
246.566	163.75
246.8	150.75
247.033	156.75
247.266	169.75
247.5	165.75
247.733	185.75
247.966	181.75
248.2	178.75
248.433	188.75
248.666	188.75
248.899	192.75
249.133	211.75
249.366	210.75
249.599	211.75
249.832	180.75
250.066	199.75
250.299	188.75
250.532	196.75
250.765	204.75
250.998	230.75
251.231	235.75
251.465	222.75
251.698	197.75
251.931	213.75
252.164	191.75
252.397	229.75
252.63	213.75
252.863	222.75
253.096	217.75
253.329	221.75
253.562	234.75
253.795	224.75
254.028	221.75
254.261	241.75
254.494	235.75
254.727	284.75
254.96	288.75
255.193	265.75
255.426	261.75
255.659	236.75
255.892	243.75
256.124	242.75
256.357	237.75
256.59	228.75
256.823	220.75
257.056	221.75
257.289	222.75
257.521	221.75
257.754	205.75
257.987	220.75
258.22	233.75
258.452	226.75
258.685	221.75
258.918	222.75
259.151	216.75
259.383	245.75
259.616	235.75
259.849	232.75
260.081	252.75
260.314	274.75
260.547	267.75
260.779	270.75
261.012	243.75
261.244	253.75
261.477	231.75
261.71	235.75
261.942	230.75
262.175	249.75
262.407	248.75
262.64	222.75
262.872	229.75
263.105	213.75
263.337	203.75
263.57	221.75
263.802	226.75
264.035	232.75
264.267	224.75
264.499	211.75
264.732	233.75
264.964	229.75
265.197	238.75
265.429	233.75
265.661	237.75
265.894	226.75
266.126	233.75
266.358	246.75
266.591	241.75
266.823	251.75
267.055	234.75
267.287	241.75
267.52	226.75
267.752	265.75
267.984	243.75
268.216	237.75
268.448	253.75
268.681	259.75
268.913	266.75
269.145	283.75
269.377	274.75
269.609	281.75
269.841	275.75
270.073	297.75
270.306	313.75
270.538	311.75
270.77	316.75
271.002	300.75
271.234	299.75
271.466	311.75
271.698	329.75
271.93	336.75
272.162	340.75
272.394	324.75
272.626	312.75
272.858	306.75
273.09	294.75
273.322	283.75
273.553	294.75
273.785	278.75
274.017	280.75
274.249	278.75
274.481	286.75
274.713	286.75
274.945	279.75
275.176	267.75
275.408	278.75
275.64	274.75
275.872	284.75
276.104	288.75
276.335	293.75
276.567	281.75
276.799	302.75
277.031	334.75
277.262	339.75
277.494	352.75
277.726	348.75
277.957	298.75
278.189	316.75
278.421	313.75
278.652	296.75
278.884	302.75
279.115	287.75
279.347	271.75
279.579	285.75
279.81	276.75
280.042	290.75
280.273	274.75
280.505	284.75
280.736	295.75
280.968	300.75
281.199	295.75
281.431	293.75
281.662	281.75
281.894	290.75
282.125	305.75
282.356	305.75
282.588	313.75
282.819	342.75
283.051	309.75
283.282	306.75
283.513	305.75
283.745	285.75
283.976	292.75
284.207	309.75
284.439	319.75
284.67	302.75
284.901	299.75
285.132	302.75
285.364	307.75
285.595	325.75
285.826	298.75
286.057	309.75
286.288	316.75
286.52	314.75
286.751	306.75
286.982	316.75
287.213	305.75
287.444	300.75
287.675	315.75
287.906	310.75
288.138	329.75
288.369	338.75
288.6	345.75
288.831	310.75
289.062	323.75
289.293	321.75
289.524	313.75
289.755	321.75
289.986	309.75
290.217	306.75
290.448	322.75
290.679	307.75
290.91	301.75
291.141	311.75
291.371	330.75
291.602	333.75
291.833	329.75
292.064	324.75
292.295	305.75
292.526	321.75
292.757	338.75
292.987	307.75
293.218	323.75
293.449	334.75
293.68	330.75
293.91	310.75
294.141	321.75
294.372	311.75
294.603	331.75
294.833	301.75
295.064	309.75
295.295	328.75
295.525	319.75
295.756	324.75
295.987	334.75
296.217	328.75
296.448	341.75
296.679	343.75
296.909	325.75
297.14	324.75
297.37	347.75
297.601	326.75
297.831	317.75
298.062	332.75
298.292	331.75
298.523	350.75
298.753	331.75
298.984	337.75
299.214	360.75
299.445	355.75
299.675	338.75
299.905	327.75
300.136	339.75
300.366	354.75
300.597	369.75
300.827	352.75
301.057	363.75
301.288	352.75
301.518	355.75
301.748	357.75
301.979	352.75
302.209	357.75
302.439	357.75
302.669	362.75
302.9	358.75
303.13	363.75
303.36	368.75
303.59	373.75
303.82	357.75
304.051	385.75
304.281	353.75
304.511	349.75
304.741	365.75
304.971	381.75
305.201	349.75
305.431	375.75
305.661	361.75
305.891	367.75
306.121	374.75
306.352	353.75
306.582	342.75
306.812	344.75
307.042	376.75
307.272	367.75
307.502	355.75
307.731	362.75
307.961	363.75
308.191	338.75
308.421	364.75
308.651	365.75
308.881	367.75
309.111	370.75
309.341	377.75
309.571	374.75
309.8	368.75
310.03	382.75
310.26	377.75
310.49	377.75
310.72	404.75
310.949	421.75
311.179	403.75
311.409	399.75
311.639	390.75
311.868	401.75
312.098	386.75
312.328	399.75
312.557	411.75
312.787	418.75
313.017	416.75
313.246	407.75
313.476	387.75
313.706	401.75
313.935	394.75
314.165	408.75
314.394	433.75
314.624	417.75
314.853	403.75
315.083	408.75
315.312	392.75
315.542	424.75
315.771	402.75
316.001	409.75
316.23	407.75
316.46	404.75
316.689	410.75
316.919	411.75
317.148	416.75
317.377	417.75
317.607	400.75
317.836	412.75
318.065	409.75
318.295	400.75
318.524	407.75
318.753	405.75
318.983	393.75
319.212	417.75
319.441	411.75
319.67	433.75
319.9	405.75
320.129	416.75
320.358	415.75
320.587	403.75
320.816	402.75
321.046	400.75
321.275	421.75
321.504	409.75
321.733	421.75
321.962	430.75
322.191	437.75
322.42	427.75
322.649	460.75
322.878	461.75
323.108	460.75
323.337	458.75
323.566	484.75
323.795	513.75
324.024	537.75
324.253	628.75
324.482	831.75
324.71	1229.75
324.939	1885.75
325.168	1608.75
325.397	854.75
325.626	585.75
325.855	528.75
326.084	502.75
326.313	499.75
326.542	481.75
326.77	528.75
326.999	619.75
327.228	785.75
327.457	1140.75
327.686	1405.75
327.914	973.75
328.143	661.75
328.372	575.75
328.6	564.75
328.829	520.75
329.058	565.75
329.287	564.75
329.515	540.75
329.744	513.75
329.972	517.75
330.201	505.75
330.43	567.75
330.658	568.75
330.887	561.75
331.115	582.75
331.344	531.75
331.572	499.75
331.801	523.75
332.03	510.75
332.258	483.75
332.486	483.75
332.715	474.75
332.943	487.75
333.172	504.75
333.4	507.75
333.629	533.75
333.857	532.75
334.085	518.75
334.314	545.75
334.542	555.75
334.771	568.75
334.999	542.75
335.227	486.75
335.455	487.75
335.684	501.75
335.912	500.75
336.14	493.75
336.369	495.75
336.597	517.75
336.825	505.75
337.053	504.75
337.281	481.75
337.51	491.75
337.738	477.75
337.966	475.75
338.194	491.75
338.422	473.75
338.65	466.75
338.878	486.75
339.106	472.75
339.334	454.75
339.562	456.75
339.79	443.75
340.018	458.75
340.246	468.75
340.474	472.75
340.702	472.75
340.93	448.75
341.158	454.75
341.386	464.75
341.614	465.75
341.842	446.75
342.07	462.75
342.298	459.75
342.526	457.75
342.754	474.75
342.981	466.75
343.209	469.75
343.437	458.75
343.665	463.75
343.893	497.75
344.12	476.75
344.348	477.75
344.576	467.75
344.804	446.75
345.031	472.75
345.259	476.75
345.487	480.75
345.714	477.75
345.942	453.75
346.17	483.75
346.397	444.75
346.625	442.75
346.853	449.75
347.08	453.75
347.308	445.75
347.535	446.75
347.763	459.75
347.99	470.75
348.218	445.75
348.445	454.75
348.673	440.75
348.9	465.75
349.128	455.75
349.355	438.75
349.583	438.75
349.81	439.75
350.037	443.75
350.265	434.75
350.492	439.75
350.72	444.75
350.947	429.75
351.174	453.75
351.402	447.75
351.629	453.75
351.856	443.75
352.083	452.75
352.311	482.75
352.538	460.75
352.765	480.75
352.992	481.75
353.22	449.75
353.447	437.75
353.674	444.75
353.901	445.75
354.128	438.75
354.355	430.75
354.583	443.75
354.81	433.75
355.037	445.75
355.264	425.75
355.491	420.75
355.718	442.75
355.945	439.75
356.172	436.75
356.399	433.75
356.626	436.75
356.853	441.75
357.08	436.75
357.307	430.75
357.534	409.75
357.761	449.75
357.988	439.75
358.215	417.75
358.441	451.75
358.668	453.75
358.895	428.75
359.122	450.75
359.349	420.75
359.576	452.75
359.802	481.75
360.029	492.75
360.256	498.75
360.483	486.75
360.709	458.75
360.936	465.75
361.163	466.75
361.39	465.75
361.616	466.75
361.843	465.75
362.07	442.75
362.296	469.75
362.523	470.75
362.749	447.75
362.976	455.75
363.203	428.75
363.429	445.75
363.656	440.75
363.882	450.75
364.109	431.75
364.335	443.75
364.562	446.75
364.788	445.75
365.015	429.75
365.241	439.75
365.468	441.75
365.694	439.75
365.92	454.75
366.147	460.75
366.373	446.75
366.599	453.75
366.826	456.75
367.052	458.75
367.278	449.75
367.505	458.75
367.731	462.75
367.957	444.75
368.184	447.75
368.41	462.75
368.636	436.75
368.862	467.75
369.089	445.75
369.315	443.75
369.541	439.75
369.767	444.75
369.993	471.75
370.219	445.75
370.445	469.75
370.672	433.75
370.898	454.75
371.124	428.75
371.35	413.75
371.576	437.75
371.802	460.75
372.028	451.75
372.254	459.75
372.48	446.75
372.706	456.75
372.932	455.75
373.158	464.75
373.384	451.75
373.61	443.75
373.835	462.75
374.061	450.75
374.287	454.75
374.513	466.75
374.739	465.75
374.965	473.75
375.191	473.75
375.416	475.75
375.642	445.75
375.868	483.75
376.094	449.75
376.319	466.75
376.545	439.75
376.771	453.75
376.997	437.75
377.222	443.75
377.448	450.75
377.674	448.75
377.899	478.75
378.125	443.75
378.35	457.75
378.576	433.75
378.802	453.75
379.027	453.75
379.253	445.75
379.478	453.75
379.704	442.75
379.929	448.75
380.155	450.75
380.38	462.75
380.606	473.75
380.831	477.75
381.057	447.75
381.282	458.75
381.507	455.75
381.733	451.75
381.958	461.75
382.184	433.75
382.409	466.75
382.634	455.75
382.86	435.75
383.085	476.75
383.31	477.75
383.535	478.75
383.761	467.75
383.986	490.75
384.211	470.75
384.436	497.75
384.662	497.75
384.887	478.75
385.112	502.75
385.337	482.75
385.562	517.75
385.787	498.75
386.013	513.75
386.238	512.75
386.463	520.75
386.688	513.75
386.913	506.75
387.138	512.75
387.363	504.75
387.588	483.75
387.813	511.75
388.038	529.75
388.263	511.75
388.488	519.75
388.713	508.75
388.938	504.75
389.163	503.75
389.387	507.75
389.612	513.75
389.837	528.75
390.062	499.75
390.287	529.75
390.512	497.75
390.736	505.75
390.961	507.75
391.186	511.75
391.411	530.75
391.636	553.75
391.86	542.75
392.085	524.75
392.31	533.75
392.534	531.75
392.759	520.75
392.984	525.75
393.208	502.75
393.433	527.75
393.658	515.75
393.882	533.75
394.107	529.75
394.331	537.75
394.556	530.75
394.78	541.75
395.005	521.75
395.229	525.75
395.454	518.75
395.678	559.75
395.903	566.75
396.127	565.75
396.352	553.75
396.576	531.75
396.801	531.75
397.025	549.75
397.249	550.75
397.474	542.75
397.698	563.75
397.922	546.75
398.147	557.75
398.371	595.75
398.595	590.75
398.82	586.75
399.044	613.75
399.268	635.75
399.492	667.75
399.717	721.75
399.941	728.75
400.165	773.75
400.389	717.75
400.613	675.75
400.837	636.75
401.062	621.75
401.286	615.75
401.51	577.75
401.734	593.75
401.958	616.75
402.182	609.75
402.406	613.75
402.63	612.75
402.854	593.75
403.078	605.75
403.302	607.75
403.526	641.75
403.75	635.75
403.974	616.75
404.198	639.75
404.422	641.75
404.645	629.75
404.869	628.75
405.093	693.75
405.317	737.75
405.541	711.75
405.765	681.75
405.988	648.75
406.212	645.75
406.436	675.75
406.66	665.75
406.883	677.75
407.107	693.75
407.331	754.75
407.555	805.75
407.778	805.75
408.002	738.75
408.226	698.75
408.449	700.75
408.673	667.75
408.896	711.75
409.12	745.75
409.344	713.75
409.567	639.75
409.791	636.75
410.014	617.75
410.238	612.75
410.461	618.75
410.685	604.75
410.908	635.75
411.132	675.75
411.355	701.75
411.578	666.75
411.802	642.75
412.025	633.75
412.249	635.75
412.472	667.75
412.695	690.75
412.919	653.75
413.142	622.75
413.365	617.75
413.589	612.75
413.812	598.75
414.035	588.75
414.258	613.75
414.482	613.75
414.705	586.75
414.928	593.75
415.151	583.75
415.374	596.75
415.597	589.75
415.821	584.75
416.044	563.75
416.267	602.75
416.49	598.75
416.713	574.75
416.936	567.75
417.159	610.75
417.382	587.75
417.605	613.75
417.828	587.75
418.051	621.75
418.274	609.75
418.497	607.75
418.72	587.75
418.943	587.75
419.166	621.75
419.389	659.75
419.611	661.75
419.834	628.75
420.057	643.75
420.28	626.75
420.503	613.75
420.726	597.75
420.948	617.75
421.171	693.75
421.394	681.75
421.617	652.75
421.839	609.75
422.062	614.75
422.285	628.75
422.507	696.75
422.73	737.75
422.953	725.75
423.175	663.75
423.398	631.75
423.621	619.75
423.843	645.75
424.066	668.75
424.288	644.75
424.511	665.75
424.733	724.75
424.956	809.75
425.178	806.75
425.401	762.75
425.623	798.75
425.846	690.75
426.068	649.75
426.291	649.75
426.513	658.75
426.735	663.75
426.958	654.75
427.18	767.75
427.402	921.75
427.625	983.75
427.847	858.75
428.069	745.75
428.292	674.75
428.514	629.75
428.736	636.75
428.958	614.75
429.181	607.75
429.403	581.75
429.625	584.75
429.847	636.75
430.069	693.75
430.292	684.75
430.514	608.75
430.736	595.75
430.958	579.75
431.18	568.75
431.402	586.75
431.624	566.75
431.846	555.75
432.068	554.75
432.29	570.75
432.512	577.75
432.734	562.75
432.956	572.75
433.178	577.75
433.4	589.75
433.622	596.75
433.844	578.75
434.066	573.75
434.287	578.75
434.509	580.75
434.731	572.75
434.953	594.75
435.175	616.75
435.397	651.75
435.618	643.75
435.84	671.75
436.062	773.75
436.284	853.75
436.505	733.75
436.727	643.75
436.949	614.75
437.17	605.75
437.392	577.75
437.614	619.75
437.835	642.75
438.057	696.75
438.278	829.75
438.5	839.75
438.721	919.75
438.943	879.75
439.165	707.75
439.386	648.75
439.608	644.75
439.829	645.75
440.05	659.75
440.272	723.75
440.493	649.75
440.715	662.75
440.936	623.75
441.158	602.75
441.379	617.75
441.6	619.75
441.822	641.75
442.043	695.75
442.264	783.75
442.486	821.75
442.707	710.75
442.928	665.75
443.149	651.75
443.371	693.75
443.592	747.75
443.813	837.75
444.034	891.75
444.255	747.75
444.476	698.75
444.698	683.75
444.919	664.75
445.14	778.75
445.361	707.75
445.582	686.75
445.803	726.75
446.024	862.75
446.245	850.75
446.466	778.75
446.687	693.75
446.908	645.75
447.129	611.75
447.35	588.75
447.571	596.75
447.792	600.75
448.013	585.75
448.234	615.75
448.455	643.75
448.675	791.75
448.896	886.75
449.117	790.75
449.338	703.75
449.559	823.75
449.779	936.75
450	728.75
450.221	627.75
450.442	606.75
450.662	567.75
450.883	553.75
451.104	570.75
451.324	576.75
451.545	571.75
451.766	544.75
451.986	533.75
452.207	526.75
452.428	522.75
452.648	534.75
452.869	543.75
453.089	562.75
453.31	569.75
453.53	539.75
453.751	528.75
453.971	525.75
454.192	541.75
454.412	508.75
454.633	517.75
454.853	534.75
455.073	511.75
455.294	537.75
455.514	609.75
455.734	601.75
455.955	557.75
456.175	517.75
456.395	515.75
456.616	509.75
456.836	485.75
457.056	494.75
457.276	475.75
457.497	497.75
457.717	500.75
457.937	499.75
458.157	515.75
458.377	493.75
458.598	522.75
458.818	597.75
459.038	659.75
459.258	687.75
459.478	617.75
459.698	576.75
459.918	579.75
460.138	568.75
460.358	578.75
460.578	603.75
460.798	585.75
461.018	625.75
461.238	602.75
461.458	588.75
461.678	594.75
461.898	597.75
462.118	579.75
462.338	611.75
462.558	609.75
462.777	633.75
462.997	660.75
463.217	690.75
463.437	663.75
463.657	655.75
463.876	649.75
464.096	653.75
464.316	619.75
464.536	639.75
464.755	648.75
464.975	628.75
465.195	651.75
465.414	731.75
465.634	644.75
465.854	582.75
466.073	592.75
466.293	555.75
466.512	568.75
466.732	565.75
466.951	547.75
467.171	536.75
467.391	571.75
467.61	565.75
467.829	574.75
468.049	565.75
468.268	552.75
468.488	535.75
468.707	523.75
468.927	550.75
469.146	531.75
469.365	547.75
469.585	544.75
469.804	550.75
470.023	566.75
470.243	554.75
470.462	579.75
470.681	591.75
470.901	584.75
471.12	577.75
471.339	555.75
471.558	555.75
471.777	584.75
471.997	545.75
472.216	550.75
472.435	582.75
472.654	563.75
472.873	567.75
473.092	539.75
473.311	541.75
473.53	560.75
473.749	582.75
473.968	595.75
474.187	687.75
474.406	692.75
474.625	589.75
474.844	577.75
475.063	564.75
475.282	558.75
475.501	571.75
475.72	587.75
475.939	565.75
476.158	555.75
476.377	587.75
476.596	551.75
476.814	582.75
477.033	582.75
477.252	586.75
477.471	615.75
477.69	567.75
477.908	603.75
478.127	608.75
478.346	617.75
478.564	618.75
478.783	619.75
479.002	642.75
479.22	639.75
479.439	639.75
479.658	672.75
479.876	652.75
480.095	655.75
480.313	719.75
480.532	715.75
480.751	695.75
480.969	673.75
481.188	709.75
481.406	735.75
481.624	702.75
481.843	687.75
482.061	668.75
482.28	646.75
482.498	639.75
482.717	615.75
482.935	666.75
483.153	662.75
483.372	656.75
483.59	669.75
483.808	627.75
484.027	649.75
484.245	676.75
484.463	659.75
484.681	670.75
484.9	671.75
485.118	669.75
485.336	648.75
485.554	669.75
485.772	675.75
485.99	650.75
486.209	695.75
486.427	681.75
486.645	710.75
486.863	721.75
487.081	697.75
487.299	693.75
487.517	698.75
487.735	691.75
487.953	710.75
488.171	701.75
488.389	683.75
488.607	686.75
488.825	715.75
489.043	689.75
489.261	702.75
489.479	701.75
489.696	720.75
489.914	725.75
490.132	733.75
490.35	732.75
490.568	730.75
490.786	746.75
491.003	755.75
491.221	775.75
491.439	787.75
491.657	802.75
491.874	830.75
492.092	790.75
492.31	779.75
492.527	783.75
492.745	819.75
492.963	798.75
493.18	797.75
493.398	799.75
493.615	828.75
493.833	809.75
494.05	817.75
494.268	840.75
494.485	826.75
494.703	829.75
494.92	830.75
495.138	821.75
495.355	832.75
495.573	825.75
495.79	813.75
496.008	814.75
496.225	849.75
496.442	846.75
496.66	841.75
496.877	841.75
497.094	806.75
497.312	847.75
497.529	844.75
497.746	880.75
497.963	872.75
498.181	909.75
498.398	901.75
498.615	959.75
498.832	959.75
499.049	975.75
499.267	1010.75
499.484	1059.75
499.701	1126.75
499.918	1189.75
500.135	1218.75
500.352	1330.75
500.569	1346.75
500.786	1338.75
501.003	1290.75
501.22	1235.75
501.437	1205.75
501.654	1116.75
501.871	1101.75
502.088	1054.75
502.305	1003.75
502.522	953.75
502.739	968.75
502.956	919.75
503.172	923.75
503.389	862.75
503.606	865.75
503.823	866.75
504.04	845.75
504.256	833.75
504.473	864.75
504.69	828.75
504.907	849.75
505.123	817.75
505.34	788.75
505.557	794.75
505.773	775.75
505.99	769.75
506.207	776.75
506.423	784.75
506.64	770.75
506.856	759.75
507.073	775.75
507.289	770.75
507.506	780.75
507.722	729.75
507.939	755.75
508.155	763.75
508.372	758.75
508.588	730.75
508.805	735.75
509.021	747.75
509.238	727.75
509.454	731.75
509.67	725.75
509.887	724.75
510.103	691.75
510.319	718.75
510.536	800.75
510.752	1108.75
510.968	1000.75
511.184	697.75
511.401	688.75
511.617	682.75
511.833	673.75
512.049	686.75
512.265	684.75
512.481	671.75
512.698	676.75
512.914	667.75
513.13	677.75
513.346	675.75
513.562	665.75
513.778	693.75
513.994	682.75
514.21	677.75
514.426	702.75
514.642	765.75
514.858	751.75
515.074	783.75
515.29	843.75
515.506	1163.75
515.721	1013.75
515.937	785.75
516.153	716.75
516.369	679.75
516.585	725.75
516.801	723.75
517.016	729.75
517.232	748.75
517.448	751.75
517.664	738.75
517.879	722.75
518.095	734.75
518.311	737.75
518.527	707.75
518.742	721.75
518.958	693.75
519.173	699.75
519.389	685.75
519.605	661.75
519.82	670.75
520.036	703.75
520.251	712.75
520.467	716.75
520.682	717.75
520.898	751.75
521.113	711.75
521.329	741.75
521.544	805.75
521.76	951.75
521.975	1424.75
522.19	1431.75
522.406	869.75
522.621	735.75
522.836	695.75
523.052	667.75
523.267	643.75
523.482	628.75
523.698	639.75
523.913	619.75
524.128	612.75
524.343	609.75
524.559	602.75
524.774	604.75
524.989	587.75
525.204	595.75
525.419	563.75
525.634	581.75
525.849	584.75
526.064	569.75
526.28	568.75
526.495	588.75
526.71	578.75
526.925	555.75
527.14	578.75
527.355	584.75
527.57	592.75
527.785	555.75
527.999	561.75
528.214	553.75
528.429	558.75
528.644	581.75
528.859	568.75
529.074	575.75
529.289	591.75
529.503	629.75
529.718	629.75
529.933	603.75
530.148	573.75
530.363	569.75
530.577	572.75
530.792	555.75
531.007	553.75
531.221	587.75
531.436	567.75
531.651	566.75
531.865	551.75
532.08	533.75
532.295	543.75
532.509	535.75
532.724	526.75
532.938	570.75
533.153	543.75
533.367	546.75
533.582	560.75
533.796	545.75
534.011	564.75
534.225	524.75
534.44	528.75
534.654	549.75
534.868	546.75
535.083	549.75
535.297	543.75
535.511	567.75
535.726	538.75
535.94	563.75
536.154	543.75
536.369	523.75
536.583	529.75
536.797	531.75
537.011	519.75
537.225	495.75
537.44	522.75
537.654	525.75
537.868	515.75
538.082	510.75
538.296	524.75
538.51	539.75
538.724	537.75
538.938	515.75
539.153	531.75
539.367	526.75
539.581	520.75
539.795	526.75
540.009	528.75
540.222	519.75
540.436	515.75
540.65	513.75
540.864	515.75
541.078	533.75
541.292	528.75
541.506	519.75
541.72	504.75
541.934	519.75
542.147	531.75
542.361	530.75
542.575	518.75
542.789	534.75
543.002	509.75
543.216	526.75
543.43	523.75
543.644	524.75
543.857	524.75
544.071	534.75
544.285	543.75
544.498	517.75
544.712	526.75
544.925	495.75
545.139	523.75
545.352	523.75
545.566	531.75
545.779	509.75
545.993	517.75
546.206	524.75
546.42	513.75
546.633	523.75
546.847	522.75
547.06	495.75
547.274	530.75
547.487	531.75
547.7	497.75
547.914	505.75
548.127	514.75
548.34	502.75
548.554	513.75
548.767	509.75
548.98	501.75
549.193	522.75
549.407	486.75
549.62	539.75
549.833	515.75
550.046	494.75
550.259	501.75
550.473	510.75
550.686	497.75
550.899	501.75
551.112	520.75
551.325	499.75
551.538	502.75
551.751	504.75
551.964	493.75
552.177	523.75
552.39	525.75
552.603	506.75
552.816	519.75
553.029	528.75
553.242	545.75
553.455	531.75
553.667	545.75
553.88	556.75
554.093	529.75
554.306	525.75
554.519	509.75
554.732	532.75
554.944	505.75
555.157	498.75
555.37	509.75
555.583	484.75
555.795	455.75
556.008	466.75
556.221	479.75
556.433	480.75
556.646	471.75
556.859	481.75
557.071	458.75
557.284	450.75
557.496	465.75
557.709	460.75
557.921	445.75
558.134	468.75
558.346	475.75
558.559	437.75
558.771	447.75
558.984	448.75
559.196	437.75
559.409	449.75
559.621	451.75
559.833	460.75
560.046	438.75
560.258	445.75
560.47	437.75
560.683	441.75
560.895	447.75
561.107	442.75
561.32	452.75
561.532	456.75
561.744	434.75
561.956	430.75
562.168	450.75
562.381	457.75
562.593	449.75
562.805	472.75
563.017	459.75
563.229	453.75
563.441	474.75
563.653	451.75
563.865	454.75
564.077	453.75
564.289	466.75
564.501	462.75
564.713	473.75
564.925	479.75
565.137	517.75
565.349	503.75
565.561	511.75
565.773	508.75
565.985	533.75
566.197	540.75
566.408	539.75
566.62	562.75
566.832	580.75
567.044	601.75
567.255	598.75
567.467	595.75
567.679	604.75
567.891	628.75
568.102	634.75
568.314	599.75
568.526	587.75
568.737	566.75
568.949	537.75
569.161	481.75
569.372	490.75
569.584	508.75
569.795	477.75
570.007	463.75
570.218	490.75
570.43	492.75
570.641	467.75
570.853	468.75
571.064	436.75
571.276	443.75
571.487	456.75
571.698	429.75
571.91	419.75
572.121	417.75
572.333	427.75
572.544	403.75
572.755	409.75
572.966	414.75
573.178	400.75
573.389	416.75
573.6	412.75
573.811	402.75
574.023	393.75
574.234	383.75
574.445	397.75
574.656	390.75
574.867	394.75
575.078	389.75
575.289	386.75
575.501	393.75
575.712	384.75
575.923	388.75
576.134	377.75
576.345	381.75
576.556	375.75
576.767	382.75
576.978	366.75
577.188	369.75
577.399	381.75
577.61	375.75
577.821	365.75
578.032	369.75
578.243	381.75
578.454	526.75
578.665	445.75
578.875	383.75
579.086	350.75
579.297	353.75
579.508	339.75
579.718	354.75
579.929	362.75
580.14	358.75
580.35	345.75
580.561	369.75
580.772	347.75
580.982	346.75
581.193	343.75
581.403	348.75
581.614	348.75
581.825	361.75
582.035	341.75
582.246	358.75
582.456	349.75
582.667	376.75
582.877	339.75
583.087	341.75
583.298	343.75
583.508	335.75
583.719	351.75
583.929	366.75
584.139	342.75
584.35	342.75
584.56	333.75
584.77	346.75
584.981	335.75
585.191	359.75
585.401	355.75
585.611	345.75
585.821	350.75
586.032	355.75
586.242	346.75
586.452	356.75
586.662	335.75
586.872	333.75
587.082	359.75
587.292	349.75
587.502	328.75
587.713	333.75
587.923	328.75
588.133	333.75
588.343	335.75
588.553	336.75
588.762	349.75
588.972	335.75
589.182	339.75
589.392	334.75
589.602	334.75
589.812	315.75
590.022	348.75
590.232	329.75
590.441	346.75
590.651	338.75
590.861	348.75
591.071	341.75
591.281	329.75
591.49	328.75
591.7	336.75
591.91	369.75
592.119	367.75
592.329	356.75
592.539	377.75
592.748	362.75
592.958	360.75
593.167	371.75
593.377	359.75
593.587	369.75
593.796	375.75
594.006	359.75
594.215	364.75
594.424	374.75
594.634	386.75
594.843	363.75
595.053	341.75
595.262	343.75
595.472	362.75
595.681	338.75
595.89	318.75
596.1	339.75
596.309	324.75
596.518	349.75
596.727	320.75
596.937	335.75
597.146	319.75
597.355	306.75
597.564	302.75
597.774	309.75
597.983	305.75
598.192	322.75
598.401	315.75
598.61	307.75
598.819	310.75
599.028	306.75
599.237	308.75
599.446	310.75
599.655	307.75
599.864	314.75
600.073	317.75
600.282	305.75
600.491	302.75
600.7	320.75
600.909	298.75
601.118	302.75
601.327	308.75
601.536	289.75
601.745	293.75
601.953	285.75
602.162	314.75
602.371	302.75
602.58	308.75
602.789	299.75
602.997	287.75
603.206	309.75
603.415	281.75
603.623	286.75
603.832	276.75
604.041	289.75
604.249	286.75
604.458	290.75
604.666	267.75
604.875	271.75
605.084	271.75
605.292	283.75
605.501	311.75
605.709	270.75
605.918	284.75
606.126	292.75
606.334	290.75
606.543	285.75
606.751	277.75
606.96	293.75
607.168	291.75
607.376	257.75
607.585	267.75
607.793	266.75
608.001	277.75
608.21	299.75
608.418	280.75
608.626	285.75
608.834	277.75
609.043	284.75
609.251	264.75
609.459	269.75
609.667	286.75
609.875	297.75
610.083	270.75
610.291	267.75
610.499	269.75
610.707	293.75
610.916	283.75
611.124	259.75
611.332	301.75
611.54	284.75
611.748	269.75
611.955	283.75
612.163	277.75
612.371	267.75
612.579	262.75
612.787	269.75
612.995	266.75
613.203	293.75
613.411	272.75
613.618	287.75
613.826	291.75
614.034	277.75
614.242	274.75
614.449	271.75
614.657	279.75
614.865	277.75
615.072	288.75
615.28	283.75
615.488	261.75
615.695	263.75
615.903	267.75
616.111	285.75
616.318	279.75
616.526	254.75
616.733	275.75
616.941	271.75
617.148	270.75
617.356	266.75
617.563	274.75
617.771	262.75
617.978	253.75
618.185	269.75
618.393	261.75
618.6	265.75
618.807	278.75
619.015	270.75
619.222	291.75
619.429	266.75
619.637	282.75
619.844	269.75
620.051	276.75
620.258	249.75
620.466	263.75
620.673	237.75
620.88	275.75
621.087	247.75
621.294	262.75
621.501	237.75
621.708	281.75
621.915	257.75
622.122	259.75
622.329	259.75
622.536	251.75
622.743	250.75
622.95	266.75
623.157	249.75
623.364	268.75
623.571	252.75
623.778	248.75
623.985	248.75
624.192	237.75
624.399	247.75
624.606	246.75
624.812	238.75
625.019	223.75
625.226	243.75
625.433	221.75
625.639	257.75
625.846	230.75
626.053	250.75
626.259	225.75
626.466	218.75
626.673	234.75
626.879	226.75
627.086	227.75
627.293	225.75
627.499	230.75
627.706	222.75
627.912	211.75
628.119	226.75
628.325	221.75
628.532	226.75
628.738	225.75
628.945	231.75
629.151	229.75
629.357	253.75
629.564	227.75
629.77	230.75
629.976	220.75
630.183	217.75
630.389	209.75
630.595	222.75
630.802	215.75
631.008	228.75
631.214	215.75
631.42	226.75
631.627	211.75
631.833	200.75
632.039	212.75
632.245	211.75
632.451	202.75
632.657	211.75
632.863	202.75
633.069	215.75
633.275	218.75
633.481	202.75
633.688	212.75
633.893	207.75
634.099	201.75
634.305	218.75
634.511	206.75
634.717	199.75
634.923	196.75
635.129	217.75
635.335	220.75
635.541	212.75
635.747	196.75
635.952	212.75
636.158	210.75
636.364	184.75
636.57	218.75
636.775	207.75
636.981	199.75
637.187	190.75
637.392	211.75
637.598	203.75
637.804	210.75
638.009	209.75
638.215	193.75
638.421	219.75
638.626	187.75
638.832	202.75
639.037	182.75
639.243	200.75
639.448	203.75
639.654	197.75
639.859	195.75
640.065	195.75
640.27	189.75
640.475	185.75
640.681	181.75
640.886	206.75
641.091	201.75
641.297	197.75
641.502	195.75
641.707	188.75
641.913	192.75
642.118	201.75
642.323	191.75
642.528	198.75
642.733	193.75
642.939	188.75
643.144	187.75
643.349	198.75
643.554	181.75
643.759	203.75
643.964	183.75
644.169	187.75
644.374	190.75
644.579	191.75
644.784	201.75
644.989	177.75
645.194	186.75
645.399	197.75
645.604	193.75
645.809	190.75
646.014	189.75
646.219	202.75
646.423	189.75
646.628	166.75
646.833	181.75
647.038	191.75
647.243	185.75
647.447	187.75
647.652	181.75
647.857	180.75
648.062	183.75
648.266	183.75
648.471	193.75
648.676	189.75
648.88	197.75
649.085	194.75
649.289	191.75
649.494	212.75
649.698	198.75
649.903	189.75
650.107	188.75
650.312	189.75
650.516	186.75
650.721	178.75
650.925	178.75
651.13	171.75
651.334	163.75
651.539	169.75
651.743	178.75
651.947	158.75
652.152	169.75
652.356	157.75
652.56	153.75
652.764	153.75
652.969	155.75
653.173	172.75
653.377	151.75
653.581	155.75
653.785	139.75
653.99	165.75
654.194	141.75
654.398	145.75
654.602	145.75
654.806	154.75
655.01	167.75
655.214	161.75
655.418	151.75
655.622	141.75
655.826	137.75
656.03	139.75
656.234	142.75
656.438	132.75
656.642	144.75
656.846	135.75
657.049	131.75
657.253	130.75
657.457	131.75
657.661	131.75
657.865	121.75
658.068	121.75
658.272	106.75
658.476	115.75
658.68	108.75
658.883	121.75
659.087	99.75
659.291	114.75
659.494	97.75
659.698	101.75
659.901	102.75
660.105	104.75
660.309	97.75
660.512	101.75
660.716	98.75
660.919	118.75
661.123	91.75
661.326	90.75
661.53	96.75
661.733	95.75
661.936	96.75
662.14	92.75
662.343	97.75
662.546	97.75
662.75	94.75
662.953	87.75
663.156	86.75
663.36	82.75
663.563	78.75
663.766	77.75
663.969	64.75
664.173	77.75
664.376	85.75
664.579	99.75
664.782	71.75
664.985	74.75
665.188	76.75
665.391	86.75
665.594	79.75
665.797	90.75
666	87.75
666.203	76.75
666.406	74.75
666.609	83.75
666.812	82.75
667.015	85.75
667.218	97.75
667.421	84.75
667.624	78.75
667.827	84.75
668.03	76.75
668.232	79.75
668.435	79.75
668.638	80.75
668.841	85.75
669.043	82.75
669.246	95.75
669.449	86.75
669.651	92.75
669.854	82.75
670.057	91.75
670.259	77.75
670.462	88.75
670.665	74.75
670.867	85.75
671.07	70.75
671.272	78.75
671.475	85.75
671.677	82.75
671.88	86.75
672.082	73.75
672.284	77.75
672.487	83.75
672.689	97.75
672.892	85.75
