Data from 1974.PennyLincolnUp.Lamp.En5.5.200Scan.071719.P1.Changed Mount._HRD10591_15-51-21-856.txt Node
Date: Thu Jul 18 15:51:21 EDT 2019
User: cochatt
Spectrometer: HR+D1059
Trigger mode: 1
Integration Time (sec): 1.000000E-1
Scans to average: 1
Electric dark correction enabled: true
Nonlinearity correction enabled: false
Boxcar width: 0
XAxis mode: Wavelengths
Number of Pixels in Spectrum: 2048
>>>>>Begin Spectral Data<<<<<
223.165	-9.31
223.4	-9.31
223.635	-9.31
223.869	-9.31
224.104	-31.31
224.338	-22.31
224.573	-26.31
224.808	-4.31
225.042	-5.31
225.277	-10.31
225.511	-2.31
225.746	1.69
225.98	-4.31
226.215	0.69
226.449	37.69
226.683	26.69
226.918	27.69
227.152	30.69
227.387	33.69
227.621	42.69
227.856	51.69
228.09	45.69
228.324	49.69
228.559	39.69
228.793	66.69
229.027	102.69
229.262	117.69
229.496	113.69
229.73	119.69
229.964	148.69
230.199	124.69
230.433	108.69
230.667	121.69
230.901	105.69
231.136	122.69
231.37	109.69
231.604	118.69
231.838	120.69
232.072	119.69
232.306	108.69
232.541	119.69
232.775	97.69
233.009	97.69
233.243	124.69
233.477	118.69
233.711	119.69
233.945	113.69
234.179	102.69
234.413	103.69
234.647	109.69
234.881	124.69
235.115	114.69
235.349	116.69
235.583	129.69
235.817	125.69
236.051	100.69
236.285	135.69
236.519	125.69
236.753	121.69
236.987	122.69
237.221	177.69
237.455	213.69
237.689	171.69
237.922	141.69
238.156	152.69
238.39	132.69
238.624	141.69
238.858	122.69
239.091	117.69
239.325	119.69
239.559	131.69
239.793	134.69
240.027	133.69
240.26	129.69
240.494	151.69
240.728	146.69
240.961	148.69
241.195	137.69
241.429	151.69
241.662	128.69
241.896	135.69
242.13	141.69
242.363	122.69
242.597	139.69
242.83	140.69
243.064	146.69
243.298	131.69
243.531	149.69
243.765	134.69
243.998	132.69
244.232	137.69
244.465	130.69
244.699	148.69
244.932	141.69
245.166	153.69
245.399	153.69
245.633	138.69
245.866	161.69
246.099	139.69
246.333	150.69
246.566	158.69
246.8	165.69
247.033	150.69
247.266	155.69
247.5	153.69
247.733	168.69
247.966	188.69
248.2	160.69
248.433	189.69
248.666	166.69
248.899	179.69
249.133	183.69
249.366	200.69
249.599	213.69
249.832	180.69
250.066	177.69
250.299	177.69
250.532	190.69
250.765	185.69
250.998	189.69
251.231	212.69
251.465	197.69
251.698	188.69
251.931	213.69
252.164	197.69
252.397	177.69
252.63	190.69
252.863	193.69
253.096	202.69
253.329	220.69
253.562	218.69
253.795	220.69
254.028	231.69
254.261	201.69
254.494	218.69
254.727	215.69
254.96	266.69
255.193	256.69
255.426	247.69
255.659	207.69
255.892	220.69
256.124	218.69
256.357	232.69
256.59	205.69
256.823	213.69
257.056	207.69
257.289	196.69
257.521	203.69
257.754	202.69
257.987	202.69
258.22	202.69
258.452	209.69
258.685	200.69
258.918	199.69
259.151	196.69
259.383	210.69
259.616	218.69
259.849	208.69
260.081	220.69
260.314	237.69
260.547	237.69
260.779	228.69
261.012	237.69
261.244	225.69
261.477	226.69
261.71	212.69
261.942	226.69
262.175	209.69
262.407	225.69
262.64	204.69
262.872	206.69
263.105	234.69
263.337	204.69
263.57	225.69
263.802	222.69
264.035	195.69
264.267	197.69
264.499	220.69
264.732	199.69
264.964	197.69
265.197	206.69
265.429	214.69
265.661	198.69
265.894	219.69
266.126	236.69
266.358	227.69
266.591	217.69
266.823	217.69
267.055	227.69
267.287	235.69
267.52	242.69
267.752	229.69
267.984	218.69
268.216	209.69
268.448	238.69
268.681	239.69
268.913	213.69
269.145	260.69
269.377	259.69
269.609	259.69
269.841	255.69
270.073	269.69
270.306	278.69
270.538	312.69
270.77	299.69
271.002	293.69
271.234	289.69
271.466	263.69
271.698	286.69
271.93	292.69
272.162	289.69
272.394	296.69
272.626	295.69
272.858	275.69
273.09	250.69
273.322	274.69
273.553	255.69
273.785	245.69
274.017	255.69
274.249	253.69
274.481	266.69
274.713	263.69
274.945	268.69
275.176	253.69
275.408	272.69
275.64	275.69
275.872	250.69
276.104	234.69
276.335	266.69
276.567	254.69
276.799	267.69
277.031	277.69
277.262	284.69
277.494	295.69
277.726	287.69
277.957	289.69
278.189	261.69
278.421	269.69
278.652	259.69
278.884	270.69
279.115	269.69
279.347	261.69
279.579	265.69
279.81	262.69
280.042	264.69
280.273	249.69
280.505	281.69
280.736	266.69
280.968	263.69
281.199	257.69
281.431	264.69
281.662	278.69
281.894	275.69
282.125	262.69
282.356	280.69
282.588	291.69
282.819	276.69
283.051	275.69
283.282	278.69
283.513	277.69
283.745	277.69
283.976	285.69
284.207	288.69
284.439	271.69
284.67	297.69
284.901	261.69
285.132	266.69
285.364	274.69
285.595	281.69
285.826	281.69
286.057	278.69
286.288	278.69
286.52	308.69
286.751	283.69
286.982	276.69
287.213	282.69
287.444	306.69
287.675	286.69
287.906	295.69
288.138	302.69
288.369	290.69
288.6	309.69
288.831	295.69
289.062	289.69
289.293	292.69
289.524	277.69
289.755	290.69
289.986	309.69
290.217	294.69
290.448	305.69
290.679	309.69
290.91	303.69
291.141	299.69
291.371	316.69
291.602	287.69
291.833	287.69
292.064	301.69
292.295	290.69
292.526	314.69
292.757	293.69
292.987	284.69
293.218	283.69
293.449	298.69
293.68	297.69
293.91	295.69
294.141	311.69
294.372	295.69
294.603	314.69
294.833	300.69
295.064	296.69
295.295	297.69
295.525	303.69
295.756	314.69
295.987	309.69
296.217	306.69
296.448	315.69
296.679	297.69
296.909	299.69
297.14	302.69
297.37	318.69
297.601	317.69
297.831	306.69
298.062	320.69
298.292	321.69
298.523	310.69
298.753	295.69
298.984	302.69
299.214	313.69
299.445	278.69
299.675	298.69
299.905	312.69
300.136	318.69
300.366	302.69
300.597	298.69
300.827	331.69
301.057	313.69
301.288	324.69
301.518	321.69
301.748	308.69
301.979	318.69
302.209	323.69
302.439	326.69
302.669	338.69
302.9	310.69
303.13	326.69
303.36	340.69
303.59	339.69
303.82	330.69
304.051	327.69
304.281	316.69
304.511	315.69
304.741	310.69
304.971	324.69
305.201	318.69
305.431	310.69
305.661	315.69
305.891	331.69
306.121	325.69
306.352	329.69
306.582	317.69
306.812	322.69
307.042	343.69
307.272	322.69
307.502	329.69
307.731	331.69
307.961	342.69
308.191	319.69
308.421	318.69
308.651	329.69
308.881	314.69
309.111	350.69
309.341	336.69
309.571	339.69
309.8	321.69
310.03	354.69
310.26	354.69
310.49	343.69
310.72	364.69
310.949	381.69
311.179	332.69
311.409	358.69
311.639	337.69
311.868	361.69
312.098	353.69
312.328	370.69
312.557	377.69
312.787	393.69
313.017	352.69
313.246	372.69
313.476	347.69
313.706	359.69
313.935	369.69
314.165	371.69
314.394	367.69
314.624	377.69
314.853	353.69
315.083	360.69
315.312	337.69
315.542	363.69
315.771	373.69
316.001	364.69
316.23	359.69
316.46	353.69
316.689	367.69
316.919	365.69
317.148	381.69
317.377	375.69
317.607	371.69
317.836	355.69
318.065	371.69
318.295	356.69
318.524	374.69
318.753	362.69
318.983	346.69
319.212	355.69
319.441	364.69
319.67	366.69
319.9	369.69
320.129	359.69
320.358	384.69
320.587	372.69
320.816	380.69
321.046	390.69
321.275	371.69
321.504	386.69
321.733	367.69
321.962	364.69
322.191	377.69
322.42	380.69
322.649	389.69
322.878	395.69
323.108	401.69
323.337	401.69
323.566	425.69
323.795	449.69
324.024	468.69
324.253	533.69
324.482	684.69
324.71	1031.69
324.939	1571.69
325.168	1359.69
325.397	705.69
325.626	508.69
325.855	454.69
326.084	428.69
326.313	441.69
326.542	451.69
326.77	451.69
326.999	513.69
327.228	651.69
327.457	964.69
327.686	1207.69
327.914	788.69
328.143	553.69
328.372	489.69
328.6	463.69
328.829	470.69
329.058	485.69
329.287	494.69
329.515	479.69
329.744	448.69
329.972	439.69
330.201	445.69
330.43	474.69
330.658	479.69
330.887	489.69
331.115	514.69
331.344	479.69
331.572	453.69
331.801	445.69
332.03	466.69
332.258	449.69
332.486	452.69
332.715	434.69
332.943	440.69
333.172	460.69
333.4	447.69
333.629	469.69
333.857	477.69
334.085	461.69
334.314	473.69
334.542	485.69
334.771	501.69
334.999	483.69
335.227	451.69
335.455	468.69
335.684	455.69
335.912	435.69
336.14	449.69
336.369	426.69
336.597	443.69
336.825	445.69
337.053	452.69
337.281	434.69
337.51	413.69
337.738	446.69
337.966	433.69
338.194	452.69
338.422	437.69
338.65	440.69
338.878	434.69
339.106	417.69
339.334	441.69
339.562	444.69
339.79	398.69
340.018	414.69
340.246	390.69
340.474	430.69
340.702	433.69
340.93	414.69
341.158	419.69
341.386	402.69
341.614	418.69
341.842	423.69
342.07	404.69
342.298	419.69
342.526	420.69
342.754	420.69
342.981	411.69
343.209	387.69
343.437	421.69
343.665	425.69
343.893	456.69
344.12	439.69
344.348	451.69
344.576	435.69
344.804	445.69
345.031	452.69
345.259	444.69
345.487	419.69
345.714	399.69
345.942	398.69
346.17	414.69
346.397	430.69
346.625	413.69
346.853	417.69
347.08	404.69
347.308	389.69
347.535	418.69
347.763	426.69
347.99	406.69
348.218	407.69
348.445	393.69
348.673	420.69
348.9	423.69
349.128	403.69
349.355	415.69
349.583	413.69
349.81	397.69
350.037	414.69
350.265	403.69
350.492	413.69
350.72	393.69
350.947	418.69
351.174	406.69
351.402	410.69
351.629	407.69
351.856	410.69
352.083	393.69
352.311	407.69
352.538	417.69
352.765	403.69
352.992	403.69
353.22	405.69
353.447	404.69
353.674	411.69
353.901	418.69
354.128	394.69
354.355	389.69
354.583	395.69
354.81	406.69
355.037	403.69
355.264	412.69
355.491	412.69
355.718	390.69
355.945	396.69
356.172	391.69
356.399	384.69
356.626	405.69
356.853	389.69
357.08	377.69
357.307	409.69
357.534	388.69
357.761	375.69
357.988	375.69
358.215	382.69
358.441	388.69
358.668	397.69
358.895	404.69
359.122	403.69
359.349	394.69
359.576	407.69
359.802	404.69
360.029	441.69
360.256	454.69
360.483	413.69
360.709	412.69
360.936	437.69
361.163	413.69
361.39	414.69
361.616	422.69
361.843	398.69
362.07	417.69
362.296	408.69
362.523	405.69
362.749	413.69
362.976	396.69
363.203	389.69
363.429	407.69
363.656	435.69
363.882	392.69
364.109	405.69
364.335	381.69
364.562	411.69
364.788	404.69
365.015	405.69
365.241	381.69
365.468	398.69
365.694	403.69
365.92	407.69
366.147	411.69
366.373	408.69
366.599	406.69
366.826	387.69
367.052	395.69
367.278	422.69
367.505	405.69
367.731	404.69
367.957	410.69
368.184	404.69
368.41	414.69
368.636	398.69
368.862	431.69
369.089	408.69
369.315	437.69
369.541	398.69
369.767	420.69
369.993	422.69
370.219	392.69
370.445	400.69
370.672	419.69
370.898	407.69
371.124	400.69
371.35	412.69
371.576	416.69
371.802	402.69
372.028	406.69
372.254	417.69
372.48	435.69
372.706	414.69
372.932	423.69
373.158	424.69
373.384	413.69
373.61	437.69
373.835	417.69
374.061	412.69
374.287	408.69
374.513	433.69
374.739	430.69
374.965	429.69
375.191	433.69
375.416	413.69
375.642	429.69
375.868	443.69
376.094	436.69
376.319	423.69
376.545	429.69
376.771	418.69
376.997	407.69
377.222	430.69
377.448	413.69
377.674	443.69
377.899	425.69
378.125	427.69
378.35	410.69
378.576	419.69
378.802	406.69
379.027	424.69
379.253	417.69
379.478	395.69
379.704	430.69
379.929	420.69
380.155	422.69
380.38	419.69
380.606	413.69
380.831	422.69
381.057	425.69
381.282	422.69
381.507	411.69
381.733	426.69
381.958	409.69
382.184	428.69
382.409	434.69
382.634	437.69
382.86	438.69
383.085	438.69
383.31	443.69
383.535	443.69
383.761	448.69
383.986	464.69
384.211	452.69
384.436	443.69
384.662	465.69
384.887	453.69
385.112	468.69
385.337	471.69
385.562	458.69
385.787	474.69
386.013	482.69
386.238	478.69
386.463	494.69
386.688	464.69
386.913	471.69
387.138	468.69
387.363	475.69
387.588	463.69
387.813	481.69
388.038	455.69
388.263	490.69
388.488	457.69
388.713	473.69
388.938	471.69
389.163	464.69
389.387	493.69
389.612	468.69
389.837	460.69
390.062	465.69
390.287	473.69
390.512	466.69
390.736	475.69
390.961	468.69
391.186	470.69
391.411	490.69
391.636	478.69
391.86	491.69
392.085	475.69
392.31	498.69
392.534	499.69
392.759	477.69
392.984	493.69
393.208	477.69
393.433	480.69
393.658	497.69
393.882	493.69
394.107	490.69
394.331	466.69
394.556	461.69
394.78	481.69
395.005	484.69
395.229	503.69
395.454	486.69
395.678	508.69
395.903	503.69
396.127	518.69
396.352	529.69
396.576	499.69
396.801	489.69
397.025	475.69
397.249	494.69
397.474	485.69
397.698	507.69
397.922	513.69
398.147	551.69
398.371	537.69
398.595	521.69
398.82	526.69
399.044	543.69
399.268	565.69
399.492	611.69
399.717	663.69
399.941	670.69
400.165	691.69
400.389	675.69
400.613	609.69
400.837	569.69
401.062	558.69
401.286	555.69
401.51	569.69
401.734	544.69
401.958	562.69
402.182	556.69
402.406	577.69
402.63	567.69
402.854	575.69
403.078	571.69
403.302	557.69
403.526	580.69
403.75	577.69
403.974	581.69
404.198	562.69
404.422	585.69
404.645	584.69
404.869	596.69
405.093	614.69
405.317	652.69
405.541	659.69
405.765	637.69
405.988	580.69
406.212	625.69
406.436	615.69
406.66	642.69
406.883	619.69
407.107	648.69
407.331	642.69
407.555	741.69
407.778	743.69
408.002	685.69
408.226	647.69
408.449	625.69
408.673	618.69
408.896	661.69
409.12	705.69
409.344	659.69
409.567	615.69
409.791	574.69
410.014	574.69
410.238	564.69
410.461	564.69
410.685	571.69
410.908	586.69
411.132	619.69
411.355	655.69
411.578	638.69
411.802	576.69
412.025	547.69
412.249	586.69
412.472	604.69
412.695	643.69
412.919	605.69
413.142	570.69
413.365	555.69
413.589	541.69
413.812	543.69
414.035	540.69
414.258	533.69
414.482	566.69
414.705	525.69
414.928	534.69
415.151	537.69
415.374	539.69
415.597	524.69
415.821	533.69
416.044	537.69
416.267	552.69
416.49	556.69
416.713	519.69
416.936	522.69
417.159	555.69
417.382	526.69
417.605	558.69
417.828	574.69
418.051	569.69
418.274	574.69
418.497	530.69
418.72	539.69
418.943	542.69
419.166	571.69
419.389	575.69
419.611	589.69
419.834	581.69
420.057	575.69
420.28	578.69
420.503	552.69
420.726	567.69
420.948	581.69
421.171	619.69
421.394	636.69
421.617	589.69
421.839	561.69
422.062	566.69
422.285	569.69
422.507	628.69
422.73	679.69
422.953	691.69
423.175	577.69
423.398	582.69
423.621	577.69
423.843	613.69
424.066	614.69
424.288	592.69
424.511	616.69
424.733	686.69
424.956	725.69
425.178	737.69
425.401	717.69
425.623	722.69
425.846	625.69
426.068	603.69
426.291	567.69
426.513	571.69
426.735	586.69
426.958	627.69
427.18	711.69
427.402	836.69
427.625	910.69
427.847	750.69
428.069	662.69
428.292	609.69
428.514	578.69
428.736	548.69
428.958	551.69
429.181	541.69
429.403	518.69
429.625	551.69
429.847	607.69
430.069	646.69
430.292	667.69
430.514	547.69
430.736	533.69
430.958	542.69
431.18	528.69
431.402	501.69
431.624	502.69
431.846	510.69
432.068	516.69
432.29	502.69
432.512	514.69
432.734	562.69
432.956	550.69
433.178	532.69
433.4	536.69
433.622	531.69
433.844	528.69
434.066	549.69
434.287	519.69
434.509	512.69
434.731	556.69
434.953	566.69
435.175	535.69
435.397	579.69
435.618	567.69
435.84	626.69
436.062	731.69
436.284	777.69
436.505	626.69
436.727	577.69
436.949	565.69
437.17	525.69
437.392	529.69
437.614	552.69
437.835	567.69
438.057	634.69
438.278	753.69
438.5	745.69
438.721	813.69
438.943	804.69
439.165	623.69
439.386	581.69
439.608	569.69
439.829	568.69
440.05	576.69
440.272	626.69
440.493	614.69
440.715	577.69
440.936	542.69
441.158	548.69
441.379	563.69
441.6	539.69
441.822	565.69
442.043	605.69
442.264	689.69
442.486	728.69
442.707	636.69
442.928	615.69
443.149	609.69
443.371	599.69
443.592	625.69
443.813	747.69
444.034	801.69
444.255	679.69
444.476	632.69
444.698	630.69
444.919	617.69
445.14	734.69
445.361	675.69
445.582	639.69
445.803	655.69
446.024	771.69
446.245	771.69
446.466	718.69
446.687	601.69
446.908	591.69
447.129	559.69
447.35	548.69
447.571	547.69
447.792	526.69
448.013	523.69
448.234	555.69
448.455	609.69
448.675	681.69
448.896	792.69
449.117	676.69
449.338	650.69
449.559	739.69
449.779	876.69
450	691.69
450.221	565.69
450.442	551.69
450.662	516.69
450.883	499.69
451.104	525.69
451.324	509.69
451.545	517.69
451.766	511.69
451.986	511.69
452.207	471.69
452.428	470.69
452.648	474.69
452.869	475.69
453.089	493.69
453.31	492.69
453.53	482.69
453.751	487.69
453.971	478.69
454.192	498.69
454.412	484.69
454.633	478.69
454.853	457.69
455.073	471.69
455.294	495.69
455.514	574.69
455.734	544.69
455.955	498.69
456.175	460.69
456.395	476.69
456.616	456.69
456.836	459.69
457.056	476.69
457.276	472.69
457.497	452.69
457.717	461.69
457.937	446.69
458.157	463.69
458.377	451.69
458.598	486.69
458.818	511.69
459.038	590.69
459.258	620.69
459.478	558.69
459.698	526.69
459.918	520.69
460.138	521.69
460.358	549.69
460.578	502.69
460.798	551.69
461.018	547.69
461.238	551.69
461.458	531.69
461.678	530.69
461.898	546.69
462.118	533.69
462.338	557.69
462.558	589.69
462.777	559.69
462.997	623.69
463.217	611.69
463.437	621.69
463.657	616.69
463.876	587.69
464.096	603.69
464.316	603.69
464.536	591.69
464.755	588.69
464.975	581.69
465.195	574.69
465.414	631.69
465.634	565.69
465.854	563.69
466.073	527.69
466.293	524.69
466.512	519.69
466.732	510.69
466.951	538.69
467.171	492.69
467.391	489.69
467.61	478.69
467.829	507.69
468.049	499.69
468.268	499.69
468.488	498.69
468.707	504.69
468.927	481.69
469.146	495.69
469.365	502.69
469.585	497.69
469.804	499.69
470.023	512.69
470.243	508.69
470.462	481.69
470.681	522.69
470.901	520.69
471.12	505.69
471.339	493.69
471.558	505.69
471.777	517.69
471.997	518.69
472.216	516.69
472.435	535.69
472.654	513.69
472.873	510.69
473.092	510.69
473.311	513.69
473.53	504.69
473.749	510.69
473.968	525.69
474.187	608.69
474.406	647.69
474.625	542.69
474.844	525.69
475.063	507.69
475.282	508.69
475.501	513.69
475.72	543.69
475.939	506.69
476.158	526.69
476.377	497.69
476.596	504.69
476.814	521.69
477.033	518.69
477.252	536.69
477.471	513.69
477.69	540.69
477.908	563.69
478.127	569.69
478.346	572.69
478.564	585.69
478.783	569.69
479.002	601.69
479.22	612.69
479.439	617.69
479.658	612.69
479.876	647.69
480.095	618.69
480.313	637.69
480.532	633.69
480.751	625.69
480.969	639.69
481.188	650.69
481.406	657.69
481.624	618.69
481.843	611.69
482.061	611.69
482.28	588.69
482.498	604.69
482.717	585.69
482.935	575.69
483.153	591.69
483.372	590.69
483.59	603.69
483.808	618.69
484.027	594.69
484.245	561.69
484.463	610.69
484.681	602.69
484.9	612.69
485.118	604.69
485.336	598.69
485.554	616.69
485.772	613.69
485.99	630.69
486.209	620.69
486.427	631.69
486.645	618.69
486.863	630.69
487.081	651.69
487.299	654.69
487.517	647.69
487.735	631.69
487.953	622.69
488.171	643.69
488.389	657.69
488.607	621.69
488.825	609.69
489.043	655.69
489.261	647.69
489.479	647.69
489.696	644.69
489.914	643.69
490.132	656.69
490.35	658.69
490.568	665.69
490.786	683.69
491.003	694.69
491.221	685.69
491.439	707.69
491.657	705.69
491.874	737.69
492.092	722.69
492.31	740.69
492.527	765.69
492.745	722.69
492.963	726.69
493.18	758.69
493.398	734.69
493.615	738.69
493.833	729.69
494.05	752.69
494.268	750.69
494.485	745.69
494.703	732.69
494.92	760.69
495.138	747.69
495.355	757.69
495.573	756.69
495.79	761.69
496.008	756.69
496.225	744.69
496.442	732.69
496.66	757.69
496.877	750.69
497.094	785.69
497.312	775.69
497.529	756.69
497.746	774.69
497.963	811.69
498.181	818.69
498.398	851.69
498.615	866.69
498.832	877.69
499.049	863.69
499.267	903.69
499.484	981.69
499.701	999.69
499.918	1057.69
500.135	1139.69
500.352	1182.69
500.569	1170.69
500.786	1194.69
501.003	1202.69
501.22	1195.69
501.437	1109.69
501.654	1051.69
501.871	1025.69
502.088	946.69
502.305	918.69
502.522	879.69
502.739	863.69
502.956	846.69
503.172	812.69
503.389	808.69
503.606	787.69
503.823	773.69
504.04	758.69
504.256	789.69
504.473	788.69
504.69	772.69
504.907	756.69
505.123	768.69
505.34	734.69
505.557	723.69
505.773	738.69
505.99	693.69
506.207	686.69
506.423	681.69
506.64	706.69
506.856	691.69
507.073	707.69
507.289	690.69
507.506	695.69
507.722	684.69
507.939	715.69
508.155	656.69
508.372	637.69
508.588	627.69
508.805	649.69
509.021	666.69
509.238	649.69
509.454	659.69
509.67	636.69
509.887	646.69
510.103	636.69
510.319	643.69
510.536	681.69
510.752	896.69
510.968	801.69
511.184	649.69
511.401	633.69
511.617	598.69
511.833	617.69
512.049	622.69
512.265	614.69
512.481	600.69
512.698	603.69
512.914	617.69
513.13	615.69
513.346	611.69
513.562	612.69
513.778	628.69
513.994	626.69
514.21	626.69
514.426	634.69
514.642	628.69
514.858	656.69
515.074	666.69
515.29	722.69
515.506	919.69
515.721	817.69
515.937	673.69
516.153	648.69
516.369	658.69
516.585	652.69
516.801	653.69
517.016	659.69
517.232	666.69
517.448	670.69
517.664	674.69
517.879	661.69
518.095	678.69
518.311	683.69
518.527	657.69
518.742	655.69
518.958	629.69
519.173	645.69
519.389	636.69
519.605	622.69
519.82	607.69
520.036	606.69
520.251	616.69
520.467	625.69
520.682	655.69
520.898	621.69
521.113	623.69
521.329	661.69
521.544	703.69
521.76	796.69
521.975	1073.69
522.19	1101.69
522.406	742.69
522.621	623.69
522.836	603.69
523.052	587.69
523.267	565.69
523.482	575.69
523.698	584.69
523.913	555.69
524.128	570.69
524.343	534.69
524.559	557.69
524.774	554.69
524.989	536.69
525.204	525.69
525.419	545.69
525.634	536.69
525.849	534.69
526.064	515.69
526.28	547.69
526.495	505.69
526.71	505.69
526.925	515.69
527.14	532.69
527.355	506.69
527.57	502.69
527.785	521.69
527.999	526.69
528.214	520.69
528.429	514.69
528.644	518.69
528.859	506.69
529.074	517.69
529.289	523.69
529.503	581.69
529.718	572.69
529.933	550.69
530.148	514.69
530.363	520.69
530.577	510.69
530.792	487.69
531.007	502.69
531.221	517.69
531.436	519.69
531.651	518.69
531.865	511.69
532.08	525.69
532.295	487.69
532.509	501.69
532.724	493.69
532.938	513.69
533.153	504.69
533.367	501.69
533.582	520.69
533.796	491.69
534.011	494.69
534.225	484.69
534.44	494.69
534.654	498.69
534.868	489.69
535.083	475.69
535.297	493.69
535.511	520.69
535.726	515.69
535.94	493.69
536.154	517.69
536.369	464.69
536.583	504.69
536.797	501.69
537.011	493.69
537.225	476.69
537.44	458.69
537.654	458.69
537.868	471.69
538.082	472.69
538.296	470.69
538.51	480.69
538.724	497.69
538.938	497.69
539.153	482.69
539.367	495.69
539.581	490.69
539.795	484.69
540.009	484.69
540.222	490.69
540.436	471.69
540.65	472.69
540.864	491.69
541.078	475.69
541.292	520.69
541.506	477.69
541.72	474.69
541.934	481.69
542.147	481.69
542.361	493.69
542.575	478.69
542.789	464.69
543.002	474.69
543.216	475.69
543.43	479.69
543.644	468.69
543.857	495.69
544.071	494.69
544.285	486.69
544.498	485.69
544.712	482.69
544.925	513.69
545.139	503.69
545.352	477.69
545.566	477.69
545.779	477.69
545.993	471.69
546.206	469.69
546.42	476.69
546.633	486.69
546.847	486.69
547.06	484.69
547.274	475.69
547.487	477.69
547.7	477.69
547.914	494.69
548.127	491.69
548.34	475.69
548.554	498.69
548.767	487.69
548.98	464.69
549.193	486.69
549.407	473.69
549.62	481.69
549.833	490.69
550.046	469.69
550.259	483.69
550.473	449.69
550.686	480.69
550.899	463.69
551.112	470.69
551.325	483.69
551.538	478.69
551.751	462.69
551.964	471.69
552.177	475.69
552.39	480.69
552.603	462.69
552.816	484.69
553.029	487.69
553.242	492.69
553.455	497.69
553.667	518.69
553.88	513.69
554.093	501.69
554.306	491.69
554.519	491.69
554.732	470.69
554.944	471.69
555.157	470.69
555.37	470.69
555.583	461.69
555.795	456.69
556.008	451.69
556.221	459.69
556.433	442.69
556.646	442.69
556.859	440.69
557.071	426.69
557.284	443.69
557.496	450.69
557.709	449.69
557.921	439.69
558.134	431.69
558.346	435.69
558.559	418.69
558.771	443.69
558.984	430.69
559.196	421.69
559.409	426.69
559.621	430.69
559.833	421.69
560.046	417.69
560.258	401.69
560.47	405.69
560.683	414.69
560.895	423.69
561.107	429.69
561.32	430.69
561.532	432.69
561.744	407.69
561.956	414.69
562.168	414.69
562.381	429.69
562.593	422.69
562.805	426.69
563.017	414.69
563.229	427.69
563.441	422.69
563.653	425.69
563.865	437.69
564.077	437.69
564.289	438.69
564.501	456.69
564.713	436.69
564.925	445.69
565.137	474.69
565.349	458.69
565.561	484.69
565.773	490.69
565.985	499.69
566.197	478.69
566.408	500.69
566.62	525.69
566.832	541.69
567.044	561.69
567.255	568.69
567.467	572.69
567.679	549.69
567.891	584.69
568.102	587.69
568.314	569.69
568.526	556.69
568.737	534.69
568.949	487.69
569.161	476.69
569.372	479.69
569.584	461.69
569.795	450.69
570.007	445.69
570.218	438.69
570.43	449.69
570.641	423.69
570.853	417.69
571.064	421.69
571.276	405.69
571.487	403.69
571.698	404.69
571.91	393.69
572.121	403.69
572.333	384.69
572.544	378.69
572.755	382.69
572.966	372.69
573.178	373.69
573.389	367.69
573.6	372.69
573.811	377.69
574.023	358.69
574.234	367.69
574.445	364.69
574.656	374.69
574.867	360.69
575.078	361.69
575.289	355.69
575.501	371.69
575.712	374.69
575.923	361.69
576.134	347.69
576.345	361.69
576.556	348.69
576.767	364.69
576.978	355.69
577.188	362.69
577.399	354.69
577.61	356.69
577.821	347.69
578.032	354.69
578.243	376.69
578.454	457.69
578.665	389.69
578.875	337.69
579.086	362.69
579.297	358.69
579.508	346.69
579.718	328.69
579.929	319.69
580.14	330.69
580.35	334.69
580.561	331.69
580.772	323.69
580.982	325.69
581.193	331.69
581.403	346.69
581.614	336.69
581.825	347.69
582.035	347.69
582.246	311.69
582.456	324.69
582.667	329.69
582.877	339.69
583.087	325.69
583.298	341.69
583.508	329.69
583.719	311.69
583.929	313.69
584.139	333.69
584.35	307.69
584.56	304.69
584.77	329.69
584.981	323.69
585.191	297.69
585.401	323.69
585.611	322.69
585.821	324.69
586.032	315.69
586.242	306.69
586.452	308.69
586.662	318.69
586.872	316.69
587.082	319.69
587.292	295.69
587.502	317.69
587.713	322.69
587.923	313.69
588.133	327.69
588.343	316.69
588.553	326.69
588.762	318.69
588.972	313.69
589.182	317.69
589.392	340.69
589.602	310.69
589.812	314.69
590.022	309.69
590.232	343.69
590.441	318.69
590.651	306.69
590.861	300.69
591.071	330.69
591.281	335.69
591.49	324.69
591.7	336.69
591.91	333.69
592.119	316.69
592.329	333.69
592.539	343.69
592.748	350.69
592.958	347.69
593.167	341.69
593.377	376.69
593.587	349.69
593.796	343.69
594.006	341.69
594.215	355.69
594.424	360.69
594.634	356.69
594.843	343.69
595.053	348.69
595.262	374.69
595.472	339.69
595.681	311.69
595.89	319.69
596.1	307.69
596.309	308.69
596.518	321.69
596.727	286.69
596.937	317.69
597.146	294.69
597.355	297.69
597.564	297.69
597.774	305.69
597.983	297.69
598.192	290.69
598.401	293.69
598.61	297.69
598.819	303.69
599.028	293.69
599.237	286.69
599.446	289.69
599.655	282.69
599.864	279.69
600.073	264.69
600.282	293.69
600.491	275.69
600.7	269.69
600.909	275.69
601.118	272.69
601.327	270.69
601.536	287.69
601.745	289.69
601.953	294.69
602.162	297.69
602.371	287.69
602.58	290.69
602.789	296.69
602.997	267.69
603.206	286.69
603.415	252.69
603.623	263.69
603.832	288.69
604.041	270.69
604.249	275.69
604.458	268.69
604.666	268.69
604.875	279.69
605.084	274.69
605.292	252.69
605.501	258.69
605.709	290.69
605.918	286.69
606.126	263.69
606.334	268.69
606.543	265.69
606.751	267.69
606.96	255.69
607.168	243.69
607.376	271.69
607.585	278.69
607.793	279.69
608.001	274.69
608.21	263.69
608.418	255.69
608.626	240.69
608.834	258.69
609.043	273.69
609.251	270.69
609.459	253.69
609.667	262.69
609.875	245.69
610.083	266.69
610.291	247.69
610.499	270.69
610.707	287.69
610.916	269.69
611.124	264.69
611.332	269.69
611.54	275.69
611.748	280.69
611.955	280.69
612.163	269.69
612.371	262.69
612.579	248.69
612.787	261.69
612.995	262.69
613.203	261.69
613.411	265.69
613.618	258.69
613.826	257.69
614.034	261.69
614.242	257.69
614.449	256.69
614.657	256.69
614.865	274.69
615.072	270.69
615.28	245.69
615.488	246.69
615.695	274.69
615.903	271.69
616.111	260.69
616.318	265.69
616.526	265.69
616.733	269.69
616.941	265.69
617.148	266.69
617.356	255.69
617.563	252.69
617.771	262.69
617.978	267.69
618.185	262.69
618.393	269.69
618.6	245.69
618.807	257.69
619.015	250.69
619.222	256.69
619.429	248.69
619.637	234.69
619.844	231.69
620.051	234.69
620.258	260.69
620.466	229.69
620.673	243.69
620.88	227.69
621.087	258.69
621.294	231.69
621.501	244.69
621.708	231.69
621.915	232.69
622.122	241.69
622.329	234.69
622.536	248.69
622.743	237.69
622.95	241.69
623.157	243.69
623.364	241.69
623.571	248.69
623.778	235.69
623.985	244.69
624.192	231.69
624.399	234.69
624.606	253.69
624.812	230.69
625.019	250.69
625.226	231.69
625.433	226.69
625.639	221.69
625.846	237.69
626.053	217.69
626.259	232.69
626.466	223.69
626.673	221.69
626.879	218.69
627.086	223.69
627.293	235.69
627.499	216.69
627.706	228.69
627.912	204.69
628.119	227.69
628.325	228.69
628.532	220.69
628.738	220.69
628.945	215.69
629.151	223.69
629.357	227.69
629.564	212.69
629.77	211.69
629.976	217.69
630.183	214.69
630.389	214.69
630.595	231.69
630.802	208.69
631.008	206.69
631.214	221.69
631.42	218.69
631.627	210.69
631.833	224.69
632.039	201.69
632.245	199.69
632.451	211.69
632.657	210.69
632.863	215.69
633.069	205.69
633.275	198.69
633.481	204.69
633.688	207.69
633.893	214.69
634.099	202.69
634.305	205.69
634.511	203.69
634.717	195.69
634.923	198.69
635.129	204.69
635.335	204.69
635.541	193.69
635.747	194.69
635.952	203.69
636.158	212.69
636.364	200.69
636.57	199.69
636.775	205.69
636.981	205.69
637.187	202.69
637.392	179.69
637.598	204.69
637.804	188.69
638.009	182.69
638.215	197.69
638.421	205.69
638.626	191.69
638.832	174.69
639.037	173.69
639.243	188.69
639.448	201.69
639.654	198.69
639.859	198.69
640.065	184.69
640.27	197.69
640.475	183.69
640.681	189.69
640.886	180.69
641.091	189.69
641.297	195.69
641.502	183.69
641.707	187.69
641.913	193.69
642.118	187.69
642.323	182.69
642.528	190.69
642.733	173.69
642.939	184.69
643.144	181.69
643.349	177.69
643.554	190.69
643.759	189.69
643.964	177.69
644.169	181.69
644.374	174.69
644.579	167.69
644.784	201.69
644.989	177.69
645.194	188.69
645.399	170.69
645.604	181.69
645.809	177.69
646.014	185.69
646.219	190.69
646.423	190.69
646.628	206.69
646.833	181.69
647.038	181.69
647.243	181.69
647.447	175.69
647.652	180.69
647.857	171.69
648.062	193.69
648.266	177.69
648.471	180.69
648.676	188.69
648.88	186.69
649.085	169.69
649.289	171.69
649.494	175.69
649.698	196.69
649.903	180.69
650.107	174.69
650.312	182.69
650.516	180.69
650.721	183.69
650.925	174.69
651.13	169.69
651.334	154.69
651.539	159.69
651.743	163.69
651.947	160.69
652.152	162.69
652.356	163.69
652.56	148.69
652.764	169.69
652.969	172.69
653.173	143.69
653.377	153.69
653.581	141.69
653.785	149.69
653.99	150.69
654.194	145.69
654.398	137.69
654.602	151.69
654.806	155.69
655.01	155.69
655.214	154.69
655.418	139.69
655.622	162.69
655.826	155.69
656.03	154.69
656.234	141.69
656.438	151.69
656.642	163.69
656.846	149.69
657.049	133.69
657.253	147.69
657.457	134.69
657.661	126.69
657.865	119.69
658.068	124.69
658.272	117.69
658.476	121.69
658.68	122.69
658.883	99.69
659.087	110.69
659.291	98.69
659.494	107.69
659.698	106.69
659.901	91.69
660.105	92.69
660.309	95.69
660.512	107.69
660.716	93.69
660.919	106.69
661.123	113.69
661.326	97.69
661.53	102.69
661.733	84.69
661.936	87.69
662.14	83.69
662.343	93.69
662.546	72.69
662.75	92.69
662.953	74.69
663.156	93.69
663.36	73.69
663.563	89.69
663.766	97.69
663.969	86.69
664.173	89.69
664.376	87.69
664.579	78.69
664.782	91.69
664.985	83.69
665.188	85.69
665.391	90.69
665.594	79.69
665.797	96.69
666	93.69
666.203	89.69
666.406	91.69
666.609	99.69
666.812	96.69
667.015	98.69
667.218	96.69
667.421	82.69
667.624	89.69
667.827	77.69
668.03	82.69
668.232	87.69
668.435	79.69
668.638	66.69
668.841	86.69
669.043	79.69
669.246	87.69
669.449	92.69
669.651	94.69
669.854	77.69
670.057	75.69
670.259	67.69
670.462	75.69
670.665	94.69
670.867	92.69
671.07	74.69
671.272	89.69
671.475	82.69
671.677	89.69
671.88	93.69
672.082	61.69
672.284	74.69
672.487	85.69
672.689	84.69
672.892	83.69
