Data from 1974.PennyLincolnUp.Lamp.En5.5.200Scan.071719.P1.Changed Mount._HRD10591_15-51-55-856.txt Node
Date: Thu Jul 18 15:51:55 EDT 2019
User: cochatt
Spectrometer: HR+D1059
Trigger mode: 1
Integration Time (sec): 1.000000E-1
Scans to average: 1
Electric dark correction enabled: true
Nonlinearity correction enabled: false
Boxcar width: 0
XAxis mode: Wavelengths
Number of Pixels in Spectrum: 2048
>>>>>Begin Spectral Data<<<<<
223.165	-16.94
223.4	-16.94
223.635	-16.94
223.869	-18.94
224.104	-19.94
224.338	-19.94
224.573	-10.94
224.808	-10.94
225.042	-1.94
225.277	-9.94
225.511	-5.94
225.746	-3.94
225.98	9.06
226.215	15.06
226.449	21.06
226.683	22.06
226.918	21.06
227.152	31.06
227.387	44.06
227.621	43.06
227.856	52.06
228.09	50.06
228.324	54.06
228.559	41.06
228.793	62.06
229.027	84.06
229.262	104.06
229.496	117.06
229.73	134.06
229.964	155.06
230.199	144.06
230.433	122.06
230.667	98.06
230.901	105.06
231.136	101.06
231.37	107.06
231.604	110.06
231.838	111.06
232.072	110.06
232.306	115.06
232.541	118.06
232.775	110.06
233.009	117.06
233.243	115.06
233.477	119.06
233.711	129.06
233.945	123.06
234.179	121.06
234.413	126.06
234.647	121.06
234.881	123.06
235.115	118.06
235.349	102.06
235.583	134.06
235.817	139.06
236.051	129.06
236.285	111.06
236.519	105.06
236.753	126.06
236.987	146.06
237.221	173.06
237.455	214.06
237.689	195.06
237.922	150.06
238.156	134.06
238.39	141.06
238.624	140.06
238.858	122.06
239.091	141.06
239.325	130.06
239.559	128.06
239.793	134.06
240.027	138.06
240.26	138.06
240.494	158.06
240.728	146.06
240.961	154.06
241.195	154.06
241.429	151.06
241.662	150.06
241.896	135.06
242.13	148.06
242.363	127.06
242.597	145.06
242.83	132.06
243.064	139.06
243.298	140.06
243.531	128.06
243.765	152.06
243.998	139.06
244.232	146.06
244.465	156.06
244.699	152.06
244.932	150.06
245.166	164.06
245.399	166.06
245.633	155.06
245.866	158.06
246.099	145.06
246.333	148.06
246.566	154.06
246.8	158.06
247.033	151.06
247.266	174.06
247.5	168.06
247.733	189.06
247.966	188.06
248.2	188.06
248.433	177.06
248.666	176.06
248.899	202.06
249.133	197.06
249.366	209.06
249.599	202.06
249.832	186.06
250.066	191.06
250.299	194.06
250.532	210.06
250.765	207.06
250.998	244.06
251.231	231.06
251.465	221.06
251.698	212.06
251.931	209.06
252.164	211.06
252.397	186.06
252.63	196.06
252.863	215.06
253.096	227.06
253.329	233.06
253.562	224.06
253.795	216.06
254.028	228.06
254.261	216.06
254.494	230.06
254.727	269.06
254.96	307.06
255.193	284.06
255.426	235.06
255.659	246.06
255.892	244.06
256.124	251.06
256.357	231.06
256.59	242.06
256.823	221.06
257.056	207.06
257.289	217.06
257.521	232.06
257.754	202.06
257.987	213.06
258.22	221.06
258.452	216.06
258.685	210.06
258.918	197.06
259.151	220.06
259.383	233.06
259.616	229.06
259.849	244.06
260.081	259.06
260.314	256.06
260.547	247.06
260.779	265.06
261.012	242.06
261.244	239.06
261.477	232.06
261.71	233.06
261.942	240.06
262.175	249.06
262.407	248.06
262.64	244.06
262.872	221.06
263.105	222.06
263.337	215.06
263.57	231.06
263.802	228.06
264.035	220.06
264.267	206.06
264.499	214.06
264.732	235.06
264.964	223.06
265.197	220.06
265.429	230.06
265.661	224.06
265.894	237.06
266.126	232.06
266.358	228.06
266.591	234.06
266.823	237.06
267.055	220.06
267.287	239.06
267.52	236.06
267.752	233.06
267.984	240.06
268.216	226.06
268.448	220.06
268.681	244.06
268.913	248.06
269.145	270.06
269.377	286.06
269.609	277.06
269.841	286.06
270.073	261.06
270.306	274.06
270.538	318.06
270.77	308.06
271.002	294.06
271.234	304.06
271.466	300.06
271.698	292.06
271.93	320.06
272.162	325.06
272.394	311.06
272.626	316.06
272.858	302.06
273.09	281.06
273.322	265.06
273.553	278.06
273.785	269.06
274.017	270.06
274.249	260.06
274.481	282.06
274.713	267.06
274.945	279.06
275.176	286.06
275.408	280.06
275.64	290.06
275.872	278.06
276.104	281.06
276.335	265.06
276.567	292.06
276.799	285.06
277.031	318.06
277.262	324.06
277.494	335.06
277.726	330.06
277.957	318.06
278.189	291.06
278.421	285.06
278.652	264.06
278.884	285.06
279.115	293.06
279.347	287.06
279.579	278.06
279.81	278.06
280.042	279.06
280.273	261.06
280.505	275.06
280.736	302.06
280.968	280.06
281.199	284.06
281.431	311.06
281.662	291.06
281.894	279.06
282.125	288.06
282.356	301.06
282.588	299.06
282.819	307.06
283.051	302.06
283.282	278.06
283.513	276.06
283.745	294.06
283.976	320.06
284.207	284.06
284.439	296.06
284.67	294.06
284.901	283.06
285.132	303.06
285.364	283.06
285.595	294.06
285.826	308.06
286.057	284.06
286.288	300.06
286.52	312.06
286.751	298.06
286.982	293.06
287.213	312.06
287.444	298.06
287.675	310.06
287.906	310.06
288.138	308.06
288.369	322.06
288.6	332.06
288.831	332.06
289.062	323.06
289.293	310.06
289.524	314.06
289.755	309.06
289.986	302.06
290.217	313.06
290.448	320.06
290.679	309.06
290.91	315.06
291.141	319.06
291.371	289.06
291.602	324.06
291.833	319.06
292.064	330.06
292.295	318.06
292.526	325.06
292.757	326.06
292.987	335.06
293.218	301.06
293.449	324.06
293.68	301.06
293.91	312.06
294.141	319.06
294.372	314.06
294.603	318.06
294.833	316.06
295.064	316.06
295.295	319.06
295.525	302.06
295.756	325.06
295.987	310.06
296.217	351.06
296.448	333.06
296.679	327.06
296.909	307.06
297.14	319.06
297.37	319.06
297.601	344.06
297.831	333.06
298.062	321.06
298.292	338.06
298.523	331.06
298.753	315.06
298.984	320.06
299.214	328.06
299.445	339.06
299.675	332.06
299.905	334.06
300.136	344.06
300.366	333.06
300.597	335.06
300.827	351.06
301.057	371.06
301.288	345.06
301.518	338.06
301.748	362.06
301.979	358.06
302.209	358.06
302.439	356.06
302.669	330.06
302.9	356.06
303.13	348.06
303.36	377.06
303.59	350.06
303.82	346.06
304.051	351.06
304.281	353.06
304.511	352.06
304.741	354.06
304.971	358.06
305.201	343.06
305.431	358.06
305.661	338.06
305.891	352.06
306.121	351.06
306.352	372.06
306.582	347.06
306.812	351.06
307.042	357.06
307.272	340.06
307.502	336.06
307.731	355.06
307.961	339.06
308.191	358.06
308.421	347.06
308.651	350.06
308.881	362.06
309.111	355.06
309.341	347.06
309.571	372.06
309.8	369.06
310.03	375.06
310.26	354.06
310.49	378.06
310.72	392.06
310.949	393.06
311.179	390.06
311.409	392.06
311.639	400.06
311.868	407.06
312.098	386.06
312.328	386.06
312.557	394.06
312.787	408.06
313.017	416.06
313.246	403.06
313.476	398.06
313.706	401.06
313.935	408.06
314.165	406.06
314.394	392.06
314.624	403.06
314.853	385.06
315.083	400.06
315.312	386.06
315.542	376.06
315.771	382.06
316.001	383.06
316.23	389.06
316.46	392.06
316.689	408.06
316.919	415.06
317.148	402.06
317.377	399.06
317.607	414.06
317.836	383.06
318.065	413.06
318.295	394.06
318.524	401.06
318.753	380.06
318.983	382.06
319.212	389.06
319.441	399.06
319.67	405.06
319.9	403.06
320.129	385.06
320.358	408.06
320.587	402.06
320.816	394.06
321.046	438.06
321.275	422.06
321.504	414.06
321.733	407.06
321.962	402.06
322.191	408.06
322.42	448.06
322.649	440.06
322.878	430.06
323.108	435.06
323.337	456.06
323.566	469.06
323.795	472.06
324.024	523.06
324.253	598.06
324.482	816.06
324.71	1178.06
324.939	1722.06
325.168	1550.06
325.397	795.06
325.626	559.06
325.855	488.06
326.084	496.06
326.313	474.06
326.542	472.06
326.77	512.06
326.999	558.06
327.228	746.06
327.457	1051.06
327.686	1335.06
327.914	923.06
328.143	627.06
328.372	565.06
328.6	516.06
328.829	519.06
329.058	518.06
329.287	553.06
329.515	504.06
329.744	483.06
329.972	488.06
330.201	521.06
330.43	547.06
330.658	566.06
330.887	546.06
331.115	548.06
331.344	521.06
331.572	498.06
331.801	496.06
332.03	511.06
332.258	464.06
332.486	467.06
332.715	460.06
332.943	490.06
333.172	487.06
333.4	486.06
333.629	496.06
333.857	534.06
334.085	525.06
334.314	534.06
334.542	535.06
334.771	564.06
334.999	522.06
335.227	506.06
335.455	500.06
335.684	490.06
335.912	494.06
336.14	474.06
336.369	465.06
336.597	488.06
336.825	490.06
337.053	457.06
337.281	478.06
337.51	482.06
337.738	468.06
337.966	472.06
338.194	469.06
338.422	495.06
338.65	468.06
338.878	454.06
339.106	453.06
339.334	451.06
339.562	465.06
339.79	456.06
340.018	451.06
340.246	463.06
340.474	453.06
340.702	441.06
340.93	443.06
341.158	464.06
341.386	474.06
341.614	471.06
341.842	464.06
342.07	464.06
342.298	446.06
342.526	456.06
342.754	440.06
342.981	457.06
343.209	449.06
343.437	449.06
343.665	476.06
343.893	464.06
344.12	474.06
344.348	472.06
344.576	482.06
344.804	480.06
345.031	470.06
345.259	498.06
345.487	476.06
345.714	459.06
345.942	464.06
346.17	452.06
346.397	430.06
346.625	454.06
346.853	435.06
347.08	436.06
347.308	450.06
347.535	465.06
347.763	454.06
347.99	425.06
348.218	445.06
348.445	454.06
348.673	455.06
348.9	462.06
349.128	443.06
349.355	463.06
349.583	417.06
349.81	434.06
350.037	422.06
350.265	422.06
350.492	439.06
350.72	417.06
350.947	415.06
351.174	434.06
351.402	436.06
351.629	448.06
351.856	447.06
352.083	430.06
352.311	453.06
352.538	442.06
352.765	455.06
352.992	441.06
353.22	458.06
353.447	446.06
353.674	442.06
353.901	405.06
354.128	430.06
354.355	413.06
354.583	435.06
354.81	440.06
355.037	437.06
355.264	429.06
355.491	422.06
355.718	395.06
355.945	416.06
356.172	431.06
356.399	430.06
356.626	407.06
356.853	433.06
357.08	415.06
357.307	404.06
357.534	422.06
357.761	412.06
357.988	447.06
358.215	444.06
358.441	443.06
358.668	420.06
358.895	425.06
359.122	408.06
359.349	434.06
359.576	451.06
359.802	454.06
360.029	463.06
360.256	498.06
360.483	470.06
360.709	443.06
360.936	459.06
361.163	447.06
361.39	450.06
361.616	458.06
361.843	444.06
362.07	447.06
362.296	455.06
362.523	447.06
362.749	446.06
362.976	428.06
363.203	424.06
363.429	446.06
363.656	442.06
363.882	443.06
364.109	434.06
364.335	417.06
364.562	443.06
364.788	439.06
365.015	429.06
365.241	438.06
365.468	417.06
365.694	438.06
365.92	432.06
366.147	438.06
366.373	438.06
366.599	448.06
366.826	448.06
367.052	414.06
367.278	440.06
367.505	443.06
367.731	448.06
367.957	440.06
368.184	441.06
368.41	423.06
368.636	458.06
368.862	442.06
369.089	451.06
369.315	444.06
369.541	432.06
369.767	431.06
369.993	456.06
370.219	435.06
370.445	450.06
370.672	456.06
370.898	440.06
371.124	460.06
371.35	455.06
371.576	435.06
371.802	466.06
372.028	464.06
372.254	466.06
372.48	471.06
372.706	442.06
372.932	445.06
373.158	445.06
373.384	453.06
373.61	425.06
373.835	453.06
374.061	431.06
374.287	430.06
374.513	454.06
374.739	480.06
374.965	474.06
375.191	484.06
375.416	467.06
375.642	478.06
375.868	447.06
376.094	468.06
376.319	485.06
376.545	447.06
376.771	446.06
376.997	461.06
377.222	448.06
377.448	457.06
377.674	449.06
377.899	439.06
378.125	461.06
378.35	426.06
378.576	444.06
378.802	448.06
379.027	458.06
379.253	440.06
379.478	454.06
379.704	436.06
379.929	458.06
380.155	444.06
380.38	464.06
380.606	462.06
380.831	464.06
381.057	455.06
381.282	454.06
381.507	462.06
381.733	464.06
381.958	458.06
382.184	469.06
382.409	460.06
382.634	472.06
382.86	473.06
383.085	468.06
383.31	465.06
383.535	467.06
383.761	479.06
383.986	466.06
384.211	466.06
384.436	490.06
384.662	473.06
384.887	485.06
385.112	488.06
385.337	483.06
385.562	500.06
385.787	484.06
386.013	496.06
386.238	500.06
386.463	502.06
386.688	514.06
386.913	499.06
387.138	492.06
387.363	521.06
387.588	480.06
387.813	505.06
388.038	503.06
388.263	525.06
388.488	518.06
388.713	492.06
388.938	509.06
389.163	520.06
389.387	513.06
389.612	518.06
389.837	508.06
390.062	490.06
390.287	529.06
390.512	490.06
390.736	490.06
390.961	493.06
391.186	494.06
391.411	511.06
391.636	524.06
391.86	504.06
392.085	517.06
392.31	545.06
392.534	515.06
392.759	549.06
392.984	526.06
393.208	502.06
393.433	526.06
393.658	522.06
393.882	511.06
394.107	515.06
394.331	518.06
394.556	507.06
394.78	510.06
395.005	528.06
395.229	499.06
395.454	508.06
395.678	532.06
395.903	550.06
396.127	570.06
396.352	588.06
396.576	539.06
396.801	533.06
397.025	533.06
397.249	527.06
397.474	527.06
397.698	529.06
397.922	564.06
398.147	579.06
398.371	590.06
398.595	564.06
398.82	585.06
399.044	608.06
399.268	602.06
399.492	653.06
399.717	719.06
399.941	728.06
400.165	741.06
400.389	747.06
400.613	661.06
400.837	656.06
401.062	595.06
401.286	600.06
401.51	604.06
401.734	569.06
401.958	603.06
402.182	620.06
402.406	590.06
402.63	603.06
402.854	617.06
403.078	595.06
403.302	615.06
403.526	603.06
403.75	629.06
403.974	589.06
404.198	615.06
404.422	628.06
404.645	628.06
404.869	611.06
405.093	679.06
405.317	702.06
405.541	700.06
405.765	665.06
405.988	639.06
406.212	656.06
406.436	656.06
406.66	655.06
406.883	653.06
407.107	675.06
407.331	718.06
407.555	811.06
407.778	809.06
408.002	723.06
408.226	649.06
408.449	672.06
408.673	654.06
408.896	676.06
409.12	723.06
409.344	715.06
409.567	643.06
409.791	637.06
410.014	630.06
410.238	618.06
410.461	602.06
410.685	617.06
410.908	629.06
411.132	657.06
411.355	663.06
411.578	667.06
411.802	644.06
412.025	633.06
412.249	623.06
412.472	631.06
412.695	682.06
412.919	683.06
413.142	616.06
413.365	600.06
413.589	595.06
413.812	596.06
414.035	567.06
414.258	569.06
414.482	591.06
414.705	578.06
414.928	602.06
415.151	605.06
415.374	595.06
415.597	575.06
415.821	556.06
416.044	575.06
416.267	560.06
416.49	570.06
416.713	580.06
416.936	597.06
417.159	578.06
417.382	568.06
417.605	570.06
417.828	570.06
418.051	599.06
418.274	592.06
418.497	586.06
418.72	572.06
418.943	577.06
419.166	602.06
419.389	646.06
419.611	628.06
419.834	600.06
420.057	626.06
420.28	631.06
420.503	615.06
420.726	618.06
420.948	605.06
421.171	659.06
421.394	672.06
421.617	622.06
421.839	606.06
422.062	603.06
422.285	615.06
422.507	679.06
422.73	785.06
422.953	732.06
423.175	642.06
423.398	636.06
423.621	629.06
423.843	630.06
424.066	655.06
424.288	676.06
424.511	678.06
424.733	726.06
424.956	789.06
425.178	747.06
425.401	745.06
425.623	771.06
425.846	686.06
426.068	638.06
426.291	614.06
426.513	621.06
426.735	640.06
426.958	686.06
427.18	767.06
427.402	890.06
427.625	971.06
427.847	837.06
428.069	735.06
428.292	668.06
428.514	630.06
428.736	617.06
428.958	591.06
429.181	580.06
429.403	577.06
429.625	589.06
429.847	630.06
430.069	659.06
430.292	692.06
430.514	620.06
430.736	577.06
430.958	600.06
431.18	555.06
431.402	591.06
431.624	557.06
431.846	534.06
432.068	559.06
432.29	561.06
432.512	555.06
432.734	564.06
432.956	564.06
433.178	569.06
433.4	589.06
433.622	577.06
433.844	567.06
434.066	572.06
434.287	546.06
434.509	595.06
434.731	587.06
434.953	598.06
435.175	613.06
435.397	666.06
435.618	634.06
435.84	657.06
436.062	782.06
436.284	814.06
436.505	694.06
436.727	598.06
436.949	600.06
437.17	594.06
437.392	579.06
437.614	601.06
437.835	619.06
438.057	709.06
438.278	815.06
438.5	795.06
438.721	894.06
438.943	855.06
439.165	675.06
439.386	631.06
439.608	628.06
439.829	614.06
440.05	656.06
440.272	679.06
440.493	632.06
440.715	601.06
440.936	597.06
441.158	604.06
441.379	592.06
441.6	614.06
441.822	650.06
442.043	682.06
442.264	752.06
442.486	809.06
442.707	679.06
442.928	648.06
443.149	644.06
443.371	670.06
443.592	698.06
443.813	792.06
444.034	890.06
444.255	745.06
444.476	683.06
444.698	647.06
444.919	668.06
445.14	777.06
445.361	671.06
445.582	668.06
445.803	741.06
446.024	820.06
446.245	858.06
446.466	760.06
446.687	695.06
446.908	639.06
447.129	586.06
447.35	587.06
447.571	588.06
447.792	570.06
448.013	558.06
448.234	578.06
448.455	629.06
448.675	756.06
448.896	855.06
449.117	741.06
449.338	699.06
449.559	834.06
449.779	924.06
450	732.06
450.221	633.06
450.442	585.06
450.662	571.06
450.883	580.06
451.104	563.06
451.324	569.06
451.545	523.06
451.766	538.06
451.986	509.06
452.207	533.06
452.428	515.06
452.648	505.06
452.869	519.06
453.089	531.06
453.31	551.06
453.53	526.06
453.751	524.06
453.971	495.06
454.192	498.06
454.412	492.06
454.633	514.06
454.853	518.06
455.073	518.06
455.294	535.06
455.514	593.06
455.734	600.06
455.955	507.06
456.175	492.06
456.395	469.06
456.616	462.06
456.836	482.06
457.056	461.06
457.276	488.06
457.497	484.06
457.717	490.06
457.937	499.06
458.157	492.06
458.377	507.06
458.598	521.06
458.818	563.06
459.038	648.06
459.258	670.06
459.478	587.06
459.698	552.06
459.918	568.06
460.138	571.06
460.358	586.06
460.578	586.06
460.798	583.06
461.018	598.06
461.238	610.06
461.458	583.06
461.678	570.06
461.898	594.06
462.118	595.06
462.338	609.06
462.558	635.06
462.777	618.06
462.997	636.06
463.217	664.06
463.437	672.06
463.657	674.06
463.876	622.06
464.096	637.06
464.316	622.06
464.536	615.06
464.755	642.06
464.975	612.06
465.195	629.06
465.414	673.06
465.634	614.06
465.854	572.06
466.073	583.06
466.293	566.06
466.512	557.06
466.732	534.06
466.951	542.06
467.171	542.06
467.391	547.06
467.61	558.06
467.829	558.06
468.049	547.06
468.268	521.06
468.488	542.06
468.707	523.06
468.927	532.06
469.146	520.06
469.365	524.06
469.585	540.06
469.804	536.06
470.023	553.06
470.243	542.06
470.462	537.06
470.681	559.06
470.901	567.06
471.12	551.06
471.339	554.06
471.558	552.06
471.777	551.06
471.997	558.06
472.216	552.06
472.435	567.06
472.654	554.06
472.873	539.06
473.092	541.06
473.311	562.06
473.53	538.06
473.749	564.06
473.968	596.06
474.187	666.06
474.406	702.06
474.625	603.06
474.844	555.06
475.063	540.06
475.282	535.06
475.501	558.06
475.72	558.06
475.939	579.06
476.158	576.06
476.377	566.06
476.596	547.06
476.814	565.06
477.033	575.06
477.252	566.06
477.471	562.06
477.69	587.06
477.908	621.06
478.127	607.06
478.346	585.06
478.564	614.06
478.783	602.06
479.002	613.06
479.22	632.06
479.439	640.06
479.658	645.06
479.876	643.06
480.095	642.06
480.313	705.06
480.532	702.06
480.751	671.06
480.969	663.06
481.188	714.06
481.406	714.06
481.624	669.06
481.843	671.06
482.061	643.06
482.28	633.06
482.498	642.06
482.717	642.06
482.935	612.06
483.153	650.06
483.372	635.06
483.59	630.06
483.808	648.06
484.027	654.06
484.245	644.06
484.463	630.06
484.681	661.06
484.9	646.06
485.118	647.06
485.336	651.06
485.554	638.06
485.772	644.06
485.99	658.06
486.209	658.06
486.427	665.06
486.645	655.06
486.863	684.06
487.081	678.06
487.299	661.06
487.517	684.06
487.735	671.06
487.953	680.06
488.171	676.06
488.389	664.06
488.607	670.06
488.825	685.06
489.043	684.06
489.261	669.06
489.479	683.06
489.696	690.06
489.914	703.06
490.132	714.06
490.35	707.06
490.568	721.06
490.786	719.06
491.003	722.06
491.221	743.06
491.439	764.06
491.657	761.06
491.874	766.06
492.092	785.06
492.31	777.06
492.527	792.06
492.745	806.06
492.963	807.06
493.18	811.06
493.398	788.06
493.615	806.06
493.833	826.06
494.05	780.06
494.268	811.06
494.485	784.06
494.703	787.06
494.92	820.06
495.138	818.06
495.355	811.06
495.573	829.06
495.79	812.06
496.008	826.06
496.225	828.06
496.442	859.06
496.66	836.06
496.877	781.06
497.094	853.06
497.312	854.06
497.529	862.06
497.746	841.06
497.963	850.06
498.181	905.06
498.398	935.06
498.615	900.06
498.832	950.06
499.049	1015.06
499.267	1030.06
499.484	1061.06
499.701	1107.06
499.918	1163.06
500.135	1218.06
500.352	1273.06
500.569	1296.06
500.786	1307.06
501.003	1263.06
501.22	1211.06
501.437	1168.06
501.654	1132.06
501.871	1104.06
502.088	1040.06
502.305	1001.06
502.522	918.06
502.739	916.06
502.956	902.06
503.172	888.06
503.389	863.06
503.606	854.06
503.823	843.06
504.04	832.06
504.256	838.06
504.473	840.06
504.69	823.06
504.907	830.06
505.123	819.06
505.34	806.06
505.557	770.06
505.773	799.06
505.99	770.06
506.207	772.06
506.423	746.06
506.64	743.06
506.856	736.06
507.073	746.06
507.289	723.06
507.506	756.06
507.722	735.06
507.939	763.06
508.155	749.06
508.372	730.06
508.588	728.06
508.805	710.06
509.021	713.06
509.238	714.06
509.454	714.06
509.67	700.06
509.887	707.06
510.103	726.06
510.319	693.06
510.536	728.06
510.752	1065.06
510.968	916.06
511.184	694.06
511.401	686.06
511.617	673.06
511.833	660.06
512.049	656.06
512.265	657.06
512.481	662.06
512.698	665.06
512.914	656.06
513.13	665.06
513.346	654.06
513.562	653.06
513.778	664.06
513.994	671.06
514.21	686.06
514.426	691.06
514.642	706.06
514.858	742.06
515.074	733.06
515.29	818.06
515.506	1086.06
515.721	952.06
515.937	755.06
516.153	718.06
516.369	702.06
516.585	713.06
516.801	699.06
517.016	711.06
517.232	716.06
517.448	708.06
517.664	728.06
517.879	733.06
518.095	739.06
518.311	721.06
518.527	728.06
518.742	711.06
518.958	684.06
519.173	659.06
519.389	714.06
519.605	684.06
519.82	682.06
520.036	679.06
520.251	698.06
520.467	716.06
520.682	680.06
520.898	696.06
521.113	712.06
521.329	701.06
521.544	768.06
521.76	858.06
521.975	1275.06
522.19	1276.06
522.406	842.06
522.621	684.06
522.836	653.06
523.052	628.06
523.267	633.06
523.482	604.06
523.698	620.06
523.913	611.06
524.128	617.06
524.343	598.06
524.559	596.06
524.774	591.06
524.989	584.06
525.204	586.06
525.419	572.06
525.634	571.06
525.849	586.06
526.064	581.06
526.28	568.06
526.495	552.06
526.71	580.06
526.925	557.06
527.14	590.06
527.355	558.06
527.57	527.06
527.785	534.06
527.999	540.06
528.214	550.06
528.429	574.06
528.644	546.06
528.859	556.06
529.074	578.06
529.289	597.06
529.503	616.06
529.718	594.06
529.933	588.06
530.148	582.06
530.363	556.06
530.577	540.06
530.792	523.06
531.007	550.06
531.221	526.06
531.436	542.06
531.651	551.06
531.865	548.06
532.08	547.06
532.295	546.06
532.509	519.06
532.724	541.06
532.938	527.06
533.153	549.06
533.367	536.06
533.582	545.06
533.796	568.06
534.011	537.06
534.225	534.06
534.44	535.06
534.654	527.06
534.868	532.06
535.083	523.06
535.297	545.06
535.511	564.06
535.726	552.06
535.94	554.06
536.154	542.06
536.369	535.06
536.583	513.06
536.797	510.06
537.011	534.06
537.225	528.06
537.44	500.06
537.654	492.06
537.868	502.06
538.082	506.06
538.296	528.06
538.51	514.06
538.724	535.06
538.938	522.06
539.153	504.06
539.367	530.06
539.581	516.06
539.795	531.06
540.009	520.06
540.222	491.06
540.436	538.06
540.65	508.06
540.864	518.06
541.078	538.06
541.292	527.06
541.506	492.06
541.72	507.06
541.934	513.06
542.147	524.06
542.361	512.06
542.575	493.06
542.789	510.06
543.002	509.06
543.216	523.06
543.43	512.06
543.644	505.06
543.857	500.06
544.071	531.06
544.285	518.06
544.498	518.06
544.712	507.06
544.925	528.06
545.139	520.06
545.352	489.06
545.566	503.06
545.779	500.06
545.993	532.06
546.206	515.06
546.42	519.06
546.633	513.06
546.847	536.06
547.06	507.06
547.274	502.06
547.487	505.06
547.7	520.06
547.914	498.06
548.127	517.06
548.34	516.06
548.554	505.06
548.767	477.06
548.98	520.06
549.193	496.06
549.407	532.06
549.62	526.06
549.833	506.06
550.046	500.06
550.259	500.06
550.473	506.06
550.686	508.06
550.899	511.06
551.112	494.06
551.325	475.06
551.538	493.06
551.751	496.06
551.964	475.06
552.177	484.06
552.39	485.06
552.603	503.06
552.816	514.06
553.029	535.06
553.242	535.06
553.455	522.06
553.667	552.06
553.88	556.06
554.093	530.06
554.306	519.06
554.519	494.06
554.732	506.06
554.944	487.06
555.157	512.06
555.37	501.06
555.583	491.06
555.795	458.06
556.008	474.06
556.221	463.06
556.433	475.06
556.646	471.06
556.859	443.06
557.071	448.06
557.284	461.06
557.496	464.06
557.709	461.06
557.921	472.06
558.134	461.06
558.346	446.06
558.559	444.06
558.771	464.06
558.984	451.06
559.196	444.06
559.409	439.06
559.621	444.06
559.833	459.06
560.046	442.06
560.258	459.06
560.47	456.06
560.683	439.06
560.895	452.06
561.107	432.06
561.32	436.06
561.532	446.06
561.744	440.06
561.956	450.06
562.168	443.06
562.381	460.06
562.593	463.06
562.805	451.06
563.017	453.06
563.229	432.06
563.441	445.06
563.653	457.06
563.865	469.06
564.077	457.06
564.289	464.06
564.501	437.06
564.713	444.06
564.925	459.06
565.137	479.06
565.349	495.06
565.561	498.06
565.773	501.06
565.985	506.06
566.197	518.06
566.408	530.06
566.62	562.06
566.832	581.06
567.044	587.06
567.255	596.06
567.467	603.06
567.679	603.06
567.891	623.06
568.102	615.06
568.314	602.06
568.526	583.06
568.737	544.06
568.949	550.06
569.161	519.06
569.372	510.06
569.584	475.06
569.795	480.06
570.007	458.06
570.218	477.06
570.43	461.06
570.641	451.06
570.853	426.06
571.064	448.06
571.276	448.06
571.487	426.06
571.698	426.06
571.91	424.06
572.121	398.06
572.333	403.06
572.544	412.06
572.755	414.06
572.966	398.06
573.178	407.06
573.389	399.06
573.6	389.06
573.811	380.06
574.023	400.06
574.234	387.06
574.445	400.06
574.656	408.06
574.867	400.06
575.078	394.06
575.289	382.06
575.501	400.06
575.712	382.06
575.923	380.06
576.134	383.06
576.345	359.06
576.556	389.06
576.767	386.06
576.978	372.06
577.188	390.06
577.399	376.06
577.61	359.06
577.821	362.06
578.032	348.06
578.243	373.06
578.454	520.06
578.665	431.06
578.875	374.06
579.086	349.06
579.297	357.06
579.508	361.06
579.718	340.06
579.929	350.06
580.14	358.06
580.35	344.06
580.561	366.06
580.772	343.06
580.982	341.06
581.193	356.06
581.403	363.06
581.614	348.06
581.825	343.06
582.035	337.06
582.246	334.06
582.456	357.06
582.667	347.06
582.877	338.06
583.087	336.06
583.298	333.06
583.508	319.06
583.719	342.06
583.929	346.06
584.139	312.06
584.35	336.06
584.56	338.06
584.77	329.06
584.981	319.06
585.191	326.06
585.401	342.06
585.611	335.06
585.821	350.06
586.032	329.06
586.242	335.06
586.452	298.06
586.662	326.06
586.872	347.06
587.082	328.06
587.292	348.06
587.502	316.06
587.713	338.06
587.923	343.06
588.133	343.06
588.343	333.06
588.553	316.06
588.762	330.06
588.972	322.06
589.182	327.06
589.392	331.06
589.602	346.06
589.812	330.06
590.022	327.06
590.232	333.06
590.441	329.06
590.651	352.06
590.861	351.06
591.071	328.06
591.281	344.06
591.49	334.06
591.7	335.06
591.91	338.06
592.119	346.06
592.329	354.06
592.539	371.06
592.748	348.06
592.958	370.06
593.167	368.06
593.377	372.06
593.587	390.06
593.796	384.06
594.006	387.06
594.215	381.06
594.424	380.06
594.634	365.06
594.843	365.06
595.053	364.06
595.262	339.06
595.472	348.06
595.681	343.06
595.89	338.06
596.1	338.06
596.309	331.06
596.518	339.06
596.727	320.06
596.937	318.06
597.146	318.06
597.355	300.06
597.564	291.06
597.774	315.06
597.983	321.06
598.192	298.06
598.401	318.06
598.61	292.06
598.819	310.06
599.028	303.06
599.237	310.06
599.446	300.06
599.655	295.06
599.864	305.06
600.073	287.06
600.282	310.06
600.491	282.06
600.7	290.06
600.909	289.06
601.118	280.06
601.327	290.06
601.536	270.06
601.745	286.06
601.953	288.06
602.162	287.06
602.371	283.06
602.58	312.06
602.789	285.06
602.997	294.06
603.206	300.06
603.415	300.06
603.623	296.06
603.832	290.06
604.041	268.06
604.249	291.06
604.458	260.06
604.666	275.06
604.875	282.06
605.084	264.06
605.292	272.06
605.501	278.06
605.709	267.06
605.918	300.06
606.126	285.06
606.334	306.06
606.543	266.06
606.751	276.06
606.96	283.06
607.168	273.06
607.376	276.06
607.585	276.06
607.793	255.06
608.001	272.06
608.21	265.06
608.418	285.06
608.626	284.06
608.834	284.06
609.043	279.06
609.251	283.06
609.459	271.06
609.667	279.06
609.875	272.06
610.083	294.06
610.291	294.06
610.499	274.06
610.707	287.06
610.916	289.06
611.124	286.06
611.332	282.06
611.54	299.06
611.748	282.06
611.955	285.06
612.163	266.06
612.371	265.06
612.579	278.06
612.787	279.06
612.995	262.06
613.203	295.06
613.411	258.06
613.618	259.06
613.826	258.06
614.034	260.06
614.242	271.06
614.449	278.06
614.657	273.06
614.865	270.06
615.072	274.06
615.28	258.06
615.488	254.06
615.695	276.06
615.903	281.06
616.111	275.06
616.318	266.06
616.526	272.06
616.733	285.06
616.941	276.06
617.148	286.06
617.356	266.06
617.563	269.06
617.771	271.06
617.978	278.06
618.185	270.06
618.393	254.06
618.6	279.06
618.807	253.06
619.015	271.06
619.222	269.06
619.429	271.06
619.637	263.06
619.844	263.06
620.051	263.06
620.258	279.06
620.466	255.06
620.673	248.06
620.88	252.06
621.087	245.06
621.294	278.06
621.501	261.06
621.708	247.06
621.915	239.06
622.122	266.06
622.329	248.06
622.536	258.06
622.743	238.06
622.95	231.06
623.157	268.06
623.364	254.06
623.571	234.06
623.778	262.06
623.985	244.06
624.192	258.06
624.399	232.06
624.606	248.06
624.812	226.06
625.019	242.06
625.226	237.06
625.433	250.06
625.639	244.06
625.846	243.06
626.053	234.06
626.259	246.06
626.466	237.06
626.673	249.06
626.879	234.06
627.086	245.06
627.293	229.06
627.499	238.06
627.706	229.06
627.912	222.06
628.119	234.06
628.325	231.06
628.532	233.06
628.738	226.06
628.945	227.06
629.151	210.06
629.357	222.06
629.564	218.06
629.77	228.06
629.976	226.06
630.183	233.06
630.389	217.06
630.595	218.06
630.802	211.06
631.008	203.06
631.214	226.06
631.42	222.06
631.627	230.06
631.833	226.06
632.039	218.06
632.245	218.06
632.451	215.06
632.657	219.06
632.863	224.06
633.069	220.06
633.275	192.06
633.481	219.06
633.688	205.06
633.893	219.06
634.099	225.06
634.305	220.06
634.511	202.06
634.717	213.06
634.923	198.06
635.129	199.06
635.335	223.06
635.541	210.06
635.747	199.06
635.952	191.06
636.158	205.06
636.364	199.06
636.57	217.06
636.775	219.06
636.981	215.06
637.187	204.06
637.392	192.06
637.598	218.06
637.804	197.06
638.009	201.06
638.215	187.06
638.421	208.06
638.626	198.06
638.832	192.06
639.037	192.06
639.243	207.06
639.448	190.06
639.654	208.06
639.859	190.06
640.065	187.06
640.27	190.06
640.475	191.06
640.681	188.06
640.886	195.06
641.091	190.06
641.297	215.06
641.502	199.06
641.707	198.06
641.913	202.06
642.118	198.06
642.323	193.06
642.528	196.06
642.733	182.06
642.939	177.06
643.144	180.06
643.349	197.06
643.554	178.06
643.759	185.06
643.964	197.06
644.169	212.06
644.374	188.06
644.579	183.06
644.784	191.06
644.989	193.06
645.194	191.06
645.399	193.06
645.604	180.06
645.809	200.06
646.014	184.06
646.219	183.06
646.423	181.06
646.628	178.06
646.833	181.06
647.038	186.06
647.243	180.06
647.447	191.06
647.652	190.06
647.857	192.06
648.062	174.06
648.266	186.06
648.471	174.06
648.676	188.06
648.88	207.06
649.085	188.06
649.289	208.06
649.494	175.06
649.698	196.06
649.903	201.06
650.107	195.06
650.312	200.06
650.516	175.06
650.721	171.06
650.925	176.06
651.13	165.06
651.334	165.06
651.539	169.06
651.743	163.06
651.947	150.06
652.152	170.06
652.356	169.06
652.56	160.06
652.764	157.06
652.969	171.06
653.173	152.06
653.377	156.06
653.581	165.06
653.785	158.06
653.99	150.06
654.194	155.06
654.398	162.06
654.602	155.06
654.806	135.06
655.01	160.06
655.214	146.06
655.418	156.06
655.622	144.06
655.826	150.06
656.03	149.06
656.234	146.06
656.438	162.06
656.642	142.06
656.846	143.06
657.049	148.06
657.253	152.06
657.457	138.06
657.661	132.06
657.865	126.06
658.068	123.06
658.272	119.06
658.476	134.06
658.68	120.06
658.883	107.06
659.087	114.06
659.291	104.06
659.494	100.06
659.698	115.06
659.901	106.06
660.105	103.06
660.309	108.06
660.512	104.06
660.716	97.06
660.919	96.06
661.123	95.06
661.326	92.06
661.53	94.06
661.733	98.06
661.936	98.06
662.14	91.06
662.343	81.06
662.546	84.06
662.75	93.06
662.953	96.06
663.156	94.06
663.36	83.06
663.563	86.06
663.766	82.06
663.969	85.06
664.173	75.06
664.376	79.06
664.579	66.06
664.782	83.06
664.985	72.06
665.188	88.06
665.391	74.06
665.594	74.06
665.797	86.06
666	89.06
666.203	89.06
666.406	91.06
666.609	95.06
666.812	98.06
667.015	88.06
667.218	91.06
667.421	94.06
667.624	89.06
667.827	91.06
668.03	82.06
668.232	81.06
668.435	86.06
668.638	88.06
668.841	77.06
669.043	94.06
669.246	90.06
669.449	89.06
669.651	98.06
669.854	80.06
670.057	78.06
670.259	86.06
670.462	86.06
670.665	77.06
670.867	75.06
671.07	86.06
671.272	80.06
671.475	86.06
671.677	83.06
671.88	88.06
672.082	85.06
672.284	74.06
672.487	83.06
672.689	84.06
672.892	92.06
