Data from 1974.PennyLincolnUp.Lamp.En5.5.200Scan.071719.P1.Changed Mount._HRD10591_15-52-56-856.txt Node
Date: Thu Jul 18 15:52:56 EDT 2019
User: cochatt
Spectrometer: HR+D1059
Trigger mode: 1
Integration Time (sec): 1.000000E-1
Scans to average: 1
Electric dark correction enabled: true
Nonlinearity correction enabled: false
Boxcar width: 0
XAxis mode: Wavelengths
Number of Pixels in Spectrum: 2048
>>>>>Begin Spectral Data<<<<<
223.165	-25.62
223.4	-25.62
223.635	-25.62
223.869	-16.62
224.104	-11.62
224.338	-16.62
224.573	-13.62
224.808	-0.62
225.042	-8.62
225.277	1.38
225.511	-10.62
225.746	2.38
225.98	-4.62
226.215	15.38
226.449	16.38
226.683	18.38
226.918	27.38
227.152	27.38
227.387	21.38
227.621	38.38
227.856	42.38
228.09	57.38
228.324	49.38
228.559	67.38
228.793	71.38
229.027	90.38
229.262	125.38
229.496	107.38
229.73	135.38
229.964	160.38
230.199	121.38
230.433	128.38
230.667	118.38
230.901	129.38
231.136	104.38
231.37	106.38
231.604	106.38
231.838	115.38
232.072	122.38
232.306	122.38
232.541	130.38
232.775	98.38
233.009	117.38
233.243	108.38
233.477	121.38
233.711	113.38
233.945	120.38
234.179	115.38
234.413	125.38
234.647	132.38
234.881	125.38
235.115	123.38
235.349	109.38
235.583	110.38
235.817	120.38
236.051	136.38
236.285	139.38
236.519	127.38
236.753	143.38
236.987	142.38
237.221	182.38
237.455	235.38
237.689	185.38
237.922	150.38
238.156	136.38
238.39	147.38
238.624	132.38
238.858	128.38
239.091	139.38
239.325	114.38
239.559	123.38
239.793	133.38
240.027	136.38
240.26	142.38
240.494	162.38
240.728	151.38
240.961	171.38
241.195	138.38
241.429	147.38
241.662	135.38
241.896	145.38
242.13	142.38
242.363	147.38
242.597	140.38
242.83	125.38
243.064	162.38
243.298	153.38
243.531	143.38
243.765	141.38
243.998	136.38
244.232	151.38
244.465	147.38
244.699	157.38
244.932	154.38
245.166	149.38
245.399	139.38
245.633	152.38
245.866	153.38
246.099	142.38
246.333	140.38
246.566	156.38
246.8	166.38
247.033	162.38
247.266	156.38
247.5	191.38
247.733	174.38
247.966	175.38
248.2	178.38
248.433	187.38
248.666	178.38
248.899	181.38
249.133	185.38
249.366	215.38
249.599	205.38
249.832	191.38
250.066	188.38
250.299	197.38
250.532	193.38
250.765	198.38
250.998	235.38
251.231	249.38
251.465	249.38
251.698	219.38
251.931	215.38
252.164	211.38
252.397	208.38
252.63	218.38
252.863	217.38
253.096	204.38
253.329	236.38
253.562	246.38
253.795	216.38
254.028	226.38
254.261	224.38
254.494	232.38
254.727	270.38
254.96	287.38
255.193	282.38
255.426	256.38
255.659	247.38
255.892	245.38
256.124	238.38
256.357	235.38
256.59	238.38
256.823	227.38
257.056	214.38
257.289	210.38
257.521	229.38
257.754	211.38
257.987	233.38
258.22	211.38
258.452	213.38
258.685	209.38
258.918	209.38
259.151	217.38
259.383	218.38
259.616	225.38
259.849	233.38
260.081	246.38
260.314	259.38
260.547	273.38
260.779	257.38
261.012	212.38
261.244	228.38
261.477	247.38
261.71	228.38
261.942	222.38
262.175	238.38
262.407	222.38
262.64	225.38
262.872	226.38
263.105	224.38
263.337	222.38
263.57	225.38
263.802	250.38
264.035	229.38
264.267	229.38
264.499	227.38
264.732	212.38
264.964	219.38
265.197	225.38
265.429	228.38
265.661	210.38
265.894	227.38
266.126	247.38
266.358	237.38
266.591	238.38
266.823	235.38
267.055	232.38
267.287	227.38
267.52	251.38
267.752	228.38
267.984	234.38
268.216	253.38
268.448	259.38
268.681	261.38
268.913	256.38
269.145	270.38
269.377	301.38
269.609	299.38
269.841	272.38
270.073	276.38
270.306	297.38
270.538	316.38
270.77	316.38
271.002	314.38
271.234	314.38
271.466	326.38
271.698	315.38
271.93	328.38
272.162	323.38
272.394	331.38
272.626	299.38
272.858	283.38
273.09	297.38
273.322	294.38
273.553	285.38
273.785	294.38
274.017	289.38
274.249	278.38
274.481	281.38
274.713	284.38
274.945	289.38
275.176	273.38
275.408	264.38
275.64	269.38
275.872	277.38
276.104	269.38
276.335	285.38
276.567	302.38
276.799	294.38
277.031	328.38
277.262	330.38
277.494	341.38
277.726	305.38
277.957	306.38
278.189	296.38
278.421	294.38
278.652	293.38
278.884	297.38
279.115	300.38
279.347	291.38
279.579	286.38
279.81	282.38
280.042	286.38
280.273	294.38
280.505	291.38
280.736	292.38
280.968	293.38
281.199	299.38
281.431	285.38
281.662	287.38
281.894	291.38
282.125	301.38
282.356	279.38
282.588	328.38
282.819	309.38
283.051	313.38
283.282	296.38
283.513	297.38
283.745	320.38
283.976	291.38
284.207	283.38
284.439	302.38
284.67	293.38
284.901	286.38
285.132	300.38
285.364	296.38
285.595	304.38
285.826	284.38
286.057	302.38
286.288	322.38
286.52	296.38
286.751	294.38
286.982	294.38
287.213	313.38
287.444	323.38
287.675	307.38
287.906	323.38
288.138	332.38
288.369	340.38
288.6	339.38
288.831	333.38
289.062	321.38
289.293	325.38
289.524	314.38
289.755	316.38
289.986	323.38
290.217	315.38
290.448	316.38
290.679	321.38
290.91	307.38
291.141	318.38
291.371	323.38
291.602	316.38
291.833	321.38
292.064	334.38
292.295	321.38
292.526	323.38
292.757	298.38
292.987	317.38
293.218	313.38
293.449	323.38
293.68	309.38
293.91	325.38
294.141	314.38
294.372	294.38
294.603	330.38
294.833	315.38
295.064	315.38
295.295	303.38
295.525	317.38
295.756	321.38
295.987	332.38
296.217	346.38
296.448	340.38
296.679	311.38
296.909	329.38
297.14	333.38
297.37	343.38
297.601	328.38
297.831	324.38
298.062	321.38
298.292	333.38
298.523	326.38
298.753	319.38
298.984	340.38
299.214	343.38
299.445	328.38
299.675	326.38
299.905	348.38
300.136	338.38
300.366	334.38
300.597	346.38
300.827	314.38
301.057	359.38
301.288	362.38
301.518	351.38
301.748	352.38
301.979	357.38
302.209	365.38
302.439	342.38
302.669	345.38
302.9	354.38
303.13	355.38
303.36	348.38
303.59	353.38
303.82	354.38
304.051	381.38
304.281	360.38
304.511	339.38
304.741	352.38
304.971	345.38
305.201	351.38
305.431	343.38
305.661	354.38
305.891	333.38
306.121	354.38
306.352	377.38
306.582	363.38
306.812	332.38
307.042	348.38
307.272	352.38
307.502	346.38
307.731	363.38
307.961	351.38
308.191	374.38
308.421	339.38
308.651	357.38
308.881	366.38
309.111	356.38
309.341	362.38
309.571	365.38
309.8	377.38
310.03	370.38
310.26	382.38
310.49	360.38
310.72	405.38
310.949	395.38
311.179	429.38
311.409	398.38
311.639	399.38
311.868	387.38
312.098	390.38
312.328	399.38
312.557	406.38
312.787	410.38
313.017	418.38
313.246	419.38
313.476	375.38
313.706	391.38
313.935	391.38
314.165	404.38
314.394	421.38
314.624	419.38
314.853	406.38
315.083	421.38
315.312	425.38
315.542	426.38
315.771	416.38
316.001	392.38
316.23	381.38
316.46	396.38
316.689	399.38
316.919	409.38
317.148	407.38
317.377	402.38
317.607	376.38
317.836	407.38
318.065	405.38
318.295	406.38
318.524	407.38
318.753	380.38
318.983	400.38
319.212	427.38
319.441	398.38
319.67	425.38
319.9	414.38
320.129	403.38
320.358	388.38
320.587	396.38
320.816	409.38
321.046	436.38
321.275	403.38
321.504	429.38
321.733	399.38
321.962	405.38
322.191	414.38
322.42	461.38
322.649	453.38
322.878	437.38
323.108	437.38
323.337	473.38
323.566	490.38
323.795	514.38
324.024	520.38
324.253	595.38
324.482	809.38
324.71	1245.38
324.939	1793.38
325.168	1619.38
325.397	840.38
325.626	595.38
325.855	521.38
326.084	481.38
326.313	483.38
326.542	487.38
326.77	536.38
326.999	583.38
327.228	740.38
327.457	1110.38
327.686	1415.38
327.914	963.38
328.143	634.38
328.372	577.38
328.6	556.38
328.829	527.38
329.058	553.38
329.287	546.38
329.515	541.38
329.744	503.38
329.972	482.38
330.201	523.38
330.43	549.38
330.658	569.38
330.887	582.38
331.115	579.38
331.344	522.38
331.572	504.38
331.801	494.38
332.03	519.38
332.258	494.38
332.486	476.38
332.715	487.38
332.943	484.38
333.172	494.38
333.4	511.38
333.629	497.38
333.857	532.38
334.085	537.38
334.314	551.38
334.542	563.38
334.771	574.38
334.999	516.38
335.227	510.38
335.455	515.38
335.684	480.38
335.912	515.38
336.14	486.38
336.369	452.38
336.597	484.38
336.825	489.38
337.053	477.38
337.281	488.38
337.51	471.38
337.738	458.38
337.966	457.38
338.194	490.38
338.422	470.38
338.65	473.38
338.878	477.38
339.106	469.38
339.334	457.38
339.562	459.38
339.79	448.38
340.018	453.38
340.246	477.38
340.474	467.38
340.702	461.38
340.93	463.38
341.158	451.38
341.386	461.38
341.614	457.38
341.842	460.38
342.07	469.38
342.298	442.38
342.526	433.38
342.754	437.38
342.981	471.38
343.209	463.38
343.437	463.38
343.665	484.38
343.893	475.38
344.12	498.38
344.348	498.38
344.576	478.38
344.804	495.38
345.031	509.38
345.259	495.38
345.487	472.38
345.714	474.38
345.942	462.38
346.17	446.38
346.397	463.38
346.625	466.38
346.853	435.38
347.08	443.38
347.308	447.38
347.535	446.38
347.763	462.38
347.99	431.38
348.218	467.38
348.445	459.38
348.673	461.38
348.9	435.38
349.128	439.38
349.355	448.38
349.583	454.38
349.81	435.38
350.037	455.38
350.265	410.38
350.492	427.38
350.72	458.38
350.947	437.38
351.174	448.38
351.402	457.38
351.629	467.38
351.856	459.38
352.083	464.38
352.311	471.38
352.538	452.38
352.765	467.38
352.992	467.38
353.22	487.38
353.447	434.38
353.674	423.38
353.901	451.38
354.128	438.38
354.355	430.38
354.583	444.38
354.81	441.38
355.037	421.38
355.264	442.38
355.491	430.38
355.718	424.38
355.945	427.38
356.172	418.38
356.399	429.38
356.626	412.38
356.853	416.38
357.08	425.38
357.307	429.38
357.534	445.38
357.761	436.38
357.988	442.38
358.215	444.38
358.441	425.38
358.668	423.38
358.895	426.38
359.122	451.38
359.349	435.38
359.576	453.38
359.802	462.38
360.029	483.38
360.256	484.38
360.483	476.38
360.709	467.38
360.936	456.38
361.163	454.38
361.39	469.38
361.616	454.38
361.843	442.38
362.07	457.38
362.296	457.38
362.523	471.38
362.749	463.38
362.976	454.38
363.203	448.38
363.429	440.38
363.656	452.38
363.882	458.38
364.109	458.38
364.335	436.38
364.562	435.38
364.788	446.38
365.015	451.38
365.241	445.38
365.468	453.38
365.694	458.38
365.92	445.38
366.147	437.38
366.373	446.38
366.599	451.38
366.826	425.38
367.052	445.38
367.278	421.38
367.505	448.38
367.731	433.38
367.957	436.38
368.184	435.38
368.41	443.38
368.636	460.38
368.862	457.38
369.089	445.38
369.315	461.38
369.541	423.38
369.767	429.38
369.993	453.38
370.219	469.38
370.445	422.38
370.672	446.38
370.898	435.38
371.124	451.38
371.35	440.38
371.576	465.38
371.802	447.38
372.028	441.38
372.254	443.38
372.48	455.38
372.706	449.38
372.932	445.38
373.158	450.38
373.384	454.38
373.61	467.38
373.835	469.38
374.061	425.38
374.287	467.38
374.513	446.38
374.739	470.38
374.965	457.38
375.191	483.38
375.416	481.38
375.642	446.38
375.868	444.38
376.094	444.38
376.319	445.38
376.545	438.38
376.771	452.38
376.997	448.38
377.222	459.38
377.448	438.38
377.674	463.38
377.899	449.38
378.125	434.38
378.35	436.38
378.576	462.38
378.802	444.38
379.027	439.38
379.253	459.38
379.478	452.38
379.704	446.38
379.929	451.38
380.155	434.38
380.38	461.38
380.606	461.38
380.831	433.38
381.057	443.38
381.282	442.38
381.507	458.38
381.733	460.38
381.958	475.38
382.184	469.38
382.409	475.38
382.634	471.38
382.86	463.38
383.085	464.38
383.31	491.38
383.535	457.38
383.761	484.38
383.986	484.38
384.211	473.38
384.436	477.38
384.662	491.38
384.887	497.38
385.112	491.38
385.337	499.38
385.562	485.38
385.787	511.38
386.013	533.38
386.238	536.38
386.463	497.38
386.688	491.38
386.913	488.38
387.138	494.38
387.363	511.38
387.588	497.38
387.813	506.38
388.038	521.38
388.263	502.38
388.488	523.38
388.713	503.38
388.938	522.38
389.163	517.38
389.387	499.38
389.612	513.38
389.837	498.38
390.062	509.38
390.287	521.38
390.512	501.38
390.736	523.38
390.961	526.38
391.186	526.38
391.411	509.38
391.636	532.38
391.86	499.38
392.085	536.38
392.31	550.38
392.534	521.38
392.759	548.38
392.984	523.38
393.208	523.38
393.433	529.38
393.658	537.38
393.882	528.38
394.107	525.38
394.331	520.38
394.556	520.38
394.78	521.38
395.005	514.38
395.229	492.38
395.454	557.38
395.678	533.38
395.903	522.38
396.127	556.38
396.352	551.38
396.576	529.38
396.801	535.38
397.025	530.38
397.249	525.38
397.474	561.38
397.698	553.38
397.922	572.38
398.147	566.38
398.371	581.38
398.595	570.38
398.82	588.38
399.044	625.38
399.268	635.38
399.492	646.38
399.717	699.38
399.941	723.38
400.165	748.38
400.389	739.38
400.613	643.38
400.837	631.38
401.062	599.38
401.286	584.38
401.51	573.38
401.734	573.38
401.958	592.38
402.182	588.38
402.406	616.38
402.63	605.38
402.854	601.38
403.078	600.38
403.302	632.38
403.526	629.38
403.75	637.38
403.974	617.38
404.198	623.38
404.422	624.38
404.645	635.38
404.869	634.38
405.093	666.38
405.317	703.38
405.541	751.38
405.765	672.38
405.988	638.38
406.212	653.38
406.436	678.38
406.66	679.38
406.883	639.38
407.107	687.38
407.331	749.38
407.555	789.38
407.778	783.38
408.002	746.38
408.226	693.38
408.449	685.38
408.673	677.38
408.896	697.38
409.12	725.38
409.344	691.38
409.567	626.38
409.791	640.38
410.014	626.38
410.238	630.38
410.461	643.38
410.685	602.38
410.908	624.38
411.132	636.38
411.355	693.38
411.578	684.38
411.802	647.38
412.025	622.38
412.249	630.38
412.472	667.38
412.695	696.38
412.919	653.38
413.142	612.38
413.365	605.38
413.589	584.38
413.812	596.38
414.035	588.38
414.258	595.38
414.482	591.38
414.705	583.38
414.928	562.38
415.151	602.38
415.374	603.38
415.597	597.38
415.821	581.38
416.044	575.38
416.267	588.38
416.49	575.38
416.713	603.38
416.936	567.38
417.159	570.38
417.382	575.38
417.605	590.38
417.828	604.38
418.051	611.38
418.274	604.38
418.497	573.38
418.72	595.38
418.943	567.38
419.166	626.38
419.389	649.38
419.611	659.38
419.834	627.38
420.057	611.38
420.28	596.38
420.503	598.38
420.726	598.38
420.948	622.38
421.171	680.38
421.394	689.38
421.617	647.38
421.839	610.38
422.062	596.38
422.285	613.38
422.507	663.38
422.73	771.38
422.953	737.38
423.175	648.38
423.398	629.38
423.621	639.38
423.843	636.38
424.066	645.38
424.288	651.38
424.511	654.38
424.733	701.38
424.956	803.38
425.178	763.38
425.401	745.38
425.623	804.38
425.846	656.38
426.068	624.38
426.291	634.38
426.513	648.38
426.735	659.38
426.958	686.38
427.18	741.38
427.402	911.38
427.625	957.38
427.847	852.38
428.069	745.38
428.292	683.38
428.514	627.38
428.736	607.38
428.958	597.38
429.181	577.38
429.403	565.38
429.625	597.38
429.847	605.38
430.069	681.38
430.292	703.38
430.514	625.38
430.736	606.38
430.958	582.38
431.18	592.38
431.402	559.38
431.624	552.38
431.846	595.38
432.068	565.38
432.29	573.38
432.512	555.38
432.734	586.38
432.956	551.38
433.178	578.38
433.4	575.38
433.622	573.38
433.844	554.38
434.066	574.38
434.287	592.38
434.509	579.38
434.731	590.38
434.953	589.38
435.175	609.38
435.397	637.38
435.618	634.38
435.84	678.38
436.062	787.38
436.284	827.38
436.505	709.38
436.727	656.38
436.949	609.38
437.17	611.38
437.392	596.38
437.614	599.38
437.835	627.38
438.057	684.38
438.278	803.38
438.5	821.38
438.721	926.38
438.943	855.38
439.165	700.38
439.386	660.38
439.608	653.38
439.829	618.38
440.05	659.38
440.272	683.38
440.493	673.38
440.715	625.38
440.936	597.38
441.158	603.38
441.379	586.38
441.6	602.38
441.822	661.38
442.043	676.38
442.264	745.38
442.486	806.38
442.707	712.38
442.928	647.38
443.149	635.38
443.371	682.38
443.592	722.38
443.813	829.38
444.034	883.38
444.255	749.38
444.476	699.38
444.698	672.38
444.919	675.38
445.14	757.38
445.361	717.38
445.582	696.38
445.803	723.38
446.024	843.38
446.245	825.38
446.466	764.38
446.687	666.38
446.908	637.38
447.129	608.38
447.35	595.38
447.571	579.38
447.792	604.38
448.013	578.38
448.234	611.38
448.455	636.38
448.675	764.38
448.896	892.38
449.117	725.38
449.338	725.38
449.559	809.38
449.779	929.38
450	741.38
450.221	610.38
450.442	586.38
450.662	584.38
450.883	551.38
451.104	558.38
451.324	559.38
451.545	550.38
451.766	547.38
451.986	538.38
452.207	519.38
452.428	544.38
452.648	503.38
452.869	509.38
453.089	526.38
453.31	562.38
453.53	513.38
453.751	518.38
453.971	542.38
454.192	526.38
454.412	511.38
454.633	510.38
454.853	510.38
455.073	507.38
455.294	546.38
455.514	594.38
455.734	586.38
455.955	513.38
456.175	513.38
456.395	502.38
456.616	487.38
456.836	501.38
457.056	485.38
457.276	488.38
457.497	530.38
457.717	490.38
457.937	501.38
458.157	511.38
458.377	500.38
458.598	545.38
458.818	591.38
459.038	644.38
459.258	677.38
459.478	601.38
459.698	552.38
459.918	577.38
460.138	555.38
460.358	609.38
460.578	598.38
460.798	580.38
461.018	601.38
461.238	596.38
461.458	606.38
461.678	610.38
461.898	577.38
462.118	576.38
462.338	586.38
462.558	619.38
462.777	645.38
462.997	628.38
463.217	677.38
463.437	646.38
463.657	662.38
463.876	661.38
464.096	639.38
464.316	622.38
464.536	616.38
464.755	625.38
464.975	635.38
465.195	638.38
465.414	694.38
465.634	639.38
465.854	601.38
466.073	581.38
466.293	566.38
466.512	543.38
466.732	517.38
466.951	541.38
467.171	538.38
467.391	568.38
467.61	558.38
467.829	555.38
468.049	555.38
468.268	534.38
468.488	545.38
468.707	525.38
468.927	525.38
469.146	541.38
469.365	533.38
469.585	535.38
469.804	533.38
470.023	557.38
470.243	538.38
470.462	566.38
470.681	574.38
470.901	562.38
471.12	565.38
471.339	542.38
471.558	561.38
471.777	567.38
471.997	557.38
472.216	528.38
472.435	555.38
472.654	554.38
472.873	562.38
473.092	546.38
473.311	530.38
473.53	536.38
473.749	556.38
473.968	585.38
474.187	682.38
474.406	703.38
474.625	608.38
474.844	563.38
475.063	542.38
475.282	580.38
475.501	543.38
475.72	573.38
475.939	569.38
476.158	578.38
476.377	582.38
476.596	552.38
476.814	561.38
477.033	586.38
477.252	590.38
477.471	567.38
477.69	590.38
477.908	611.38
478.127	613.38
478.346	612.38
478.564	625.38
478.783	635.38
479.002	607.38
479.22	649.38
479.439	653.38
479.658	643.38
479.876	645.38
480.095	672.38
480.313	697.38
480.532	679.38
480.751	677.38
480.969	687.38
481.188	719.38
481.406	755.38
481.624	686.38
481.843	663.38
482.061	662.38
482.28	644.38
482.498	650.38
482.717	633.38
482.935	659.38
483.153	645.38
483.372	655.38
483.59	622.38
483.808	649.38
484.027	638.38
484.245	657.38
484.463	632.38
484.681	651.38
484.9	674.38
485.118	667.38
485.336	647.38
485.554	642.38
485.772	679.38
485.99	663.38
486.209	671.38
486.427	694.38
486.645	684.38
486.863	689.38
487.081	702.38
487.299	680.38
487.517	693.38
487.735	679.38
487.953	681.38
488.171	697.38
488.389	678.38
488.607	669.38
488.825	699.38
489.043	686.38
489.261	706.38
489.479	705.38
489.696	699.38
489.914	698.38
490.132	732.38
490.35	725.38
490.568	755.38
490.786	718.38
491.003	741.38
491.221	751.38
491.439	787.38
491.657	779.38
491.874	784.38
492.092	785.38
492.31	770.38
492.527	785.38
492.745	789.38
492.963	821.38
493.18	817.38
493.398	817.38
493.615	823.38
493.833	815.38
494.05	802.38
494.268	828.38
494.485	809.38
494.703	839.38
494.92	827.38
495.138	817.38
495.355	845.38
495.573	812.38
495.79	827.38
496.008	837.38
496.225	823.38
496.442	846.38
496.66	835.38
496.877	832.38
497.094	847.38
497.312	849.38
497.529	849.38
497.746	870.38
497.963	884.38
498.181	914.38
498.398	918.38
498.615	937.38
498.832	965.38
499.049	1006.38
499.267	971.38
499.484	1077.38
499.701	1090.38
499.918	1157.38
500.135	1224.38
500.352	1301.38
500.569	1333.38
500.786	1338.38
501.003	1305.38
501.22	1252.38
501.437	1197.38
501.654	1140.38
501.871	1122.38
502.088	1015.38
502.305	997.38
502.522	958.38
502.739	934.38
502.956	916.38
503.172	891.38
503.389	885.38
503.606	870.38
503.823	874.38
504.04	857.38
504.256	832.38
504.473	845.38
504.69	821.38
504.907	837.38
505.123	829.38
505.34	793.38
505.557	814.38
505.773	767.38
505.99	785.38
506.207	781.38
506.423	781.38
506.64	766.38
506.856	779.38
507.073	753.38
507.289	746.38
507.506	744.38
507.722	748.38
507.939	767.38
508.155	739.38
508.372	727.38
508.588	725.38
508.805	725.38
509.021	721.38
509.238	729.38
509.454	727.38
509.67	715.38
509.887	725.38
510.103	719.38
510.319	707.38
510.536	759.38
510.752	1100.38
510.968	973.38
511.184	722.38
511.401	675.38
511.617	670.38
511.833	670.38
512.049	668.38
512.265	704.38
512.481	695.38
512.698	676.38
512.914	669.38
513.13	664.38
513.346	678.38
513.562	684.38
513.778	669.38
513.994	679.38
514.21	691.38
514.426	703.38
514.642	718.38
514.858	731.38
515.074	733.38
515.29	838.38
515.506	1155.38
515.721	1001.38
515.937	765.38
516.153	739.38
516.369	706.38
516.585	703.38
516.801	706.38
517.016	723.38
517.232	718.38
517.448	738.38
517.664	748.38
517.879	706.38
518.095	743.38
518.311	730.38
518.527	723.38
518.742	719.38
518.958	714.38
519.173	695.38
519.389	683.38
519.605	670.38
519.82	666.38
520.036	692.38
520.251	698.38
520.467	713.38
520.682	703.38
520.898	685.38
521.113	719.38
521.329	750.38
521.544	784.38
521.76	940.38
521.975	1325.38
522.19	1360.38
522.406	853.38
522.621	717.38
522.836	678.38
523.052	625.38
523.267	629.38
523.482	619.38
523.698	631.38
523.913	639.38
524.128	590.38
524.343	605.38
524.559	593.38
524.774	601.38
524.989	575.38
525.204	582.38
525.419	576.38
525.634	589.38
525.849	581.38
526.064	564.38
526.28	590.38
526.495	572.38
526.71	555.38
526.925	564.38
527.14	561.38
527.355	573.38
527.57	542.38
527.785	553.38
527.999	561.38
528.214	540.38
528.429	570.38
528.644	564.38
528.859	575.38
529.074	549.38
529.289	570.38
529.503	625.38
529.718	614.38
529.933	601.38
530.148	575.38
530.363	578.38
530.577	567.38
530.792	572.38
531.007	551.38
531.221	527.38
531.436	556.38
531.651	554.38
531.865	542.38
532.08	547.38
532.295	521.38
532.509	544.38
532.724	557.38
532.938	545.38
533.153	541.38
533.367	545.38
533.582	552.38
533.796	554.38
534.011	539.38
534.225	551.38
534.44	534.38
534.654	544.38
534.868	530.38
535.083	530.38
535.297	547.38
535.511	541.38
535.726	541.38
535.94	523.38
536.154	524.38
536.369	530.38
536.583	529.38
536.797	521.38
537.011	532.38
537.225	517.38
537.44	508.38
537.654	531.38
537.868	515.38
538.082	521.38
538.296	538.38
538.51	528.38
538.724	549.38
538.938	529.38
539.153	540.38
539.367	536.38
539.581	540.38
539.795	517.38
540.009	507.38
540.222	520.38
540.436	547.38
540.65	499.38
540.864	549.38
541.078	515.38
541.292	544.38
541.506	521.38
541.72	492.38
541.934	527.38
542.147	530.38
542.361	546.38
542.575	515.38
542.789	503.38
543.002	523.38
543.216	514.38
543.43	530.38
543.644	530.38
543.857	539.38
544.071	526.38
544.285	509.38
544.498	542.38
544.712	523.38
544.925	521.38
545.139	519.38
545.352	537.38
545.566	527.38
545.779	535.38
545.993	509.38
546.206	525.38
546.42	525.38
546.633	525.38
546.847	514.38
547.06	513.38
547.274	514.38
547.487	514.38
547.7	522.38
547.914	525.38
548.127	537.38
548.34	506.38
548.554	519.38
548.767	525.38
548.98	504.38
549.193	494.38
549.407	531.38
549.62	482.38
549.833	523.38
550.046	512.38
550.259	484.38
550.473	532.38
550.686	509.38
550.899	517.38
551.112	518.38
551.325	506.38
551.538	487.38
551.751	528.38
551.964	494.38
552.177	499.38
552.39	514.38
552.603	502.38
552.816	508.38
553.029	501.38
553.242	505.38
553.455	521.38
553.667	516.38
553.88	543.38
554.093	534.38
554.306	517.38
554.519	521.38
554.732	510.38
554.944	491.38
555.157	482.38
555.37	515.38
555.583	473.38
555.795	477.38
556.008	490.38
556.221	475.38
556.433	472.38
556.646	467.38
556.859	459.38
557.071	473.38
557.284	466.38
557.496	469.38
557.709	461.38
557.921	467.38
558.134	452.38
558.346	440.38
558.559	464.38
558.771	429.38
558.984	456.38
559.196	469.38
559.409	445.38
559.621	454.38
559.833	445.38
560.046	426.38
560.258	437.38
560.47	448.38
560.683	436.38
560.895	467.38
561.107	477.38
561.32	445.38
561.532	443.38
561.744	456.38
561.956	442.38
562.168	471.38
562.381	472.38
562.593	458.38
562.805	468.38
563.017	458.38
563.229	436.38
563.441	455.38
563.653	464.38
563.865	453.38
564.077	453.38
564.289	462.38
564.501	477.38
564.713	469.38
564.925	478.38
565.137	502.38
565.349	482.38
565.561	478.38
565.773	526.38
565.985	533.38
566.197	526.38
566.408	550.38
566.62	561.38
566.832	574.38
567.044	585.38
567.255	600.38
567.467	606.38
567.679	604.38
567.891	615.38
568.102	598.38
568.314	609.38
568.526	582.38
568.737	569.38
568.949	536.38
569.161	513.38
569.372	483.38
569.584	491.38
569.795	475.38
570.007	462.38
570.218	509.38
570.43	455.38
570.641	445.38
570.853	461.38
571.064	441.38
571.276	460.38
571.487	435.38
571.698	435.38
571.91	435.38
572.121	421.38
572.333	414.38
572.544	408.38
572.755	395.38
572.966	377.38
573.178	392.38
573.389	375.38
573.6	405.38
573.811	395.38
574.023	391.38
574.234	382.38
574.445	390.38
574.656	395.38
574.867	397.38
575.078	403.38
575.289	374.38
575.501	363.38
575.712	377.38
575.923	378.38
576.134	381.38
576.345	379.38
576.556	391.38
576.767	362.38
576.978	388.38
577.188	369.38
577.399	358.38
577.61	366.38
577.821	371.38
578.032	377.38
578.243	386.38
578.454	558.38
578.665	433.38
578.875	391.38
579.086	354.38
579.297	350.38
579.508	350.38
579.718	358.38
579.929	365.38
580.14	356.38
580.35	351.38
580.561	342.38
580.772	365.38
580.982	337.38
581.193	350.38
581.403	351.38
581.614	365.38
581.825	345.38
582.035	348.38
582.246	342.38
582.456	345.38
582.667	347.38
582.877	335.38
583.087	345.38
583.298	338.38
583.508	337.38
583.719	339.38
583.929	342.38
584.139	335.38
584.35	324.38
584.56	357.38
584.77	339.38
584.981	341.38
585.191	342.38
585.401	325.38
585.611	328.38
585.821	337.38
586.032	339.38
586.242	343.38
586.452	326.38
586.662	323.38
586.872	329.38
587.082	332.38
587.292	335.38
587.502	339.38
587.713	330.38
587.923	347.38
588.133	324.38
588.343	326.38
588.553	325.38
588.762	337.38
588.972	332.38
589.182	311.38
589.392	344.38
589.602	337.38
589.812	323.38
590.022	346.38
590.232	330.38
590.441	333.38
590.651	325.38
590.861	346.38
591.071	338.38
591.281	332.38
591.49	339.38
591.7	336.38
591.91	341.38
592.119	334.38
592.329	334.38
592.539	366.38
592.748	371.38
592.958	364.38
593.167	371.38
593.377	391.38
593.587	378.38
593.796	374.38
594.006	373.38
594.215	367.38
594.424	374.38
594.634	375.38
594.843	348.38
595.053	353.38
595.262	357.38
595.472	350.38
595.681	345.38
595.89	333.38
596.1	326.38
596.309	337.38
596.518	326.38
596.727	315.38
596.937	317.38
597.146	300.38
597.355	317.38
597.564	309.38
597.774	301.38
597.983	285.38
598.192	307.38
598.401	305.38
598.61	306.38
598.819	293.38
599.028	301.38
599.237	283.38
599.446	294.38
599.655	323.38
599.864	310.38
600.073	310.38
600.282	274.38
600.491	291.38
600.7	299.38
600.909	305.38
601.118	302.38
601.327	293.38
601.536	275.38
601.745	279.38
601.953	307.38
602.162	291.38
602.371	278.38
602.58	279.38
602.789	283.38
602.997	285.38
603.206	279.38
603.415	300.38
603.623	293.38
603.832	291.38
604.041	276.38
604.249	287.38
604.458	271.38
604.666	273.38
604.875	288.38
605.084	263.38
605.292	294.38
605.501	283.38
605.709	268.38
605.918	278.38
606.126	290.38
606.334	274.38
606.543	297.38
606.751	282.38
606.96	264.38
607.168	284.38
607.376	268.38
607.585	288.38
607.793	277.38
608.001	291.38
608.21	274.38
608.418	282.38
608.626	257.38
608.834	289.38
609.043	270.38
609.251	270.38
609.459	263.38
609.667	282.38
609.875	277.38
610.083	283.38
610.291	283.38
610.499	276.38
610.707	270.38
610.916	279.38
611.124	282.38
611.332	293.38
611.54	298.38
611.748	272.38
611.955	267.38
612.163	291.38
612.371	284.38
612.579	274.38
612.787	284.38
612.995	265.38
613.203	264.38
613.411	281.38
613.618	286.38
613.826	287.38
614.034	278.38
614.242	279.38
614.449	262.38
614.657	273.38
614.865	261.38
615.072	287.38
615.28	269.38
615.488	266.38
615.695	262.38
615.903	275.38
616.111	252.38
616.318	264.38
616.526	258.38
616.733	257.38
616.941	281.38
617.148	260.38
617.356	260.38
617.563	262.38
617.771	269.38
617.978	258.38
618.185	268.38
618.393	273.38
618.6	255.38
618.807	272.38
619.015	267.38
619.222	238.38
619.429	263.38
619.637	273.38
619.844	253.38
620.051	260.38
620.258	235.38
620.466	246.38
620.673	230.38
620.88	248.38
621.087	242.38
621.294	254.38
621.501	236.38
621.708	261.38
621.915	242.38
622.122	250.38
622.329	246.38
622.536	239.38
622.743	247.38
622.95	242.38
623.157	253.38
623.364	261.38
623.571	244.38
623.778	241.38
623.985	242.38
624.192	236.38
624.399	233.38
624.606	224.38
624.812	246.38
625.019	245.38
625.226	233.38
625.433	249.38
625.639	233.38
625.846	234.38
626.053	212.38
626.259	220.38
626.466	250.38
626.673	228.38
626.879	236.38
627.086	228.38
627.293	242.38
627.499	209.38
627.706	221.38
627.912	235.38
628.119	231.38
628.325	231.38
628.532	223.38
628.738	244.38
628.945	231.38
629.151	220.38
629.357	228.38
629.564	213.38
629.77	219.38
629.976	216.38
630.183	201.38
630.389	223.38
630.595	208.38
630.802	222.38
631.008	210.38
631.214	219.38
631.42	221.38
631.627	214.38
631.833	212.38
632.039	216.38
632.245	220.38
632.451	203.38
632.657	209.38
632.863	214.38
633.069	205.38
633.275	209.38
633.481	213.38
633.688	213.38
633.893	206.38
634.099	204.38
634.305	207.38
634.511	189.38
634.717	213.38
634.923	204.38
635.129	223.38
635.335	204.38
635.541	207.38
635.747	210.38
635.952	208.38
636.158	202.38
636.364	193.38
636.57	203.38
636.775	196.38
636.981	208.38
637.187	204.38
637.392	212.38
637.598	209.38
637.804	199.38
638.009	201.38
638.215	193.38
638.421	203.38
638.626	183.38
638.832	191.38
639.037	197.38
639.243	195.38
639.448	194.38
639.654	194.38
639.859	198.38
640.065	197.38
640.27	184.38
640.475	203.38
640.681	196.38
640.886	203.38
641.091	197.38
641.297	195.38
641.502	174.38
641.707	184.38
641.913	201.38
642.118	198.38
642.323	184.38
642.528	199.38
642.733	177.38
642.939	174.38
643.144	187.38
643.349	195.38
643.554	197.38
643.759	193.38
643.964	188.38
644.169	164.38
644.374	183.38
644.579	182.38
644.784	189.38
644.989	167.38
645.194	187.38
645.399	189.38
645.604	181.38
645.809	186.38
646.014	199.38
646.219	171.38
646.423	193.38
646.628	200.38
646.833	172.38
647.038	177.38
647.243	198.38
647.447	181.38
647.652	187.38
647.857	181.38
648.062	189.38
648.266	195.38
648.471	188.38
648.676	181.38
648.88	195.38
649.085	191.38
649.289	175.38
649.494	191.38
649.698	220.38
649.903	188.38
650.107	191.38
650.312	195.38
650.516	171.38
650.721	162.38
650.925	177.38
651.13	169.38
651.334	163.38
651.539	179.38
651.743	178.38
651.947	155.38
652.152	157.38
652.356	159.38
652.56	157.38
652.764	149.38
652.969	165.38
653.173	175.38
653.377	158.38
653.581	157.38
653.785	160.38
653.99	153.38
654.194	139.38
654.398	135.38
654.602	136.38
654.806	149.38
655.01	139.38
655.214	142.38
655.418	148.38
655.622	139.38
655.826	154.38
656.03	157.38
656.234	149.38
656.438	150.38
656.642	144.38
656.846	142.38
657.049	120.38
657.253	125.38
657.457	124.38
657.661	124.38
657.865	122.38
658.068	125.38
658.272	128.38
658.476	122.38
658.68	128.38
658.883	117.38
659.087	123.38
659.291	114.38
659.494	106.38
659.698	102.38
659.901	110.38
660.105	104.38
660.309	105.38
660.512	109.38
660.716	101.38
660.919	97.38
661.123	107.38
661.326	98.38
661.53	96.38
661.733	80.38
661.936	110.38
662.14	84.38
662.343	90.38
662.546	89.38
662.75	83.38
662.953	80.38
663.156	95.38
663.36	87.38
663.563	95.38
663.766	93.38
663.969	81.38
664.173	86.38
664.376	77.38
664.579	75.38
664.782	85.38
664.985	92.38
665.188	85.38
665.391	83.38
665.594	82.38
665.797	92.38
666	74.38
666.203	83.38
666.406	89.38
666.609	82.38
666.812	88.38
667.015	83.38
667.218	96.38
667.421	77.38
667.624	90.38
667.827	90.38
668.03	81.38
668.232	89.38
668.435	76.38
668.638	81.38
668.841	67.38
669.043	76.38
669.246	72.38
669.449	90.38
669.651	83.38
669.854	68.38
670.057	80.38
670.259	83.38
670.462	89.38
670.665	82.38
670.867	64.38
671.07	73.38
671.272	90.38
671.475	77.38
671.677	77.38
671.88	86.38
672.082	83.38
672.284	93.38
672.487	85.38
672.689	85.38
672.892	80.38
