Data from 1974.PennyLincolnUp.Lamp.En5.5.200Scan.071719.P1.Changed Mount._HRD10591_15-54-04-858.txt Node
Date: Thu Jul 18 15:54:04 EDT 2019
User: cochatt
Spectrometer: HR+D1059
Trigger mode: 1
Integration Time (sec): 1.000000E-1
Scans to average: 1
Electric dark correction enabled: true
Nonlinearity correction enabled: false
Boxcar width: 0
XAxis mode: Wavelengths
Number of Pixels in Spectrum: 2048
>>>>>Begin Spectral Data<<<<<
223.165	-24.31
223.4	-24.31
223.635	-24.31
223.869	-19.31
224.104	-4.31
224.338	-13.31
224.573	-8.31
224.808	-9.31
225.042	-12.31
225.277	-12.31
225.511	5.69
225.746	-3.31
225.98	10.69
226.215	6.69
226.449	10.69
226.683	14.69
226.918	16.69
227.152	41.69
227.387	34.69
227.621	43.69
227.856	47.69
228.09	46.69
228.324	54.69
228.559	57.69
228.793	70.69
229.027	95.69
229.262	102.69
229.496	117.69
229.73	125.69
229.964	159.69
230.199	137.69
230.433	114.69
230.667	102.69
230.901	111.69
231.136	106.69
231.37	118.69
231.604	122.69
231.838	122.69
232.072	123.69
232.306	118.69
232.541	111.69
232.775	119.69
233.009	111.69
233.243	96.69
233.477	117.69
233.711	117.69
233.945	131.69
234.179	122.69
234.413	122.69
234.647	128.69
234.881	123.69
235.115	121.69
235.349	122.69
235.583	124.69
235.817	132.69
236.051	145.69
236.285	131.69
236.519	129.69
236.753	142.69
236.987	146.69
237.221	181.69
237.455	239.69
237.689	191.69
237.922	146.69
238.156	145.69
238.39	148.69
238.624	119.69
238.858	155.69
239.091	136.69
239.325	155.69
239.559	137.69
239.793	154.69
240.027	142.69
240.26	155.69
240.494	160.69
240.728	158.69
240.961	158.69
241.195	169.69
241.429	134.69
241.662	153.69
241.896	156.69
242.13	149.69
242.363	151.69
242.597	138.69
242.83	140.69
243.064	146.69
243.298	153.69
243.531	145.69
243.765	149.69
243.998	152.69
244.232	162.69
244.465	147.69
244.699	164.69
244.932	164.69
245.166	154.69
245.399	162.69
245.633	144.69
245.866	153.69
246.099	162.69
246.333	156.69
246.566	162.69
246.8	163.69
247.033	172.69
247.266	184.69
247.5	187.69
247.733	193.69
247.966	180.69
248.2	203.69
248.433	202.69
248.666	180.69
248.899	189.69
249.133	207.69
249.366	224.69
249.599	212.69
249.832	200.69
250.066	207.69
250.299	218.69
250.532	204.69
250.765	232.69
250.998	253.69
251.231	235.69
251.465	227.69
251.698	211.69
251.931	195.69
252.164	220.69
252.397	218.69
252.63	225.69
252.863	233.69
253.096	228.69
253.329	247.69
253.562	224.69
253.795	245.69
254.028	238.69
254.261	237.69
254.494	231.69
254.727	252.69
254.96	303.69
255.193	286.69
255.426	274.69
255.659	243.69
255.892	252.69
256.124	242.69
256.357	250.69
256.59	259.69
256.823	243.69
257.056	231.69
257.289	223.69
257.521	235.69
257.754	215.69
257.987	231.69
258.22	226.69
258.452	243.69
258.685	229.69
258.918	222.69
259.151	218.69
259.383	245.69
259.616	239.69
259.849	269.69
260.081	265.69
260.314	286.69
260.547	268.69
260.779	244.69
261.012	259.69
261.244	246.69
261.477	239.69
261.71	245.69
261.942	254.69
262.175	253.69
262.407	253.69
262.64	244.69
262.872	243.69
263.105	244.69
263.337	235.69
263.57	242.69
263.802	229.69
264.035	226.69
264.267	220.69
264.499	232.69
264.732	247.69
264.964	226.69
265.197	226.69
265.429	253.69
265.661	227.69
265.894	241.69
266.126	252.69
266.358	245.69
266.591	239.69
266.823	227.69
267.055	261.69
267.287	280.69
267.52	254.69
267.752	230.69
267.984	248.69
268.216	262.69
268.448	255.69
268.681	265.69
268.913	257.69
269.145	280.69
269.377	287.69
269.609	313.69
269.841	294.69
270.073	288.69
270.306	303.69
270.538	347.69
270.77	321.69
271.002	328.69
271.234	320.69
271.466	334.69
271.698	319.69
271.93	336.69
272.162	340.69
272.394	346.69
272.626	327.69
272.858	306.69
273.09	298.69
273.322	296.69
273.553	283.69
273.785	278.69
274.017	288.69
274.249	284.69
274.481	296.69
274.713	286.69
274.945	292.69
275.176	291.69
275.408	297.69
275.64	310.69
275.872	288.69
276.104	287.69
276.335	293.69
276.567	298.69
276.799	326.69
277.031	333.69
277.262	332.69
277.494	350.69
277.726	335.69
277.957	316.69
278.189	311.69
278.421	297.69
278.652	302.69
278.884	279.69
279.115	292.69
279.347	301.69
279.579	287.69
279.81	289.69
280.042	283.69
280.273	300.69
280.505	285.69
280.736	295.69
280.968	308.69
281.199	299.69
281.431	286.69
281.662	290.69
281.894	311.69
282.125	310.69
282.356	323.69
282.588	314.69
282.819	343.69
283.051	322.69
283.282	309.69
283.513	310.69
283.745	304.69
283.976	306.69
284.207	308.69
284.439	325.69
284.67	324.69
284.901	290.69
285.132	340.69
285.364	326.69
285.595	308.69
285.826	301.69
286.057	295.69
286.288	307.69
286.52	321.69
286.751	326.69
286.982	301.69
287.213	302.69
287.444	312.69
287.675	320.69
287.906	330.69
288.138	307.69
288.369	326.69
288.6	344.69
288.831	327.69
289.062	329.69
289.293	323.69
289.524	342.69
289.755	327.69
289.986	331.69
290.217	334.69
290.448	303.69
290.679	308.69
290.91	333.69
291.141	314.69
291.371	339.69
291.602	315.69
291.833	316.69
292.064	316.69
292.295	321.69
292.526	323.69
292.757	332.69
292.987	330.69
293.218	336.69
293.449	304.69
293.68	324.69
293.91	312.69
294.141	331.69
294.372	328.69
294.603	327.69
294.833	321.69
295.064	336.69
295.295	349.69
295.525	322.69
295.756	335.69
295.987	336.69
296.217	357.69
296.448	359.69
296.679	358.69
296.909	348.69
297.14	344.69
297.37	344.69
297.601	332.69
297.831	350.69
298.062	348.69
298.292	337.69
298.523	325.69
298.753	353.69
298.984	347.69
299.214	336.69
299.445	333.69
299.675	351.69
299.905	340.69
300.136	343.69
300.366	350.69
300.597	345.69
300.827	364.69
301.057	348.69
301.288	363.69
301.518	365.69
301.748	366.69
301.979	376.69
302.209	382.69
302.439	376.69
302.669	392.69
302.9	347.69
303.13	346.69
303.36	366.69
303.59	363.69
303.82	375.69
304.051	367.69
304.281	379.69
304.511	344.69
304.741	360.69
304.971	374.69
305.201	374.69
305.431	367.69
305.661	366.69
305.891	372.69
306.121	382.69
306.352	370.69
306.582	370.69
306.812	368.69
307.042	377.69
307.272	356.69
307.502	370.69
307.731	362.69
307.961	379.69
308.191	363.69
308.421	348.69
308.651	371.69
308.881	372.69
309.111	386.69
309.341	394.69
309.571	384.69
309.8	381.69
310.03	400.69
310.26	400.69
310.49	401.69
310.72	406.69
310.949	412.69
311.179	432.69
311.409	404.69
311.639	388.69
311.868	404.69
312.098	412.69
312.328	391.69
312.557	421.69
312.787	450.69
313.017	408.69
313.246	411.69
313.476	425.69
313.706	409.69
313.935	409.69
314.165	420.69
314.394	399.69
314.624	413.69
314.853	436.69
315.083	421.69
315.312	444.69
315.542	416.69
315.771	414.69
316.001	408.69
316.23	405.69
316.46	400.69
316.689	406.69
316.919	428.69
317.148	429.69
317.377	421.69
317.607	421.69
317.836	412.69
318.065	408.69
318.295	417.69
318.524	413.69
318.753	421.69
318.983	390.69
319.212	412.69
319.441	423.69
319.67	425.69
319.9	428.69
320.129	411.69
320.358	413.69
320.587	410.69
320.816	404.69
321.046	436.69
321.275	422.69
321.504	452.69
321.733	430.69
321.962	448.69
322.191	470.69
322.42	453.69
322.649	472.69
322.878	466.69
323.108	483.69
323.337	493.69
323.566	514.69
323.795	534.69
324.024	564.69
324.253	632.69
324.482	892.69
324.71	1323.69
324.939	2013.69
325.168	1735.69
325.397	884.69
325.626	630.69
325.855	546.69
326.084	540.69
326.313	511.69
326.542	518.69
326.77	554.69
326.999	627.69
327.228	812.69
327.457	1241.69
327.686	1540.69
327.914	1014.69
328.143	679.69
328.372	638.69
328.6	592.69
328.829	552.69
329.058	565.69
329.287	585.69
329.515	540.69
329.744	520.69
329.972	550.69
330.201	536.69
330.43	580.69
330.658	570.69
330.887	616.69
331.115	605.69
331.344	561.69
331.572	517.69
331.801	531.69
332.03	528.69
332.258	516.69
332.486	506.69
332.715	514.69
332.943	517.69
333.172	496.69
333.4	537.69
333.629	534.69
333.857	543.69
334.085	562.69
334.314	558.69
334.542	573.69
334.771	594.69
334.999	567.69
335.227	539.69
335.455	507.69
335.684	528.69
335.912	512.69
336.14	508.69
336.369	516.69
336.597	513.69
336.825	486.69
337.053	498.69
337.281	500.69
337.51	476.69
337.738	471.69
337.966	457.69
338.194	478.69
338.422	511.69
338.65	473.69
338.878	487.69
339.106	475.69
339.334	476.69
339.562	479.69
339.79	476.69
340.018	488.69
340.246	509.69
340.474	469.69
340.702	466.69
340.93	483.69
341.158	486.69
341.386	487.69
341.614	491.69
341.842	482.69
342.07	465.69
342.298	460.69
342.526	468.69
342.754	471.69
342.981	475.69
343.209	463.69
343.437	471.69
343.665	474.69
343.893	497.69
344.12	523.69
344.348	514.69
344.576	490.69
344.804	487.69
345.031	503.69
345.259	493.69
345.487	480.69
345.714	476.69
345.942	458.69
346.17	455.69
346.397	471.69
346.625	439.69
346.853	458.69
347.08	448.69
347.308	479.69
347.535	459.69
347.763	466.69
347.99	442.69
348.218	467.69
348.445	468.69
348.673	469.69
348.9	464.69
349.128	456.69
349.355	462.69
349.583	457.69
349.81	424.69
350.037	451.69
350.265	450.69
350.492	459.69
350.72	439.69
350.947	473.69
351.174	461.69
351.402	483.69
351.629	456.69
351.856	482.69
352.083	453.69
352.311	479.69
352.538	456.69
352.765	465.69
352.992	482.69
353.22	453.69
353.447	460.69
353.674	466.69
353.901	446.69
354.128	457.69
354.355	447.69
354.583	450.69
354.81	450.69
355.037	441.69
355.264	428.69
355.491	435.69
355.718	421.69
355.945	441.69
356.172	434.69
356.399	456.69
356.626	430.69
356.853	444.69
357.08	436.69
357.307	448.69
357.534	444.69
357.761	435.69
357.988	452.69
358.215	430.69
358.441	441.69
358.668	436.69
358.895	451.69
359.122	432.69
359.349	432.69
359.576	463.69
359.802	481.69
360.029	502.69
360.256	505.69
360.483	525.69
360.709	450.69
360.936	471.69
361.163	451.69
361.39	495.69
361.616	459.69
361.843	459.69
362.07	461.69
362.296	464.69
362.523	473.69
362.749	472.69
362.976	453.69
363.203	454.69
363.429	463.69
363.656	457.69
363.882	448.69
364.109	453.69
364.335	436.69
364.562	460.69
364.788	431.69
365.015	456.69
365.241	456.69
365.468	455.69
365.694	460.69
365.92	471.69
366.147	458.69
366.373	454.69
366.599	456.69
366.826	463.69
367.052	452.69
367.278	446.69
367.505	450.69
367.731	479.69
367.957	450.69
368.184	446.69
368.41	466.69
368.636	472.69
368.862	462.69
369.089	482.69
369.315	467.69
369.541	461.69
369.767	460.69
369.993	443.69
370.219	470.69
370.445	455.69
370.672	446.69
370.898	469.69
371.124	459.69
371.35	470.69
371.576	464.69
371.802	454.69
372.028	459.69
372.254	456.69
372.48	456.69
372.706	462.69
372.932	483.69
373.158	467.69
373.384	483.69
373.61	466.69
373.835	484.69
374.061	483.69
374.287	483.69
374.513	470.69
374.739	482.69
374.965	494.69
375.191	485.69
375.416	504.69
375.642	480.69
375.868	475.69
376.094	457.69
376.319	448.69
376.545	455.69
376.771	463.69
376.997	444.69
377.222	456.69
377.448	477.69
377.674	434.69
377.899	456.69
378.125	462.69
378.35	477.69
378.576	456.69
378.802	488.69
379.027	470.69
379.253	448.69
379.478	435.69
379.704	458.69
379.929	450.69
380.155	448.69
380.38	461.69
380.606	462.69
380.831	452.69
381.057	485.69
381.282	456.69
381.507	479.69
381.733	458.69
381.958	473.69
382.184	495.69
382.409	462.69
382.634	485.69
382.86	474.69
383.085	484.69
383.31	467.69
383.535	478.69
383.761	488.69
383.986	486.69
384.211	493.69
384.436	485.69
384.662	515.69
384.887	495.69
385.112	502.69
385.337	487.69
385.562	519.69
385.787	546.69
386.013	529.69
386.238	515.69
386.463	548.69
386.688	535.69
386.913	525.69
387.138	525.69
387.363	529.69
387.588	522.69
387.813	538.69
388.038	514.69
388.263	514.69
388.488	540.69
388.713	513.69
388.938	546.69
389.163	531.69
389.387	507.69
389.612	538.69
389.837	518.69
390.062	502.69
390.287	515.69
390.512	498.69
390.736	489.69
390.961	518.69
391.186	527.69
391.411	521.69
391.636	531.69
391.86	531.69
392.085	527.69
392.31	556.69
392.534	563.69
392.759	539.69
392.984	550.69
393.208	543.69
393.433	542.69
393.658	522.69
393.882	511.69
394.107	542.69
394.331	535.69
394.556	532.69
394.78	541.69
395.005	520.69
395.229	520.69
395.454	538.69
395.678	571.69
395.903	565.69
396.127	574.69
396.352	609.69
396.576	570.69
396.801	568.69
397.025	550.69
397.249	550.69
397.474	575.69
397.698	571.69
397.922	592.69
398.147	583.69
398.371	601.69
398.595	592.69
398.82	591.69
399.044	614.69
399.268	647.69
399.492	692.69
399.717	708.69
399.941	769.69
400.165	787.69
400.389	754.69
400.613	679.69
400.837	645.69
401.062	630.69
401.286	619.69
401.51	612.69
401.734	597.69
401.958	611.69
402.182	630.69
402.406	646.69
402.63	612.69
402.854	610.69
403.078	640.69
403.302	619.69
403.526	644.69
403.75	648.69
403.974	640.69
404.198	635.69
404.422	643.69
404.645	646.69
404.869	650.69
405.093	681.69
405.317	734.69
405.541	752.69
405.765	682.69
405.988	669.69
406.212	671.69
406.436	694.69
406.66	709.69
406.883	665.69
407.107	700.69
407.331	758.69
407.555	822.69
407.778	848.69
408.002	764.69
408.226	746.69
408.449	710.69
408.673	677.69
408.896	684.69
409.12	738.69
409.344	731.69
409.567	670.69
409.791	642.69
410.014	650.69
410.238	646.69
410.461	650.69
410.685	632.69
410.908	640.69
411.132	670.69
411.355	722.69
411.578	692.69
411.802	649.69
412.025	626.69
412.249	642.69
412.472	646.69
412.695	694.69
412.919	699.69
413.142	648.69
413.365	602.69
413.589	623.69
413.812	628.69
414.035	587.69
414.258	623.69
414.482	623.69
414.705	604.69
414.928	603.69
415.151	596.69
415.374	592.69
415.597	599.69
415.821	586.69
416.044	598.69
416.267	579.69
416.49	598.69
416.713	587.69
416.936	593.69
417.159	603.69
417.382	593.69
417.605	574.69
417.828	580.69
418.051	631.69
418.274	647.69
418.497	629.69
418.72	616.69
418.943	601.69
419.166	644.69
419.389	653.69
419.611	644.69
419.834	634.69
420.057	647.69
420.28	634.69
420.503	648.69
420.726	638.69
420.948	658.69
421.171	670.69
421.394	755.69
421.617	653.69
421.839	636.69
422.062	628.69
422.285	622.69
422.507	704.69
422.73	772.69
422.953	760.69
423.175	686.69
423.398	670.69
423.621	641.69
423.843	679.69
424.066	679.69
424.288	672.69
424.511	698.69
424.733	740.69
424.956	831.69
425.178	800.69
425.401	801.69
425.623	822.69
425.846	695.69
426.068	647.69
426.291	652.69
426.513	655.69
426.735	664.69
426.958	683.69
427.18	780.69
427.402	930.69
427.625	1028.69
427.847	871.69
428.069	763.69
428.292	710.69
428.514	646.69
428.736	607.69
428.958	606.69
429.181	628.69
429.403	607.69
429.625	633.69
429.847	644.69
430.069	731.69
430.292	706.69
430.514	608.69
430.736	599.69
430.958	580.69
431.18	588.69
431.402	604.69
431.624	588.69
431.846	572.69
432.068	591.69
432.29	587.69
432.512	589.69
432.734	589.69
432.956	586.69
433.178	602.69
433.4	600.69
433.622	580.69
433.844	582.69
434.066	595.69
434.287	587.69
434.509	592.69
434.731	602.69
434.953	611.69
435.175	632.69
435.397	664.69
435.618	645.69
435.84	678.69
436.062	796.69
436.284	872.69
436.505	727.69
436.727	660.69
436.949	623.69
437.17	626.69
437.392	610.69
437.614	602.69
437.835	642.69
438.057	733.69
438.278	835.69
438.5	838.69
438.721	926.69
438.943	882.69
439.165	733.69
439.386	685.69
439.608	683.69
439.829	678.69
440.05	659.69
440.272	727.69
440.493	677.69
440.715	652.69
440.936	628.69
441.158	579.69
441.379	632.69
441.6	662.69
441.822	626.69
442.043	701.69
442.264	787.69
442.486	836.69
442.707	725.69
442.928	694.69
443.149	687.69
443.371	706.69
443.592	736.69
443.813	853.69
444.034	915.69
444.255	797.69
444.476	710.69
444.698	695.69
444.919	701.69
445.14	793.69
445.361	738.69
445.582	707.69
445.803	783.69
446.024	901.69
446.245	866.69
446.466	802.69
446.687	706.69
446.908	671.69
447.129	615.69
447.35	620.69
447.571	596.69
447.792	575.69
448.013	606.69
448.234	638.69
448.455	677.69
448.675	794.69
448.896	898.69
449.117	803.69
449.338	728.69
449.559	867.69
449.779	978.69
450	742.69
450.221	658.69
450.442	586.69
450.662	584.69
450.883	569.69
451.104	571.69
451.324	600.69
451.545	564.69
451.766	575.69
451.986	541.69
452.207	533.69
452.428	529.69
452.648	539.69
452.869	514.69
453.089	546.69
453.31	566.69
453.53	560.69
453.751	556.69
453.971	546.69
454.192	580.69
454.412	536.69
454.633	551.69
454.853	534.69
455.073	520.69
455.294	556.69
455.514	626.69
455.734	628.69
455.955	553.69
456.175	519.69
456.395	514.69
456.616	515.69
456.836	508.69
457.056	508.69
457.276	510.69
457.497	507.69
457.717	497.69
457.937	526.69
458.157	513.69
458.377	504.69
458.598	562.69
458.818	598.69
459.038	663.69
459.258	691.69
459.478	641.69
459.698	569.69
459.918	556.69
460.138	560.69
460.358	596.69
460.578	617.69
460.798	611.69
461.018	613.69
461.238	640.69
461.458	603.69
461.678	598.69
461.898	614.69
462.118	610.69
462.338	631.69
462.558	624.69
462.777	664.69
462.997	662.69
463.217	682.69
463.437	662.69
463.657	675.69
463.876	640.69
464.096	662.69
464.316	665.69
464.536	694.69
464.755	656.69
464.975	666.69
465.195	655.69
465.414	711.69
465.634	659.69
465.854	623.69
466.073	576.69
466.293	600.69
466.512	548.69
466.732	572.69
466.951	579.69
467.171	573.69
467.391	549.69
467.61	548.69
467.829	550.69
468.049	566.69
468.268	566.69
468.488	557.69
468.707	541.69
468.927	543.69
469.146	544.69
469.365	546.69
469.585	536.69
469.804	586.69
470.023	587.69
470.243	584.69
470.462	606.69
470.681	593.69
470.901	607.69
471.12	590.69
471.339	552.69
471.558	567.69
471.777	573.69
471.997	564.69
472.216	577.69
472.435	590.69
472.654	570.69
472.873	556.69
473.092	554.69
473.311	553.69
473.53	551.69
473.749	569.69
473.968	629.69
474.187	698.69
474.406	740.69
474.625	611.69
474.844	591.69
475.063	567.69
475.282	549.69
475.501	546.69
475.72	577.69
475.939	557.69
476.158	578.69
476.377	581.69
476.596	582.69
476.814	584.69
477.033	586.69
477.252	584.69
477.471	607.69
477.69	603.69
477.908	627.69
478.127	637.69
478.346	620.69
478.564	637.69
478.783	642.69
479.002	664.69
479.22	649.69
479.439	671.69
479.658	691.69
479.876	693.69
480.095	680.69
480.313	739.69
480.532	700.69
480.751	698.69
480.969	692.69
481.188	771.69
481.406	774.69
481.624	695.69
481.843	674.69
482.061	673.69
482.28	686.69
482.498	664.69
482.717	664.69
482.935	680.69
483.153	676.69
483.372	658.69
483.59	643.69
483.808	687.69
484.027	699.69
484.245	663.69
484.463	656.69
484.681	667.69
484.9	682.69
485.118	666.69
485.336	679.69
485.554	692.69
485.772	693.69
485.99	702.69
486.209	692.69
486.427	687.69
486.645	727.69
486.863	702.69
487.081	708.69
487.299	738.69
487.517	709.69
487.735	710.69
487.953	695.69
488.171	724.69
488.389	682.69
488.607	713.69
488.825	703.69
489.043	698.69
489.261	715.69
489.479	712.69
489.696	741.69
489.914	744.69
490.132	753.69
490.35	753.69
490.568	774.69
490.786	782.69
491.003	772.69
491.221	784.69
491.439	811.69
491.657	807.69
491.874	825.69
492.092	842.69
492.31	820.69
492.527	820.69
492.745	820.69
492.963	837.69
493.18	841.69
493.398	849.69
493.615	850.69
493.833	847.69
494.05	863.69
494.268	835.69
494.485	837.69
494.703	824.69
494.92	867.69
495.138	820.69
495.355	838.69
495.573	844.69
495.79	843.69
496.008	867.69
496.225	855.69
496.442	841.69
496.66	868.69
496.877	847.69
497.094	873.69
497.312	861.69
497.529	880.69
497.746	867.69
497.963	916.69
498.181	934.69
498.398	948.69
498.615	954.69
498.832	963.69
499.049	992.69
499.267	1038.69
499.484	1081.69
499.701	1164.69
499.918	1213.69
500.135	1266.69
500.352	1306.69
500.569	1351.69
500.786	1355.69
501.003	1299.69
501.22	1282.69
501.437	1169.69
501.654	1158.69
501.871	1126.69
502.088	1092.69
502.305	1036.69
502.522	1006.69
502.739	959.69
502.956	902.69
503.172	888.69
503.389	883.69
503.606	869.69
503.823	895.69
504.04	877.69
504.256	876.69
504.473	872.69
504.69	848.69
504.907	883.69
505.123	838.69
505.34	834.69
505.557	813.69
505.773	825.69
505.99	794.69
506.207	792.69
506.423	800.69
506.64	806.69
506.856	786.69
507.073	775.69
507.289	768.69
507.506	741.69
507.722	776.69
507.939	788.69
508.155	740.69
508.372	749.69
508.588	747.69
508.805	721.69
509.021	725.69
509.238	748.69
509.454	782.69
509.67	755.69
509.887	741.69
510.103	731.69
510.319	727.69
510.536	799.69
510.752	1171.69
510.968	1016.69
511.184	746.69
511.401	710.69
511.617	711.69
511.833	700.69
512.049	704.69
512.265	708.69
512.481	706.69
512.698	699.69
512.914	686.69
513.13	679.69
513.346	693.69
513.562	676.69
513.778	697.69
513.994	691.69
514.21	708.69
514.426	712.69
514.642	733.69
514.858	772.69
515.074	798.69
515.29	892.69
515.506	1190.69
515.721	1030.69
515.937	800.69
516.153	754.69
516.369	754.69
516.585	737.69
516.801	731.69
517.016	772.69
517.232	734.69
517.448	766.69
517.664	754.69
517.879	753.69
518.095	755.69
518.311	764.69
518.527	738.69
518.742	734.69
518.958	704.69
519.173	676.69
519.389	678.69
519.605	707.69
519.82	715.69
520.036	699.69
520.251	742.69
520.467	748.69
520.682	717.69
520.898	730.69
521.113	751.69
521.329	765.69
521.544	842.69
521.76	982.69
521.975	1474.69
522.19	1435.69
522.406	897.69
522.621	730.69
522.836	686.69
523.052	669.69
523.267	661.69
523.482	644.69
523.698	622.69
523.913	617.69
524.128	622.69
524.343	628.69
524.559	621.69
524.774	607.69
524.989	617.69
525.204	606.69
525.419	636.69
525.634	627.69
525.849	573.69
526.064	606.69
526.28	571.69
526.495	574.69
526.71	579.69
526.925	578.69
527.14	584.69
527.355	571.69
527.57	575.69
527.785	569.69
527.999	579.69
528.214	568.69
528.429	577.69
528.644	600.69
528.859	580.69
529.074	592.69
529.289	610.69
529.503	640.69
529.718	650.69
529.933	614.69
530.148	617.69
530.363	590.69
530.577	584.69
530.792	573.69
531.007	587.69
531.221	542.69
531.436	575.69
531.651	576.69
531.865	555.69
532.08	566.69
532.295	548.69
532.509	572.69
532.724	546.69
532.938	547.69
533.153	536.69
533.367	542.69
533.582	554.69
533.796	547.69
534.011	566.69
534.225	536.69
534.44	556.69
534.654	533.69
534.868	564.69
535.083	574.69
535.297	554.69
535.511	558.69
535.726	568.69
535.94	586.69
536.154	576.69
536.369	552.69
536.583	536.69
536.797	542.69
537.011	534.69
537.225	548.69
537.44	538.69
537.654	527.69
537.868	519.69
538.082	522.69
538.296	530.69
538.51	527.69
538.724	525.69
538.938	535.69
539.153	543.69
539.367	529.69
539.581	539.69
539.795	529.69
540.009	539.69
540.222	525.69
540.436	535.69
540.65	498.69
540.864	537.69
541.078	543.69
541.292	545.69
541.506	530.69
541.72	536.69
541.934	543.69
542.147	540.69
542.361	533.69
542.575	549.69
542.789	534.69
543.002	535.69
543.216	539.69
543.43	524.69
543.644	528.69
543.857	551.69
544.071	525.69
544.285	556.69
544.498	527.69
544.712	526.69
544.925	524.69
545.139	525.69
545.352	535.69
545.566	529.69
545.779	524.69
545.993	525.69
546.206	509.69
546.42	512.69
546.633	525.69
546.847	526.69
547.06	506.69
547.274	508.69
547.487	520.69
547.7	527.69
547.914	540.69
548.127	543.69
548.34	516.69
548.554	521.69
548.767	522.69
548.98	525.69
549.193	525.69
549.407	538.69
549.62	538.69
549.833	555.69
550.046	538.69
550.259	530.69
550.473	522.69
550.686	531.69
550.899	502.69
551.112	514.69
551.325	508.69
551.538	506.69
551.751	510.69
551.964	484.69
552.177	514.69
552.39	528.69
552.603	519.69
552.816	531.69
553.029	536.69
553.242	536.69
553.455	539.69
553.667	546.69
553.88	538.69
554.093	550.69
554.306	542.69
554.519	502.69
554.732	534.69
554.944	540.69
555.157	515.69
555.37	492.69
555.583	498.69
555.795	491.69
556.008	483.69
556.221	484.69
556.433	474.69
556.646	493.69
556.859	467.69
557.071	470.69
557.284	471.69
557.496	470.69
557.709	457.69
557.921	474.69
558.134	441.69
558.346	474.69
558.559	474.69
558.771	470.69
558.984	456.69
559.196	449.69
559.409	456.69
559.621	467.69
559.833	474.69
560.046	471.69
560.258	438.69
560.47	451.69
560.683	444.69
560.895	460.69
561.107	462.69
561.32	451.69
561.532	454.69
561.744	447.69
561.956	455.69
562.168	450.69
562.381	457.69
562.593	443.69
562.805	455.69
563.017	476.69
563.229	470.69
563.441	466.69
563.653	479.69
563.865	460.69
564.077	463.69
564.289	481.69
564.501	450.69
564.713	471.69
564.925	490.69
565.137	488.69
565.349	518.69
565.561	502.69
565.773	516.69
565.985	534.69
566.197	546.69
566.408	532.69
566.62	568.69
566.832	600.69
567.044	590.69
567.255	593.69
567.467	622.69
567.679	629.69
567.891	634.69
568.102	642.69
568.314	634.69
568.526	592.69
568.737	571.69
568.949	554.69
569.161	531.69
569.372	488.69
569.584	484.69
569.795	474.69
570.007	448.69
570.218	495.69
570.43	486.69
570.641	434.69
570.853	446.69
571.064	456.69
571.276	458.69
571.487	453.69
571.698	443.69
571.91	446.69
572.121	424.69
572.333	441.69
572.544	420.69
572.755	431.69
572.966	410.69
573.178	431.69
573.389	416.69
573.6	420.69
573.811	389.69
574.023	404.69
574.234	402.69
574.445	391.69
574.656	405.69
574.867	391.69
575.078	383.69
575.289	396.69
575.501	386.69
575.712	388.69
575.923	375.69
576.134	372.69
576.345	390.69
576.556	382.69
576.767	367.69
576.978	391.69
577.188	402.69
577.399	397.69
577.61	373.69
577.821	364.69
578.032	401.69
578.243	405.69
578.454	558.69
578.665	451.69
578.875	380.69
579.086	392.69
579.297	354.69
579.508	370.69
579.718	375.69
579.929	361.69
580.14	346.69
580.35	352.69
580.561	362.69
580.772	379.69
580.982	348.69
581.193	345.69
581.403	359.69
581.614	362.69
581.825	379.69
582.035	346.69
582.246	359.69
582.456	350.69
582.667	338.69
582.877	364.69
583.087	325.69
583.298	340.69
583.508	342.69
583.719	352.69
583.929	341.69
584.139	348.69
584.35	355.69
584.56	362.69
584.77	358.69
584.981	324.69
585.191	362.69
585.401	320.69
585.611	324.69
585.821	353.69
586.032	352.69
586.242	350.69
586.452	345.69
586.662	331.69
586.872	328.69
587.082	335.69
587.292	330.69
587.502	326.69
587.713	329.69
587.923	344.69
588.133	343.69
588.343	336.69
588.553	342.69
588.762	346.69
588.972	346.69
589.182	332.69
589.392	325.69
589.602	327.69
589.812	333.69
590.022	341.69
590.232	341.69
590.441	348.69
590.651	340.69
590.861	331.69
591.071	332.69
591.281	358.69
591.49	346.69
591.7	359.69
591.91	360.69
592.119	337.69
592.329	357.69
592.539	370.69
592.748	365.69
592.958	382.69
593.167	379.69
593.377	380.69
593.587	377.69
593.796	378.69
594.006	375.69
594.215	378.69
594.424	380.69
594.634	374.69
594.843	357.69
595.053	373.69
595.262	346.69
595.472	346.69
595.681	338.69
595.89	346.69
596.1	331.69
596.309	330.69
596.518	346.69
596.727	332.69
596.937	343.69
597.146	326.69
597.355	335.69
597.564	316.69
597.774	331.69
597.983	326.69
598.192	310.69
598.401	316.69
598.61	309.69
598.819	313.69
599.028	290.69
599.237	306.69
599.446	279.69
599.655	300.69
599.864	306.69
600.073	308.69
600.282	306.69
600.491	289.69
600.7	301.69
600.909	304.69
601.118	317.69
601.327	283.69
601.536	295.69
601.745	317.69
601.953	292.69
602.162	290.69
602.371	286.69
602.58	279.69
602.789	306.69
602.997	291.69
603.206	297.69
603.415	298.69
603.623	288.69
603.832	293.69
604.041	281.69
604.249	291.69
604.458	277.69
604.666	269.69
604.875	284.69
605.084	276.69
605.292	277.69
605.501	287.69
605.709	289.69
605.918	263.69
606.126	262.69
606.334	292.69
606.543	288.69
606.751	282.69
606.96	294.69
607.168	291.69
607.376	303.69
607.585	286.69
607.793	299.69
608.001	290.69
608.21	265.69
608.418	268.69
608.626	305.69
608.834	270.69
609.043	276.69
609.251	266.69
609.459	272.69
609.667	287.69
609.875	292.69
610.083	284.69
610.291	271.69
610.499	264.69
610.707	292.69
610.916	291.69
611.124	283.69
611.332	279.69
611.54	297.69
611.748	294.69
611.955	276.69
612.163	272.69
612.371	280.69
612.579	296.69
612.787	290.69
612.995	298.69
613.203	272.69
613.411	276.69
613.618	286.69
613.826	267.69
614.034	294.69
614.242	266.69
614.449	288.69
614.657	278.69
614.865	263.69
615.072	276.69
615.28	288.69
615.488	281.69
615.695	274.69
615.903	278.69
616.111	270.69
616.318	287.69
616.526	258.69
616.733	258.69
616.941	277.69
617.148	296.69
617.356	267.69
617.563	268.69
617.771	271.69
617.978	258.69
618.185	277.69
618.393	272.69
618.6	272.69
618.807	260.69
619.015	294.69
619.222	282.69
619.429	278.69
619.637	282.69
619.844	259.69
620.051	263.69
620.258	265.69
620.466	245.69
620.673	251.69
620.88	252.69
621.087	268.69
621.294	245.69
621.501	260.69
621.708	239.69
621.915	252.69
622.122	247.69
622.329	260.69
622.536	271.69
622.743	254.69
622.95	263.69
623.157	264.69
623.364	253.69
623.571	243.69
623.778	233.69
623.985	262.69
624.192	274.69
624.399	259.69
624.606	253.69
624.812	231.69
625.019	244.69
625.226	249.69
625.433	249.69
625.639	231.69
625.846	225.69
626.053	254.69
626.259	251.69
626.466	242.69
626.673	223.69
626.879	229.69
627.086	237.69
627.293	237.69
627.499	242.69
627.706	230.69
627.912	227.69
628.119	231.69
628.325	224.69
628.532	228.69
628.738	230.69
628.945	224.69
629.151	221.69
629.357	222.69
629.564	229.69
629.77	208.69
629.976	246.69
630.183	223.69
630.389	200.69
630.595	220.69
630.802	214.69
631.008	229.69
631.214	224.69
631.42	241.69
631.627	220.69
631.833	235.69
632.039	208.69
632.245	220.69
632.451	221.69
632.657	198.69
632.863	216.69
633.069	216.69
633.275	222.69
633.481	200.69
633.688	208.69
633.893	217.69
634.099	224.69
634.305	226.69
634.511	215.69
634.717	212.69
634.923	198.69
635.129	209.69
635.335	191.69
635.541	196.69
635.747	207.69
635.952	192.69
636.158	200.69
636.364	214.69
636.57	219.69
636.775	223.69
636.981	216.69
637.187	218.69
637.392	206.69
637.598	208.69
637.804	211.69
638.009	200.69
638.215	203.69
638.421	202.69
638.626	191.69
638.832	206.69
639.037	192.69
639.243	203.69
639.448	210.69
639.654	213.69
639.859	198.69
640.065	187.69
640.27	214.69
640.475	192.69
640.681	194.69
640.886	195.69
641.091	178.69
641.297	204.69
641.502	184.69
641.707	175.69
641.913	196.69
642.118	200.69
642.323	188.69
642.528	191.69
642.733	191.69
642.939	193.69
643.144	212.69
643.349	186.69
643.554	190.69
643.759	182.69
643.964	186.69
644.169	197.69
644.374	174.69
644.579	193.69
644.784	182.69
644.989	191.69
645.194	197.69
645.399	183.69
645.604	186.69
645.809	188.69
646.014	192.69
646.219	190.69
646.423	179.69
646.628	201.69
646.833	186.69
647.038	164.69
647.243	195.69
647.447	181.69
647.652	191.69
647.857	176.69
648.062	178.69
648.266	199.69
648.471	202.69
648.676	205.69
648.88	188.69
649.085	187.69
649.289	195.69
649.494	186.69
649.698	197.69
649.903	209.69
650.107	201.69
650.312	182.69
650.516	177.69
650.721	183.69
650.925	170.69
651.13	182.69
651.334	184.69
651.539	161.69
651.743	187.69
651.947	169.69
652.152	168.69
652.356	157.69
652.56	158.69
652.764	150.69
652.969	154.69
653.173	159.69
653.377	143.69
653.581	166.69
653.785	166.69
653.99	166.69
654.194	152.69
654.398	151.69
654.602	149.69
654.806	149.69
655.01	159.69
655.214	159.69
655.418	154.69
655.622	140.69
655.826	146.69
656.03	140.69
656.234	157.69
656.438	150.69
656.642	146.69
656.846	136.69
657.049	164.69
657.253	126.69
657.457	144.69
657.661	111.69
657.865	128.69
658.068	132.69
658.272	115.69
658.476	124.69
658.68	112.69
658.883	109.69
659.087	100.69
659.291	105.69
659.494	101.69
659.698	119.69
659.901	103.69
660.105	104.69
660.309	110.69
660.512	96.69
660.716	114.69
660.919	114.69
661.123	102.69
661.326	99.69
661.53	95.69
661.733	90.69
661.936	99.69
662.14	90.69
662.343	110.69
662.546	97.69
662.75	98.69
662.953	83.69
663.156	97.69
663.36	92.69
663.563	89.69
663.766	96.69
663.969	93.69
664.173	79.69
664.376	82.69
664.579	89.69
664.782	69.69
664.985	77.69
665.188	77.69
665.391	84.69
665.594	70.69
665.797	78.69
666	87.69
666.203	78.69
666.406	82.69
666.609	89.69
666.812	75.69
667.015	80.69
667.218	81.69
667.421	97.69
667.624	89.69
667.827	87.69
668.03	80.69
668.232	82.69
668.435	85.69
668.638	62.69
668.841	85.69
669.043	73.69
669.246	70.69
669.449	90.69
669.651	90.69
669.854	90.69
670.057	95.69
670.259	95.69
670.462	75.69
670.665	86.69
670.867	94.69
671.07	86.69
671.272	90.69
671.475	100.69
671.677	68.69
671.88	77.69
672.082	82.69
672.284	87.69
672.487	103.69
672.689	66.69
672.892	75.69
