Data from 1974.PennyLincolnUp.Lamp.En5.5.200Scan.071719.P1.Changed Mount._HRD10591_15-51-45-857.txt Node
Date: Thu Jul 18 15:51:45 EDT 2019
User: cochatt
Spectrometer: HR+D1059
Trigger mode: 1
Integration Time (sec): 1.000000E-1
Scans to average: 1
Electric dark correction enabled: true
Nonlinearity correction enabled: false
Boxcar width: 0
XAxis mode: Wavelengths
Number of Pixels in Spectrum: 2048
>>>>>Begin Spectral Data<<<<<
223.165	-25.44
223.4	-25.44
223.635	-25.44
223.869	-30.44
224.104	-18.44
224.338	-9.44
224.573	-13.44
224.808	-13.44
225.042	-3.44
225.277	-10.44
225.511	-3.44
225.746	13.56
225.98	7.56
226.215	11.56
226.449	21.56
226.683	10.56
226.918	27.56
227.152	35.56
227.387	32.56
227.621	37.56
227.856	55.56
228.09	34.56
228.324	58.56
228.559	61.56
228.793	66.56
229.027	90.56
229.262	113.56
229.496	119.56
229.73	126.56
229.964	148.56
230.199	137.56
230.433	114.56
230.667	104.56
230.901	110.56
231.136	123.56
231.37	123.56
231.604	109.56
231.838	112.56
232.072	114.56
232.306	118.56
232.541	115.56
232.775	106.56
233.009	128.56
233.243	132.56
233.477	103.56
233.711	115.56
233.945	128.56
234.179	109.56
234.413	118.56
234.647	101.56
234.881	115.56
235.115	137.56
235.349	128.56
235.583	117.56
235.817	122.56
236.051	125.56
236.285	117.56
236.519	133.56
236.753	134.56
236.987	146.56
237.221	194.56
237.455	222.56
237.689	195.56
237.922	140.56
238.156	133.56
238.39	141.56
238.624	142.56
238.858	125.56
239.091	139.56
239.325	147.56
239.559	141.56
239.793	140.56
240.027	129.56
240.26	154.56
240.494	148.56
240.728	153.56
240.961	152.56
241.195	156.56
241.429	152.56
241.662	149.56
241.896	130.56
242.13	127.56
242.363	141.56
242.597	135.56
242.83	126.56
243.064	139.56
243.298	149.56
243.531	146.56
243.765	140.56
243.998	138.56
244.232	165.56
244.465	152.56
244.699	153.56
244.932	161.56
245.166	146.56
245.399	157.56
245.633	135.56
245.866	155.56
246.099	149.56
246.333	140.56
246.566	166.56
246.8	151.56
247.033	158.56
247.266	169.56
247.5	152.56
247.733	160.56
247.966	173.56
248.2	174.56
248.433	172.56
248.666	181.56
248.899	192.56
249.133	197.56
249.366	208.56
249.599	191.56
249.832	201.56
250.066	202.56
250.299	206.56
250.532	211.56
250.765	225.56
250.998	236.56
251.231	236.56
251.465	222.56
251.698	201.56
251.931	213.56
252.164	206.56
252.397	210.56
252.63	216.56
252.863	212.56
253.096	209.56
253.329	216.56
253.562	221.56
253.795	217.56
254.028	229.56
254.261	224.56
254.494	232.56
254.727	253.56
254.96	280.56
255.193	270.56
255.426	245.56
255.659	227.56
255.892	239.56
256.124	240.56
256.357	251.56
256.59	217.56
256.823	219.56
257.056	220.56
257.289	221.56
257.521	224.56
257.754	224.56
257.987	206.56
258.22	206.56
258.452	213.56
258.685	219.56
258.918	197.56
259.151	216.56
259.383	217.56
259.616	230.56
259.849	218.56
260.081	235.56
260.314	225.56
260.547	269.56
260.779	245.56
261.012	249.56
261.244	227.56
261.477	221.56
261.71	237.56
261.942	236.56
262.175	236.56
262.407	230.56
262.64	222.56
262.872	229.56
263.105	219.56
263.337	235.56
263.57	220.56
263.802	215.56
264.035	234.56
264.267	228.56
264.499	229.56
264.732	226.56
264.964	220.56
265.197	236.56
265.429	225.56
265.661	209.56
265.894	237.56
266.126	231.56
266.358	231.56
266.591	252.56
266.823	234.56
267.055	233.56
267.287	262.56
267.52	238.56
267.752	247.56
267.984	230.56
268.216	222.56
268.448	252.56
268.681	249.56
268.913	249.56
269.145	273.56
269.377	277.56
269.609	261.56
269.841	281.56
270.073	276.56
270.306	287.56
270.538	289.56
270.77	319.56
271.002	328.56
271.234	291.56
271.466	325.56
271.698	314.56
271.93	329.56
272.162	317.56
272.394	320.56
272.626	309.56
272.858	282.56
273.09	289.56
273.322	262.56
273.553	264.56
273.785	279.56
274.017	257.56
274.249	251.56
274.481	297.56
274.713	265.56
274.945	273.56
275.176	269.56
275.408	274.56
275.64	255.56
275.872	283.56
276.104	289.56
276.335	266.56
276.567	268.56
276.799	288.56
277.031	303.56
277.262	312.56
277.494	292.56
277.726	324.56
277.957	281.56
278.189	282.56
278.421	296.56
278.652	300.56
278.884	275.56
279.115	291.56
279.347	276.56
279.579	264.56
279.81	276.56
280.042	310.56
280.273	271.56
280.505	297.56
280.736	266.56
280.968	280.56
281.199	276.56
281.431	294.56
281.662	270.56
281.894	284.56
282.125	293.56
282.356	296.56
282.588	318.56
282.819	309.56
283.051	273.56
283.282	291.56
283.513	298.56
283.745	296.56
283.976	294.56
284.207	307.56
284.439	290.56
284.67	298.56
284.901	283.56
285.132	291.56
285.364	290.56
285.595	307.56
285.826	287.56
286.057	302.56
286.288	279.56
286.52	314.56
286.751	289.56
286.982	282.56
287.213	299.56
287.444	315.56
287.675	297.56
287.906	330.56
288.138	320.56
288.369	308.56
288.6	323.56
288.831	311.56
289.062	308.56
289.293	298.56
289.524	290.56
289.755	300.56
289.986	307.56
290.217	306.56
290.448	288.56
290.679	317.56
290.91	317.56
291.141	309.56
291.371	312.56
291.602	304.56
291.833	313.56
292.064	299.56
292.295	297.56
292.526	308.56
292.757	302.56
292.987	290.56
293.218	326.56
293.449	316.56
293.68	306.56
293.91	323.56
294.141	298.56
294.372	323.56
294.603	326.56
294.833	311.56
295.064	324.56
295.295	316.56
295.525	318.56
295.756	291.56
295.987	325.56
296.217	344.56
296.448	353.56
296.679	326.56
296.909	310.56
297.14	337.56
297.37	301.56
297.601	316.56
297.831	338.56
298.062	316.56
298.292	331.56
298.523	330.56
298.753	344.56
298.984	336.56
299.214	333.56
299.445	344.56
299.675	309.56
299.905	340.56
300.136	321.56
300.366	333.56
300.597	320.56
300.827	333.56
301.057	344.56
301.288	354.56
301.518	352.56
301.748	332.56
301.979	360.56
302.209	362.56
302.439	347.56
302.669	354.56
302.9	349.56
303.13	337.56
303.36	339.56
303.59	348.56
303.82	342.56
304.051	370.56
304.281	360.56
304.511	344.56
304.741	352.56
304.971	345.56
305.201	354.56
305.431	345.56
305.661	341.56
305.891	335.56
306.121	353.56
306.352	355.56
306.582	349.56
306.812	337.56
307.042	337.56
307.272	333.56
307.502	350.56
307.731	340.56
307.961	364.56
308.191	333.56
308.421	340.56
308.651	346.56
308.881	368.56
309.111	375.56
309.341	348.56
309.571	340.56
309.8	352.56
310.03	385.56
310.26	387.56
310.49	395.56
310.72	383.56
310.949	391.56
311.179	404.56
311.409	379.56
311.639	399.56
311.868	395.56
312.098	406.56
312.328	377.56
312.557	374.56
312.787	393.56
313.017	389.56
313.246	375.56
313.476	374.56
313.706	387.56
313.935	388.56
314.165	402.56
314.394	410.56
314.624	399.56
314.853	403.56
315.083	399.56
315.312	381.56
315.542	394.56
315.771	385.56
316.001	400.56
316.23	384.56
316.46	388.56
316.689	393.56
316.919	380.56
317.148	388.56
317.377	389.56
317.607	394.56
317.836	399.56
318.065	388.56
318.295	394.56
318.524	376.56
318.753	368.56
318.983	373.56
319.212	396.56
319.441	398.56
319.67	406.56
319.9	390.56
320.129	390.56
320.358	369.56
320.587	406.56
320.816	386.56
321.046	388.56
321.275	398.56
321.504	397.56
321.733	395.56
321.962	405.56
322.191	419.56
322.42	428.56
322.649	441.56
322.878	443.56
323.108	424.56
323.337	444.56
323.566	469.56
323.795	466.56
324.024	511.56
324.253	598.56
324.482	763.56
324.71	1165.56
324.939	1714.56
325.168	1483.56
325.397	780.56
325.626	558.56
325.855	515.56
326.084	475.56
326.313	462.56
326.542	473.56
326.77	486.56
326.999	558.56
327.228	709.56
327.457	1049.56
327.686	1346.56
327.914	896.56
328.143	598.56
328.372	544.56
328.6	509.56
328.829	499.56
329.058	504.56
329.287	550.56
329.515	527.56
329.744	473.56
329.972	478.56
330.201	519.56
330.43	525.56
330.658	549.56
330.887	559.56
331.115	528.56
331.344	489.56
331.572	495.56
331.801	496.56
332.03	480.56
332.258	460.56
332.486	468.56
332.715	470.56
332.943	497.56
333.172	476.56
333.4	481.56
333.629	489.56
333.857	507.56
334.085	510.56
334.314	519.56
334.542	541.56
334.771	544.56
334.999	523.56
335.227	524.56
335.455	473.56
335.684	477.56
335.912	480.56
336.14	474.56
336.369	485.56
336.597	465.56
336.825	477.56
337.053	442.56
337.281	484.56
337.51	447.56
337.738	457.56
337.966	462.56
338.194	450.56
338.422	472.56
338.65	451.56
338.878	441.56
339.106	445.56
339.334	476.56
339.562	461.56
339.79	444.56
340.018	458.56
340.246	456.56
340.474	461.56
340.702	471.56
340.93	438.56
341.158	443.56
341.386	457.56
341.614	443.56
341.842	435.56
342.07	453.56
342.298	446.56
342.526	456.56
342.754	442.56
342.981	409.56
343.209	425.56
343.437	469.56
343.665	435.56
343.893	445.56
344.12	486.56
344.348	470.56
344.576	487.56
344.804	450.56
345.031	468.56
345.259	470.56
345.487	463.56
345.714	452.56
345.942	419.56
346.17	434.56
346.397	446.56
346.625	451.56
346.853	433.56
347.08	443.56
347.308	443.56
347.535	438.56
347.763	469.56
347.99	436.56
348.218	432.56
348.445	455.56
348.673	439.56
348.9	424.56
349.128	406.56
349.355	420.56
349.583	423.56
349.81	407.56
350.037	414.56
350.265	411.56
350.492	430.56
350.72	430.56
350.947	431.56
351.174	426.56
351.402	439.56
351.629	424.56
351.856	428.56
352.083	453.56
352.311	432.56
352.538	436.56
352.765	447.56
352.992	429.56
353.22	447.56
353.447	405.56
353.674	430.56
353.901	421.56
354.128	425.56
354.355	418.56
354.583	416.56
354.81	427.56
355.037	415.56
355.264	412.56
355.491	402.56
355.718	400.56
355.945	422.56
356.172	418.56
356.399	415.56
356.626	438.56
356.853	438.56
357.08	401.56
357.307	407.56
357.534	414.56
357.761	416.56
357.988	434.56
358.215	422.56
358.441	430.56
358.668	413.56
358.895	443.56
359.122	411.56
359.349	446.56
359.576	426.56
359.802	434.56
360.029	469.56
360.256	490.56
360.483	464.56
360.709	449.56
360.936	435.56
361.163	424.56
361.39	440.56
361.616	425.56
361.843	448.56
362.07	434.56
362.296	432.56
362.523	408.56
362.749	446.56
362.976	436.56
363.203	433.56
363.429	413.56
363.656	416.56
363.882	417.56
364.109	412.56
364.335	428.56
364.562	425.56
364.788	425.56
365.015	426.56
365.241	435.56
365.468	415.56
365.694	421.56
365.92	441.56
366.147	425.56
366.373	452.56
366.599	434.56
366.826	441.56
367.052	411.56
367.278	418.56
367.505	435.56
367.731	440.56
367.957	424.56
368.184	429.56
368.41	420.56
368.636	425.56
368.862	440.56
369.089	429.56
369.315	418.56
369.541	434.56
369.767	426.56
369.993	437.56
370.219	438.56
370.445	464.56
370.672	455.56
370.898	425.56
371.124	448.56
371.35	450.56
371.576	433.56
371.802	438.56
372.028	438.56
372.254	440.56
372.48	458.56
372.706	432.56
372.932	446.56
373.158	449.56
373.384	456.56
373.61	450.56
373.835	435.56
374.061	438.56
374.287	462.56
374.513	441.56
374.739	434.56
374.965	439.56
375.191	450.56
375.416	472.56
375.642	444.56
375.868	442.56
376.094	433.56
376.319	451.56
376.545	446.56
376.771	448.56
376.997	424.56
377.222	422.56
377.448	430.56
377.674	445.56
377.899	423.56
378.125	433.56
378.35	434.56
378.576	443.56
378.802	449.56
379.027	433.56
379.253	454.56
379.478	446.56
379.704	456.56
379.929	437.56
380.155	451.56
380.38	434.56
380.606	433.56
380.831	450.56
381.057	459.56
381.282	459.56
381.507	442.56
381.733	440.56
381.958	451.56
382.184	458.56
382.409	454.56
382.634	462.56
382.86	442.56
383.085	455.56
383.31	477.56
383.535	464.56
383.761	449.56
383.986	459.56
384.211	464.56
384.436	467.56
384.662	457.56
384.887	480.56
385.112	475.56
385.337	485.56
385.562	490.56
385.787	505.56
386.013	496.56
386.238	522.56
386.463	492.56
386.688	480.56
386.913	494.56
387.138	488.56
387.363	502.56
387.588	500.56
387.813	490.56
388.038	478.56
388.263	491.56
388.488	505.56
388.713	494.56
388.938	481.56
389.163	514.56
389.387	477.56
389.612	494.56
389.837	502.56
390.062	476.56
390.287	484.56
390.512	488.56
390.736	486.56
390.961	477.56
391.186	497.56
391.411	504.56
391.636	525.56
391.86	504.56
392.085	516.56
392.31	517.56
392.534	527.56
392.759	489.56
392.984	499.56
393.208	504.56
393.433	509.56
393.658	511.56
393.882	515.56
394.107	493.56
394.331	506.56
394.556	525.56
394.78	501.56
395.005	514.56
395.229	504.56
395.454	504.56
395.678	498.56
395.903	546.56
396.127	559.56
396.352	551.56
396.576	504.56
396.801	516.56
397.025	535.56
397.249	510.56
397.474	543.56
397.698	536.56
397.922	566.56
398.147	547.56
398.371	564.56
398.595	579.56
398.82	570.56
399.044	582.56
399.268	613.56
399.492	648.56
399.717	681.56
399.941	707.56
400.165	742.56
400.389	723.56
400.613	652.56
400.837	590.56
401.062	592.56
401.286	584.56
401.51	580.56
401.734	586.56
401.958	586.56
402.182	596.56
402.406	585.56
402.63	594.56
402.854	574.56
403.078	606.56
403.302	604.56
403.526	604.56
403.75	607.56
403.974	608.56
404.198	612.56
404.422	599.56
404.645	600.56
404.869	609.56
405.093	654.56
405.317	694.56
405.541	704.56
405.765	637.56
405.988	621.56
406.212	631.56
406.436	649.56
406.66	672.56
406.883	646.56
407.107	664.56
407.331	694.56
407.555	789.56
407.778	770.56
408.002	682.56
408.226	697.56
408.449	675.56
408.673	676.56
408.896	660.56
409.12	713.56
409.344	703.56
409.567	630.56
409.791	643.56
410.014	610.56
410.238	605.56
410.461	624.56
410.685	612.56
410.908	618.56
411.132	653.56
411.355	678.56
411.578	653.56
411.802	596.56
412.025	579.56
412.249	596.56
412.472	597.56
412.695	658.56
412.919	676.56
413.142	619.56
413.365	603.56
413.589	604.56
413.812	571.56
414.035	593.56
414.258	560.56
414.482	582.56
414.705	564.56
414.928	560.56
415.151	573.56
415.374	579.56
415.597	588.56
415.821	572.56
416.044	556.56
416.267	582.56
416.49	579.56
416.713	555.56
416.936	575.56
417.159	586.56
417.382	561.56
417.605	581.56
417.828	556.56
418.051	604.56
418.274	560.56
418.497	563.56
418.72	567.56
418.943	581.56
419.166	599.56
419.389	611.56
419.611	608.56
419.834	607.56
420.057	613.56
420.28	601.56
420.503	601.56
420.726	581.56
420.948	609.56
421.171	654.56
421.394	647.56
421.617	623.56
421.839	608.56
422.062	607.56
422.285	606.56
422.507	651.56
422.73	729.56
422.953	710.56
423.175	643.56
423.398	631.56
423.621	594.56
423.843	629.56
424.066	644.56
424.288	611.56
424.511	652.56
424.733	708.56
424.956	748.56
425.178	717.56
425.401	761.56
425.623	787.56
425.846	665.56
426.068	641.56
426.291	606.56
426.513	620.56
426.735	624.56
426.958	668.56
427.18	734.56
427.402	870.56
427.625	955.56
427.847	828.56
428.069	721.56
428.292	677.56
428.514	620.56
428.736	596.56
428.958	570.56
429.181	567.56
429.403	589.56
429.625	607.56
429.847	602.56
430.069	650.56
430.292	658.56
430.514	572.56
430.736	586.56
430.958	577.56
431.18	571.56
431.402	553.56
431.624	540.56
431.846	524.56
432.068	544.56
432.29	558.56
432.512	553.56
432.734	552.56
432.956	550.56
433.178	566.56
433.4	571.56
433.622	576.56
433.844	554.56
434.066	557.56
434.287	558.56
434.509	558.56
434.731	591.56
434.953	584.56
435.175	587.56
435.397	612.56
435.618	621.56
435.84	650.56
436.062	730.56
436.284	790.56
436.505	685.56
436.727	621.56
436.949	568.56
437.17	588.56
437.392	569.56
437.614	590.56
437.835	608.56
438.057	695.56
438.278	814.56
438.5	807.56
438.721	894.56
438.943	849.56
439.165	684.56
439.386	645.56
439.608	607.56
439.829	616.56
440.05	643.56
440.272	680.56
440.493	644.56
440.715	606.56
440.936	592.56
441.158	582.56
441.379	589.56
441.6	600.56
441.822	636.56
442.043	644.56
442.264	709.56
442.486	777.56
442.707	676.56
442.928	637.56
443.149	634.56
443.371	653.56
443.592	682.56
443.813	787.56
444.034	871.56
444.255	702.56
444.476	654.56
444.698	662.56
444.919	656.56
445.14	779.56
445.361	704.56
445.582	658.56
445.803	740.56
446.024	836.56
446.245	811.56
446.466	736.56
446.687	636.56
446.908	625.56
447.129	600.56
447.35	582.56
447.571	582.56
447.792	568.56
448.013	566.56
448.234	579.56
448.455	615.56
448.675	731.56
448.896	845.56
449.117	711.56
449.338	686.56
449.559	780.56
449.779	891.56
450	729.56
450.221	620.56
450.442	566.56
450.662	554.56
450.883	530.56
451.104	553.56
451.324	538.56
451.545	508.56
451.766	538.56
451.986	526.56
452.207	518.56
452.428	489.56
452.648	514.56
452.869	522.56
453.089	505.56
453.31	543.56
453.53	503.56
453.751	510.56
453.971	514.56
454.192	505.56
454.412	510.56
454.633	491.56
454.853	484.56
455.073	498.56
455.294	544.56
455.514	573.56
455.734	582.56
455.955	512.56
456.175	483.56
456.395	482.56
456.616	472.56
456.836	461.56
457.056	468.56
457.276	473.56
457.497	472.56
457.717	501.56
457.937	479.56
458.157	498.56
458.377	496.56
458.598	541.56
458.818	546.56
459.038	626.56
459.258	654.56
459.478	599.56
459.698	551.56
459.918	545.56
460.138	545.56
460.358	557.56
460.578	539.56
460.798	554.56
461.018	569.56
461.238	583.56
461.458	587.56
461.678	597.56
461.898	575.56
462.118	561.56
462.338	593.56
462.558	614.56
462.777	629.56
462.997	626.56
463.217	672.56
463.437	676.56
463.657	629.56
463.876	641.56
464.096	626.56
464.316	618.56
464.536	624.56
464.755	616.56
464.975	623.56
465.195	614.56
465.414	658.56
465.634	610.56
465.854	572.56
466.073	569.56
466.293	544.56
466.512	548.56
466.732	539.56
466.951	525.56
467.171	522.56
467.391	535.56
467.61	536.56
467.829	541.56
468.049	533.56
468.268	525.56
468.488	536.56
468.707	524.56
468.927	512.56
469.146	496.56
469.365	525.56
469.585	512.56
469.804	534.56
470.023	539.56
470.243	514.56
470.462	535.56
470.681	552.56
470.901	553.56
471.12	525.56
471.339	532.56
471.558	533.56
471.777	552.56
471.997	536.56
472.216	542.56
472.435	547.56
472.654	530.56
472.873	545.56
473.092	530.56
473.311	517.56
473.53	540.56
473.749	532.56
473.968	587.56
474.187	677.56
474.406	688.56
474.625	574.56
474.844	534.56
475.063	560.56
475.282	546.56
475.501	537.56
475.72	536.56
475.939	553.56
476.158	574.56
476.377	550.56
476.596	538.56
476.814	571.56
477.033	565.56
477.252	577.56
477.471	541.56
477.69	588.56
477.908	574.56
478.127	580.56
478.346	608.56
478.564	607.56
478.783	603.56
479.002	625.56
479.22	620.56
479.439	636.56
479.658	619.56
479.876	654.56
480.095	648.56
480.313	691.56
480.532	650.56
480.751	645.56
480.969	677.56
481.188	692.56
481.406	705.56
481.624	661.56
481.843	640.56
482.061	641.56
482.28	629.56
482.498	626.56
482.717	631.56
482.935	624.56
483.153	635.56
483.372	642.56
483.59	616.56
483.808	609.56
484.027	633.56
484.245	611.56
484.463	624.56
484.681	633.56
484.9	634.56
485.118	644.56
485.336	663.56
485.554	647.56
485.772	651.56
485.99	638.56
486.209	652.56
486.427	659.56
486.645	669.56
486.863	696.56
487.081	666.56
487.299	664.56
487.517	673.56
487.735	649.56
487.953	675.56
488.171	685.56
488.389	671.56
488.607	656.56
488.825	662.56
489.043	663.56
489.261	671.56
489.479	673.56
489.696	693.56
489.914	697.56
490.132	693.56
490.35	684.56
490.568	718.56
490.786	726.56
491.003	738.56
491.221	734.56
491.439	725.56
491.657	766.56
491.874	745.56
492.092	764.56
492.31	792.56
492.527	786.56
492.745	772.56
492.963	784.56
493.18	782.56
493.398	813.56
493.615	803.56
493.833	774.56
494.05	816.56
494.268	790.56
494.485	764.56
494.703	782.56
494.92	788.56
495.138	809.56
495.355	786.56
495.573	799.56
495.79	794.56
496.008	808.56
496.225	793.56
496.442	795.56
496.66	792.56
496.877	797.56
497.094	795.56
497.312	810.56
497.529	829.56
497.746	848.56
497.963	854.56
498.181	843.56
498.398	883.56
498.615	906.56
498.832	916.56
499.049	941.56
499.267	980.56
499.484	1034.56
499.701	1094.56
499.918	1115.56
500.135	1227.56
500.352	1260.56
500.569	1317.56
500.786	1287.56
501.003	1221.56
501.22	1205.56
501.437	1150.56
501.654	1122.56
501.871	1097.56
502.088	1023.56
502.305	983.56
502.522	946.56
502.739	936.56
502.956	907.56
503.172	861.56
503.389	850.56
503.606	836.56
503.823	826.56
504.04	796.56
504.256	811.56
504.473	801.56
504.69	822.56
504.907	820.56
505.123	811.56
505.34	775.56
505.557	774.56
505.773	746.56
505.99	755.56
506.207	736.56
506.423	765.56
506.64	754.56
506.856	723.56
507.073	747.56
507.289	739.56
507.506	726.56
507.722	725.56
507.939	739.56
508.155	708.56
508.372	723.56
508.588	680.56
508.805	704.56
509.021	710.56
509.238	712.56
509.454	712.56
509.67	711.56
509.887	690.56
510.103	666.56
510.319	669.56
510.536	737.56
510.752	1066.56
510.968	916.56
511.184	690.56
511.401	674.56
511.617	669.56
511.833	666.56
512.049	634.56
512.265	654.56
512.481	654.56
512.698	646.56
512.914	634.56
513.13	655.56
513.346	649.56
513.562	632.56
513.778	654.56
513.994	667.56
514.21	667.56
514.426	673.56
514.642	685.56
514.858	708.56
515.074	754.56
515.29	820.56
515.506	1073.56
515.721	928.56
515.937	741.56
516.153	697.56
516.369	724.56
516.585	685.56
516.801	674.56
517.016	698.56
517.232	712.56
517.448	688.56
517.664	713.56
517.879	716.56
518.095	732.56
518.311	718.56
518.527	701.56
518.742	681.56
518.958	668.56
519.173	661.56
519.389	664.56
519.605	660.56
519.82	654.56
520.036	677.56
520.251	672.56
520.467	696.56
520.682	712.56
520.898	678.56
521.113	714.56
521.329	709.56
521.544	749.56
521.76	878.56
521.975	1270.56
522.19	1287.56
522.406	810.56
522.621	690.56
522.836	631.56
523.052	618.56
523.267	614.56
523.482	582.56
523.698	615.56
523.913	615.56
524.128	609.56
524.343	584.56
524.559	553.56
524.774	587.56
524.989	589.56
525.204	574.56
525.419	563.56
525.634	570.56
525.849	551.56
526.064	556.56
526.28	540.56
526.495	555.56
526.71	558.56
526.925	573.56
527.14	540.56
527.355	550.56
527.57	550.56
527.785	537.56
527.999	526.56
528.214	556.56
528.429	554.56
528.644	546.56
528.859	546.56
529.074	550.56
529.289	587.56
529.503	605.56
529.718	596.56
529.933	591.56
530.148	565.56
530.363	561.56
530.577	526.56
530.792	526.56
531.007	532.56
531.221	535.56
531.436	525.56
531.651	534.56
531.865	536.56
532.08	530.56
532.295	539.56
532.509	523.56
532.724	535.56
532.938	518.56
533.153	532.56
533.367	527.56
533.582	523.56
533.796	539.56
534.011	541.56
534.225	546.56
534.44	511.56
534.654	525.56
534.868	512.56
535.083	515.56
535.297	504.56
535.511	516.56
535.726	502.56
535.94	532.56
536.154	525.56
536.369	526.56
536.583	521.56
536.797	525.56
537.011	522.56
537.225	516.56
537.44	490.56
537.654	507.56
537.868	505.56
538.082	515.56
538.296	506.56
538.51	510.56
538.724	534.56
538.938	524.56
539.153	510.56
539.367	518.56
539.581	517.56
539.795	489.56
540.009	491.56
540.222	493.56
540.436	516.56
540.65	497.56
540.864	517.56
541.078	535.56
541.292	523.56
541.506	517.56
541.72	508.56
541.934	504.56
542.147	516.56
542.361	494.56
542.575	494.56
542.789	493.56
543.002	512.56
543.216	497.56
543.43	500.56
543.644	488.56
543.857	489.56
544.071	507.56
544.285	502.56
544.498	510.56
544.712	524.56
544.925	501.56
545.139	479.56
545.352	507.56
545.566	496.56
545.779	518.56
545.993	527.56
546.206	482.56
546.42	497.56
546.633	502.56
546.847	539.56
547.06	520.56
547.274	512.56
547.487	503.56
547.7	489.56
547.914	498.56
548.127	503.56
548.34	491.56
548.554	514.56
548.767	508.56
548.98	487.56
549.193	498.56
549.407	507.56
549.62	536.56
549.833	510.56
550.046	487.56
550.259	492.56
550.473	522.56
550.686	500.56
550.899	497.56
551.112	493.56
551.325	486.56
551.538	508.56
551.751	478.56
551.964	491.56
552.177	488.56
552.39	499.56
552.603	508.56
552.816	504.56
553.029	518.56
553.242	520.56
553.455	536.56
553.667	516.56
553.88	525.56
554.093	523.56
554.306	513.56
554.519	507.56
554.732	489.56
554.944	484.56
555.157	495.56
555.37	466.56
555.583	484.56
555.795	478.56
556.008	479.56
556.221	451.56
556.433	441.56
556.646	453.56
556.859	459.56
557.071	461.56
557.284	451.56
557.496	461.56
557.709	450.56
557.921	448.56
558.134	449.56
558.346	430.56
558.559	445.56
558.771	430.56
558.984	440.56
559.196	434.56
559.409	433.56
559.621	468.56
559.833	449.56
560.046	434.56
560.258	451.56
560.47	443.56
560.683	453.56
560.895	447.56
561.107	417.56
561.32	444.56
561.532	430.56
561.744	460.56
561.956	457.56
562.168	449.56
562.381	427.56
562.593	445.56
562.805	419.56
563.017	438.56
563.229	434.56
563.441	438.56
563.653	426.56
563.865	446.56
564.077	444.56
564.289	472.56
564.501	483.56
564.713	458.56
564.925	468.56
565.137	471.56
565.349	482.56
565.561	461.56
565.773	491.56
565.985	496.56
566.197	541.56
566.408	532.56
566.62	555.56
566.832	588.56
567.044	586.56
567.255	601.56
567.467	601.56
567.679	601.56
567.891	625.56
568.102	612.56
568.314	605.56
568.526	552.56
568.737	562.56
568.949	537.56
569.161	486.56
569.372	484.56
569.584	452.56
569.795	463.56
570.007	456.56
570.218	484.56
570.43	473.56
570.641	450.56
570.853	436.56
571.064	424.56
571.276	424.56
571.487	428.56
571.698	410.56
571.91	400.56
572.121	411.56
572.333	409.56
572.544	405.56
572.755	395.56
572.966	388.56
573.178	386.56
573.389	370.56
573.6	386.56
573.811	389.56
574.023	399.56
574.234	380.56
574.445	377.56
574.656	402.56
574.867	370.56
575.078	386.56
575.289	380.56
575.501	391.56
575.712	359.56
575.923	375.56
576.134	377.56
576.345	375.56
576.556	363.56
576.767	361.56
576.978	378.56
577.188	374.56
577.399	371.56
577.61	364.56
577.821	364.56
578.032	378.56
578.243	388.56
578.454	504.56
578.665	410.56
578.875	350.56
579.086	347.56
579.297	342.56
579.508	350.56
579.718	333.56
579.929	347.56
580.14	347.56
580.35	357.56
580.561	344.56
580.772	345.56
580.982	347.56
581.193	344.56
581.403	336.56
581.614	363.56
581.825	344.56
582.035	350.56
582.246	337.56
582.456	341.56
582.667	342.56
582.877	316.56
583.087	331.56
583.298	342.56
583.508	352.56
583.719	349.56
583.929	334.56
584.139	329.56
584.35	335.56
584.56	346.56
584.77	344.56
584.981	316.56
585.191	326.56
585.401	329.56
585.611	344.56
585.821	312.56
586.032	317.56
586.242	329.56
586.452	324.56
586.662	313.56
586.872	316.56
587.082	290.56
587.292	349.56
587.502	333.56
587.713	323.56
587.923	318.56
588.133	330.56
588.343	326.56
588.553	333.56
588.762	332.56
588.972	332.56
589.182	319.56
589.392	330.56
589.602	318.56
589.812	333.56
590.022	318.56
590.232	327.56
590.441	338.56
590.651	331.56
590.861	321.56
591.071	342.56
591.281	333.56
591.49	333.56
591.7	339.56
591.91	354.56
592.119	339.56
592.329	349.56
592.539	340.56
592.748	343.56
592.958	364.56
593.167	368.56
593.377	374.56
593.587	385.56
593.796	371.56
594.006	364.56
594.215	373.56
594.424	343.56
594.634	371.56
594.843	356.56
595.053	350.56
595.262	340.56
595.472	333.56
595.681	334.56
595.89	348.56
596.1	298.56
596.309	324.56
596.518	323.56
596.727	320.56
596.937	315.56
597.146	326.56
597.355	321.56
597.564	310.56
597.774	290.56
597.983	301.56
598.192	289.56
598.401	299.56
598.61	284.56
598.819	287.56
599.028	272.56
599.237	277.56
599.446	299.56
599.655	280.56
599.864	273.56
600.073	293.56
600.282	295.56
600.491	291.56
600.7	304.56
600.909	291.56
601.118	277.56
601.327	296.56
601.536	285.56
601.745	300.56
601.953	295.56
602.162	292.56
602.371	272.56
602.58	296.56
602.789	287.56
602.997	269.56
603.206	283.56
603.415	290.56
603.623	280.56
603.832	285.56
604.041	282.56
604.249	268.56
604.458	277.56
604.666	248.56
604.875	260.56
605.084	283.56
605.292	276.56
605.501	296.56
605.709	278.56
605.918	268.56
606.126	278.56
606.334	274.56
606.543	273.56
606.751	282.56
606.96	272.56
607.168	258.56
607.376	297.56
607.585	275.56
607.793	268.56
608.001	282.56
608.21	254.56
608.418	270.56
608.626	279.56
608.834	267.56
609.043	278.56
609.251	275.56
609.459	262.56
609.667	270.56
609.875	278.56
610.083	270.56
610.291	291.56
610.499	282.56
610.707	276.56
610.916	273.56
611.124	264.56
611.332	279.56
611.54	279.56
611.748	270.56
611.955	279.56
612.163	278.56
612.371	253.56
612.579	285.56
612.787	280.56
612.995	267.56
613.203	276.56
613.411	259.56
613.618	261.56
613.826	256.56
614.034	261.56
614.242	268.56
614.449	252.56
614.657	258.56
614.865	262.56
615.072	264.56
615.28	249.56
615.488	279.56
615.695	270.56
615.903	272.56
616.111	267.56
616.318	259.56
616.526	268.56
616.733	281.56
616.941	258.56
617.148	272.56
617.356	251.56
617.563	281.56
617.771	268.56
617.978	266.56
618.185	269.56
618.393	266.56
618.6	276.56
618.807	269.56
619.015	271.56
619.222	270.56
619.429	248.56
619.637	269.56
619.844	246.56
620.051	260.56
620.258	255.56
620.466	257.56
620.673	253.56
620.88	257.56
621.087	230.56
621.294	236.56
621.501	260.56
621.708	245.56
621.915	256.56
622.122	253.56
622.329	233.56
622.536	240.56
622.743	236.56
622.95	248.56
623.157	242.56
623.364	236.56
623.571	246.56
623.778	252.56
623.985	249.56
624.192	252.56
624.399	216.56
624.606	249.56
624.812	220.56
625.019	236.56
625.226	237.56
625.433	236.56
625.639	236.56
625.846	239.56
626.053	227.56
626.259	229.56
626.466	227.56
626.673	236.56
626.879	226.56
627.086	207.56
627.293	235.56
627.499	242.56
627.706	241.56
627.912	225.56
628.119	230.56
628.325	225.56
628.532	228.56
628.738	229.56
628.945	228.56
629.151	241.56
629.357	220.56
629.564	203.56
629.77	211.56
629.976	212.56
630.183	211.56
630.389	193.56
630.595	212.56
630.802	211.56
631.008	211.56
631.214	222.56
631.42	235.56
631.627	229.56
631.833	208.56
632.039	201.56
632.245	213.56
632.451	213.56
632.657	204.56
632.863	224.56
633.069	192.56
633.275	226.56
633.481	207.56
633.688	204.56
633.893	196.56
634.099	203.56
634.305	222.56
634.511	199.56
634.717	208.56
634.923	189.56
635.129	206.56
635.335	200.56
635.541	198.56
635.747	205.56
635.952	210.56
636.158	202.56
636.364	202.56
636.57	207.56
636.775	208.56
636.981	204.56
637.187	193.56
637.392	196.56
637.598	202.56
637.804	197.56
638.009	195.56
638.215	196.56
638.421	199.56
638.626	202.56
638.832	182.56
639.037	194.56
639.243	188.56
639.448	194.56
639.654	182.56
639.859	196.56
640.065	184.56
640.27	215.56
640.475	192.56
640.681	193.56
640.886	217.56
641.091	192.56
641.297	184.56
641.502	190.56
641.707	195.56
641.913	189.56
642.118	200.56
642.323	176.56
642.528	178.56
642.733	183.56
642.939	182.56
643.144	166.56
643.349	174.56
643.554	190.56
643.759	177.56
643.964	186.56
644.169	188.56
644.374	189.56
644.579	180.56
644.784	181.56
644.989	190.56
645.194	187.56
645.399	186.56
645.604	173.56
645.809	184.56
646.014	178.56
646.219	184.56
646.423	171.56
646.628	191.56
646.833	176.56
647.038	187.56
647.243	186.56
647.447	172.56
647.652	172.56
647.857	176.56
648.062	197.56
648.266	192.56
648.471	188.56
648.676	202.56
648.88	181.56
649.085	189.56
649.289	176.56
649.494	180.56
649.698	202.56
649.903	210.56
650.107	181.56
650.312	180.56
650.516	184.56
650.721	166.56
650.925	163.56
651.13	158.56
651.334	168.56
651.539	159.56
651.743	146.56
651.947	177.56
652.152	149.56
652.356	148.56
652.56	168.56
652.764	160.56
652.969	158.56
653.173	141.56
653.377	146.56
653.581	151.56
653.785	144.56
653.99	133.56
654.194	132.56
654.398	139.56
654.602	149.56
654.806	149.56
655.01	150.56
655.214	144.56
655.418	142.56
655.622	155.56
655.826	143.56
656.03	145.56
656.234	149.56
656.438	153.56
656.642	147.56
656.846	137.56
657.049	139.56
657.253	142.56
657.457	143.56
657.661	128.56
657.865	126.56
658.068	132.56
658.272	123.56
658.476	114.56
658.68	121.56
658.883	108.56
659.087	114.56
659.291	107.56
659.494	102.56
659.698	97.56
659.901	98.56
660.105	92.56
660.309	106.56
660.512	94.56
660.716	88.56
660.919	102.56
661.123	85.56
661.326	76.56
661.53	92.56
661.733	84.56
661.936	92.56
662.14	91.56
662.343	92.56
662.546	96.56
662.75	83.56
662.953	92.56
663.156	88.56
663.36	74.56
663.563	79.56
663.766	83.56
663.969	84.56
664.173	81.56
664.376	81.56
664.579	77.56
664.782	76.56
664.985	79.56
665.188	81.56
665.391	85.56
665.594	81.56
665.797	93.56
666	68.56
666.203	74.56
666.406	73.56
666.609	61.56
666.812	84.56
667.015	87.56
667.218	82.56
667.421	73.56
667.624	91.56
667.827	76.56
668.03	80.56
668.232	84.56
668.435	78.56
668.638	87.56
668.841	87.56
669.043	85.56
669.246	91.56
669.449	80.56
669.651	77.56
669.854	94.56
670.057	85.56
670.259	92.56
670.462	86.56
670.665	75.56
670.867	65.56
671.07	84.56
671.272	81.56
671.475	92.56
671.677	86.56
671.88	75.56
672.082	91.56
672.284	93.56
672.487	80.56
672.689	79.56
672.892	84.56
