Data from 1974.PennyLincolnUp.Lamp.En5.5.200Scan.071719.P1.Changed Mount._HRD10591_15-51-58-857.txt Node
Date: Thu Jul 18 15:51:58 EDT 2019
User: cochatt
Spectrometer: HR+D1059
Trigger mode: 1
Integration Time (sec): 1.000000E-1
Scans to average: 1
Electric dark correction enabled: true
Nonlinearity correction enabled: false
Boxcar width: 0
XAxis mode: Wavelengths
Number of Pixels in Spectrum: 2048
>>>>>Begin Spectral Data<<<<<
223.165	-16.44
223.4	-16.44
223.635	-16.44
223.869	-23.44
224.104	-16.44
224.338	-3.44
224.573	-11.44
224.808	-18.44
225.042	2.56
225.277	-7.44
225.511	5.56
225.746	-1.44
225.98	-11.44
226.215	7.56
226.449	13.56
226.683	23.56
226.918	22.56
227.152	34.56
227.387	39.56
227.621	39.56
227.856	39.56
228.09	40.56
228.324	51.56
228.559	57.56
228.793	80.56
229.027	100.56
229.262	103.56
229.496	116.56
229.73	134.56
229.964	152.56
230.199	132.56
230.433	117.56
230.667	117.56
230.901	129.56
231.136	118.56
231.37	116.56
231.604	118.56
231.838	123.56
232.072	110.56
232.306	126.56
232.541	124.56
232.775	114.56
233.009	120.56
233.243	112.56
233.477	127.56
233.711	121.56
233.945	130.56
234.179	138.56
234.413	126.56
234.647	123.56
234.881	106.56
235.115	132.56
235.349	106.56
235.583	130.56
235.817	127.56
236.051	133.56
236.285	131.56
236.519	127.56
236.753	133.56
236.987	125.56
237.221	169.56
237.455	220.56
237.689	181.56
237.922	150.56
238.156	132.56
238.39	145.56
238.624	114.56
238.858	138.56
239.091	141.56
239.325	119.56
239.559	118.56
239.793	144.56
240.027	140.56
240.26	140.56
240.494	170.56
240.728	154.56
240.961	163.56
241.195	151.56
241.429	152.56
241.662	145.56
241.896	146.56
242.13	135.56
242.363	124.56
242.597	135.56
242.83	138.56
243.064	136.56
243.298	150.56
243.531	149.56
243.765	149.56
243.998	160.56
244.232	157.56
244.465	154.56
244.699	164.56
244.932	165.56
245.166	148.56
245.399	162.56
245.633	163.56
245.866	170.56
246.099	157.56
246.333	183.56
246.566	154.56
246.8	156.56
247.033	171.56
247.266	175.56
247.5	167.56
247.733	176.56
247.966	176.56
248.2	167.56
248.433	171.56
248.666	204.56
248.899	194.56
249.133	196.56
249.366	215.56
249.599	196.56
249.832	199.56
250.066	180.56
250.299	185.56
250.532	197.56
250.765	194.56
250.998	220.56
251.231	247.56
251.465	225.56
251.698	209.56
251.931	215.56
252.164	193.56
252.397	210.56
252.63	205.56
252.863	222.56
253.096	237.56
253.329	229.56
253.562	219.56
253.795	218.56
254.028	220.56
254.261	226.56
254.494	244.56
254.727	231.56
254.96	278.56
255.193	279.56
255.426	256.56
255.659	245.56
255.892	250.56
256.124	222.56
256.357	251.56
256.59	223.56
256.823	220.56
257.056	235.56
257.289	212.56
257.521	214.56
257.754	218.56
257.987	211.56
258.22	235.56
258.452	222.56
258.685	219.56
258.918	219.56
259.151	243.56
259.383	225.56
259.616	226.56
259.849	243.56
260.081	236.56
260.314	246.56
260.547	254.56
260.779	232.56
261.012	229.56
261.244	238.56
261.477	233.56
261.71	225.56
261.942	232.56
262.175	231.56
262.407	237.56
262.64	224.56
262.872	229.56
263.105	231.56
263.337	229.56
263.57	218.56
263.802	245.56
264.035	214.56
264.267	223.56
264.499	229.56
264.732	218.56
264.964	236.56
265.197	232.56
265.429	243.56
265.661	203.56
265.894	221.56
266.126	231.56
266.358	237.56
266.591	240.56
266.823	227.56
267.055	221.56
267.287	240.56
267.52	244.56
267.752	232.56
267.984	229.56
268.216	249.56
268.448	243.56
268.681	244.56
268.913	258.56
269.145	270.56
269.377	273.56
269.609	278.56
269.841	269.56
270.073	282.56
270.306	284.56
270.538	299.56
270.77	297.56
271.002	303.56
271.234	282.56
271.466	300.56
271.698	294.56
271.93	318.56
272.162	312.56
272.394	319.56
272.626	319.56
272.858	290.56
273.09	293.56
273.322	282.56
273.553	268.56
273.785	281.56
274.017	282.56
274.249	271.56
274.481	284.56
274.713	268.56
274.945	280.56
275.176	276.56
275.408	279.56
275.64	272.56
275.872	264.56
276.104	261.56
276.335	277.56
276.567	287.56
276.799	277.56
277.031	314.56
277.262	324.56
277.494	332.56
277.726	303.56
277.957	315.56
278.189	299.56
278.421	292.56
278.652	282.56
278.884	286.56
279.115	288.56
279.347	281.56
279.579	290.56
279.81	291.56
280.042	280.56
280.273	278.56
280.505	294.56
280.736	306.56
280.968	280.56
281.199	252.56
281.431	299.56
281.662	296.56
281.894	282.56
282.125	297.56
282.356	307.56
282.588	318.56
282.819	320.56
283.051	294.56
283.282	297.56
283.513	278.56
283.745	295.56
283.976	315.56
284.207	318.56
284.439	294.56
284.67	276.56
284.901	286.56
285.132	310.56
285.364	300.56
285.595	311.56
285.826	303.56
286.057	295.56
286.288	288.56
286.52	317.56
286.751	298.56
286.982	287.56
287.213	299.56
287.444	297.56
287.675	298.56
287.906	300.56
288.138	299.56
288.369	311.56
288.6	330.56
288.831	311.56
289.062	311.56
289.293	312.56
289.524	304.56
289.755	317.56
289.986	295.56
290.217	323.56
290.448	309.56
290.679	318.56
290.91	304.56
291.141	306.56
291.371	316.56
291.602	315.56
291.833	292.56
292.064	316.56
292.295	323.56
292.526	328.56
292.757	299.56
292.987	316.56
293.218	299.56
293.449	320.56
293.68	320.56
293.91	308.56
294.141	311.56
294.372	322.56
294.603	312.56
294.833	323.56
295.064	299.56
295.295	301.56
295.525	303.56
295.756	327.56
295.987	312.56
296.217	344.56
296.448	355.56
296.679	341.56
296.909	334.56
297.14	329.56
297.37	343.56
297.601	324.56
297.831	338.56
298.062	306.56
298.292	328.56
298.523	341.56
298.753	335.56
298.984	324.56
299.214	329.56
299.445	341.56
299.675	340.56
299.905	324.56
300.136	327.56
300.366	351.56
300.597	322.56
300.827	326.56
301.057	332.56
301.288	344.56
301.518	330.56
301.748	357.56
301.979	365.56
302.209	355.56
302.439	366.56
302.669	351.56
302.9	343.56
303.13	338.56
303.36	351.56
303.59	368.56
303.82	376.56
304.051	353.56
304.281	349.56
304.511	356.56
304.741	358.56
304.971	334.56
305.201	341.56
305.431	343.56
305.661	329.56
305.891	336.56
306.121	358.56
306.352	349.56
306.582	356.56
306.812	356.56
307.042	365.56
307.272	344.56
307.502	356.56
307.731	344.56
307.961	354.56
308.191	358.56
308.421	373.56
308.651	357.56
308.881	370.56
309.111	350.56
309.341	360.56
309.571	356.56
309.8	363.56
310.03	386.56
310.26	368.56
310.49	370.56
310.72	386.56
310.949	385.56
311.179	381.56
311.409	395.56
311.639	395.56
311.868	392.56
312.098	394.56
312.328	395.56
312.557	376.56
312.787	418.56
313.017	419.56
313.246	388.56
313.476	386.56
313.706	386.56
313.935	395.56
314.165	386.56
314.394	418.56
314.624	411.56
314.853	383.56
315.083	402.56
315.312	386.56
315.542	400.56
315.771	376.56
316.001	381.56
316.23	392.56
316.46	388.56
316.689	376.56
316.919	400.56
317.148	405.56
317.377	416.56
317.607	382.56
317.836	389.56
318.065	402.56
318.295	375.56
318.524	403.56
318.753	384.56
318.983	393.56
319.212	400.56
319.441	393.56
319.67	408.56
319.9	391.56
320.129	403.56
320.358	389.56
320.587	399.56
320.816	407.56
321.046	418.56
321.275	411.56
321.504	427.56
321.733	403.56
321.962	415.56
322.191	423.56
322.42	439.56
322.649	427.56
322.878	428.56
323.108	439.56
323.337	453.56
323.566	463.56
323.795	476.56
324.024	540.56
324.253	590.56
324.482	780.56
324.71	1148.56
324.939	1695.56
325.168	1481.56
325.397	786.56
325.626	576.56
325.855	520.56
326.084	472.56
326.313	462.56
326.542	468.56
326.77	524.56
326.999	552.56
327.228	723.56
327.457	1082.56
327.686	1307.56
327.914	897.56
328.143	602.56
328.372	565.56
328.6	542.56
328.829	516.56
329.058	532.56
329.287	549.56
329.515	505.56
329.744	485.56
329.972	490.56
330.201	508.56
330.43	526.56
330.658	552.56
330.887	559.56
331.115	549.56
331.344	499.56
331.572	480.56
331.801	486.56
332.03	483.56
332.258	483.56
332.486	454.56
332.715	467.56
332.943	486.56
333.172	496.56
333.4	494.56
333.629	520.56
333.857	500.56
334.085	507.56
334.314	530.56
334.542	550.56
334.771	531.56
334.999	512.56
335.227	522.56
335.455	515.56
335.684	470.56
335.912	489.56
336.14	479.56
336.369	458.56
336.597	499.56
336.825	470.56
337.053	474.56
337.281	488.56
337.51	466.56
337.738	468.56
337.966	458.56
338.194	447.56
338.422	466.56
338.65	457.56
338.878	461.56
339.106	465.56
339.334	470.56
339.562	458.56
339.79	464.56
340.018	449.56
340.246	444.56
340.474	471.56
340.702	452.56
340.93	457.56
341.158	430.56
341.386	439.56
341.614	440.56
341.842	473.56
342.07	457.56
342.298	456.56
342.526	450.56
342.754	438.56
342.981	445.56
343.209	446.56
343.437	459.56
343.665	479.56
343.893	471.56
344.12	478.56
344.348	468.56
344.576	473.56
344.804	469.56
345.031	464.56
345.259	467.56
345.487	441.56
345.714	470.56
345.942	439.56
346.17	468.56
346.397	456.56
346.625	446.56
346.853	459.56
347.08	438.56
347.308	450.56
347.535	440.56
347.763	448.56
347.99	448.56
348.218	437.56
348.445	447.56
348.673	454.56
348.9	444.56
349.128	439.56
349.355	429.56
349.583	435.56
349.81	430.56
350.037	420.56
350.265	416.56
350.492	442.56
350.72	450.56
350.947	444.56
351.174	429.56
351.402	419.56
351.629	430.56
351.856	450.56
352.083	436.56
352.311	435.56
352.538	445.56
352.765	451.56
352.992	454.56
353.22	440.56
353.447	428.56
353.674	414.56
353.901	431.56
354.128	432.56
354.355	423.56
354.583	416.56
354.81	418.56
355.037	415.56
355.264	401.56
355.491	423.56
355.718	424.56
355.945	427.56
356.172	434.56
356.399	409.56
356.626	405.56
356.853	402.56
357.08	404.56
357.307	409.56
357.534	409.56
357.761	421.56
357.988	426.56
358.215	434.56
358.441	430.56
358.668	416.56
358.895	440.56
359.122	425.56
359.349	431.56
359.576	432.56
359.802	457.56
360.029	466.56
360.256	484.56
360.483	458.56
360.709	458.56
360.936	453.56
361.163	440.56
361.39	428.56
361.616	438.56
361.843	428.56
362.07	428.56
362.296	428.56
362.523	446.56
362.749	448.56
362.976	424.56
363.203	428.56
363.429	426.56
363.656	415.56
363.882	446.56
364.109	438.56
364.335	427.56
364.562	419.56
364.788	404.56
365.015	422.56
365.241	426.56
365.468	448.56
365.694	428.56
365.92	426.56
366.147	435.56
366.373	420.56
366.599	442.56
366.826	415.56
367.052	420.56
367.278	426.56
367.505	415.56
367.731	426.56
367.957	425.56
368.184	450.56
368.41	433.56
368.636	445.56
368.862	468.56
369.089	446.56
369.315	443.56
369.541	414.56
369.767	441.56
369.993	402.56
370.219	435.56
370.445	429.56
370.672	457.56
370.898	467.56
371.124	450.56
371.35	438.56
371.576	440.56
371.802	438.56
372.028	450.56
372.254	459.56
372.48	454.56
372.706	471.56
372.932	438.56
373.158	428.56
373.384	444.56
373.61	437.56
373.835	438.56
374.061	439.56
374.287	463.56
374.513	460.56
374.739	461.56
374.965	455.56
375.191	451.56
375.416	473.56
375.642	467.56
375.868	435.56
376.094	463.56
376.319	434.56
376.545	445.56
376.771	445.56
376.997	443.56
377.222	428.56
377.448	444.56
377.674	459.56
377.899	438.56
378.125	446.56
378.35	440.56
378.576	448.56
378.802	441.56
379.027	453.56
379.253	429.56
379.478	443.56
379.704	436.56
379.929	446.56
380.155	436.56
380.38	439.56
380.606	448.56
380.831	461.56
381.057	424.56
381.282	436.56
381.507	446.56
381.733	440.56
381.958	446.56
382.184	435.56
382.409	482.56
382.634	470.56
382.86	441.56
383.085	470.56
383.31	441.56
383.535	474.56
383.761	473.56
383.986	488.56
384.211	499.56
384.436	483.56
384.662	487.56
384.887	478.56
385.112	517.56
385.337	490.56
385.562	491.56
385.787	517.56
386.013	514.56
386.238	506.56
386.463	503.56
386.688	499.56
386.913	495.56
387.138	494.56
387.363	488.56
387.588	494.56
387.813	518.56
388.038	498.56
388.263	507.56
388.488	481.56
388.713	496.56
388.938	517.56
389.163	508.56
389.387	508.56
389.612	503.56
389.837	514.56
390.062	495.56
390.287	508.56
390.512	493.56
390.736	508.56
390.961	507.56
391.186	505.56
391.411	518.56
391.636	514.56
391.86	533.56
392.085	493.56
392.31	545.56
392.534	542.56
392.759	526.56
392.984	500.56
393.208	495.56
393.433	522.56
393.658	526.56
393.882	503.56
394.107	498.56
394.331	527.56
394.556	518.56
394.78	490.56
395.005	514.56
395.229	505.56
395.454	531.56
395.678	545.56
395.903	534.56
396.127	537.56
396.352	536.56
396.576	524.56
396.801	524.56
397.025	520.56
397.249	534.56
397.474	538.56
397.698	544.56
397.922	553.56
398.147	552.56
398.371	578.56
398.595	570.56
398.82	582.56
399.044	599.56
399.268	615.56
399.492	674.56
399.717	696.56
399.941	712.56
400.165	724.56
400.389	696.56
400.613	654.56
400.837	626.56
401.062	610.56
401.286	599.56
401.51	593.56
401.734	584.56
401.958	592.56
402.182	606.56
402.406	613.56
402.63	607.56
402.854	589.56
403.078	587.56
403.302	607.56
403.526	613.56
403.75	629.56
403.974	644.56
404.198	584.56
404.422	616.56
404.645	618.56
404.869	634.56
405.093	664.56
405.317	706.56
405.541	712.56
405.765	653.56
405.988	631.56
406.212	650.56
406.436	651.56
406.66	640.56
406.883	651.56
407.107	696.56
407.331	733.56
407.555	789.56
407.778	802.56
408.002	733.56
408.226	674.56
408.449	671.56
408.673	672.56
408.896	670.56
409.12	733.56
409.344	706.56
409.567	629.56
409.791	630.56
410.014	599.56
410.238	596.56
410.461	610.56
410.685	618.56
410.908	606.56
411.132	631.56
411.355	671.56
411.578	671.56
411.802	626.56
412.025	597.56
412.249	598.56
412.472	622.56
412.695	676.56
412.919	668.56
413.142	633.56
413.365	599.56
413.589	596.56
413.812	577.56
414.035	585.56
414.258	572.56
414.482	583.56
414.705	584.56
414.928	570.56
415.151	576.56
415.374	578.56
415.597	575.56
415.821	581.56
416.044	576.56
416.267	605.56
416.49	572.56
416.713	574.56
416.936	557.56
417.159	561.56
417.382	590.56
417.605	581.56
417.828	574.56
418.051	588.56
418.274	597.56
418.497	594.56
418.72	597.56
418.943	574.56
419.166	581.56
419.389	631.56
419.611	621.56
419.834	605.56
420.057	614.56
420.28	610.56
420.503	626.56
420.726	585.56
420.948	598.56
421.171	659.56
421.394	677.56
421.617	622.56
421.839	614.56
422.062	612.56
422.285	632.56
422.507	680.56
422.73	724.56
422.953	723.56
423.175	646.56
423.398	634.56
423.621	644.56
423.843	640.56
424.066	654.56
424.288	643.56
424.511	623.56
424.733	716.56
424.956	782.56
425.178	744.56
425.401	719.56
425.623	783.56
425.846	676.56
426.068	628.56
426.291	636.56
426.513	591.56
426.735	619.56
426.958	660.56
427.18	762.56
427.402	869.56
427.625	952.56
427.847	815.56
428.069	719.56
428.292	649.56
428.514	606.56
428.736	601.56
428.958	613.56
429.181	555.56
429.403	574.56
429.625	586.56
429.847	622.56
430.069	703.56
430.292	673.56
430.514	591.56
430.736	593.56
430.958	565.56
431.18	556.56
431.402	574.56
431.624	533.56
431.846	557.56
432.068	558.56
432.29	564.56
432.512	570.56
432.734	578.56
432.956	557.56
433.178	571.56
433.4	593.56
433.622	560.56
433.844	559.56
434.066	547.56
434.287	558.56
434.509	575.56
434.731	600.56
434.953	576.56
435.175	583.56
435.397	631.56
435.618	598.56
435.84	668.56
436.062	747.56
436.284	818.56
436.505	706.56
436.727	657.56
436.949	591.56
437.17	563.56
437.392	609.56
437.614	587.56
437.835	615.56
438.057	694.56
438.278	794.56
438.5	772.56
438.721	891.56
438.943	835.56
439.165	684.56
439.386	642.56
439.608	619.56
439.829	632.56
440.05	638.56
440.272	676.56
440.493	656.56
440.715	611.56
440.936	599.56
441.158	575.56
441.379	602.56
441.6	593.56
441.822	638.56
442.043	657.56
442.264	750.56
442.486	792.56
442.707	684.56
442.928	671.56
443.149	659.56
443.371	659.56
443.592	713.56
443.813	796.56
444.034	898.56
444.255	741.56
444.476	662.56
444.698	635.56
444.919	641.56
445.14	784.56
445.361	711.56
445.582	694.56
445.803	707.56
446.024	823.56
446.245	815.56
446.466	766.56
446.687	683.56
446.908	624.56
447.129	594.56
447.35	581.56
447.571	614.56
447.792	569.56
448.013	559.56
448.234	593.56
448.455	631.56
448.675	759.56
448.896	845.56
449.117	715.56
449.338	703.56
449.559	798.56
449.779	924.56
450	713.56
450.221	630.56
450.442	582.56
450.662	544.56
450.883	530.56
451.104	555.56
451.324	564.56
451.545	520.56
451.766	524.56
451.986	506.56
452.207	510.56
452.428	540.56
452.648	528.56
452.869	504.56
453.089	524.56
453.31	519.56
453.53	540.56
453.751	505.56
453.971	490.56
454.192	546.56
454.412	537.56
454.633	485.56
454.853	513.56
455.073	476.56
455.294	529.56
455.514	586.56
455.734	588.56
455.955	528.56
456.175	499.56
456.395	487.56
456.616	472.56
456.836	489.56
457.056	475.56
457.276	481.56
457.497	512.56
457.717	492.56
457.937	514.56
458.157	478.56
458.377	500.56
458.598	540.56
458.818	582.56
459.038	637.56
459.258	649.56
459.478	578.56
459.698	565.56
459.918	557.56
460.138	549.56
460.358	579.56
460.578	596.56
460.798	597.56
461.018	566.56
461.238	586.56
461.458	582.56
461.678	583.56
461.898	580.56
462.118	597.56
462.338	623.56
462.558	598.56
462.777	636.56
462.997	661.56
463.217	656.56
463.437	661.56
463.657	634.56
463.876	640.56
464.096	613.56
464.316	628.56
464.536	644.56
464.755	635.56
464.975	603.56
465.195	623.56
465.414	666.56
465.634	632.56
465.854	588.56
466.073	543.56
466.293	550.56
466.512	546.56
466.732	533.56
466.951	568.56
467.171	523.56
467.391	546.56
467.61	553.56
467.829	557.56
468.049	551.56
468.268	522.56
468.488	505.56
468.707	517.56
468.927	534.56
469.146	533.56
469.365	515.56
469.585	504.56
469.804	525.56
470.023	570.56
470.243	528.56
470.462	538.56
470.681	542.56
470.901	568.56
471.12	562.56
471.339	566.56
471.558	574.56
471.777	535.56
471.997	538.56
472.216	527.56
472.435	557.56
472.654	542.56
472.873	528.56
473.092	524.56
473.311	543.56
473.53	528.56
473.749	530.56
473.968	577.56
474.187	645.56
474.406	692.56
474.625	598.56
474.844	563.56
475.063	536.56
475.282	543.56
475.501	559.56
475.72	553.56
475.939	562.56
476.158	547.56
476.377	558.56
476.596	569.56
476.814	586.56
477.033	590.56
477.252	571.56
477.471	560.56
477.69	593.56
477.908	600.56
478.127	597.56
478.346	606.56
478.564	616.56
478.783	635.56
479.002	612.56
479.22	632.56
479.439	633.56
479.658	644.56
479.876	634.56
480.095	656.56
480.313	698.56
480.532	674.56
480.751	662.56
480.969	684.56
481.188	695.56
481.406	727.56
481.624	686.56
481.843	630.56
482.061	632.56
482.28	622.56
482.498	621.56
482.717	628.56
482.935	643.56
483.153	644.56
483.372	640.56
483.59	622.56
483.808	634.56
484.027	635.56
484.245	637.56
484.463	648.56
484.681	654.56
484.9	650.56
485.118	649.56
485.336	631.56
485.554	630.56
485.772	643.56
485.99	669.56
486.209	672.56
486.427	646.56
486.645	662.56
486.863	663.56
487.081	682.56
487.299	674.56
487.517	666.56
487.735	688.56
487.953	699.56
488.171	658.56
488.389	661.56
488.607	668.56
488.825	682.56
489.043	688.56
489.261	719.56
489.479	716.56
489.696	685.56
489.914	692.56
490.132	682.56
490.35	713.56
490.568	720.56
490.786	760.56
491.003	725.56
491.221	739.56
491.439	765.56
491.657	749.56
491.874	764.56
492.092	752.56
492.31	749.56
492.527	774.56
492.745	777.56
492.963	791.56
493.18	794.56
493.398	822.56
493.615	820.56
493.833	808.56
494.05	806.56
494.268	797.56
494.485	820.56
494.703	820.56
494.92	828.56
495.138	813.56
495.355	780.56
495.573	820.56
495.79	804.56
496.008	813.56
496.225	795.56
496.442	815.56
496.66	821.56
496.877	838.56
497.094	842.56
497.312	837.56
497.529	842.56
497.746	850.56
497.963	855.56
498.181	891.56
498.398	890.56
498.615	936.56
498.832	938.56
499.049	999.56
499.267	984.56
499.484	1034.56
499.701	1087.56
499.918	1107.56
500.135	1215.56
500.352	1300.56
500.569	1293.56
500.786	1282.56
501.003	1300.56
501.22	1181.56
501.437	1162.56
501.654	1111.56
501.871	1100.56
502.088	1036.56
502.305	992.56
502.522	949.56
502.739	936.56
502.956	924.56
503.172	885.56
503.389	844.56
503.606	857.56
503.823	836.56
504.04	841.56
504.256	844.56
504.473	829.56
504.69	844.56
504.907	829.56
505.123	808.56
505.34	792.56
505.557	782.56
505.773	784.56
505.99	776.56
506.207	755.56
506.423	748.56
506.64	744.56
506.856	741.56
507.073	727.56
507.289	727.56
507.506	734.56
507.722	734.56
507.939	730.56
508.155	730.56
508.372	691.56
508.588	690.56
508.805	707.56
509.021	688.56
509.238	714.56
509.454	712.56
509.67	705.56
509.887	690.56
510.103	702.56
510.319	698.56
510.536	771.56
510.752	1098.56
510.968	924.56
511.184	704.56
511.401	662.56
511.617	679.56
511.833	660.56
512.049	664.56
512.265	673.56
512.481	667.56
512.698	654.56
512.914	678.56
513.13	656.56
513.346	662.56
513.562	686.56
513.778	681.56
513.994	655.56
514.21	685.56
514.426	679.56
514.642	690.56
514.858	720.56
515.074	719.56
515.29	823.56
515.506	1050.56
515.721	928.56
515.937	742.56
516.153	697.56
516.369	696.56
516.585	678.56
516.801	712.56
517.016	682.56
517.232	703.56
517.448	720.56
517.664	745.56
517.879	717.56
518.095	723.56
518.311	718.56
518.527	687.56
518.742	694.56
518.958	689.56
519.173	680.56
519.389	671.56
519.605	671.56
519.82	647.56
520.036	704.56
520.251	685.56
520.467	698.56
520.682	684.56
520.898	692.56
521.113	687.56
521.329	704.56
521.544	773.56
521.76	874.56
521.975	1294.56
522.19	1259.56
522.406	817.56
522.621	679.56
522.836	655.56
523.052	621.56
523.267	626.56
523.482	638.56
523.698	619.56
523.913	614.56
524.128	598.56
524.343	604.56
524.559	577.56
524.774	587.56
524.989	574.56
525.204	588.56
525.419	586.56
525.634	562.56
525.849	559.56
526.064	563.56
526.28	575.56
526.495	568.56
526.71	575.56
526.925	556.56
527.14	531.56
527.355	558.56
527.57	564.56
527.785	549.56
527.999	543.56
528.214	567.56
528.429	569.56
528.644	557.56
528.859	575.56
529.074	564.56
529.289	572.56
529.503	624.56
529.718	614.56
529.933	567.56
530.148	575.56
530.363	554.56
530.577	558.56
530.792	533.56
531.007	540.56
531.221	556.56
531.436	530.56
531.651	543.56
531.865	546.56
532.08	532.56
532.295	539.56
532.509	534.56
532.724	515.56
532.938	546.56
533.153	517.56
533.367	535.56
533.582	555.56
533.796	535.56
534.011	530.56
534.225	524.56
534.44	509.56
534.654	521.56
534.868	553.56
535.083	548.56
535.297	534.56
535.511	531.56
535.726	513.56
535.94	538.56
536.154	532.56
536.369	524.56
536.583	520.56
536.797	525.56
537.011	503.56
537.225	507.56
537.44	526.56
537.654	513.56
537.868	530.56
538.082	520.56
538.296	492.56
538.51	522.56
538.724	509.56
538.938	504.56
539.153	510.56
539.367	516.56
539.581	525.56
539.795	528.56
540.009	495.56
540.222	521.56
540.436	507.56
540.65	538.56
540.864	513.56
541.078	518.56
541.292	536.56
541.506	528.56
541.72	525.56
541.934	519.56
542.147	520.56
542.361	516.56
542.575	518.56
542.789	506.56
543.002	501.56
543.216	526.56
543.43	514.56
543.644	518.56
543.857	516.56
544.071	520.56
544.285	537.56
544.498	505.56
544.712	517.56
544.925	512.56
545.139	510.56
545.352	503.56
545.566	523.56
545.779	508.56
545.993	507.56
546.206	529.56
546.42	524.56
546.633	518.56
546.847	495.56
547.06	512.56
547.274	516.56
547.487	522.56
547.7	502.56
547.914	509.56
548.127	516.56
548.34	512.56
548.554	526.56
548.767	522.56
548.98	505.56
549.193	517.56
549.407	484.56
549.62	514.56
549.833	500.56
550.046	514.56
550.259	504.56
550.473	502.56
550.686	521.56
550.899	551.56
551.112	505.56
551.325	492.56
551.538	505.56
551.751	499.56
551.964	487.56
552.177	483.56
552.39	500.56
552.603	530.56
552.816	510.56
553.029	511.56
553.242	541.56
553.455	514.56
553.667	524.56
553.88	541.56
554.093	507.56
554.306	503.56
554.519	499.56
554.732	517.56
554.944	506.56
555.157	480.56
555.37	475.56
555.583	493.56
555.795	488.56
556.008	483.56
556.221	462.56
556.433	446.56
556.646	475.56
556.859	452.56
557.071	458.56
557.284	439.56
557.496	461.56
557.709	449.56
557.921	458.56
558.134	439.56
558.346	425.56
558.559	439.56
558.771	447.56
558.984	438.56
559.196	445.56
559.409	449.56
559.621	447.56
559.833	447.56
560.046	449.56
560.258	449.56
560.47	462.56
560.683	460.56
560.895	444.56
561.107	441.56
561.32	448.56
561.532	426.56
561.744	432.56
561.956	448.56
562.168	447.56
562.381	450.56
562.593	425.56
562.805	440.56
563.017	432.56
563.229	472.56
563.441	460.56
563.653	455.56
563.865	448.56
564.077	444.56
564.289	482.56
564.501	450.56
564.713	472.56
564.925	476.56
565.137	483.56
565.349	484.56
565.561	503.56
565.773	518.56
565.985	519.56
566.197	539.56
566.408	529.56
566.62	562.56
566.832	564.56
567.044	590.56
567.255	607.56
567.467	582.56
567.679	600.56
567.891	619.56
568.102	629.56
568.314	602.56
568.526	562.56
568.737	542.56
568.949	536.56
569.161	519.56
569.372	487.56
569.584	482.56
569.795	448.56
570.007	474.56
570.218	475.56
570.43	463.56
570.641	472.56
570.853	460.56
571.064	445.56
571.276	455.56
571.487	449.56
571.698	425.56
571.91	407.56
572.121	423.56
572.333	426.56
572.544	407.56
572.755	414.56
572.966	393.56
573.178	380.56
573.389	390.56
573.6	394.56
573.811	394.56
574.023	391.56
574.234	377.56
574.445	377.56
574.656	380.56
574.867	400.56
575.078	390.56
575.289	365.56
575.501	372.56
575.712	380.56
575.923	374.56
576.134	380.56
576.345	371.56
576.556	383.56
576.767	379.56
576.978	390.56
577.188	364.56
577.399	345.56
577.61	349.56
577.821	364.56
578.032	372.56
578.243	370.56
578.454	522.56
578.665	421.56
578.875	351.56
579.086	342.56
579.297	362.56
579.508	374.56
579.718	358.56
579.929	337.56
580.14	340.56
580.35	346.56
580.561	336.56
580.772	353.56
580.982	355.56
581.193	346.56
581.403	351.56
581.614	340.56
581.825	343.56
582.035	349.56
582.246	343.56
582.456	344.56
582.667	338.56
582.877	348.56
583.087	335.56
583.298	341.56
583.508	346.56
583.719	325.56
583.929	351.56
584.139	336.56
584.35	345.56
584.56	340.56
584.77	344.56
584.981	342.56
585.191	338.56
585.401	325.56
585.611	326.56
585.821	325.56
586.032	363.56
586.242	317.56
586.452	328.56
586.662	344.56
586.872	335.56
587.082	331.56
587.292	327.56
587.502	332.56
587.713	347.56
587.923	331.56
588.133	312.56
588.343	339.56
588.553	335.56
588.762	333.56
588.972	322.56
589.182	335.56
589.392	329.56
589.602	327.56
589.812	326.56
590.022	332.56
590.232	332.56
590.441	326.56
590.651	331.56
590.861	346.56
591.071	341.56
591.281	356.56
591.49	336.56
591.7	328.56
591.91	334.56
592.119	340.56
592.329	350.56
592.539	344.56
592.748	343.56
592.958	381.56
593.167	382.56
593.377	361.56
593.587	378.56
593.796	372.56
594.006	367.56
594.215	362.56
594.424	374.56
594.634	376.56
594.843	365.56
595.053	350.56
595.262	336.56
595.472	345.56
595.681	329.56
595.89	332.56
596.1	335.56
596.309	330.56
596.518	338.56
596.727	326.56
596.937	311.56
597.146	318.56
597.355	303.56
597.564	308.56
597.774	312.56
597.983	301.56
598.192	302.56
598.401	297.56
598.61	294.56
598.819	316.56
599.028	296.56
599.237	293.56
599.446	320.56
599.655	308.56
599.864	316.56
600.073	305.56
600.282	301.56
600.491	299.56
600.7	288.56
600.909	274.56
601.118	290.56
601.327	265.56
601.536	282.56
601.745	286.56
601.953	296.56
602.162	300.56
602.371	286.56
602.58	288.56
602.789	276.56
602.997	301.56
603.206	307.56
603.415	299.56
603.623	290.56
603.832	272.56
604.041	284.56
604.249	274.56
604.458	271.56
604.666	266.56
604.875	278.56
605.084	273.56
605.292	280.56
605.501	290.56
605.709	283.56
605.918	279.56
606.126	277.56
606.334	272.56
606.543	288.56
606.751	273.56
606.96	271.56
607.168	269.56
607.376	273.56
607.585	280.56
607.793	274.56
608.001	286.56
608.21	288.56
608.418	270.56
608.626	281.56
608.834	276.56
609.043	266.56
609.251	263.56
609.459	266.56
609.667	291.56
609.875	284.56
610.083	280.56
610.291	278.56
610.499	278.56
610.707	288.56
610.916	299.56
611.124	278.56
611.332	279.56
611.54	290.56
611.748	293.56
611.955	268.56
612.163	279.56
612.371	278.56
612.579	278.56
612.787	252.56
612.995	269.56
613.203	255.56
613.411	269.56
613.618	268.56
613.826	254.56
614.034	272.56
614.242	285.56
614.449	273.56
614.657	255.56
614.865	265.56
615.072	257.56
615.28	286.56
615.488	268.56
615.695	266.56
615.903	262.56
616.111	268.56
616.318	262.56
616.526	279.56
616.733	264.56
616.941	262.56
617.148	266.56
617.356	248.56
617.563	279.56
617.771	267.56
617.978	268.56
618.185	276.56
618.393	274.56
618.6	275.56
618.807	277.56
619.015	268.56
619.222	266.56
619.429	277.56
619.637	261.56
619.844	239.56
620.051	243.56
620.258	248.56
620.466	258.56
620.673	234.56
620.88	255.56
621.087	237.56
621.294	247.56
621.501	245.56
621.708	253.56
621.915	253.56
622.122	248.56
622.329	274.56
622.536	250.56
622.743	236.56
622.95	259.56
623.157	240.56
623.364	230.56
623.571	261.56
623.778	246.56
623.985	251.56
624.192	233.56
624.399	261.56
624.606	235.56
624.812	233.56
625.019	247.56
625.226	248.56
625.433	235.56
625.639	231.56
625.846	248.56
626.053	235.56
626.259	229.56
626.466	241.56
626.673	230.56
626.879	230.56
627.086	216.56
627.293	243.56
627.499	238.56
627.706	228.56
627.912	219.56
628.119	224.56
628.325	215.56
628.532	229.56
628.738	224.56
628.945	245.56
629.151	236.56
629.357	224.56
629.564	208.56
629.77	214.56
629.976	198.56
630.183	201.56
630.389	218.56
630.595	205.56
630.802	209.56
631.008	229.56
631.214	218.56
631.42	217.56
631.627	202.56
631.833	228.56
632.039	211.56
632.245	222.56
632.451	220.56
632.657	212.56
632.863	194.56
633.069	208.56
633.275	195.56
633.481	180.56
633.688	235.56
633.893	208.56
634.099	208.56
634.305	210.56
634.511	204.56
634.717	210.56
634.923	206.56
635.129	207.56
635.335	219.56
635.541	191.56
635.747	210.56
635.952	190.56
636.158	200.56
636.364	187.56
636.57	188.56
636.775	221.56
636.981	205.56
637.187	203.56
637.392	204.56
637.598	183.56
637.804	209.56
638.009	187.56
638.215	204.56
638.421	196.56
638.626	184.56
638.832	197.56
639.037	203.56
639.243	196.56
639.448	178.56
639.654	201.56
639.859	187.56
640.065	195.56
640.27	198.56
640.475	184.56
640.681	196.56
640.886	192.56
641.091	182.56
641.297	194.56
641.502	189.56
641.707	194.56
641.913	196.56
642.118	190.56
642.323	195.56
642.528	195.56
642.733	187.56
642.939	194.56
643.144	181.56
643.349	198.56
643.554	190.56
643.759	197.56
643.964	187.56
644.169	185.56
644.374	173.56
644.579	186.56
644.784	187.56
644.989	194.56
645.194	172.56
645.399	175.56
645.604	182.56
645.809	192.56
646.014	179.56
646.219	188.56
646.423	173.56
646.628	195.56
646.833	190.56
647.038	190.56
647.243	173.56
647.447	178.56
647.652	187.56
647.857	183.56
648.062	180.56
648.266	180.56
648.471	193.56
648.676	182.56
648.88	198.56
649.085	185.56
649.289	174.56
649.494	187.56
649.698	200.56
649.903	194.56
650.107	200.56
650.312	173.56
650.516	178.56
650.721	182.56
650.925	180.56
651.13	156.56
651.334	169.56
651.539	159.56
651.743	153.56
651.947	165.56
652.152	169.56
652.356	158.56
652.56	156.56
652.764	168.56
652.969	165.56
653.173	160.56
653.377	148.56
653.581	150.56
653.785	139.56
653.99	136.56
654.194	163.56
654.398	149.56
654.602	156.56
654.806	134.56
655.01	145.56
655.214	141.56
655.418	141.56
655.622	155.56
655.826	136.56
656.03	145.56
656.234	136.56
656.438	142.56
656.642	155.56
656.846	136.56
657.049	148.56
657.253	139.56
657.457	138.56
657.661	134.56
657.865	118.56
658.068	121.56
658.272	107.56
658.476	121.56
658.68	111.56
658.883	118.56
659.087	116.56
659.291	107.56
659.494	110.56
659.698	113.56
659.901	106.56
660.105	95.56
660.309	90.56
660.512	100.56
660.716	96.56
660.919	94.56
661.123	105.56
661.326	91.56
661.53	93.56
661.733	83.56
661.936	89.56
662.14	84.56
662.343	91.56
662.546	91.56
662.75	90.56
662.953	98.56
663.156	93.56
663.36	91.56
663.563	88.56
663.766	88.56
663.969	78.56
664.173	96.56
664.376	79.56
664.579	78.56
664.782	96.56
664.985	74.56
665.188	66.56
665.391	80.56
665.594	90.56
665.797	80.56
666	91.56
666.203	80.56
666.406	73.56
666.609	84.56
666.812	75.56
667.015	82.56
667.218	79.56
667.421	74.56
667.624	76.56
667.827	78.56
668.03	86.56
668.232	81.56
668.435	79.56
668.638	87.56
668.841	90.56
669.043	81.56
669.246	85.56
669.449	95.56
669.651	86.56
669.854	91.56
670.057	87.56
670.259	90.56
670.462	87.56
670.665	84.56
670.867	85.56
671.07	80.56
671.272	86.56
671.475	80.56
671.677	79.56
671.88	84.56
672.082	84.56
672.284	88.56
672.487	92.56
672.689	86.56
672.892	77.56
