Data from 1974.PennyLincolnUp.Lamp.En5.5.200Scan.071719.P1.Changed Mount._HRD10591_15-53-27-856.txt Node
Date: Thu Jul 18 15:53:27 EDT 2019
User: cochatt
Spectrometer: HR+D1059
Trigger mode: 1
Integration Time (sec): 1.000000E-1
Scans to average: 1
Electric dark correction enabled: true
Nonlinearity correction enabled: false
Boxcar width: 0
XAxis mode: Wavelengths
Number of Pixels in Spectrum: 2048
>>>>>Begin Spectral Data<<<<<
223.165	-8.31
223.4	-8.31
223.635	-8.31
223.869	-6.31
224.104	-29.31
224.338	-24.31
224.573	-21.31
224.808	-5.31
225.042	-20.31
225.277	-7.31
225.511	1.69
225.746	1.69
225.98	14.69
226.215	22.69
226.449	14.69
226.683	25.69
226.918	11.69
227.152	29.69
227.387	34.69
227.621	52.69
227.856	40.69
228.09	41.69
228.324	49.69
228.559	56.69
228.793	69.69
229.027	88.69
229.262	105.69
229.496	116.69
229.73	121.69
229.964	160.69
230.199	127.69
230.433	127.69
230.667	130.69
230.901	105.69
231.136	110.69
231.37	118.69
231.604	116.69
231.838	112.69
232.072	119.69
232.306	128.69
232.541	122.69
232.775	114.69
233.009	120.69
233.243	124.69
233.477	109.69
233.711	112.69
233.945	135.69
234.179	117.69
234.413	129.69
234.647	127.69
234.881	130.69
235.115	125.69
235.349	139.69
235.583	124.69
235.817	144.69
236.051	145.69
236.285	127.69
236.519	131.69
236.753	133.69
236.987	147.69
237.221	185.69
237.455	229.69
237.689	188.69
237.922	149.69
238.156	132.69
238.39	142.69
238.624	124.69
238.858	133.69
239.091	132.69
239.325	132.69
239.559	141.69
239.793	138.69
240.027	130.69
240.26	157.69
240.494	149.69
240.728	156.69
240.961	156.69
241.195	149.69
241.429	149.69
241.662	162.69
241.896	145.69
242.13	137.69
242.363	147.69
242.597	151.69
242.83	152.69
243.064	151.69
243.298	155.69
243.531	145.69
243.765	147.69
243.998	151.69
244.232	149.69
244.465	150.69
244.699	164.69
244.932	161.69
245.166	162.69
245.399	158.69
245.633	142.69
245.866	183.69
246.099	153.69
246.333	148.69
246.566	145.69
246.8	161.69
247.033	149.69
247.266	164.69
247.5	170.69
247.733	168.69
247.966	186.69
248.2	172.69
248.433	163.69
248.666	189.69
248.899	199.69
249.133	217.69
249.366	230.69
249.599	216.69
249.832	201.69
250.066	211.69
250.299	187.69
250.532	209.69
250.765	223.69
250.998	244.69
251.231	237.69
251.465	223.69
251.698	215.69
251.931	209.69
252.164	211.69
252.397	207.69
252.63	233.69
252.863	223.69
253.096	219.69
253.329	246.69
253.562	229.69
253.795	239.69
254.028	223.69
254.261	232.69
254.494	241.69
254.727	261.69
254.96	291.69
255.193	288.69
255.426	259.69
255.659	261.69
255.892	246.69
256.124	265.69
256.357	255.69
256.59	241.69
256.823	244.69
257.056	216.69
257.289	224.69
257.521	227.69
257.754	219.69
257.987	222.69
258.22	239.69
258.452	223.69
258.685	225.69
258.918	218.69
259.151	227.69
259.383	239.69
259.616	228.69
259.849	244.69
260.081	249.69
260.314	260.69
260.547	273.69
260.779	267.69
261.012	241.69
261.244	239.69
261.477	255.69
261.71	229.69
261.942	243.69
262.175	256.69
262.407	215.69
262.64	237.69
262.872	199.69
263.105	235.69
263.337	228.69
263.57	222.69
263.802	227.69
264.035	207.69
264.267	223.69
264.499	201.69
264.732	231.69
264.964	240.69
265.197	222.69
265.429	229.69
265.661	239.69
265.894	224.69
266.126	226.69
266.358	243.69
266.591	234.69
266.823	244.69
267.055	223.69
267.287	224.69
267.52	244.69
267.752	256.69
267.984	229.69
268.216	252.69
268.448	258.69
268.681	256.69
268.913	244.69
269.145	259.69
269.377	304.69
269.609	280.69
269.841	284.69
270.073	281.69
270.306	316.69
270.538	329.69
270.77	331.69
271.002	329.69
271.234	311.69
271.466	315.69
271.698	327.69
271.93	315.69
272.162	337.69
272.394	340.69
272.626	322.69
272.858	309.69
273.09	298.69
273.322	291.69
273.553	294.69
273.785	282.69
274.017	284.69
274.249	293.69
274.481	289.69
274.713	281.69
274.945	289.69
275.176	296.69
275.408	272.69
275.64	284.69
275.872	280.69
276.104	283.69
276.335	273.69
276.567	283.69
276.799	305.69
277.031	307.69
277.262	326.69
277.494	337.69
277.726	331.69
277.957	304.69
278.189	300.69
278.421	284.69
278.652	297.69
278.884	289.69
279.115	289.69
279.347	298.69
279.579	298.69
279.81	284.69
280.042	298.69
280.273	304.69
280.505	300.69
280.736	294.69
280.968	280.69
281.199	277.69
281.431	294.69
281.662	287.69
281.894	299.69
282.125	293.69
282.356	293.69
282.588	328.69
282.819	329.69
283.051	318.69
283.282	303.69
283.513	294.69
283.745	321.69
283.976	296.69
284.207	317.69
284.439	298.69
284.67	307.69
284.901	308.69
285.132	285.69
285.364	307.69
285.595	305.69
285.826	321.69
286.057	314.69
286.288	300.69
286.52	313.69
286.751	305.69
286.982	321.69
287.213	326.69
287.444	323.69
287.675	319.69
287.906	317.69
288.138	331.69
288.369	330.69
288.6	330.69
288.831	320.69
289.062	316.69
289.293	322.69
289.524	311.69
289.755	307.69
289.986	320.69
290.217	326.69
290.448	316.69
290.679	309.69
290.91	317.69
291.141	309.69
291.371	308.69
291.602	317.69
291.833	327.69
292.064	325.69
292.295	311.69
292.526	303.69
292.757	315.69
292.987	327.69
293.218	328.69
293.449	324.69
293.68	330.69
293.91	329.69
294.141	305.69
294.372	321.69
294.603	325.69
294.833	328.69
295.064	327.69
295.295	329.69
295.525	324.69
295.756	329.69
295.987	327.69
296.217	340.69
296.448	328.69
296.679	353.69
296.909	342.69
297.14	352.69
297.37	340.69
297.601	325.69
297.831	342.69
298.062	340.69
298.292	321.69
298.523	332.69
298.753	335.69
298.984	333.69
299.214	341.69
299.445	337.69
299.675	339.69
299.905	351.69
300.136	350.69
300.366	360.69
300.597	347.69
300.827	349.69
301.057	351.69
301.288	373.69
301.518	355.69
301.748	359.69
301.979	358.69
302.209	374.69
302.439	384.69
302.669	379.69
302.9	360.69
303.13	359.69
303.36	364.69
303.59	367.69
303.82	361.69
304.051	367.69
304.281	361.69
304.511	363.69
304.741	360.69
304.971	358.69
305.201	370.69
305.431	369.69
305.661	350.69
305.891	353.69
306.121	362.69
306.352	356.69
306.582	364.69
306.812	362.69
307.042	346.69
307.272	371.69
307.502	375.69
307.731	384.69
307.961	372.69
308.191	367.69
308.421	373.69
308.651	396.69
308.881	369.69
309.111	369.69
309.341	369.69
309.571	379.69
309.8	391.69
310.03	377.69
310.26	392.69
310.49	409.69
310.72	417.69
310.949	424.69
311.179	427.69
311.409	404.69
311.639	416.69
311.868	405.69
312.098	410.69
312.328	387.69
312.557	399.69
312.787	435.69
313.017	424.69
313.246	431.69
313.476	412.69
313.706	389.69
313.935	402.69
314.165	416.69
314.394	421.69
314.624	428.69
314.853	414.69
315.083	423.69
315.312	406.69
315.542	406.69
315.771	401.69
316.001	402.69
316.23	401.69
316.46	407.69
316.689	419.69
316.919	445.69
317.148	427.69
317.377	412.69
317.607	397.69
317.836	406.69
318.065	387.69
318.295	418.69
318.524	419.69
318.753	397.69
318.983	397.69
319.212	408.69
319.441	419.69
319.67	429.69
319.9	409.69
320.129	408.69
320.358	396.69
320.587	404.69
320.816	411.69
321.046	422.69
321.275	415.69
321.504	409.69
321.733	420.69
321.962	420.69
322.191	453.69
322.42	460.69
322.649	447.69
322.878	474.69
323.108	465.69
323.337	474.69
323.566	484.69
323.795	519.69
324.024	547.69
324.253	635.69
324.482	871.69
324.71	1265.69
324.939	1896.69
325.168	1701.69
325.397	882.69
325.626	607.69
325.855	529.69
326.084	513.69
326.313	508.69
326.542	497.69
326.77	516.69
326.999	623.69
327.228	787.69
327.457	1208.69
327.686	1461.69
327.914	981.69
328.143	647.69
328.372	600.69
328.6	581.69
328.829	540.69
329.058	587.69
329.287	591.69
329.515	534.69
329.744	496.69
329.972	525.69
330.201	536.69
330.43	581.69
330.658	580.69
330.887	618.69
331.115	603.69
331.344	563.69
331.572	517.69
331.801	484.69
332.03	517.69
332.258	527.69
332.486	505.69
332.715	496.69
332.943	497.69
333.172	516.69
333.4	497.69
333.629	503.69
333.857	528.69
334.085	527.69
334.314	525.69
334.542	566.69
334.771	563.69
334.999	553.69
335.227	524.69
335.455	494.69
335.684	521.69
335.912	493.69
336.14	491.69
336.369	500.69
336.597	517.69
336.825	485.69
337.053	479.69
337.281	507.69
337.51	479.69
337.738	461.69
337.966	482.69
338.194	497.69
338.422	467.69
338.65	479.69
338.878	490.69
339.106	464.69
339.334	472.69
339.562	452.69
339.79	464.69
340.018	492.69
340.246	467.69
340.474	470.69
340.702	460.69
340.93	475.69
341.158	482.69
341.386	479.69
341.614	476.69
341.842	455.69
342.07	473.69
342.298	452.69
342.526	467.69
342.754	447.69
342.981	467.69
343.209	485.69
343.437	476.69
343.665	478.69
343.893	501.69
344.12	493.69
344.348	513.69
344.576	473.69
344.804	500.69
345.031	465.69
345.259	475.69
345.487	494.69
345.714	471.69
345.942	455.69
346.17	465.69
346.397	474.69
346.625	454.69
346.853	447.69
347.08	452.69
347.308	467.69
347.535	482.69
347.763	481.69
347.99	486.69
348.218	451.69
348.445	473.69
348.673	469.69
348.9	448.69
349.128	431.69
349.355	461.69
349.583	450.69
349.81	452.69
350.037	444.69
350.265	448.69
350.492	440.69
350.72	449.69
350.947	467.69
351.174	472.69
351.402	473.69
351.629	474.69
351.856	461.69
352.083	453.69
352.311	480.69
352.538	451.69
352.765	450.69
352.992	451.69
353.22	457.69
353.447	435.69
353.674	445.69
353.901	441.69
354.128	435.69
354.355	437.69
354.583	448.69
354.81	429.69
355.037	423.69
355.264	449.69
355.491	420.69
355.718	433.69
355.945	439.69
356.172	447.69
356.399	449.69
356.626	441.69
356.853	423.69
357.08	435.69
357.307	423.69
357.534	427.69
357.761	426.69
357.988	424.69
358.215	424.69
358.441	434.69
358.668	463.69
358.895	433.69
359.122	434.69
359.349	439.69
359.576	465.69
359.802	475.69
360.029	502.69
360.256	498.69
360.483	498.69
360.709	459.69
360.936	474.69
361.163	459.69
361.39	443.69
361.616	458.69
361.843	471.69
362.07	453.69
362.296	463.69
362.523	441.69
362.749	464.69
362.976	439.69
363.203	431.69
363.429	449.69
363.656	460.69
363.882	456.69
364.109	443.69
364.335	458.69
364.562	432.69
364.788	441.69
365.015	452.69
365.241	446.69
365.468	443.69
365.694	459.69
365.92	448.69
366.147	432.69
366.373	417.69
366.599	458.69
366.826	455.69
367.052	440.69
367.278	450.69
367.505	433.69
367.731	454.69
367.957	470.69
368.184	458.69
368.41	434.69
368.636	459.69
368.862	451.69
369.089	465.69
369.315	448.69
369.541	465.69
369.767	453.69
369.993	452.69
370.219	449.69
370.445	461.69
370.672	451.69
370.898	448.69
371.124	437.69
371.35	453.69
371.576	460.69
371.802	449.69
372.028	454.69
372.254	464.69
372.48	457.69
372.706	474.69
372.932	458.69
373.158	459.69
373.384	480.69
373.61	445.69
373.835	462.69
374.061	488.69
374.287	482.69
374.513	486.69
374.739	473.69
374.965	477.69
375.191	471.69
375.416	461.69
375.642	472.69
375.868	484.69
376.094	461.69
376.319	471.69
376.545	464.69
376.771	460.69
376.997	445.69
377.222	464.69
377.448	454.69
377.674	452.69
377.899	460.69
378.125	455.69
378.35	472.69
378.576	462.69
378.802	449.69
379.027	438.69
379.253	470.69
379.478	428.69
379.704	460.69
379.929	456.69
380.155	448.69
380.38	451.69
380.606	457.69
380.831	430.69
381.057	466.69
381.282	431.69
381.507	468.69
381.733	466.69
381.958	465.69
382.184	442.69
382.409	452.69
382.634	460.69
382.86	455.69
383.085	473.69
383.31	461.69
383.535	475.69
383.761	483.69
383.986	503.69
384.211	487.69
384.436	494.69
384.662	524.69
384.887	493.69
385.112	491.69
385.337	497.69
385.562	495.69
385.787	496.69
386.013	528.69
386.238	522.69
386.463	516.69
386.688	500.69
386.913	516.69
387.138	510.69
387.363	511.69
387.588	529.69
387.813	515.69
388.038	527.69
388.263	529.69
388.488	519.69
388.713	522.69
388.938	519.69
389.163	495.69
389.387	532.69
389.612	514.69
389.837	523.69
390.062	517.69
390.287	509.69
390.512	529.69
390.736	505.69
390.961	526.69
391.186	508.69
391.411	527.69
391.636	539.69
391.86	547.69
392.085	521.69
392.31	533.69
392.534	537.69
392.759	539.69
392.984	540.69
393.208	545.69
393.433	538.69
393.658	516.69
393.882	523.69
394.107	528.69
394.331	520.69
394.556	536.69
394.78	524.69
395.005	546.69
395.229	527.69
395.454	545.69
395.678	525.69
395.903	575.69
396.127	585.69
396.352	578.69
396.576	531.69
396.801	542.69
397.025	565.69
397.249	536.69
397.474	553.69
397.698	554.69
397.922	568.69
398.147	591.69
398.371	597.69
398.595	582.69
398.82	577.69
399.044	605.69
399.268	641.69
399.492	689.69
399.717	719.69
399.941	760.69
400.165	728.69
400.389	757.69
400.613	702.69
400.837	649.69
401.062	627.69
401.286	597.69
401.51	595.69
401.734	616.69
401.958	605.69
402.182	607.69
402.406	611.69
402.63	606.69
402.854	610.69
403.078	614.69
403.302	632.69
403.526	634.69
403.75	607.69
403.974	625.69
404.198	631.69
404.422	640.69
404.645	632.69
404.869	645.69
405.093	663.69
405.317	682.69
405.541	738.69
405.765	697.69
405.988	652.69
406.212	645.69
406.436	678.69
406.66	700.69
406.883	675.69
407.107	702.69
407.331	744.69
407.555	839.69
407.778	829.69
408.002	759.69
408.226	719.69
408.449	689.69
408.673	695.69
408.896	695.69
409.12	753.69
409.344	723.69
409.567	648.69
409.791	650.69
410.014	646.69
410.238	624.69
410.461	636.69
410.685	624.69
410.908	642.69
411.132	659.69
411.355	709.69
411.578	655.69
411.802	649.69
412.025	625.69
412.249	639.69
412.472	680.69
412.695	684.69
412.919	696.69
413.142	635.69
413.365	619.69
413.589	598.69
413.812	609.69
414.035	594.69
414.258	621.69
414.482	613.69
414.705	607.69
414.928	584.69
415.151	607.69
415.374	588.69
415.597	591.69
415.821	603.69
416.044	574.69
416.267	586.69
416.49	601.69
416.713	599.69
416.936	595.69
417.159	591.69
417.382	575.69
417.605	597.69
417.828	601.69
418.051	620.69
418.274	623.69
418.497	617.69
418.72	611.69
418.943	605.69
419.166	626.69
419.389	682.69
419.611	655.69
419.834	650.69
420.057	633.69
420.28	625.69
420.503	621.69
420.726	617.69
420.948	616.69
421.171	673.69
421.394	683.69
421.617	660.69
421.839	624.69
422.062	605.69
422.285	627.69
422.507	687.69
422.73	774.69
422.953	737.69
423.175	671.69
423.398	646.69
423.621	637.69
423.843	671.69
424.066	665.69
424.288	663.69
424.511	678.69
424.733	715.69
424.956	803.69
425.178	779.69
425.401	787.69
425.623	812.69
425.846	697.69
426.068	680.69
426.291	646.69
426.513	657.69
426.735	671.69
426.958	716.69
427.18	783.69
427.402	921.69
427.625	1002.69
427.847	858.69
428.069	749.69
428.292	701.69
428.514	634.69
428.736	636.69
428.958	616.69
429.181	592.69
429.403	617.69
429.625	619.69
429.847	661.69
430.069	694.69
430.292	699.69
430.514	603.69
430.736	589.69
430.958	581.69
431.18	611.69
431.402	567.69
431.624	574.69
431.846	569.69
432.068	579.69
432.29	575.69
432.512	558.69
432.734	583.69
432.956	563.69
433.178	592.69
433.4	579.69
433.622	582.69
433.844	568.69
434.066	595.69
434.287	579.69
434.509	589.69
434.731	575.69
434.953	600.69
435.175	616.69
435.397	662.69
435.618	661.69
435.84	699.69
436.062	794.69
436.284	866.69
436.505	710.69
436.727	654.69
436.949	621.69
437.17	623.69
437.392	593.69
437.614	610.69
437.835	628.69
438.057	718.69
438.278	826.69
438.5	819.69
438.721	902.69
438.943	887.69
439.165	705.69
439.386	661.69
439.608	657.69
439.829	636.69
440.05	678.69
440.272	736.69
440.493	684.69
440.715	620.69
440.936	601.69
441.158	615.69
441.379	585.69
441.6	624.69
441.822	660.69
442.043	691.69
442.264	771.69
442.486	816.69
442.707	693.69
442.928	679.69
443.149	676.69
443.371	689.69
443.592	753.69
443.813	826.69
444.034	899.69
444.255	751.69
444.476	690.69
444.698	676.69
444.919	683.69
445.14	772.69
445.361	741.69
445.582	715.69
445.803	773.69
446.024	860.69
446.245	845.69
446.466	791.69
446.687	671.69
446.908	659.69
447.129	624.69
447.35	595.69
447.571	600.69
447.792	588.69
448.013	586.69
448.234	612.69
448.455	665.69
448.675	759.69
448.896	903.69
449.117	788.69
449.338	751.69
449.559	823.69
449.779	943.69
450	782.69
450.221	651.69
450.442	587.69
450.662	553.69
450.883	581.69
451.104	586.69
451.324	565.69
451.545	541.69
451.766	563.69
451.986	543.69
452.207	516.69
452.428	552.69
452.648	532.69
452.869	532.69
453.089	544.69
453.31	544.69
453.53	551.69
453.751	537.69
453.971	513.69
454.192	536.69
454.412	546.69
454.633	532.69
454.853	544.69
455.073	517.69
455.294	573.69
455.514	631.69
455.734	595.69
455.955	554.69
456.175	525.69
456.395	524.69
456.616	499.69
456.836	501.69
457.056	491.69
457.276	484.69
457.497	499.69
457.717	525.69
457.937	475.69
458.157	519.69
458.377	538.69
458.598	542.69
458.818	579.69
459.038	651.69
459.258	701.69
459.478	601.69
459.698	560.69
459.918	576.69
460.138	588.69
460.358	587.69
460.578	584.69
460.798	600.69
461.018	612.69
461.238	610.69
461.458	575.69
461.678	590.69
461.898	604.69
462.118	601.69
462.338	589.69
462.558	620.69
462.777	621.69
462.997	650.69
463.217	687.69
463.437	669.69
463.657	644.69
463.876	654.69
464.096	668.69
464.316	651.69
464.536	650.69
464.755	644.69
464.975	625.69
465.195	675.69
465.414	726.69
465.634	669.69
465.854	615.69
466.073	585.69
466.293	588.69
466.512	547.69
466.732	541.69
466.951	566.69
467.171	562.69
467.391	564.69
467.61	576.69
467.829	576.69
468.049	572.69
468.268	528.69
468.488	531.69
468.707	536.69
468.927	532.69
469.146	523.69
469.365	535.69
469.585	539.69
469.804	563.69
470.023	554.69
470.243	583.69
470.462	569.69
470.681	584.69
470.901	592.69
471.12	568.69
471.339	555.69
471.558	559.69
471.777	547.69
471.997	524.69
472.216	570.69
472.435	572.69
472.654	569.69
472.873	565.69
473.092	559.69
473.311	543.69
473.53	563.69
473.749	569.69
473.968	606.69
474.187	683.69
474.406	751.69
474.625	614.69
474.844	569.69
475.063	557.69
475.282	576.69
475.501	561.69
475.72	582.69
475.939	578.69
476.158	585.69
476.377	587.69
476.596	583.69
476.814	588.69
477.033	581.69
477.252	618.69
477.471	600.69
477.69	603.69
477.908	626.69
478.127	616.69
478.346	618.69
478.564	641.69
478.783	653.69
479.002	653.69
479.22	657.69
479.439	671.69
479.658	665.69
479.876	683.69
480.095	682.69
480.313	696.69
480.532	705.69
480.751	690.69
480.969	715.69
481.188	744.69
481.406	787.69
481.624	718.69
481.843	681.69
482.061	666.69
482.28	643.69
482.498	643.69
482.717	659.69
482.935	638.69
483.153	664.69
483.372	667.69
483.59	644.69
483.808	641.69
484.027	640.69
484.245	645.69
484.463	668.69
484.681	672.69
484.9	677.69
485.118	680.69
485.336	677.69
485.554	682.69
485.772	681.69
485.99	664.69
486.209	682.69
486.427	664.69
486.645	658.69
486.863	700.69
487.081	690.69
487.299	705.69
487.517	713.69
487.735	701.69
487.953	720.69
488.171	721.69
488.389	720.69
488.607	683.69
488.825	706.69
489.043	712.69
489.261	739.69
489.479	708.69
489.696	738.69
489.914	735.69
490.132	737.69
490.35	727.69
490.568	732.69
490.786	756.69
491.003	785.69
491.221	808.69
491.439	785.69
491.657	792.69
491.874	796.69
492.092	778.69
492.31	796.69
492.527	824.69
492.745	804.69
492.963	807.69
493.18	819.69
493.398	834.69
493.615	844.69
493.833	835.69
494.05	837.69
494.268	847.69
494.485	805.69
494.703	836.69
494.92	822.69
495.138	834.69
495.355	856.69
495.573	850.69
495.79	860.69
496.008	846.69
496.225	850.69
496.442	848.69
496.66	840.69
496.877	863.69
497.094	847.69
497.312	869.69
497.529	875.69
497.746	882.69
497.963	890.69
498.181	917.69
498.398	936.69
498.615	957.69
498.832	999.69
499.049	977.69
499.267	1033.69
499.484	1060.69
499.701	1151.69
499.918	1183.69
500.135	1267.69
500.352	1322.69
500.569	1337.69
500.786	1337.69
501.003	1327.69
501.22	1269.69
501.437	1246.69
501.654	1155.69
501.871	1130.69
502.088	1054.69
502.305	1003.69
502.522	991.69
502.739	946.69
502.956	938.69
503.172	939.69
503.389	925.69
503.606	876.69
503.823	893.69
504.04	883.69
504.256	863.69
504.473	872.69
504.69	867.69
504.907	872.69
505.123	856.69
505.34	825.69
505.557	817.69
505.773	797.69
505.99	797.69
506.207	792.69
506.423	786.69
506.64	780.69
506.856	776.69
507.073	758.69
507.289	771.69
507.506	791.69
507.722	776.69
507.939	782.69
508.155	739.69
508.372	757.69
508.588	740.69
508.805	729.69
509.021	737.69
509.238	755.69
509.454	744.69
509.67	747.69
509.887	743.69
510.103	748.69
510.319	727.69
510.536	792.69
510.752	1178.69
510.968	980.69
511.184	702.69
511.401	717.69
511.617	701.69
511.833	709.69
512.049	681.69
512.265	684.69
512.481	696.69
512.698	675.69
512.914	697.69
513.13	699.69
513.346	711.69
513.562	673.69
513.778	672.69
513.994	722.69
514.21	716.69
514.426	705.69
514.642	734.69
514.858	788.69
515.074	772.69
515.29	901.69
515.506	1166.69
515.721	1015.69
515.937	783.69
516.153	736.69
516.369	729.69
516.585	735.69
516.801	718.69
517.016	730.69
517.232	762.69
517.448	741.69
517.664	753.69
517.879	735.69
518.095	764.69
518.311	747.69
518.527	740.69
518.742	721.69
518.958	693.69
519.173	701.69
519.389	717.69
519.605	711.69
519.82	684.69
520.036	705.69
520.251	701.69
520.467	721.69
520.682	743.69
520.898	731.69
521.113	741.69
521.329	749.69
521.544	816.69
521.76	945.69
521.975	1391.69
522.19	1399.69
522.406	877.69
522.621	725.69
522.836	683.69
523.052	656.69
523.267	625.69
523.482	644.69
523.698	632.69
523.913	647.69
524.128	631.69
524.343	600.69
524.559	599.69
524.774	575.69
524.989	584.69
525.204	613.69
525.419	598.69
525.634	603.69
525.849	581.69
526.064	574.69
526.28	571.69
526.495	567.69
526.71	540.69
526.925	598.69
527.14	572.69
527.355	576.69
527.57	571.69
527.785	585.69
527.999	571.69
528.214	578.69
528.429	576.69
528.644	595.69
528.859	591.69
529.074	566.69
529.289	609.69
529.503	655.69
529.718	634.69
529.933	603.69
530.148	576.69
530.363	593.69
530.577	567.69
530.792	559.69
531.007	548.69
531.221	565.69
531.436	555.69
531.651	567.69
531.865	545.69
532.08	553.69
532.295	571.69
532.509	535.69
532.724	541.69
532.938	548.69
533.153	545.69
533.367	537.69
533.582	559.69
533.796	563.69
534.011	556.69
534.225	522.69
534.44	545.69
534.654	526.69
534.868	547.69
535.083	544.69
535.297	552.69
535.511	543.69
535.726	552.69
535.94	536.69
536.154	520.69
536.369	553.69
536.583	536.69
536.797	508.69
537.011	532.69
537.225	510.69
537.44	500.69
537.654	529.69
537.868	518.69
538.082	563.69
538.296	550.69
538.51	528.69
538.724	529.69
538.938	521.69
539.153	518.69
539.367	521.69
539.581	514.69
539.795	539.69
540.009	531.69
540.222	519.69
540.436	537.69
540.65	531.69
540.864	503.69
541.078	518.69
541.292	515.69
541.506	531.69
541.72	534.69
541.934	519.69
542.147	556.69
542.361	527.69
542.575	535.69
542.789	546.69
543.002	522.69
543.216	514.69
543.43	518.69
543.644	528.69
543.857	531.69
544.071	532.69
544.285	539.69
544.498	529.69
544.712	508.69
544.925	518.69
545.139	549.69
545.352	527.69
545.566	523.69
545.779	526.69
545.993	542.69
546.206	539.69
546.42	522.69
546.633	536.69
546.847	528.69
547.06	514.69
547.274	525.69
547.487	537.69
547.7	526.69
547.914	508.69
548.127	508.69
548.34	528.69
548.554	531.69
548.767	520.69
548.98	530.69
549.193	527.69
549.407	523.69
549.62	518.69
549.833	531.69
550.046	510.69
550.259	503.69
550.473	530.69
550.686	517.69
550.899	507.69
551.112	505.69
551.325	504.69
551.538	514.69
551.751	507.69
551.964	517.69
552.177	511.69
552.39	518.69
552.603	546.69
552.816	544.69
553.029	535.69
553.242	530.69
553.455	528.69
553.667	546.69
553.88	536.69
554.093	525.69
554.306	521.69
554.519	507.69
554.732	531.69
554.944	504.69
555.157	508.69
555.37	503.69
555.583	490.69
555.795	519.69
556.008	498.69
556.221	468.69
556.433	477.69
556.646	457.69
556.859	466.69
557.071	484.69
557.284	467.69
557.496	448.69
557.709	483.69
557.921	460.69
558.134	446.69
558.346	476.69
558.559	449.69
558.771	451.69
558.984	455.69
559.196	440.69
559.409	459.69
559.621	480.69
559.833	451.69
560.046	451.69
560.258	434.69
560.47	445.69
560.683	455.69
560.895	465.69
561.107	457.69
561.32	457.69
561.532	453.69
561.744	436.69
561.956	447.69
562.168	470.69
562.381	449.69
562.593	457.69
562.805	464.69
563.017	460.69
563.229	464.69
563.441	455.69
563.653	461.69
563.865	462.69
564.077	452.69
564.289	492.69
564.501	484.69
564.713	464.69
564.925	502.69
565.137	475.69
565.349	515.69
565.561	523.69
565.773	499.69
565.985	529.69
566.197	554.69
566.408	556.69
566.62	571.69
566.832	584.69
567.044	604.69
567.255	612.69
567.467	588.69
567.679	607.69
567.891	630.69
568.102	630.69
568.314	635.69
568.526	607.69
568.737	586.69
568.949	540.69
569.161	536.69
569.372	521.69
569.584	495.69
569.795	480.69
570.007	491.69
570.218	520.69
570.43	511.69
570.641	455.69
570.853	457.69
571.064	449.69
571.276	447.69
571.487	438.69
571.698	432.69
571.91	431.69
572.121	416.69
572.333	440.69
572.544	397.69
572.755	390.69
572.966	419.69
573.178	397.69
573.389	411.69
573.6	379.69
573.811	387.69
574.023	405.69
574.234	390.69
574.445	413.69
574.656	403.69
574.867	385.69
575.078	399.69
575.289	397.69
575.501	389.69
575.712	396.69
575.923	367.69
576.134	381.69
576.345	357.69
576.556	388.69
576.767	378.69
576.978	386.69
577.188	389.69
577.399	373.69
577.61	370.69
577.821	381.69
578.032	384.69
578.243	384.69
578.454	541.69
578.665	441.69
578.875	367.69
579.086	350.69
579.297	365.69
579.508	373.69
579.718	357.69
579.929	361.69
580.14	340.69
580.35	344.69
580.561	358.69
580.772	355.69
580.982	355.69
581.193	365.69
581.403	362.69
581.614	348.69
581.825	342.69
582.035	353.69
582.246	359.69
582.456	373.69
582.667	346.69
582.877	323.69
583.087	343.69
583.298	346.69
583.508	345.69
583.719	346.69
583.929	347.69
584.139	345.69
584.35	358.69
584.56	337.69
584.77	332.69
584.981	334.69
585.191	329.69
585.401	349.69
585.611	337.69
585.821	331.69
586.032	344.69
586.242	339.69
586.452	339.69
586.662	344.69
586.872	347.69
587.082	357.69
587.292	349.69
587.502	325.69
587.713	330.69
587.923	321.69
588.133	338.69
588.343	345.69
588.553	342.69
588.762	354.69
588.972	322.69
589.182	351.69
589.392	321.69
589.602	344.69
589.812	332.69
590.022	343.69
590.232	342.69
590.441	329.69
590.651	338.69
590.861	337.69
591.071	343.69
591.281	333.69
591.49	335.69
591.7	353.69
591.91	339.69
592.119	343.69
592.329	344.69
592.539	342.69
592.748	372.69
592.958	362.69
593.167	370.69
593.377	367.69
593.587	384.69
593.796	383.69
594.006	386.69
594.215	374.69
594.424	380.69
594.634	368.69
594.843	356.69
595.053	374.69
595.262	353.69
595.472	347.69
595.681	326.69
595.89	336.69
596.1	337.69
596.309	316.69
596.518	323.69
596.727	319.69
596.937	321.69
597.146	322.69
597.355	320.69
597.564	333.69
597.774	327.69
597.983	288.69
598.192	308.69
598.401	303.69
598.61	308.69
598.819	310.69
599.028	312.69
599.237	290.69
599.446	313.69
599.655	313.69
599.864	292.69
600.073	284.69
600.282	283.69
600.491	294.69
600.7	317.69
600.909	285.69
601.118	296.69
601.327	303.69
601.536	309.69
601.745	290.69
601.953	297.69
602.162	278.69
602.371	289.69
602.58	284.69
602.789	294.69
602.997	288.69
603.206	306.69
603.415	295.69
603.623	291.69
603.832	298.69
604.041	291.69
604.249	283.69
604.458	289.69
604.666	270.69
604.875	295.69
605.084	285.69
605.292	280.69
605.501	275.69
605.709	282.69
605.918	283.69
606.126	282.69
606.334	285.69
606.543	276.69
606.751	278.69
606.96	265.69
607.168	289.69
607.376	283.69
607.585	281.69
607.793	279.69
608.001	288.69
608.21	276.69
608.418	277.69
608.626	286.69
608.834	291.69
609.043	285.69
609.251	264.69
609.459	268.69
609.667	273.69
609.875	285.69
610.083	281.69
610.291	265.69
610.499	292.69
610.707	282.69
610.916	295.69
611.124	291.69
611.332	277.69
611.54	279.69
611.748	279.69
611.955	283.69
612.163	267.69
612.371	271.69
612.579	267.69
612.787	264.69
612.995	271.69
613.203	269.69
613.411	259.69
613.618	270.69
613.826	270.69
614.034	278.69
614.242	271.69
614.449	246.69
614.657	276.69
614.865	268.69
615.072	267.69
615.28	260.69
615.488	261.69
615.695	271.69
615.903	262.69
616.111	288.69
616.318	292.69
616.526	256.69
616.733	271.69
616.941	273.69
617.148	280.69
617.356	269.69
617.563	266.69
617.771	285.69
617.978	270.69
618.185	276.69
618.393	266.69
618.6	277.69
618.807	266.69
619.015	266.69
619.222	276.69
619.429	260.69
619.637	263.69
619.844	279.69
620.051	260.69
620.258	259.69
620.466	239.69
620.673	255.69
620.88	242.69
621.087	249.69
621.294	256.69
621.501	243.69
621.708	256.69
621.915	271.69
622.122	243.69
622.329	249.69
622.536	280.69
622.743	267.69
622.95	249.69
623.157	243.69
623.364	257.69
623.571	236.69
623.778	229.69
623.985	257.69
624.192	240.69
624.399	239.69
624.606	249.69
624.812	230.69
625.019	236.69
625.226	241.69
625.433	211.69
625.639	223.69
625.846	231.69
626.053	233.69
626.259	231.69
626.466	229.69
626.673	240.69
626.879	215.69
627.086	234.69
627.293	235.69
627.499	214.69
627.706	242.69
627.912	225.69
628.119	233.69
628.325	231.69
628.532	238.69
628.738	226.69
628.945	228.69
629.151	247.69
629.357	225.69
629.564	208.69
629.77	226.69
629.976	219.69
630.183	210.69
630.389	220.69
630.595	232.69
630.802	219.69
631.008	229.69
631.214	209.69
631.42	215.69
631.627	224.69
631.833	228.69
632.039	206.69
632.245	193.69
632.451	210.69
632.657	217.69
632.863	213.69
633.069	204.69
633.275	224.69
633.481	213.69
633.688	197.69
633.893	228.69
634.099	206.69
634.305	204.69
634.511	211.69
634.717	217.69
634.923	193.69
635.129	216.69
635.335	213.69
635.541	209.69
635.747	207.69
635.952	196.69
636.158	203.69
636.364	196.69
636.57	209.69
636.775	197.69
636.981	207.69
637.187	205.69
637.392	193.69
637.598	217.69
637.804	195.69
638.009	193.69
638.215	205.69
638.421	211.69
638.626	195.69
638.832	203.69
639.037	181.69
639.243	205.69
639.448	197.69
639.654	202.69
639.859	178.69
640.065	198.69
640.27	186.69
640.475	193.69
640.681	200.69
640.886	195.69
641.091	179.69
641.297	200.69
641.502	198.69
641.707	178.69
641.913	202.69
642.118	197.69
642.323	200.69
642.528	193.69
642.733	185.69
642.939	184.69
643.144	184.69
643.349	193.69
643.554	192.69
643.759	199.69
643.964	182.69
644.169	178.69
644.374	176.69
644.579	186.69
644.784	183.69
644.989	193.69
645.194	187.69
645.399	173.69
645.604	181.69
645.809	189.69
646.014	187.69
646.219	184.69
646.423	193.69
646.628	195.69
646.833	180.69
647.038	192.69
647.243	163.69
647.447	193.69
647.652	195.69
647.857	183.69
648.062	189.69
648.266	197.69
648.471	188.69
648.676	180.69
648.88	203.69
649.085	180.69
649.289	187.69
649.494	179.69
649.698	203.69
649.903	203.69
650.107	187.69
650.312	178.69
650.516	170.69
650.721	167.69
650.925	161.69
651.13	181.69
651.334	163.69
651.539	172.69
651.743	172.69
651.947	154.69
652.152	165.69
652.356	163.69
652.56	156.69
652.764	149.69
652.969	149.69
653.173	154.69
653.377	149.69
653.581	134.69
653.785	169.69
653.99	159.69
654.194	146.69
654.398	142.69
654.602	152.69
654.806	153.69
655.01	148.69
655.214	149.69
655.418	142.69
655.622	149.69
655.826	133.69
656.03	143.69
656.234	138.69
656.438	143.69
656.642	151.69
656.846	134.69
657.049	143.69
657.253	126.69
657.457	117.69
657.661	132.69
657.865	116.69
658.068	121.69
658.272	120.69
658.476	107.69
658.68	118.69
658.883	104.69
659.087	95.69
659.291	112.69
659.494	104.69
659.698	107.69
659.901	97.69
660.105	91.69
660.309	94.69
660.512	108.69
660.716	109.69
660.919	99.69
661.123	88.69
661.326	75.69
661.53	85.69
661.733	85.69
661.936	93.69
662.14	87.69
662.343	90.69
662.546	86.69
662.75	84.69
662.953	90.69
663.156	76.69
663.36	73.69
663.563	80.69
663.766	85.69
663.969	77.69
664.173	63.69
664.376	80.69
664.579	83.69
664.782	97.69
664.985	79.69
665.188	73.69
665.391	72.69
665.594	88.69
665.797	98.69
666	94.69
666.203	74.69
666.406	70.69
666.609	71.69
666.812	87.69
667.015	82.69
667.218	78.69
667.421	97.69
667.624	92.69
667.827	92.69
668.03	78.69
668.232	86.69
668.435	88.69
668.638	98.69
668.841	82.69
669.043	97.69
669.246	85.69
669.449	71.69
669.651	92.69
669.854	72.69
670.057	77.69
670.259	92.69
670.462	79.69
670.665	77.69
670.867	88.69
671.07	68.69
671.272	72.69
671.475	94.69
671.677	85.69
671.88	68.69
672.082	88.69
672.284	93.69
672.487	89.69
672.689	66.69
672.892	77.69
