Data from 1974.PennyLincolnUp.Lamp.En5.5.200Scan.071719.P1.Changed Mount._HRD10591_15-51-32-855.txt Node
Date: Thu Jul 18 15:51:32 EDT 2019
User: cochatt
Spectrometer: HR+D1059
Trigger mode: 1
Integration Time (sec): 1.000000E-1
Scans to average: 1
Electric dark correction enabled: true
Nonlinearity correction enabled: false
Boxcar width: 0
XAxis mode: Wavelengths
Number of Pixels in Spectrum: 2048
>>>>>Begin Spectral Data<<<<<
223.165	-22.12
223.4	-22.12
223.635	-22.12
223.869	-14.12
224.104	-20.12
224.338	-16.12
224.573	-12.12
224.808	-1.12
225.042	-16.12
225.277	-7.12
225.511	-2.12
225.746	5.88
225.98	12.88
226.215	9.88
226.449	13.88
226.683	14.88
226.918	15.88
227.152	37.88
227.387	40.88
227.621	13.88
227.856	42.88
228.09	39.88
228.324	50.88
228.559	61.88
228.793	67.88
229.027	100.88
229.262	105.88
229.496	113.88
229.73	124.88
229.964	138.88
230.199	105.88
230.433	117.88
230.667	109.88
230.901	117.88
231.136	106.88
231.37	112.88
231.604	113.88
231.838	110.88
232.072	121.88
232.306	109.88
232.541	101.88
232.775	123.88
233.009	131.88
233.243	130.88
233.477	124.88
233.711	115.88
233.945	109.88
234.179	118.88
234.413	127.88
234.647	116.88
234.881	124.88
235.115	115.88
235.349	129.88
235.583	124.88
235.817	125.88
236.051	127.88
236.285	120.88
236.519	110.88
236.753	137.88
236.987	129.88
237.221	154.88
237.455	213.88
237.689	181.88
237.922	146.88
238.156	151.88
238.39	129.88
238.624	125.88
238.858	123.88
239.091	146.88
239.325	126.88
239.559	119.88
239.793	121.88
240.027	131.88
240.26	146.88
240.494	134.88
240.728	133.88
240.961	145.88
241.195	138.88
241.429	124.88
241.662	138.88
241.896	131.88
242.13	138.88
242.363	147.88
242.597	147.88
242.83	138.88
243.064	134.88
243.298	145.88
243.531	145.88
243.765	142.88
243.998	130.88
244.232	147.88
244.465	152.88
244.699	152.88
244.932	155.88
245.166	152.88
245.399	166.88
245.633	161.88
245.866	151.88
246.099	150.88
246.333	156.88
246.566	148.88
246.8	159.88
247.033	174.88
247.266	161.88
247.5	169.88
247.733	171.88
247.966	162.88
248.2	161.88
248.433	167.88
248.666	167.88
248.899	168.88
249.133	189.88
249.366	187.88
249.599	205.88
249.832	194.88
250.066	169.88
250.299	177.88
250.532	182.88
250.765	194.88
250.998	213.88
251.231	222.88
251.465	192.88
251.698	187.88
251.931	195.88
252.164	207.88
252.397	196.88
252.63	206.88
252.863	202.88
253.096	197.88
253.329	227.88
253.562	231.88
253.795	213.88
254.028	194.88
254.261	202.88
254.494	206.88
254.727	253.88
254.96	258.88
255.193	257.88
255.426	222.88
255.659	224.88
255.892	221.88
256.124	225.88
256.357	231.88
256.59	207.88
256.823	210.88
257.056	213.88
257.289	207.88
257.521	210.88
257.754	202.88
257.987	215.88
258.22	214.88
258.452	215.88
258.685	211.88
258.918	205.88
259.151	206.88
259.383	210.88
259.616	202.88
259.849	222.88
260.081	239.88
260.314	250.88
260.547	257.88
260.779	224.88
261.012	216.88
261.244	231.88
261.477	211.88
261.71	213.88
261.942	214.88
262.175	230.88
262.407	207.88
262.64	201.88
262.872	220.88
263.105	194.88
263.337	203.88
263.57	211.88
263.802	213.88
264.035	221.88
264.267	216.88
264.499	202.88
264.732	200.88
264.964	219.88
265.197	225.88
265.429	219.88
265.661	215.88
265.894	210.88
266.126	195.88
266.358	207.88
266.591	218.88
266.823	221.88
267.055	225.88
267.287	228.88
267.52	232.88
267.752	223.88
267.984	220.88
268.216	205.88
268.448	235.88
268.681	237.88
268.913	265.88
269.145	251.88
269.377	252.88
269.609	256.88
269.841	263.88
270.073	254.88
270.306	280.88
270.538	300.88
270.77	302.88
271.002	283.88
271.234	279.88
271.466	271.88
271.698	281.88
271.93	298.88
272.162	302.88
272.394	283.88
272.626	275.88
272.858	277.88
273.09	273.88
273.322	270.88
273.553	253.88
273.785	233.88
274.017	267.88
274.249	262.88
274.481	250.88
274.713	272.88
274.945	268.88
275.176	257.88
275.408	275.88
275.64	263.88
275.872	254.88
276.104	270.88
276.335	259.88
276.567	277.88
276.799	269.88
277.031	297.88
277.262	302.88
277.494	315.88
277.726	294.88
277.957	301.88
278.189	274.88
278.421	264.88
278.652	268.88
278.884	250.88
279.115	274.88
279.347	279.88
279.579	260.88
279.81	260.88
280.042	269.88
280.273	269.88
280.505	258.88
280.736	248.88
280.968	269.88
281.199	277.88
281.431	268.88
281.662	268.88
281.894	270.88
282.125	273.88
282.356	294.88
282.588	268.88
282.819	286.88
283.051	276.88
283.282	283.88
283.513	279.88
283.745	293.88
283.976	274.88
284.207	278.88
284.439	268.88
284.67	301.88
284.901	292.88
285.132	287.88
285.364	295.88
285.595	274.88
285.826	294.88
286.057	307.88
286.288	279.88
286.52	289.88
286.751	291.88
286.982	290.88
287.213	295.88
287.444	301.88
287.675	284.88
287.906	289.88
288.138	302.88
288.369	323.88
288.6	300.88
288.831	307.88
289.062	280.88
289.293	282.88
289.524	295.88
289.755	309.88
289.986	285.88
290.217	280.88
290.448	291.88
290.679	276.88
290.91	294.88
291.141	284.88
291.371	295.88
291.602	290.88
291.833	285.88
292.064	290.88
292.295	301.88
292.526	295.88
292.757	276.88
292.987	298.88
293.218	291.88
293.449	303.88
293.68	305.88
293.91	295.88
294.141	298.88
294.372	294.88
294.603	305.88
294.833	294.88
295.064	309.88
295.295	311.88
295.525	307.88
295.756	309.88
295.987	296.88
296.217	285.88
296.448	311.88
296.679	311.88
296.909	316.88
297.14	317.88
297.37	308.88
297.601	295.88
297.831	290.88
298.062	294.88
298.292	317.88
298.523	315.88
298.753	300.88
298.984	311.88
299.214	316.88
299.445	291.88
299.675	315.88
299.905	325.88
300.136	322.88
300.366	306.88
300.597	330.88
300.827	316.88
301.057	309.88
301.288	322.88
301.518	319.88
301.748	319.88
301.979	338.88
302.209	330.88
302.439	328.88
302.669	353.88
302.9	331.88
303.13	322.88
303.36	330.88
303.59	338.88
303.82	337.88
304.051	331.88
304.281	342.88
304.511	343.88
304.741	329.88
304.971	321.88
305.201	328.88
305.431	324.88
305.661	318.88
305.891	320.88
306.121	310.88
306.352	326.88
306.582	329.88
306.812	337.88
307.042	322.88
307.272	333.88
307.502	327.88
307.731	354.88
307.961	336.88
308.191	337.88
308.421	312.88
308.651	312.88
308.881	335.88
309.111	339.88
309.341	319.88
309.571	347.88
309.8	323.88
310.03	364.88
310.26	367.88
310.49	378.88
310.72	360.88
310.949	362.88
311.179	381.88
311.409	369.88
311.639	363.88
311.868	361.88
312.098	351.88
312.328	361.88
312.557	391.88
312.787	366.88
313.017	380.88
313.246	369.88
313.476	353.88
313.706	391.88
313.935	362.88
314.165	376.88
314.394	399.88
314.624	376.88
314.853	362.88
315.083	373.88
315.312	359.88
315.542	383.88
315.771	382.88
316.001	361.88
316.23	377.88
316.46	368.88
316.689	370.88
316.919	371.88
317.148	376.88
317.377	371.88
317.607	386.88
317.836	373.88
318.065	380.88
318.295	377.88
318.524	379.88
318.753	358.88
318.983	376.88
319.212	363.88
319.441	367.88
319.67	383.88
319.9	366.88
320.129	357.88
320.358	364.88
320.587	375.88
320.816	356.88
321.046	385.88
321.275	395.88
321.504	362.88
321.733	370.88
321.962	369.88
322.191	393.88
322.42	385.88
322.649	397.88
322.878	416.88
323.108	421.88
323.337	414.88
323.566	443.88
323.795	443.88
324.024	449.88
324.253	533.88
324.482	702.88
324.71	1056.88
324.939	1586.88
325.168	1352.88
325.397	717.88
325.626	510.88
325.855	469.88
326.084	443.88
326.313	436.88
326.542	423.88
326.77	458.88
326.999	531.88
327.228	646.88
327.457	939.88
327.686	1192.88
327.914	814.88
328.143	577.88
328.372	521.88
328.6	500.88
328.829	476.88
329.058	474.88
329.287	482.88
329.515	475.88
329.744	448.88
329.972	454.88
330.201	487.88
330.43	489.88
330.658	483.88
330.887	502.88
331.115	511.88
331.344	470.88
331.572	463.88
331.801	457.88
332.03	458.88
332.258	462.88
332.486	445.88
332.715	434.88
332.943	439.88
333.172	467.88
333.4	456.88
333.629	462.88
333.857	475.88
334.085	463.88
334.314	483.88
334.542	490.88
334.771	510.88
334.999	481.88
335.227	457.88
335.455	453.88
335.684	461.88
335.912	461.88
336.14	452.88
336.369	433.88
336.597	427.88
336.825	465.88
337.053	469.88
337.281	452.88
337.51	449.88
337.738	455.88
337.966	440.88
338.194	451.88
338.422	418.88
338.65	437.88
338.878	441.88
339.106	446.88
339.334	448.88
339.562	435.88
339.79	439.88
340.018	426.88
340.246	452.88
340.474	437.88
340.702	432.88
340.93	405.88
341.158	422.88
341.386	434.88
341.614	448.88
341.842	399.88
342.07	450.88
342.298	408.88
342.526	415.88
342.754	433.88
342.981	422.88
343.209	429.88
343.437	397.88
343.665	426.88
343.893	453.88
344.12	450.88
344.348	437.88
344.576	434.88
344.804	438.88
345.031	432.88
345.259	438.88
345.487	433.88
345.714	430.88
345.942	417.88
346.17	423.88
346.397	400.88
346.625	420.88
346.853	408.88
347.08	415.88
347.308	434.88
347.535	407.88
347.763	403.88
347.99	416.88
348.218	424.88
348.445	417.88
348.673	443.88
348.9	421.88
349.128	417.88
349.355	398.88
349.583	382.88
349.81	396.88
350.037	415.88
350.265	406.88
350.492	390.88
350.72	422.88
350.947	412.88
351.174	416.88
351.402	433.88
351.629	408.88
351.856	425.88
352.083	389.88
352.311	416.88
352.538	412.88
352.765	417.88
352.992	409.88
353.22	404.88
353.447	394.88
353.674	407.88
353.901	409.88
354.128	386.88
354.355	406.88
354.583	412.88
354.81	396.88
355.037	394.88
355.264	398.88
355.491	395.88
355.718	395.88
355.945	397.88
356.172	389.88
356.399	401.88
356.626	387.88
356.853	391.88
357.08	378.88
357.307	422.88
357.534	397.88
357.761	382.88
357.988	390.88
358.215	411.88
358.441	409.88
358.668	407.88
358.895	395.88
359.122	407.88
359.349	419.88
359.576	406.88
359.802	435.88
360.029	439.88
360.256	467.88
360.483	437.88
360.709	425.88
360.936	422.88
361.163	433.88
361.39	424.88
361.616	416.88
361.843	431.88
362.07	428.88
362.296	436.88
362.523	424.88
362.749	414.88
362.976	416.88
363.203	411.88
363.429	409.88
363.656	418.88
363.882	406.88
364.109	390.88
364.335	420.88
364.562	402.88
364.788	405.88
365.015	402.88
365.241	416.88
365.468	417.88
365.694	418.88
365.92	412.88
366.147	395.88
366.373	407.88
366.599	417.88
366.826	419.88
367.052	426.88
367.278	404.88
367.505	402.88
367.731	419.88
367.957	412.88
368.184	403.88
368.41	410.88
368.636	439.88
368.862	429.88
369.089	408.88
369.315	406.88
369.541	390.88
369.767	425.88
369.993	423.88
370.219	387.88
370.445	405.88
370.672	397.88
370.898	430.88
371.124	412.88
371.35	404.88
371.576	417.88
371.802	405.88
372.028	438.88
372.254	426.88
372.48	411.88
372.706	426.88
372.932	434.88
373.158	423.88
373.384	434.88
373.61	419.88
373.835	413.88
374.061	403.88
374.287	411.88
374.513	428.88
374.739	452.88
374.965	433.88
375.191	423.88
375.416	421.88
375.642	425.88
375.868	430.88
376.094	422.88
376.319	413.88
376.545	415.88
376.771	406.88
376.997	429.88
377.222	425.88
377.448	420.88
377.674	431.88
377.899	426.88
378.125	417.88
378.35	437.88
378.576	423.88
378.802	405.88
379.027	413.88
379.253	433.88
379.478	418.88
379.704	408.88
379.929	422.88
380.155	427.88
380.38	407.88
380.606	426.88
380.831	430.88
381.057	428.88
381.282	419.88
381.507	420.88
381.733	437.88
381.958	453.88
382.184	434.88
382.409	427.88
382.634	426.88
382.86	428.88
383.085	436.88
383.31	444.88
383.535	435.88
383.761	456.88
383.986	453.88
384.211	448.88
384.436	457.88
384.662	485.88
384.887	464.88
385.112	450.88
385.337	485.88
385.562	479.88
385.787	472.88
386.013	479.88
386.238	469.88
386.463	479.88
386.688	474.88
386.913	469.88
387.138	471.88
387.363	475.88
387.588	469.88
387.813	462.88
388.038	464.88
388.263	466.88
388.488	482.88
388.713	478.88
388.938	489.88
389.163	468.88
389.387	476.88
389.612	460.88
389.837	468.88
390.062	452.88
390.287	471.88
390.512	466.88
390.736	477.88
390.961	461.88
391.186	485.88
391.411	467.88
391.636	475.88
391.86	516.88
392.085	507.88
392.31	525.88
392.534	494.88
392.759	489.88
392.984	476.88
393.208	485.88
393.433	491.88
393.658	481.88
393.882	477.88
394.107	470.88
394.331	468.88
394.556	466.88
394.78	489.88
395.005	491.88
395.229	497.88
395.454	517.88
395.678	513.88
395.903	499.88
396.127	518.88
396.352	540.88
396.576	514.88
396.801	499.88
397.025	497.88
397.249	525.88
397.474	527.88
397.698	524.88
397.922	532.88
398.147	542.88
398.371	545.88
398.595	547.88
398.82	546.88
399.044	578.88
399.268	588.88
399.492	641.88
399.717	667.88
399.941	687.88
400.165	699.88
400.389	686.88
400.613	625.88
400.837	582.88
401.062	572.88
401.286	560.88
401.51	577.88
401.734	563.88
401.958	552.88
402.182	577.88
402.406	570.88
402.63	568.88
402.854	534.88
403.078	563.88
403.302	573.88
403.526	587.88
403.75	573.88
403.974	596.88
404.198	583.88
404.422	585.88
404.645	583.88
404.869	596.88
405.093	610.88
405.317	654.88
405.541	685.88
405.765	637.88
405.988	604.88
406.212	611.88
406.436	642.88
406.66	635.88
406.883	613.88
407.107	642.88
407.331	711.88
407.555	767.88
407.778	747.88
408.002	677.88
408.226	620.88
408.449	629.88
408.673	625.88
408.896	648.88
409.12	669.88
409.344	654.88
409.567	612.88
409.791	599.88
410.014	574.88
410.238	568.88
410.461	578.88
410.685	574.88
410.908	597.88
411.132	639.88
411.355	653.88
411.578	612.88
411.802	577.88
412.025	575.88
412.249	577.88
412.472	596.88
412.695	652.88
412.919	623.88
413.142	559.88
413.365	579.88
413.589	553.88
413.812	561.88
414.035	564.88
414.258	544.88
414.482	560.88
414.705	553.88
414.928	554.88
415.151	555.88
415.374	554.88
415.597	531.88
415.821	550.88
416.044	564.88
416.267	569.88
416.49	519.88
416.713	539.88
416.936	552.88
417.159	550.88
417.382	546.88
417.605	545.88
417.828	570.88
418.051	558.88
418.274	580.88
418.497	527.88
418.72	522.88
418.943	523.88
419.166	573.88
419.389	606.88
419.611	590.88
419.834	593.88
420.057	558.88
420.28	599.88
420.503	580.88
420.726	557.88
420.948	573.88
421.171	609.88
421.394	635.88
421.617	592.88
421.839	555.88
422.062	561.88
422.285	552.88
422.507	618.88
422.73	701.88
422.953	690.88
423.175	605.88
423.398	586.88
423.621	585.88
423.843	595.88
424.066	616.88
424.288	622.88
424.511	637.88
424.733	657.88
424.956	740.88
425.178	727.88
425.401	715.88
425.623	717.88
425.846	644.88
426.068	598.88
426.291	573.88
426.513	574.88
426.735	603.88
426.958	623.88
427.18	734.88
427.402	826.88
427.625	908.88
427.847	761.88
428.069	686.88
428.292	626.88
428.514	585.88
428.736	569.88
428.958	556.88
429.181	542.88
429.403	566.88
429.625	564.88
429.847	577.88
430.069	631.88
430.292	635.88
430.514	559.88
430.736	570.88
430.958	549.88
431.18	526.88
431.402	542.88
431.624	524.88
431.846	520.88
432.068	520.88
432.29	527.88
432.512	523.88
432.734	517.88
432.956	505.88
433.178	525.88
433.4	568.88
433.622	563.88
433.844	554.88
434.066	552.88
434.287	548.88
434.509	521.88
434.731	530.88
434.953	557.88
435.175	579.88
435.397	589.88
435.618	609.88
435.84	601.88
436.062	712.88
436.284	779.88
436.505	647.88
436.727	610.88
436.949	567.88
437.17	538.88
437.392	541.88
437.614	563.88
437.835	564.88
438.057	663.88
438.278	753.88
438.5	759.88
438.721	830.88
438.943	824.88
439.165	670.88
439.386	582.88
439.608	595.88
439.829	575.88
440.05	618.88
440.272	653.88
440.493	633.88
440.715	589.88
440.936	563.88
441.158	554.88
441.379	565.88
441.6	561.88
441.822	581.88
442.043	628.88
442.264	714.88
442.486	731.88
442.707	647.88
442.928	607.88
443.149	599.88
443.371	642.88
443.592	677.88
443.813	765.88
444.034	827.88
444.255	659.88
444.476	643.88
444.698	618.88
444.919	641.88
445.14	723.88
445.361	669.88
445.582	642.88
445.803	681.88
446.024	778.88
446.245	782.88
446.466	737.88
446.687	611.88
446.908	596.88
447.129	586.88
447.35	558.88
447.571	555.88
447.792	538.88
448.013	540.88
448.234	540.88
448.455	585.88
448.675	711.88
448.896	813.88
449.117	691.88
449.338	659.88
449.559	764.88
449.779	867.88
450	682.88
450.221	571.88
450.442	548.88
450.662	522.88
450.883	539.88
451.104	536.88
451.324	534.88
451.545	516.88
451.766	505.88
451.986	475.88
452.207	486.88
452.428	502.88
452.648	486.88
452.869	478.88
453.089	480.88
453.31	511.88
453.53	501.88
453.751	490.88
453.971	491.88
454.192	476.88
454.412	476.88
454.633	476.88
454.853	475.88
455.073	468.88
455.294	512.88
455.514	575.88
455.734	545.88
455.955	475.88
456.175	506.88
456.395	457.88
456.616	465.88
456.836	461.88
457.056	444.88
457.276	453.88
457.497	449.88
457.717	467.88
457.937	485.88
458.157	474.88
458.377	486.88
458.598	501.88
458.818	505.88
459.038	579.88
459.258	613.88
459.478	586.88
459.698	525.88
459.918	528.88
460.138	556.88
460.358	547.88
460.578	561.88
460.798	530.88
461.018	535.88
461.238	551.88
461.458	553.88
461.678	540.88
461.898	563.88
462.118	553.88
462.338	562.88
462.558	570.88
462.777	591.88
462.997	619.88
463.217	637.88
463.437	643.88
463.657	613.88
463.876	569.88
464.096	618.88
464.316	586.88
464.536	597.88
464.755	603.88
464.975	595.88
465.195	598.88
465.414	618.88
465.634	576.88
465.854	564.88
466.073	536.88
466.293	516.88
466.512	510.88
466.732	509.88
466.951	515.88
467.171	516.88
467.391	491.88
467.61	491.88
467.829	510.88
468.049	528.88
468.268	503.88
468.488	531.88
468.707	492.88
468.927	487.88
469.146	501.88
469.365	483.88
469.585	466.88
469.804	489.88
470.023	526.88
470.243	513.88
470.462	525.88
470.681	525.88
470.901	504.88
471.12	524.88
471.339	526.88
471.558	523.88
471.777	520.88
471.997	506.88
472.216	519.88
472.435	524.88
472.654	517.88
472.873	507.88
473.092	521.88
473.311	494.88
473.53	508.88
473.749	525.88
473.968	546.88
474.187	642.88
474.406	653.88
474.625	547.88
474.844	525.88
475.063	503.88
475.282	531.88
475.501	513.88
475.72	538.88
475.939	517.88
476.158	515.88
476.377	526.88
476.596	530.88
476.814	524.88
477.033	528.88
477.252	534.88
477.471	562.88
477.69	545.88
477.908	561.88
478.127	580.88
478.346	569.88
478.564	577.88
478.783	584.88
479.002	585.88
479.22	601.88
479.439	596.88
479.658	635.88
479.876	611.88
480.095	639.88
480.313	663.88
480.532	647.88
480.751	656.88
480.969	656.88
481.188	649.88
481.406	680.88
481.624	634.88
481.843	616.88
482.061	602.88
482.28	611.88
482.498	594.88
482.717	592.88
482.935	603.88
483.153	600.88
483.372	601.88
483.59	608.88
483.808	581.88
484.027	588.88
484.245	605.88
484.463	606.88
484.681	614.88
484.9	624.88
485.118	612.88
485.336	608.88
485.554	615.88
485.772	617.88
485.99	621.88
486.209	610.88
486.427	628.88
486.645	636.88
486.863	637.88
487.081	645.88
487.299	653.88
487.517	642.88
487.735	645.88
487.953	645.88
488.171	641.88
488.389	650.88
488.607	642.88
488.825	633.88
489.043	610.88
489.261	649.88
489.479	646.88
489.696	622.88
489.914	671.88
490.132	647.88
490.35	667.88
490.568	705.88
490.786	710.88
491.003	687.88
491.221	730.88
491.439	748.88
491.657	742.88
491.874	745.88
492.092	717.88
492.31	755.88
492.527	724.88
492.745	748.88
492.963	755.88
493.18	744.88
493.398	741.88
493.615	757.88
493.833	762.88
494.05	772.88
494.268	749.88
494.485	735.88
494.703	766.88
494.92	759.88
495.138	762.88
495.355	754.88
495.573	734.88
495.79	742.88
496.008	757.88
496.225	767.88
496.442	759.88
496.66	753.88
496.877	737.88
497.094	748.88
497.312	772.88
497.529	798.88
497.746	819.88
497.963	808.88
498.181	820.88
498.398	831.88
498.615	859.88
498.832	881.88
499.049	911.88
499.267	925.88
499.484	989.88
499.701	1039.88
499.918	1093.88
500.135	1166.88
500.352	1228.88
500.569	1213.88
500.786	1242.88
501.003	1205.88
501.22	1167.88
501.437	1079.88
501.654	1049.88
501.871	1018.88
502.088	978.88
502.305	927.88
502.522	918.88
502.739	858.88
502.956	862.88
503.172	827.88
503.389	817.88
503.606	801.88
503.823	788.88
504.04	799.88
504.256	781.88
504.473	752.88
504.69	795.88
504.907	766.88
505.123	735.88
505.34	729.88
505.557	717.88
505.773	716.88
505.99	701.88
506.207	703.88
506.423	729.88
506.64	707.88
506.856	713.88
507.073	691.88
507.289	700.88
507.506	674.88
507.722	663.88
507.939	679.88
508.155	680.88
508.372	659.88
508.588	650.88
508.805	641.88
509.021	673.88
509.238	686.88
509.454	654.88
509.67	666.88
509.887	663.88
510.103	669.88
510.319	646.88
510.536	694.88
510.752	949.88
510.968	857.88
511.184	669.88
511.401	633.88
511.617	627.88
511.833	602.88
512.049	618.88
512.265	640.88
512.481	625.88
512.698	615.88
512.914	642.88
513.13	641.88
513.346	636.88
513.562	627.88
513.778	607.88
513.994	623.88
514.21	636.88
514.426	616.88
514.642	646.88
514.858	662.88
515.074	682.88
515.29	751.88
515.506	934.88
515.721	844.88
515.937	689.88
516.153	683.88
516.369	661.88
516.585	666.88
516.801	653.88
517.016	658.88
517.232	677.88
517.448	662.88
517.664	683.88
517.879	699.88
518.095	656.88
518.311	661.88
518.527	673.88
518.742	651.88
518.958	671.88
519.173	647.88
519.389	644.88
519.605	632.88
519.82	626.88
520.036	646.88
520.251	626.88
520.467	660.88
520.682	648.88
520.898	627.88
521.113	655.88
521.329	682.88
521.544	701.88
521.76	809.88
521.975	1127.88
522.19	1117.88
522.406	751.88
522.621	638.88
522.836	601.88
523.052	597.88
523.267	611.88
523.482	563.88
523.698	587.88
523.913	591.88
524.128	565.88
524.343	531.88
524.559	549.88
524.774	546.88
524.989	550.88
525.204	558.88
525.419	541.88
525.634	529.88
525.849	530.88
526.064	531.88
526.28	526.88
526.495	525.88
526.71	534.88
526.925	510.88
527.14	523.88
527.355	519.88
527.57	543.88
527.785	528.88
527.999	511.88
528.214	515.88
528.429	517.88
528.644	525.88
528.859	540.88
529.074	538.88
529.289	530.88
529.503	598.88
529.718	563.88
529.933	543.88
530.148	539.88
530.363	527.88
530.577	539.88
530.792	523.88
531.007	506.88
531.221	522.88
531.436	487.88
531.651	501.88
531.865	511.88
532.08	504.88
532.295	485.88
532.509	501.88
532.724	507.88
532.938	509.88
533.153	518.88
533.367	515.88
533.582	542.88
533.796	511.88
534.011	485.88
534.225	496.88
534.44	478.88
534.654	502.88
534.868	507.88
535.083	511.88
535.297	507.88
535.511	515.88
535.726	526.88
535.94	505.88
536.154	482.88
536.369	494.88
536.583	494.88
536.797	489.88
537.011	498.88
537.225	472.88
537.44	471.88
537.654	474.88
537.868	471.88
538.082	467.88
538.296	501.88
538.51	490.88
538.724	480.88
538.938	500.88
539.153	490.88
539.367	498.88
539.581	474.88
539.795	465.88
540.009	475.88
540.222	471.88
540.436	487.88
540.65	474.88
540.864	481.88
541.078	490.88
541.292	489.88
541.506	499.88
541.72	486.88
541.934	472.88
542.147	485.88
542.361	478.88
542.575	482.88
542.789	497.88
543.002	467.88
543.216	494.88
543.43	489.88
543.644	486.88
543.857	508.88
544.071	494.88
544.285	505.88
544.498	487.88
544.712	475.88
544.925	498.88
545.139	507.88
545.352	498.88
545.566	502.88
545.779	458.88
545.993	500.88
546.206	490.88
546.42	495.88
546.633	502.88
546.847	462.88
547.06	490.88
547.274	484.88
547.487	463.88
547.7	484.88
547.914	464.88
548.127	477.88
548.34	478.88
548.554	472.88
548.767	497.88
548.98	478.88
549.193	486.88
549.407	494.88
549.62	470.88
549.833	506.88
550.046	476.88
550.259	474.88
550.473	466.88
550.686	487.88
550.899	482.88
551.112	471.88
551.325	478.88
551.538	466.88
551.751	462.88
551.964	472.88
552.177	478.88
552.39	478.88
552.603	490.88
552.816	499.88
553.029	512.88
553.242	492.88
553.455	489.88
553.667	504.88
553.88	516.88
554.093	479.88
554.306	487.88
554.519	504.88
554.732	488.88
554.944	489.88
555.157	459.88
555.37	467.88
555.583	458.88
555.795	473.88
556.008	473.88
556.221	434.88
556.433	423.88
556.646	449.88
556.859	445.88
557.071	420.88
557.284	439.88
557.496	426.88
557.709	428.88
557.921	442.88
558.134	415.88
558.346	430.88
558.559	441.88
558.771	442.88
558.984	434.88
559.196	411.88
559.409	424.88
559.621	438.88
559.833	407.88
560.046	412.88
560.258	419.88
560.47	425.88
560.683	420.88
560.895	423.88
561.107	414.88
561.32	429.88
561.532	435.88
561.744	417.88
561.956	435.88
562.168	412.88
562.381	418.88
562.593	437.88
562.805	421.88
563.017	431.88
563.229	442.88
563.441	420.88
563.653	424.88
563.865	425.88
564.077	457.88
564.289	441.88
564.501	462.88
564.713	443.88
564.925	452.88
565.137	465.88
565.349	466.88
565.561	486.88
565.773	473.88
565.985	478.88
566.197	509.88
566.408	505.88
566.62	539.88
566.832	558.88
567.044	550.88
567.255	565.88
567.467	572.88
567.679	578.88
567.891	585.88
568.102	610.88
568.314	571.88
568.526	546.88
568.737	541.88
568.949	503.88
569.161	497.88
569.372	477.88
569.584	457.88
569.795	447.88
570.007	430.88
570.218	473.88
570.43	456.88
570.641	459.88
570.853	407.88
571.064	420.88
571.276	430.88
571.487	417.88
571.698	393.88
571.91	404.88
572.121	403.88
572.333	412.88
572.544	399.88
572.755	362.88
572.966	383.88
573.178	367.88
573.389	384.88
573.6	383.88
573.811	371.88
574.023	351.88
574.234	367.88
574.445	363.88
574.656	370.88
574.867	366.88
575.078	358.88
575.289	364.88
575.501	387.88
575.712	353.88
575.923	358.88
576.134	354.88
576.345	365.88
576.556	355.88
576.767	350.88
576.978	357.88
577.188	343.88
577.399	372.88
577.61	366.88
577.821	356.88
578.032	345.88
578.243	372.88
578.454	461.88
578.665	394.88
578.875	333.88
579.086	333.88
579.297	319.88
579.508	338.88
579.718	342.88
579.929	339.88
580.14	337.88
580.35	334.88
580.561	325.88
580.772	322.88
580.982	343.88
581.193	353.88
581.403	331.88
581.614	324.88
581.825	322.88
582.035	336.88
582.246	330.88
582.456	336.88
582.667	318.88
582.877	326.88
583.087	327.88
583.298	338.88
583.508	334.88
583.719	339.88
583.929	333.88
584.139	314.88
584.35	301.88
584.56	323.88
584.77	318.88
584.981	342.88
585.191	328.88
585.401	329.88
585.611	327.88
585.821	309.88
586.032	315.88
586.242	319.88
586.452	332.88
586.662	328.88
586.872	326.88
587.082	330.88
587.292	319.88
587.502	293.88
587.713	307.88
587.923	317.88
588.133	312.88
588.343	333.88
588.553	311.88
588.762	323.88
588.972	316.88
589.182	323.88
589.392	330.88
589.602	309.88
589.812	313.88
590.022	310.88
590.232	303.88
590.441	320.88
590.651	319.88
590.861	311.88
591.071	321.88
591.281	317.88
591.49	321.88
591.7	318.88
591.91	325.88
592.119	336.88
592.329	320.88
592.539	343.88
592.748	345.88
592.958	362.88
593.167	340.88
593.377	345.88
593.587	351.88
593.796	349.88
594.006	330.88
594.215	343.88
594.424	350.88
594.634	347.88
594.843	340.88
595.053	353.88
595.262	341.88
595.472	343.88
595.681	321.88
595.89	313.88
596.1	316.88
596.309	288.88
596.518	314.88
596.727	317.88
596.937	310.88
597.146	315.88
597.355	309.88
597.564	303.88
597.774	300.88
597.983	282.88
598.192	276.88
598.401	281.88
598.61	273.88
598.819	299.88
599.028	301.88
599.237	281.88
599.446	285.88
599.655	289.88
599.864	281.88
600.073	281.88
600.282	269.88
600.491	267.88
600.7	292.88
600.909	274.88
601.118	278.88
601.327	303.88
601.536	293.88
601.745	287.88
601.953	290.88
602.162	284.88
602.371	273.88
602.58	288.88
602.789	284.88
602.997	283.88
603.206	287.88
603.415	275.88
603.623	271.88
603.832	285.88
604.041	267.88
604.249	279.88
604.458	261.88
604.666	281.88
604.875	275.88
605.084	267.88
605.292	263.88
605.501	268.88
605.709	269.88
605.918	261.88
606.126	259.88
606.334	262.88
606.543	269.88
606.751	263.88
606.96	272.88
607.168	258.88
607.376	260.88
607.585	291.88
607.793	274.88
608.001	265.88
608.21	265.88
608.418	280.88
608.626	271.88
608.834	267.88
609.043	282.88
609.251	250.88
609.459	275.88
609.667	279.88
609.875	258.88
610.083	269.88
610.291	269.88
610.499	261.88
610.707	270.88
610.916	259.88
611.124	258.88
611.332	273.88
611.54	265.88
611.748	256.88
611.955	281.88
612.163	261.88
612.371	265.88
612.579	251.88
612.787	268.88
612.995	261.88
613.203	269.88
613.411	271.88
613.618	267.88
613.826	245.88
614.034	266.88
614.242	255.88
614.449	249.88
614.657	249.88
614.865	272.88
615.072	271.88
615.28	261.88
615.488	255.88
615.695	245.88
615.903	258.88
616.111	265.88
616.318	266.88
616.526	247.88
616.733	251.88
616.941	269.88
617.148	277.88
617.356	265.88
617.563	249.88
617.771	245.88
617.978	242.88
618.185	233.88
618.393	268.88
618.6	265.88
618.807	257.88
619.015	262.88
619.222	261.88
619.429	228.88
619.637	246.88
619.844	263.88
620.051	234.88
620.258	248.88
620.466	247.88
620.673	246.88
620.88	239.88
621.087	268.88
621.294	231.88
621.501	272.88
621.708	260.88
621.915	259.88
622.122	244.88
622.329	237.88
622.536	243.88
622.743	233.88
622.95	231.88
623.157	242.88
623.364	233.88
623.571	232.88
623.778	251.88
623.985	245.88
624.192	225.88
624.399	238.88
624.606	244.88
624.812	223.88
625.019	251.88
625.226	243.88
625.433	249.88
625.639	212.88
625.846	229.88
626.053	237.88
626.259	232.88
626.466	230.88
626.673	232.88
626.879	218.88
627.086	207.88
627.293	206.88
627.499	212.88
627.706	227.88
627.912	213.88
628.119	224.88
628.325	237.88
628.532	218.88
628.738	209.88
628.945	213.88
629.151	211.88
629.357	213.88
629.564	210.88
629.77	209.88
629.976	202.88
630.183	206.88
630.389	218.88
630.595	196.88
630.802	218.88
631.008	207.88
631.214	219.88
631.42	233.88
631.627	217.88
631.833	209.88
632.039	207.88
632.245	212.88
632.451	197.88
632.657	199.88
632.863	213.88
633.069	199.88
633.275	197.88
633.481	193.88
633.688	186.88
633.893	200.88
634.099	205.88
634.305	200.88
634.511	203.88
634.717	194.88
634.923	203.88
635.129	203.88
635.335	203.88
635.541	203.88
635.747	197.88
635.952	191.88
636.158	197.88
636.364	182.88
636.57	201.88
636.775	202.88
636.981	199.88
637.187	189.88
637.392	210.88
637.598	194.88
637.804	203.88
638.009	193.88
638.215	199.88
638.421	179.88
638.626	189.88
638.832	181.88
639.037	183.88
639.243	187.88
639.448	180.88
639.654	203.88
639.859	189.88
640.065	186.88
640.27	193.88
640.475	183.88
640.681	195.88
640.886	199.88
641.091	179.88
641.297	175.88
641.502	191.88
641.707	175.88
641.913	168.88
642.118	191.88
642.323	180.88
642.528	171.88
642.733	193.88
642.939	192.88
643.144	173.88
643.349	189.88
643.554	182.88
643.759	169.88
643.964	191.88
644.169	187.88
644.374	191.88
644.579	188.88
644.784	174.88
644.989	185.88
645.194	188.88
645.399	182.88
645.604	185.88
645.809	168.88
646.014	178.88
646.219	187.88
646.423	193.88
646.628	187.88
646.833	170.88
647.038	168.88
647.243	162.88
647.447	169.88
647.652	183.88
647.857	182.88
648.062	185.88
648.266	173.88
648.471	185.88
648.676	184.88
648.88	192.88
649.085	178.88
649.289	183.88
649.494	184.88
649.698	194.88
649.903	186.88
650.107	189.88
650.312	191.88
650.516	187.88
650.721	190.88
650.925	168.88
651.13	167.88
651.334	156.88
651.539	155.88
651.743	156.88
651.947	161.88
652.152	163.88
652.356	151.88
652.56	158.88
652.764	168.88
652.969	152.88
653.173	149.88
653.377	139.88
653.581	129.88
653.785	151.88
653.99	165.88
654.194	144.88
654.398	153.88
654.602	146.88
654.806	157.88
655.01	164.88
655.214	149.88
655.418	151.88
655.622	148.88
655.826	134.88
656.03	150.88
656.234	141.88
656.438	140.88
656.642	160.88
656.846	147.88
657.049	133.88
657.253	124.88
657.457	118.88
657.661	119.88
657.865	127.88
658.068	106.88
658.272	117.88
658.476	94.88
658.68	102.88
658.883	103.88
659.087	102.88
659.291	98.88
659.494	100.88
659.698	81.88
659.901	95.88
660.105	82.88
660.309	98.88
660.512	83.88
660.716	96.88
660.919	91.88
661.123	100.88
661.326	83.88
661.53	85.88
661.733	96.88
661.936	94.88
662.14	90.88
662.343	94.88
662.546	97.88
662.75	79.88
662.953	84.88
663.156	73.88
663.36	98.88
663.563	90.88
663.766	75.88
663.969	95.88
664.173	79.88
664.376	78.88
664.579	74.88
664.782	87.88
664.985	98.88
665.188	71.88
665.391	80.88
665.594	88.88
665.797	87.88
666	74.88
666.203	73.88
666.406	101.88
666.609	89.88
666.812	83.88
667.015	103.88
667.218	93.88
667.421	92.88
667.624	88.88
667.827	84.88
668.03	85.88
668.232	83.88
668.435	74.88
668.638	92.88
668.841	70.88
669.043	89.88
669.246	71.88
669.449	90.88
669.651	81.88
669.854	81.88
670.057	78.88
670.259	86.88
670.462	84.88
670.665	78.88
670.867	85.88
671.07	90.88
671.272	87.88
671.475	109.88
671.677	97.88
671.88	76.88
672.082	72.88
672.284	83.88
672.487	90.88
672.689	92.88
672.892	63.88
