Data from 1974.PennyLincolnUp.Lamp.En5.5.200Scan.071719.P1.Changed Mount._HRD10591_15-51-54-857.txt Node
Date: Thu Jul 18 15:51:54 EDT 2019
User: cochatt
Spectrometer: HR+D1059
Trigger mode: 1
Integration Time (sec): 1.000000E-1
Scans to average: 1
Electric dark correction enabled: true
Nonlinearity correction enabled: false
Boxcar width: 0
XAxis mode: Wavelengths
Number of Pixels in Spectrum: 2048
>>>>>Begin Spectral Data<<<<<
223.165	-8.19
223.4	-8.19
223.635	-8.19
223.869	-20.19
224.104	-6.19
224.338	-12.19
224.573	-14.19
224.808	-0.19
225.042	-6.19
225.277	-14.19
225.511	5.81
225.746	-2.19
225.98	-4.19
226.215	1.81
226.449	17.81
226.683	8.81
226.918	25.81
227.152	27.81
227.387	35.81
227.621	26.81
227.856	41.81
228.09	49.81
228.324	53.81
228.559	66.81
228.793	58.81
229.027	100.81
229.262	107.81
229.496	113.81
229.73	129.81
229.964	161.81
230.199	142.81
230.433	116.81
230.667	101.81
230.901	112.81
231.136	107.81
231.37	96.81
231.604	113.81
231.838	103.81
232.072	119.81
232.306	119.81
232.541	125.81
232.775	119.81
233.009	124.81
233.243	123.81
233.477	108.81
233.711	109.81
233.945	120.81
234.179	119.81
234.413	108.81
234.647	124.81
234.881	112.81
235.115	107.81
235.349	126.81
235.583	123.81
235.817	120.81
236.051	115.81
236.285	134.81
236.519	132.81
236.753	117.81
236.987	136.81
237.221	175.81
237.455	221.81
237.689	164.81
237.922	152.81
238.156	115.81
238.39	139.81
238.624	125.81
238.858	128.81
239.091	120.81
239.325	127.81
239.559	136.81
239.793	139.81
240.027	144.81
240.26	158.81
240.494	151.81
240.728	139.81
240.961	165.81
241.195	147.81
241.429	135.81
241.662	135.81
241.896	137.81
242.13	137.81
242.363	137.81
242.597	148.81
242.83	158.81
243.064	141.81
243.298	144.81
243.531	127.81
243.765	145.81
243.998	151.81
244.232	140.81
244.465	143.81
244.699	146.81
244.932	151.81
245.166	146.81
245.399	147.81
245.633	149.81
245.866	166.81
246.099	141.81
246.333	148.81
246.566	149.81
246.8	145.81
247.033	179.81
247.266	168.81
247.5	162.81
247.733	171.81
247.966	179.81
248.2	175.81
248.433	190.81
248.666	178.81
248.899	176.81
249.133	196.81
249.366	205.81
249.599	183.81
249.832	179.81
250.066	190.81
250.299	180.81
250.532	193.81
250.765	228.81
250.998	231.81
251.231	245.81
251.465	215.81
251.698	201.81
251.931	211.81
252.164	205.81
252.397	202.81
252.63	213.81
252.863	208.81
253.096	208.81
253.329	219.81
253.562	219.81
253.795	222.81
254.028	214.81
254.261	219.81
254.494	208.81
254.727	232.81
254.96	269.81
255.193	272.81
255.426	245.81
255.659	233.81
255.892	227.81
256.124	245.81
256.357	225.81
256.59	217.81
256.823	213.81
257.056	223.81
257.289	210.81
257.521	221.81
257.754	207.81
257.987	217.81
258.22	200.81
258.452	226.81
258.685	233.81
258.918	223.81
259.151	201.81
259.383	228.81
259.616	200.81
259.849	216.81
260.081	212.81
260.314	248.81
260.547	248.81
260.779	244.81
261.012	233.81
261.244	225.81
261.477	233.81
261.71	227.81
261.942	230.81
262.175	234.81
262.407	250.81
262.64	219.81
262.872	224.81
263.105	230.81
263.337	214.81
263.57	220.81
263.802	230.81
264.035	226.81
264.267	241.81
264.499	225.81
264.732	223.81
264.964	230.81
265.197	229.81
265.429	232.81
265.661	241.81
265.894	240.81
266.126	234.81
266.358	233.81
266.591	228.81
266.823	242.81
267.055	230.81
267.287	243.81
267.52	241.81
267.752	226.81
267.984	248.81
268.216	255.81
268.448	242.81
268.681	251.81
268.913	238.81
269.145	265.81
269.377	281.81
269.609	268.81
269.841	279.81
270.073	282.81
270.306	295.81
270.538	305.81
270.77	316.81
271.002	305.81
271.234	293.81
271.466	306.81
271.698	328.81
271.93	326.81
272.162	323.81
272.394	307.81
272.626	318.81
272.858	293.81
273.09	282.81
273.322	278.81
273.553	259.81
273.785	275.81
274.017	273.81
274.249	289.81
274.481	289.81
274.713	282.81
274.945	270.81
275.176	262.81
275.408	269.81
275.64	270.81
275.872	267.81
276.104	270.81
276.335	281.81
276.567	288.81
276.799	285.81
277.031	287.81
277.262	311.81
277.494	318.81
277.726	309.81
277.957	274.81
278.189	282.81
278.421	283.81
278.652	280.81
278.884	280.81
279.115	299.81
279.347	273.81
279.579	289.81
279.81	291.81
280.042	285.81
280.273	284.81
280.505	270.81
280.736	279.81
280.968	282.81
281.199	287.81
281.431	279.81
281.662	267.81
281.894	289.81
282.125	281.81
282.356	289.81
282.588	297.81
282.819	308.81
283.051	284.81
283.282	313.81
283.513	281.81
283.745	287.81
283.976	275.81
284.207	305.81
284.439	291.81
284.67	291.81
284.901	308.81
285.132	298.81
285.364	263.81
285.595	303.81
285.826	289.81
286.057	289.81
286.288	294.81
286.52	290.81
286.751	307.81
286.982	293.81
287.213	290.81
287.444	318.81
287.675	312.81
287.906	332.81
288.138	316.81
288.369	329.81
288.6	314.81
288.831	314.81
289.062	315.81
289.293	300.81
289.524	311.81
289.755	319.81
289.986	312.81
290.217	300.81
290.448	298.81
290.679	316.81
290.91	307.81
291.141	291.81
291.371	320.81
291.602	290.81
291.833	298.81
292.064	302.81
292.295	306.81
292.526	307.81
292.757	287.81
292.987	300.81
293.218	304.81
293.449	305.81
293.68	291.81
293.91	322.81
294.141	299.81
294.372	294.81
294.603	300.81
294.833	316.81
295.064	328.81
295.295	321.81
295.525	293.81
295.756	312.81
295.987	325.81
296.217	327.81
296.448	324.81
296.679	311.81
296.909	329.81
297.14	317.81
297.37	323.81
297.601	304.81
297.831	321.81
298.062	330.81
298.292	331.81
298.523	322.81
298.753	332.81
298.984	333.81
299.214	338.81
299.445	328.81
299.675	333.81
299.905	351.81
300.136	329.81
300.366	329.81
300.597	339.81
300.827	332.81
301.057	328.81
301.288	340.81
301.518	357.81
301.748	353.81
301.979	341.81
302.209	345.81
302.439	341.81
302.669	338.81
302.9	373.81
303.13	345.81
303.36	336.81
303.59	335.81
303.82	366.81
304.051	362.81
304.281	357.81
304.511	355.81
304.741	348.81
304.971	357.81
305.201	356.81
305.431	336.81
305.661	356.81
305.891	338.81
306.121	353.81
306.352	333.81
306.582	359.81
306.812	344.81
307.042	344.81
307.272	342.81
307.502	351.81
307.731	351.81
307.961	353.81
308.191	339.81
308.421	343.81
308.651	355.81
308.881	355.81
309.111	363.81
309.341	360.81
309.571	359.81
309.8	381.81
310.03	368.81
310.26	398.81
310.49	384.81
310.72	369.81
310.949	391.81
311.179	401.81
311.409	393.81
311.639	384.81
311.868	388.81
312.098	391.81
312.328	372.81
312.557	383.81
312.787	396.81
313.017	392.81
313.246	392.81
313.476	364.81
313.706	401.81
313.935	389.81
314.165	395.81
314.394	407.81
314.624	396.81
314.853	389.81
315.083	383.81
315.312	397.81
315.542	390.81
315.771	396.81
316.001	385.81
316.23	390.81
316.46	383.81
316.689	385.81
316.919	383.81
317.148	401.81
317.377	391.81
317.607	409.81
317.836	386.81
318.065	405.81
318.295	406.81
318.524	401.81
318.753	396.81
318.983	389.81
319.212	371.81
319.441	406.81
319.67	395.81
319.9	413.81
320.129	396.81
320.358	394.81
320.587	407.81
320.816	400.81
321.046	412.81
321.275	396.81
321.504	391.81
321.733	387.81
321.962	418.81
322.191	409.81
322.42	418.81
322.649	441.81
322.878	441.81
323.108	437.81
323.337	474.81
323.566	478.81
323.795	474.81
324.024	517.81
324.253	581.81
324.482	781.81
324.71	1162.81
324.939	1745.81
325.168	1517.81
325.397	805.81
325.626	578.81
325.855	505.81
326.084	473.81
326.313	473.81
326.542	483.81
326.77	504.81
326.999	544.81
327.228	732.81
327.457	1092.81
327.686	1315.81
327.914	892.81
328.143	623.81
328.372	551.81
328.6	515.81
328.829	525.81
329.058	523.81
329.287	542.81
329.515	508.81
329.744	519.81
329.972	489.81
330.201	491.81
330.43	514.81
330.658	531.81
330.887	558.81
331.115	543.81
331.344	511.81
331.572	492.81
331.801	473.81
332.03	518.81
332.258	499.81
332.486	476.81
332.715	464.81
332.943	490.81
333.172	466.81
333.4	460.81
333.629	508.81
333.857	519.81
334.085	520.81
334.314	536.81
334.542	550.81
334.771	550.81
334.999	511.81
335.227	502.81
335.455	481.81
335.684	488.81
335.912	476.81
336.14	482.81
336.369	476.81
336.597	481.81
336.825	467.81
337.053	473.81
337.281	478.81
337.51	444.81
337.738	473.81
337.966	449.81
338.194	470.81
338.422	462.81
338.65	453.81
338.878	462.81
339.106	460.81
339.334	468.81
339.562	463.81
339.79	444.81
340.018	451.81
340.246	461.81
340.474	472.81
340.702	453.81
340.93	458.81
341.158	439.81
341.386	449.81
341.614	472.81
341.842	466.81
342.07	458.81
342.298	461.81
342.526	439.81
342.754	433.81
342.981	448.81
343.209	450.81
343.437	458.81
343.665	455.81
343.893	481.81
344.12	473.81
344.348	483.81
344.576	486.81
344.804	479.81
345.031	464.81
345.259	492.81
345.487	491.81
345.714	470.81
345.942	453.81
346.17	465.81
346.397	434.81
346.625	436.81
346.853	441.81
347.08	434.81
347.308	440.81
347.535	426.81
347.763	439.81
347.99	458.81
348.218	452.81
348.445	431.81
348.673	425.81
348.9	436.81
349.128	451.81
349.355	436.81
349.583	440.81
349.81	439.81
350.037	441.81
350.265	428.81
350.492	422.81
350.72	425.81
350.947	425.81
351.174	450.81
351.402	448.81
351.629	460.81
351.856	433.81
352.083	425.81
352.311	437.81
352.538	457.81
352.765	456.81
352.992	462.81
353.22	441.81
353.447	434.81
353.674	441.81
353.901	418.81
354.128	433.81
354.355	437.81
354.583	418.81
354.81	429.81
355.037	426.81
355.264	416.81
355.491	412.81
355.718	408.81
355.945	413.81
356.172	398.81
356.399	427.81
356.626	430.81
356.853	417.81
357.08	410.81
357.307	421.81
357.534	412.81
357.761	426.81
357.988	418.81
358.215	417.81
358.441	427.81
358.668	406.81
358.895	418.81
359.122	419.81
359.349	424.81
359.576	419.81
359.802	433.81
360.029	470.81
360.256	476.81
360.483	455.81
360.709	427.81
360.936	420.81
361.163	455.81
361.39	424.81
361.616	442.81
361.843	433.81
362.07	421.81
362.296	456.81
362.523	451.81
362.749	446.81
362.976	442.81
363.203	427.81
363.429	432.81
363.656	421.81
363.882	411.81
364.109	435.81
364.335	448.81
364.562	424.81
364.788	437.81
365.015	422.81
365.241	431.81
365.468	409.81
365.694	443.81
365.92	448.81
366.147	420.81
366.373	427.81
366.599	433.81
366.826	434.81
367.052	416.81
367.278	428.81
367.505	441.81
367.731	421.81
367.957	443.81
368.184	445.81
368.41	432.81
368.636	443.81
368.862	454.81
369.089	452.81
369.315	434.81
369.541	458.81
369.767	455.81
369.993	434.81
370.219	433.81
370.445	433.81
370.672	434.81
370.898	429.81
371.124	442.81
371.35	452.81
371.576	434.81
371.802	428.81
372.028	435.81
372.254	457.81
372.48	444.81
372.706	451.81
372.932	448.81
373.158	453.81
373.384	435.81
373.61	451.81
373.835	433.81
374.061	435.81
374.287	443.81
374.513	433.81
374.739	468.81
374.965	475.81
375.191	479.81
375.416	471.81
375.642	444.81
375.868	455.81
376.094	442.81
376.319	432.81
376.545	448.81
376.771	461.81
376.997	451.81
377.222	440.81
377.448	449.81
377.674	461.81
377.899	436.81
378.125	457.81
378.35	447.81
378.576	436.81
378.802	459.81
379.027	465.81
379.253	447.81
379.478	457.81
379.704	447.81
379.929	464.81
380.155	442.81
380.38	425.81
380.606	443.81
380.831	444.81
381.057	474.81
381.282	454.81
381.507	458.81
381.733	440.81
381.958	472.81
382.184	464.81
382.409	445.81
382.634	472.81
382.86	467.81
383.085	474.81
383.31	472.81
383.535	488.81
383.761	480.81
383.986	485.81
384.211	466.81
384.436	479.81
384.662	487.81
384.887	511.81
385.112	470.81
385.337	479.81
385.562	482.81
385.787	497.81
386.013	504.81
386.238	489.81
386.463	491.81
386.688	505.81
386.913	488.81
387.138	473.81
387.363	496.81
387.588	513.81
387.813	505.81
388.038	496.81
388.263	501.81
388.488	493.81
388.713	503.81
388.938	500.81
389.163	505.81
389.387	516.81
389.612	507.81
389.837	491.81
390.062	481.81
390.287	526.81
390.512	492.81
390.736	505.81
390.961	498.81
391.186	519.81
391.411	519.81
391.636	537.81
391.86	543.81
392.085	539.81
392.31	537.81
392.534	523.81
392.759	511.81
392.984	496.81
393.208	514.81
393.433	514.81
393.658	501.81
393.882	507.81
394.107	533.81
394.331	526.81
394.556	521.81
394.78	496.81
395.005	492.81
395.229	513.81
395.454	519.81
395.678	526.81
395.903	533.81
396.127	538.81
396.352	560.81
396.576	548.81
396.801	505.81
397.025	516.81
397.249	523.81
397.474	532.81
397.698	522.81
397.922	539.81
398.147	582.81
398.371	577.81
398.595	560.81
398.82	578.81
399.044	587.81
399.268	623.81
399.492	685.81
399.717	683.81
399.941	731.81
400.165	748.81
400.389	731.81
400.613	653.81
400.837	611.81
401.062	609.81
401.286	595.81
401.51	576.81
401.734	582.81
401.958	598.81
402.182	602.81
402.406	602.81
402.63	596.81
402.854	624.81
403.078	615.81
403.302	603.81
403.526	616.81
403.75	623.81
403.974	630.81
404.198	623.81
404.422	632.81
404.645	602.81
404.869	620.81
405.093	649.81
405.317	693.81
405.541	725.81
405.765	658.81
405.988	640.81
406.212	633.81
406.436	642.81
406.66	671.81
406.883	628.81
407.107	679.81
407.331	705.81
407.555	792.81
407.778	785.81
408.002	745.81
408.226	677.81
408.449	651.81
408.673	668.81
408.896	689.81
409.12	724.81
409.344	697.81
409.567	656.81
409.791	612.81
410.014	602.81
410.238	624.81
410.461	623.81
410.685	641.81
410.908	601.81
411.132	641.81
411.355	691.81
411.578	679.81
411.802	623.81
412.025	618.81
412.249	626.81
412.472	647.81
412.695	685.81
412.919	682.81
413.142	607.81
413.365	595.81
413.589	628.81
413.812	586.81
414.035	563.81
414.258	592.81
414.482	572.81
414.705	593.81
414.928	572.81
415.151	575.81
415.374	581.81
415.597	572.81
415.821	579.81
416.044	564.81
416.267	582.81
416.49	581.81
416.713	580.81
416.936	570.81
417.159	577.81
417.382	593.81
417.605	565.81
417.828	569.81
418.051	600.81
418.274	621.81
418.497	566.81
418.72	596.81
418.943	605.81
419.166	597.81
419.389	635.81
419.611	605.81
419.834	613.81
420.057	614.81
420.28	624.81
420.503	603.81
420.726	588.81
420.948	625.81
421.171	645.81
421.394	650.81
421.617	610.81
421.839	609.81
422.062	597.81
422.285	610.81
422.507	670.81
422.73	758.81
422.953	740.81
423.175	673.81
423.398	639.81
423.621	648.81
423.843	648.81
424.066	644.81
424.288	655.81
424.511	668.81
424.733	709.81
424.956	799.81
425.178	746.81
425.401	721.81
425.623	766.81
425.846	661.81
426.068	661.81
426.291	615.81
426.513	618.81
426.735	636.81
426.958	692.81
427.18	769.81
427.402	907.81
427.625	959.81
427.847	837.81
428.069	748.81
428.292	631.81
428.514	614.81
428.736	595.81
428.958	607.81
429.181	583.81
429.403	593.81
429.625	573.81
429.847	619.81
430.069	665.81
430.292	683.81
430.514	577.81
430.736	577.81
430.958	572.81
431.18	560.81
431.402	550.81
431.624	549.81
431.846	579.81
432.068	555.81
432.29	585.81
432.512	556.81
432.734	560.81
432.956	561.81
433.178	569.81
433.4	594.81
433.622	565.81
433.844	570.81
434.066	549.81
434.287	533.81
434.509	564.81
434.731	585.81
434.953	585.81
435.175	600.81
435.397	641.81
435.618	615.81
435.84	671.81
436.062	749.81
436.284	834.81
436.505	682.81
436.727	630.81
436.949	606.81
437.17	570.81
437.392	574.81
437.614	591.81
437.835	630.81
438.057	691.81
438.278	819.81
438.5	821.81
438.721	879.81
438.943	854.81
439.165	703.81
439.386	635.81
439.608	632.81
439.829	621.81
440.05	617.81
440.272	680.81
440.493	656.81
440.715	605.81
440.936	599.81
441.158	582.81
441.379	599.81
441.6	609.81
441.822	606.81
442.043	655.81
442.264	737.81
442.486	781.81
442.707	709.81
442.928	652.81
443.149	652.81
443.371	680.81
443.592	709.81
443.813	803.81
444.034	861.81
444.255	754.81
444.476	680.81
444.698	659.81
444.919	652.81
445.14	770.81
445.361	708.81
445.582	666.81
445.803	730.81
446.024	823.81
446.245	823.81
446.466	767.81
446.687	665.81
446.908	623.81
447.129	591.81
447.35	589.81
447.571	581.81
447.792	589.81
448.013	579.81
448.234	597.81
448.455	627.81
448.675	759.81
448.896	861.81
449.117	744.81
449.338	688.81
449.559	799.81
449.779	909.81
450	733.81
450.221	619.81
450.442	563.81
450.662	564.81
450.883	558.81
451.104	559.81
451.324	562.81
451.545	540.81
451.766	526.81
451.986	521.81
452.207	495.81
452.428	504.81
452.648	495.81
452.869	526.81
453.089	521.81
453.31	537.81
453.53	502.81
453.751	516.81
453.971	512.81
454.192	526.81
454.412	540.81
454.633	501.81
454.853	520.81
455.073	513.81
455.294	537.81
455.514	612.81
455.734	568.81
455.955	533.81
456.175	505.81
456.395	490.81
456.616	484.81
456.836	485.81
457.056	489.81
457.276	466.81
457.497	487.81
457.717	460.81
457.937	484.81
458.157	496.81
458.377	521.81
458.598	515.81
458.818	560.81
459.038	625.81
459.258	651.81
459.478	614.81
459.698	559.81
459.918	559.81
460.138	563.81
460.358	570.81
460.578	576.81
460.798	597.81
461.018	599.81
461.238	593.81
461.458	579.81
461.678	587.81
461.898	578.81
462.118	583.81
462.338	595.81
462.558	623.81
462.777	625.81
462.997	651.81
463.217	649.81
463.437	690.81
463.657	631.81
463.876	639.81
464.096	613.81
464.316	602.81
464.536	639.81
464.755	627.81
464.975	615.81
465.195	629.81
465.414	667.81
465.634	631.81
465.854	579.81
466.073	553.81
466.293	552.81
466.512	549.81
466.732	541.81
466.951	546.81
467.171	539.81
467.391	530.81
467.61	563.81
467.829	566.81
468.049	549.81
468.268	540.81
468.488	525.81
468.707	536.81
468.927	513.81
469.146	511.81
469.365	532.81
469.585	521.81
469.804	560.81
470.023	519.81
470.243	547.81
470.462	554.81
470.681	550.81
470.901	562.81
471.12	559.81
471.339	545.81
471.558	539.81
471.777	540.81
471.997	533.81
472.216	530.81
472.435	535.81
472.654	550.81
472.873	564.81
473.092	523.81
473.311	529.81
473.53	537.81
473.749	530.81
473.968	577.81
474.187	663.81
474.406	689.81
474.625	596.81
474.844	563.81
475.063	546.81
475.282	531.81
475.501	557.81
475.72	569.81
475.939	552.81
476.158	554.81
476.377	552.81
476.596	575.81
476.814	561.81
477.033	571.81
477.252	572.81
477.471	578.81
477.69	583.81
477.908	596.81
478.127	613.81
478.346	621.81
478.564	609.81
478.783	625.81
479.002	610.81
479.22	636.81
479.439	647.81
479.658	653.81
479.876	669.81
480.095	649.81
480.313	669.81
480.532	664.81
480.751	665.81
480.969	658.81
481.188	688.81
481.406	716.81
481.624	676.81
481.843	643.81
482.061	662.81
482.28	641.81
482.498	630.81
482.717	651.81
482.935	640.81
483.153	632.81
483.372	639.81
483.59	629.81
483.808	646.81
484.027	617.81
484.245	631.81
484.463	661.81
484.681	645.81
484.9	662.81
485.118	651.81
485.336	637.81
485.554	631.81
485.772	632.81
485.99	635.81
486.209	645.81
486.427	666.81
486.645	657.81
486.863	686.81
487.081	674.81
487.299	657.81
487.517	658.81
487.735	653.81
487.953	651.81
488.171	673.81
488.389	674.81
488.607	681.81
488.825	687.81
489.043	676.81
489.261	691.81
489.479	716.81
489.696	692.81
489.914	682.81
490.132	701.81
490.35	719.81
490.568	712.81
490.786	748.81
491.003	718.81
491.221	729.81
491.439	776.81
491.657	771.81
491.874	782.81
492.092	762.81
492.31	784.81
492.527	788.81
492.745	773.81
492.963	794.81
493.18	825.81
493.398	810.81
493.615	804.81
493.833	809.81
494.05	800.81
494.268	812.81
494.485	782.81
494.703	793.81
494.92	778.81
495.138	812.81
495.355	809.81
495.573	783.81
495.79	830.81
496.008	808.81
496.225	817.81
496.442	828.81
496.66	798.81
496.877	842.81
497.094	842.81
497.312	832.81
497.529	859.81
497.746	865.81
497.963	848.81
498.181	888.81
498.398	910.81
498.615	903.81
498.832	943.81
499.049	976.81
499.267	1003.81
499.484	1029.81
499.701	1130.81
499.918	1126.81
500.135	1213.81
500.352	1263.81
500.569	1319.81
500.786	1315.81
501.003	1252.81
501.22	1211.81
501.437	1166.81
501.654	1120.81
501.871	1098.81
502.088	1037.81
502.305	1019.81
502.522	948.81
502.739	940.81
502.956	886.81
503.172	858.81
503.389	844.81
503.606	847.81
503.823	837.81
504.04	856.81
504.256	847.81
504.473	855.81
504.69	820.81
504.907	808.81
505.123	813.81
505.34	777.81
505.557	771.81
505.773	764.81
505.99	771.81
506.207	761.81
506.423	756.81
506.64	729.81
506.856	738.81
507.073	731.81
507.289	709.81
507.506	720.81
507.722	748.81
507.939	751.81
508.155	747.81
508.372	743.81
508.588	707.81
508.805	720.81
509.021	708.81
509.238	713.81
509.454	705.81
509.67	706.81
509.887	681.81
510.103	689.81
510.319	711.81
510.536	781.81
510.752	1048.81
510.968	907.81
511.184	682.81
511.401	659.81
511.617	679.81
511.833	667.81
512.049	654.81
512.265	646.81
512.481	669.81
512.698	667.81
512.914	668.81
513.13	637.81
513.346	636.81
513.562	635.81
513.778	644.81
513.994	654.81
514.21	665.81
514.426	679.81
514.642	695.81
514.858	722.81
515.074	745.81
515.29	821.81
515.506	1092.81
515.721	934.81
515.937	754.81
516.153	691.81
516.369	691.81
516.585	693.81
516.801	721.81
517.016	712.81
517.232	707.81
517.448	712.81
517.664	741.81
517.879	739.81
518.095	730.81
518.311	723.81
518.527	724.81
518.742	693.81
518.958	692.81
519.173	710.81
519.389	684.81
519.605	673.81
519.82	663.81
520.036	691.81
520.251	672.81
520.467	705.81
520.682	687.81
520.898	693.81
521.113	690.81
521.329	724.81
521.544	747.81
521.76	905.81
521.975	1316.81
522.19	1280.81
522.406	836.81
522.621	679.81
522.836	633.81
523.052	612.81
523.267	631.81
523.482	606.81
523.698	608.81
523.913	592.81
524.128	593.81
524.343	615.81
524.559	584.81
524.774	571.81
524.989	570.81
525.204	571.81
525.419	570.81
525.634	592.81
525.849	588.81
526.064	559.81
526.28	571.81
526.495	551.81
526.71	568.81
526.925	542.81
527.14	556.81
527.355	544.81
527.57	541.81
527.785	582.81
527.999	553.81
528.214	551.81
528.429	552.81
528.644	556.81
528.859	553.81
529.074	565.81
529.289	555.81
529.503	608.81
529.718	628.81
529.933	571.81
530.148	562.81
530.363	530.81
530.577	539.81
530.792	540.81
531.007	544.81
531.221	546.81
531.436	535.81
531.651	520.81
531.865	523.81
532.08	535.81
532.295	548.81
532.509	536.81
532.724	542.81
532.938	528.81
533.153	525.81
533.367	535.81
533.582	548.81
533.796	548.81
534.011	545.81
534.225	521.81
534.44	533.81
534.654	530.81
534.868	530.81
535.083	532.81
535.297	532.81
535.511	518.81
535.726	544.81
535.94	537.81
536.154	531.81
536.369	501.81
536.583	509.81
536.797	518.81
537.011	486.81
537.225	516.81
537.44	502.81
537.654	521.81
537.868	517.81
538.082	488.81
538.296	524.81
538.51	529.81
538.724	535.81
538.938	516.81
539.153	499.81
539.367	525.81
539.581	519.81
539.795	513.81
540.009	510.81
540.222	501.81
540.436	532.81
540.65	511.81
540.864	511.81
541.078	517.81
541.292	497.81
541.506	506.81
541.72	488.81
541.934	508.81
542.147	517.81
542.361	520.81
542.575	512.81
542.789	481.81
543.002	495.81
543.216	513.81
543.43	503.81
543.644	503.81
543.857	517.81
544.071	501.81
544.285	520.81
544.498	504.81
544.712	523.81
544.925	515.81
545.139	501.81
545.352	506.81
545.566	531.81
545.779	517.81
545.993	521.81
546.206	513.81
546.42	495.81
546.633	517.81
546.847	523.81
547.06	499.81
547.274	505.81
547.487	492.81
547.7	520.81
547.914	489.81
548.127	514.81
548.34	493.81
548.554	519.81
548.767	514.81
548.98	518.81
549.193	507.81
549.407	511.81
549.62	513.81
549.833	535.81
550.046	517.81
550.259	490.81
550.473	476.81
550.686	504.81
550.899	514.81
551.112	483.81
551.325	481.81
551.538	511.81
551.751	489.81
551.964	498.81
552.177	487.81
552.39	493.81
552.603	507.81
552.816	521.81
553.029	513.81
553.242	505.81
553.455	531.81
553.667	519.81
553.88	525.81
554.093	530.81
554.306	486.81
554.519	488.81
554.732	512.81
554.944	495.81
555.157	487.81
555.37	473.81
555.583	471.81
555.795	500.81
556.008	467.81
556.221	474.81
556.433	465.81
556.646	461.81
556.859	472.81
557.071	459.81
557.284	475.81
557.496	477.81
557.709	462.81
557.921	460.81
558.134	450.81
558.346	441.81
558.559	445.81
558.771	452.81
558.984	439.81
559.196	441.81
559.409	447.81
559.621	462.81
559.833	462.81
560.046	451.81
560.258	451.81
560.47	441.81
560.683	441.81
560.895	439.81
561.107	443.81
561.32	440.81
561.532	421.81
561.744	442.81
561.956	450.81
562.168	435.81
562.381	437.81
562.593	453.81
562.805	420.81
563.017	454.81
563.229	453.81
563.441	456.81
563.653	453.81
563.865	452.81
564.077	474.81
564.289	457.81
564.501	458.81
564.713	449.81
564.925	464.81
565.137	480.81
565.349	477.81
565.561	511.81
565.773	517.81
565.985	534.81
566.197	505.81
566.408	531.81
566.62	568.81
566.832	570.81
567.044	604.81
567.255	605.81
567.467	604.81
567.679	597.81
567.891	608.81
568.102	628.81
568.314	587.81
568.526	581.81
568.737	561.81
568.949	531.81
569.161	491.81
569.372	499.81
569.584	467.81
569.795	463.81
570.007	455.81
570.218	474.81
570.43	498.81
570.641	424.81
570.853	433.81
571.064	447.81
571.276	437.81
571.487	444.81
571.698	428.81
571.91	418.81
572.121	396.81
572.333	419.81
572.544	410.81
572.755	385.81
572.966	410.81
573.178	388.81
573.389	399.81
573.6	375.81
573.811	373.81
574.023	384.81
574.234	388.81
574.445	397.81
574.656	383.81
574.867	378.81
575.078	385.81
575.289	385.81
575.501	386.81
575.712	385.81
575.923	379.81
576.134	361.81
576.345	371.81
576.556	371.81
576.767	357.81
576.978	362.81
577.188	359.81
577.399	360.81
577.61	367.81
577.821	349.81
578.032	367.81
578.243	379.81
578.454	503.81
578.665	408.81
578.875	379.81
579.086	349.81
579.297	361.81
579.508	341.81
579.718	358.81
579.929	337.81
580.14	338.81
580.35	345.81
580.561	329.81
580.772	331.81
580.982	344.81
581.193	348.81
581.403	329.81
581.614	344.81
581.825	339.81
582.035	337.81
582.246	361.81
582.456	360.81
582.667	345.81
582.877	355.81
583.087	337.81
583.298	347.81
583.508	346.81
583.719	341.81
583.929	329.81
584.139	343.81
584.35	336.81
584.56	345.81
584.77	321.81
584.981	342.81
585.191	334.81
585.401	346.81
585.611	335.81
585.821	313.81
586.032	333.81
586.242	341.81
586.452	351.81
586.662	324.81
586.872	317.81
587.082	325.81
587.292	328.81
587.502	329.81
587.713	324.81
587.923	324.81
588.133	329.81
588.343	310.81
588.553	313.81
588.762	344.81
588.972	314.81
589.182	328.81
589.392	335.81
589.602	339.81
589.812	331.81
590.022	324.81
590.232	331.81
590.441	307.81
590.651	330.81
590.861	332.81
591.071	356.81
591.281	346.81
591.49	332.81
591.7	332.81
591.91	348.81
592.119	331.81
592.329	354.81
592.539	324.81
592.748	353.81
592.958	347.81
593.167	390.81
593.377	376.81
593.587	358.81
593.796	362.81
594.006	381.81
594.215	365.81
594.424	380.81
594.634	369.81
594.843	350.81
595.053	345.81
595.262	358.81
595.472	328.81
595.681	337.81
595.89	332.81
596.1	333.81
596.309	335.81
596.518	317.81
596.727	326.81
596.937	330.81
597.146	333.81
597.355	314.81
597.564	310.81
597.774	287.81
597.983	308.81
598.192	294.81
598.401	323.81
598.61	300.81
598.819	303.81
599.028	288.81
599.237	315.81
599.446	292.81
599.655	290.81
599.864	293.81
600.073	290.81
600.282	296.81
600.491	298.81
600.7	297.81
600.909	285.81
601.118	285.81
601.327	283.81
601.536	306.81
601.745	287.81
601.953	288.81
602.162	282.81
602.371	277.81
602.58	280.81
602.789	287.81
602.997	299.81
603.206	301.81
603.415	287.81
603.623	291.81
603.832	284.81
604.041	291.81
604.249	268.81
604.458	270.81
604.666	264.81
604.875	279.81
605.084	281.81
605.292	267.81
605.501	271.81
605.709	273.81
605.918	288.81
606.126	266.81
606.334	281.81
606.543	276.81
606.751	274.81
606.96	286.81
607.168	279.81
607.376	281.81
607.585	282.81
607.793	273.81
608.001	274.81
608.21	267.81
608.418	279.81
608.626	276.81
608.834	299.81
609.043	283.81
609.251	285.81
609.459	263.81
609.667	263.81
609.875	264.81
610.083	259.81
610.291	270.81
610.499	269.81
610.707	281.81
610.916	277.81
611.124	278.81
611.332	277.81
611.54	282.81
611.748	279.81
611.955	281.81
612.163	259.81
612.371	256.81
612.579	263.81
612.787	262.81
612.995	272.81
613.203	269.81
613.411	273.81
613.618	276.81
613.826	256.81
614.034	259.81
614.242	263.81
614.449	269.81
614.657	262.81
614.865	283.81
615.072	271.81
615.28	245.81
615.488	260.81
615.695	265.81
615.903	264.81
616.111	277.81
616.318	263.81
616.526	265.81
616.733	269.81
616.941	263.81
617.148	259.81
617.356	264.81
617.563	260.81
617.771	270.81
617.978	265.81
618.185	278.81
618.393	270.81
618.6	273.81
618.807	267.81
619.015	266.81
619.222	265.81
619.429	240.81
619.637	257.81
619.844	259.81
620.051	266.81
620.258	255.81
620.466	246.81
620.673	243.81
620.88	242.81
621.087	253.81
621.294	247.81
621.501	245.81
621.708	247.81
621.915	255.81
622.122	251.81
622.329	244.81
622.536	244.81
622.743	246.81
622.95	249.81
623.157	268.81
623.364	228.81
623.571	241.81
623.778	257.81
623.985	255.81
624.192	240.81
624.399	221.81
624.606	253.81
624.812	249.81
625.019	244.81
625.226	245.81
625.433	235.81
625.639	239.81
625.846	225.81
626.053	258.81
626.259	224.81
626.466	233.81
626.673	229.81
626.879	240.81
627.086	227.81
627.293	220.81
627.499	232.81
627.706	224.81
627.912	228.81
628.119	241.81
628.325	232.81
628.532	220.81
628.738	233.81
628.945	214.81
629.151	236.81
629.357	227.81
629.564	230.81
629.77	214.81
629.976	210.81
630.183	225.81
630.389	220.81
630.595	217.81
630.802	200.81
631.008	230.81
631.214	212.81
631.42	221.81
631.627	207.81
631.833	213.81
632.039	219.81
632.245	224.81
632.451	216.81
632.657	208.81
632.863	209.81
633.069	223.81
633.275	214.81
633.481	219.81
633.688	200.81
633.893	205.81
634.099	208.81
634.305	223.81
634.511	215.81
634.717	168.81
634.923	193.81
635.129	207.81
635.335	211.81
635.541	200.81
635.747	207.81
635.952	193.81
636.158	213.81
636.364	210.81
636.57	213.81
636.775	199.81
636.981	198.81
637.187	194.81
637.392	195.81
637.598	198.81
637.804	204.81
638.009	208.81
638.215	200.81
638.421	207.81
638.626	204.81
638.832	183.81
639.037	211.81
639.243	205.81
639.448	185.81
639.654	205.81
639.859	191.81
640.065	183.81
640.27	189.81
640.475	191.81
640.681	177.81
640.886	176.81
641.091	189.81
641.297	191.81
641.502	199.81
641.707	197.81
641.913	195.81
642.118	179.81
642.323	191.81
642.528	181.81
642.733	183.81
642.939	175.81
643.144	182.81
643.349	193.81
643.554	184.81
643.759	184.81
643.964	187.81
644.169	178.81
644.374	176.81
644.579	184.81
644.784	168.81
644.989	180.81
645.194	185.81
645.399	187.81
645.604	184.81
645.809	186.81
646.014	177.81
646.219	197.81
646.423	187.81
646.628	182.81
646.833	186.81
647.038	190.81
647.243	176.81
647.447	187.81
647.652	183.81
647.857	184.81
648.062	179.81
648.266	201.81
648.471	199.81
648.676	182.81
648.88	193.81
649.085	201.81
649.289	191.81
649.494	192.81
649.698	198.81
649.903	193.81
650.107	189.81
650.312	182.81
650.516	162.81
650.721	165.81
650.925	167.81
651.13	172.81
651.334	167.81
651.539	165.81
651.743	162.81
651.947	176.81
652.152	179.81
652.356	176.81
652.56	163.81
652.764	161.81
652.969	153.81
653.173	161.81
653.377	146.81
653.581	146.81
653.785	146.81
653.99	136.81
654.194	148.81
654.398	151.81
654.602	143.81
654.806	149.81
655.01	148.81
655.214	141.81
655.418	150.81
655.622	138.81
655.826	141.81
656.03	155.81
656.234	143.81
656.438	137.81
656.642	128.81
656.846	132.81
657.049	151.81
657.253	127.81
657.457	129.81
657.661	123.81
657.865	113.81
658.068	108.81
658.272	103.81
658.476	130.81
658.68	106.81
658.883	93.81
659.087	118.81
659.291	108.81
659.494	104.81
659.698	109.81
659.901	100.81
660.105	106.81
660.309	107.81
660.512	83.81
660.716	93.81
660.919	94.81
661.123	96.81
661.326	93.81
661.53	87.81
661.733	79.81
661.936	94.81
662.14	87.81
662.343	93.81
662.546	89.81
662.75	99.81
662.953	86.81
663.156	82.81
663.36	79.81
663.563	82.81
663.766	95.81
663.969	89.81
664.173	84.81
664.376	83.81
664.579	83.81
664.782	86.81
664.985	90.81
665.188	82.81
665.391	88.81
665.594	82.81
665.797	91.81
666	81.81
666.203	78.81
666.406	93.81
666.609	76.81
666.812	74.81
667.015	88.81
667.218	74.81
667.421	83.81
667.624	80.81
667.827	98.81
668.03	79.81
668.232	92.81
668.435	80.81
668.638	96.81
668.841	77.81
669.043	68.81
669.246	78.81
669.449	75.81
669.651	80.81
669.854	86.81
670.057	82.81
670.259	78.81
670.462	74.81
670.665	79.81
670.867	81.81
671.07	72.81
671.272	81.81
671.475	85.81
671.677	83.81
671.88	92.81
672.082	91.81
672.284	83.81
672.487	80.81
672.689	73.81
672.892	75.81
