Data from 1974.PennyLincolnUp.Lamp.En5.5.200Scan.071719.P1.Changed Mount._HRD10591_15-52-01-856.txt Node
Date: Thu Jul 18 15:52:01 EDT 2019
User: cochatt
Spectrometer: HR+D1059
Trigger mode: 1
Integration Time (sec): 1.000000E-1
Scans to average: 1
Electric dark correction enabled: true
Nonlinearity correction enabled: false
Boxcar width: 0
XAxis mode: Wavelengths
Number of Pixels in Spectrum: 2048
>>>>>Begin Spectral Data<<<<<
223.165	-19.06
223.4	-19.06
223.635	-19.06
223.869	-6.06
224.104	-19.06
224.338	-3.06
224.573	-12.06
224.808	-15.06
225.042	-9.06
225.277	-0.06
225.511	-5.06
225.746	-7.06
225.98	-16.06
226.215	3.94
226.449	18.94
226.683	18.94
226.918	31.94
227.152	37.94
227.387	41.94
227.621	26.94
227.856	36.94
228.09	53.94
228.324	37.94
228.559	53.94
228.793	72.94
229.027	92.94
229.262	111.94
229.496	119.94
229.73	130.94
229.964	147.94
230.199	111.94
230.433	107.94
230.667	107.94
230.901	112.94
231.136	111.94
231.37	115.94
231.604	117.94
231.838	117.94
232.072	122.94
232.306	109.94
232.541	105.94
232.775	118.94
233.009	108.94
233.243	120.94
233.477	122.94
233.711	128.94
233.945	122.94
234.179	122.94
234.413	137.94
234.647	114.94
234.881	130.94
235.115	120.94
235.349	118.94
235.583	127.94
235.817	132.94
236.051	126.94
236.285	124.94
236.519	128.94
236.753	110.94
236.987	145.94
237.221	191.94
237.455	224.94
237.689	187.94
237.922	148.94
238.156	138.94
238.39	141.94
238.624	133.94
238.858	112.94
239.091	113.94
239.325	120.94
239.559	129.94
239.793	128.94
240.027	132.94
240.26	142.94
240.494	146.94
240.728	162.94
240.961	158.94
241.195	150.94
241.429	142.94
241.662	140.94
241.896	149.94
242.13	142.94
242.363	142.94
242.597	134.94
242.83	144.94
243.064	155.94
243.298	137.94
243.531	160.94
243.765	140.94
243.998	144.94
244.232	147.94
244.465	158.94
244.699	149.94
244.932	164.94
245.166	145.94
245.399	149.94
245.633	165.94
245.866	156.94
246.099	161.94
246.333	137.94
246.566	169.94
246.8	159.94
247.033	168.94
247.266	158.94
247.5	178.94
247.733	179.94
247.966	190.94
248.2	180.94
248.433	179.94
248.666	152.94
248.899	181.94
249.133	184.94
249.366	208.94
249.599	177.94
249.832	193.94
250.066	177.94
250.299	181.94
250.532	213.94
250.765	205.94
250.998	231.94
251.231	222.94
251.465	202.94
251.698	207.94
251.931	205.94
252.164	208.94
252.397	202.94
252.63	214.94
252.863	213.94
253.096	202.94
253.329	221.94
253.562	228.94
253.795	216.94
254.028	202.94
254.261	233.94
254.494	235.94
254.727	238.94
254.96	270.94
255.193	269.94
255.426	252.94
255.659	236.94
255.892	232.94
256.124	235.94
256.357	228.94
256.59	227.94
256.823	229.94
257.056	211.94
257.289	221.94
257.521	232.94
257.754	217.94
257.987	226.94
258.22	228.94
258.452	210.94
258.685	210.94
258.918	214.94
259.151	210.94
259.383	221.94
259.616	232.94
259.849	235.94
260.081	253.94
260.314	248.94
260.547	275.94
260.779	244.94
261.012	229.94
261.244	235.94
261.477	234.94
261.71	227.94
261.942	221.94
262.175	241.94
262.407	237.94
262.64	222.94
262.872	226.94
263.105	236.94
263.337	218.94
263.57	225.94
263.802	227.94
264.035	226.94
264.267	214.94
264.499	228.94
264.732	218.94
264.964	214.94
265.197	230.94
265.429	249.94
265.661	213.94
265.894	231.94
266.126	233.94
266.358	225.94
266.591	225.94
266.823	232.94
267.055	260.94
267.287	246.94
267.52	222.94
267.752	243.94
267.984	250.94
268.216	237.94
268.448	247.94
268.681	235.94
268.913	242.94
269.145	274.94
269.377	280.94
269.609	293.94
269.841	284.94
270.073	276.94
270.306	293.94
270.538	312.94
270.77	322.94
271.002	313.94
271.234	293.94
271.466	310.94
271.698	306.94
271.93	316.94
272.162	312.94
272.394	300.94
272.626	291.94
272.858	304.94
273.09	285.94
273.322	298.94
273.553	270.94
273.785	286.94
274.017	284.94
274.249	275.94
274.481	268.94
274.713	274.94
274.945	274.94
275.176	285.94
275.408	262.94
275.64	291.94
275.872	284.94
276.104	276.94
276.335	282.94
276.567	268.94
276.799	299.94
277.031	313.94
277.262	319.94
277.494	326.94
277.726	326.94
277.957	277.94
278.189	285.94
278.421	278.94
278.652	298.94
278.884	285.94
279.115	277.94
279.347	281.94
279.579	285.94
279.81	275.94
280.042	294.94
280.273	299.94
280.505	300.94
280.736	267.94
280.968	290.94
281.199	278.94
281.431	296.94
281.662	301.94
281.894	286.94
282.125	291.94
282.356	301.94
282.588	309.94
282.819	316.94
283.051	304.94
283.282	292.94
283.513	308.94
283.745	284.94
283.976	325.94
284.207	295.94
284.439	292.94
284.67	313.94
284.901	280.94
285.132	293.94
285.364	282.94
285.595	301.94
285.826	291.94
286.057	307.94
286.288	314.94
286.52	293.94
286.751	310.94
286.982	298.94
287.213	296.94
287.444	284.94
287.675	315.94
287.906	306.94
288.138	295.94
288.369	316.94
288.6	308.94
288.831	296.94
289.062	324.94
289.293	310.94
289.524	316.94
289.755	290.94
289.986	288.94
290.217	317.94
290.448	330.94
290.679	313.94
290.91	315.94
291.141	291.94
291.371	308.94
291.602	315.94
291.833	330.94
292.064	296.94
292.295	314.94
292.526	332.94
292.757	314.94
292.987	314.94
293.218	310.94
293.449	306.94
293.68	324.94
293.91	297.94
294.141	302.94
294.372	308.94
294.603	293.94
294.833	324.94
295.064	320.94
295.295	304.94
295.525	319.94
295.756	327.94
295.987	317.94
296.217	346.94
296.448	338.94
296.679	330.94
296.909	321.94
297.14	316.94
297.37	312.94
297.601	329.94
297.831	309.94
298.062	334.94
298.292	325.94
298.523	339.94
298.753	312.94
298.984	315.94
299.214	314.94
299.445	328.94
299.675	340.94
299.905	342.94
300.136	324.94
300.366	325.94
300.597	339.94
300.827	342.94
301.057	358.94
301.288	329.94
301.518	347.94
301.748	338.94
301.979	329.94
302.209	337.94
302.439	330.94
302.669	357.94
302.9	355.94
303.13	346.94
303.36	362.94
303.59	352.94
303.82	350.94
304.051	357.94
304.281	363.94
304.511	355.94
304.741	357.94
304.971	364.94
305.201	358.94
305.431	356.94
305.661	363.94
305.891	346.94
306.121	354.94
306.352	357.94
306.582	343.94
306.812	337.94
307.042	341.94
307.272	354.94
307.502	353.94
307.731	364.94
307.961	358.94
308.191	370.94
308.421	362.94
308.651	349.94
308.881	357.94
309.111	369.94
309.341	365.94
309.571	380.94
309.8	368.94
310.03	369.94
310.26	365.94
310.49	377.94
310.72	387.94
310.949	398.94
311.179	381.94
311.409	406.94
311.639	372.94
311.868	379.94
312.098	393.94
312.328	371.94
312.557	388.94
312.787	408.94
313.017	407.94
313.246	403.94
313.476	387.94
313.706	377.94
313.935	387.94
314.165	389.94
314.394	389.94
314.624	380.94
314.853	391.94
315.083	376.94
315.312	392.94
315.542	392.94
315.771	393.94
316.001	390.94
316.23	392.94
316.46	396.94
316.689	413.94
316.919	398.94
317.148	387.94
317.377	395.94
317.607	384.94
317.836	383.94
318.065	388.94
318.295	408.94
318.524	392.94
318.753	380.94
318.983	393.94
319.212	373.94
319.441	390.94
319.67	389.94
319.9	421.94
320.129	411.94
320.358	409.94
320.587	425.94
320.816	397.94
321.046	411.94
321.275	410.94
321.504	399.94
321.733	422.94
321.962	406.94
322.191	411.94
322.42	421.94
322.649	455.94
322.878	434.94
323.108	440.94
323.337	482.94
323.566	444.94
323.795	490.94
324.024	533.94
324.253	598.94
324.482	781.94
324.71	1186.94
324.939	1722.94
325.168	1526.94
325.397	804.94
325.626	579.94
325.855	513.94
326.084	509.94
326.313	481.94
326.542	459.94
326.77	529.94
326.999	558.94
327.228	729.94
327.457	1072.94
327.686	1309.94
327.914	892.94
328.143	614.94
328.372	568.94
328.6	539.94
328.829	524.94
329.058	518.94
329.287	553.94
329.515	522.94
329.744	514.94
329.972	501.94
330.201	487.94
330.43	538.94
330.658	564.94
330.887	562.94
331.115	573.94
331.344	503.94
331.572	504.94
331.801	480.94
332.03	493.94
332.258	484.94
332.486	467.94
332.715	482.94
332.943	480.94
333.172	487.94
333.4	481.94
333.629	498.94
333.857	502.94
334.085	525.94
334.314	547.94
334.542	562.94
334.771	563.94
334.999	527.94
335.227	498.94
335.455	499.94
335.684	473.94
335.912	489.94
336.14	470.94
336.369	474.94
336.597	472.94
336.825	472.94
337.053	476.94
337.281	450.94
337.51	482.94
337.738	461.94
337.966	466.94
338.194	456.94
338.422	464.94
338.65	462.94
338.878	464.94
339.106	467.94
339.334	452.94
339.562	445.94
339.79	454.94
340.018	436.94
340.246	465.94
340.474	438.94
340.702	467.94
340.93	459.94
341.158	447.94
341.386	463.94
341.614	455.94
341.842	443.94
342.07	458.94
342.298	468.94
342.526	449.94
342.754	451.94
342.981	438.94
343.209	450.94
343.437	444.94
343.665	469.94
343.893	450.94
344.12	480.94
344.348	475.94
344.576	458.94
344.804	475.94
345.031	461.94
345.259	499.94
345.487	457.94
345.714	451.94
345.942	452.94
346.17	439.94
346.397	442.94
346.625	426.94
346.853	428.94
347.08	450.94
347.308	448.94
347.535	456.94
347.763	424.94
347.99	429.94
348.218	459.94
348.445	452.94
348.673	429.94
348.9	426.94
349.128	432.94
349.355	423.94
349.583	408.94
349.81	435.94
350.037	431.94
350.265	446.94
350.492	418.94
350.72	454.94
350.947	420.94
351.174	430.94
351.402	427.94
351.629	453.94
351.856	442.94
352.083	462.94
352.311	458.94
352.538	436.94
352.765	438.94
352.992	455.94
353.22	428.94
353.447	420.94
353.674	428.94
353.901	432.94
354.128	429.94
354.355	434.94
354.583	424.94
354.81	412.94
355.037	424.94
355.264	414.94
355.491	430.94
355.718	421.94
355.945	427.94
356.172	432.94
356.399	409.94
356.626	428.94
356.853	432.94
357.08	418.94
357.307	421.94
357.534	415.94
357.761	411.94
357.988	438.94
358.215	420.94
358.441	420.94
358.668	444.94
358.895	422.94
359.122	429.94
359.349	427.94
359.576	443.94
359.802	477.94
360.029	472.94
360.256	459.94
360.483	442.94
360.709	461.94
360.936	457.94
361.163	434.94
361.39	420.94
361.616	446.94
361.843	446.94
362.07	447.94
362.296	428.94
362.523	429.94
362.749	442.94
362.976	444.94
363.203	426.94
363.429	419.94
363.656	438.94
363.882	425.94
364.109	434.94
364.335	426.94
364.562	437.94
364.788	432.94
365.015	448.94
365.241	442.94
365.468	454.94
365.694	457.94
365.92	437.94
366.147	439.94
366.373	424.94
366.599	427.94
366.826	432.94
367.052	445.94
367.278	445.94
367.505	436.94
367.731	454.94
367.957	437.94
368.184	457.94
368.41	424.94
368.636	473.94
368.862	459.94
369.089	463.94
369.315	440.94
369.541	452.94
369.767	454.94
369.993	437.94
370.219	416.94
370.445	436.94
370.672	432.94
370.898	456.94
371.124	424.94
371.35	457.94
371.576	435.94
371.802	439.94
372.028	441.94
372.254	426.94
372.48	457.94
372.706	428.94
372.932	444.94
373.158	437.94
373.384	448.94
373.61	447.94
373.835	449.94
374.061	442.94
374.287	454.94
374.513	446.94
374.739	468.94
374.965	471.94
375.191	472.94
375.416	449.94
375.642	454.94
375.868	458.94
376.094	467.94
376.319	448.94
376.545	458.94
376.771	450.94
376.997	457.94
377.222	439.94
377.448	446.94
377.674	441.94
377.899	443.94
378.125	436.94
378.35	448.94
378.576	433.94
378.802	468.94
379.027	446.94
379.253	457.94
379.478	436.94
379.704	460.94
379.929	455.94
380.155	443.94
380.38	444.94
380.606	443.94
380.831	453.94
381.057	452.94
381.282	437.94
381.507	450.94
381.733	467.94
381.958	442.94
382.184	454.94
382.409	445.94
382.634	473.94
382.86	465.94
383.085	470.94
383.31	458.94
383.535	474.94
383.761	470.94
383.986	483.94
384.211	448.94
384.436	471.94
384.662	510.94
384.887	472.94
385.112	484.94
385.337	501.94
385.562	491.94
385.787	488.94
386.013	510.94
386.238	498.94
386.463	504.94
386.688	500.94
386.913	497.94
387.138	498.94
387.363	516.94
387.588	523.94
387.813	501.94
388.038	477.94
388.263	507.94
388.488	519.94
388.713	503.94
388.938	505.94
389.163	506.94
389.387	508.94
389.612	474.94
389.837	502.94
390.062	481.94
390.287	493.94
390.512	485.94
390.736	480.94
390.961	493.94
391.186	524.94
391.411	528.94
391.636	513.94
391.86	525.94
392.085	525.94
392.31	529.94
392.534	523.94
392.759	521.94
392.984	516.94
393.208	499.94
393.433	521.94
393.658	523.94
393.882	494.94
394.107	504.94
394.331	525.94
394.556	509.94
394.78	514.94
395.005	508.94
395.229	500.94
395.454	534.94
395.678	554.94
395.903	525.94
396.127	561.94
396.352	554.94
396.576	512.94
396.801	501.94
397.025	531.94
397.249	519.94
397.474	566.94
397.698	551.94
397.922	554.94
398.147	573.94
398.371	554.94
398.595	560.94
398.82	577.94
399.044	590.94
399.268	633.94
399.492	682.94
399.717	711.94
399.941	741.94
400.165	764.94
400.389	745.94
400.613	682.94
400.837	627.94
401.062	614.94
401.286	587.94
401.51	587.94
401.734	612.94
401.958	595.94
402.182	590.94
402.406	610.94
402.63	586.94
402.854	604.94
403.078	578.94
403.302	612.94
403.526	621.94
403.75	620.94
403.974	603.94
404.198	597.94
404.422	633.94
404.645	609.94
404.869	626.94
405.093	648.94
405.317	690.94
405.541	725.94
405.765	659.94
405.988	662.94
406.212	654.94
406.436	626.94
406.66	673.94
406.883	638.94
407.107	710.94
407.331	716.94
407.555	806.94
407.778	804.94
408.002	747.94
408.226	692.94
408.449	680.94
408.673	653.94
408.896	685.94
409.12	746.94
409.344	712.94
409.567	615.94
409.791	636.94
410.014	634.94
410.238	605.94
410.461	617.94
410.685	628.94
410.908	630.94
411.132	672.94
411.355	682.94
411.578	644.94
411.802	635.94
412.025	642.94
412.249	636.94
412.472	634.94
412.695	660.94
412.919	655.94
413.142	629.94
413.365	604.94
413.589	587.94
413.812	565.94
414.035	568.94
414.258	589.94
414.482	579.94
414.705	596.94
414.928	590.94
415.151	582.94
415.374	563.94
415.597	593.94
415.821	545.94
416.044	573.94
416.267	565.94
416.49	583.94
416.713	557.94
416.936	581.94
417.159	577.94
417.382	581.94
417.605	567.94
417.828	570.94
418.051	618.94
418.274	590.94
418.497	598.94
418.72	586.94
418.943	572.94
419.166	596.94
419.389	634.94
419.611	619.94
419.834	600.94
420.057	630.94
420.28	617.94
420.503	594.94
420.726	597.94
420.948	615.94
421.171	660.94
421.394	687.94
421.617	620.94
421.839	634.94
422.062	619.94
422.285	618.94
422.507	665.94
422.73	732.94
422.953	722.94
423.175	650.94
423.398	627.94
423.621	614.94
423.843	642.94
424.066	645.94
424.288	647.94
424.511	661.94
424.733	702.94
424.956	816.94
425.178	763.94
425.401	747.94
425.623	754.94
425.846	660.94
426.068	624.94
426.291	635.94
426.513	613.94
426.735	628.94
426.958	675.94
427.18	731.94
427.402	876.94
427.625	961.94
427.847	826.94
428.069	721.94
428.292	656.94
428.514	604.94
428.736	594.94
428.958	586.94
429.181	561.94
429.403	584.94
429.625	584.94
429.847	596.94
430.069	683.94
430.292	669.94
430.514	601.94
430.736	571.94
430.958	570.94
431.18	557.94
431.402	562.94
431.624	557.94
431.846	542.94
432.068	588.94
432.29	567.94
432.512	562.94
432.734	582.94
432.956	591.94
433.178	591.94
433.4	569.94
433.622	571.94
433.844	557.94
434.066	553.94
434.287	560.94
434.509	576.94
434.731	561.94
434.953	597.94
435.175	594.94
435.397	618.94
435.618	616.94
435.84	657.94
436.062	748.94
436.284	816.94
436.505	682.94
436.727	628.94
436.949	578.94
437.17	586.94
437.392	582.94
437.614	595.94
437.835	628.94
438.057	703.94
438.278	809.94
438.5	811.94
438.721	873.94
438.943	867.94
439.165	685.94
439.386	661.94
439.608	625.94
439.829	609.94
440.05	628.94
440.272	690.94
440.493	676.94
440.715	603.94
440.936	604.94
441.158	591.94
441.379	588.94
441.6	617.94
441.822	635.94
442.043	685.94
442.264	758.94
442.486	776.94
442.707	710.94
442.928	660.94
443.149	658.94
443.371	677.94
443.592	717.94
443.813	800.94
444.034	867.94
444.255	704.94
444.476	664.94
444.698	639.94
444.919	673.94
445.14	812.94
445.361	696.94
445.582	668.94
445.803	719.94
446.024	818.94
446.245	828.94
446.466	726.94
446.687	661.94
446.908	641.94
447.129	575.94
447.35	579.94
447.571	599.94
447.792	562.94
448.013	561.94
448.234	600.94
448.455	620.94
448.675	747.94
448.896	856.94
449.117	725.94
449.338	696.94
449.559	809.94
449.779	924.94
450	734.94
450.221	608.94
450.442	570.94
450.662	551.94
450.883	546.94
451.104	571.94
451.324	578.94
451.545	525.94
451.766	526.94
451.986	539.94
452.207	513.94
452.428	529.94
452.648	541.94
452.869	525.94
453.089	527.94
453.31	524.94
453.53	519.94
453.751	498.94
453.971	517.94
454.192	505.94
454.412	507.94
454.633	503.94
454.853	513.94
455.073	478.94
455.294	530.94
455.514	592.94
455.734	574.94
455.955	503.94
456.175	485.94
456.395	528.94
456.616	509.94
456.836	504.94
457.056	510.94
457.276	473.94
457.497	491.94
457.717	484.94
457.937	484.94
458.157	493.94
458.377	512.94
458.598	526.94
458.818	579.94
459.038	620.94
459.258	667.94
459.478	602.94
459.698	568.94
459.918	553.94
460.138	545.94
460.358	581.94
460.578	586.94
460.798	599.94
461.018	571.94
461.238	591.94
461.458	581.94
461.678	596.94
461.898	584.94
462.118	594.94
462.338	603.94
462.558	620.94
462.777	637.94
462.997	640.94
463.217	660.94
463.437	678.94
463.657	625.94
463.876	617.94
464.096	637.94
464.316	638.94
464.536	641.94
464.755	640.94
464.975	611.94
465.195	648.94
465.414	655.94
465.634	626.94
465.854	605.94
466.073	552.94
466.293	545.94
466.512	540.94
466.732	532.94
466.951	509.94
467.171	552.94
467.391	538.94
467.61	564.94
467.829	544.94
468.049	546.94
468.268	532.94
468.488	552.94
468.707	524.94
468.927	513.94
469.146	524.94
469.365	556.94
469.585	536.94
469.804	545.94
470.023	547.94
470.243	548.94
470.462	560.94
470.681	568.94
470.901	555.94
471.12	537.94
471.339	553.94
471.558	546.94
471.777	563.94
471.997	544.94
472.216	545.94
472.435	553.94
472.654	548.94
472.873	533.94
473.092	544.94
473.311	534.94
473.53	542.94
473.749	560.94
473.968	606.94
474.187	677.94
474.406	678.94
474.625	610.94
474.844	536.94
475.063	537.94
475.282	545.94
475.501	549.94
475.72	560.94
475.939	564.94
476.158	569.94
476.377	568.94
476.596	540.94
476.814	544.94
477.033	588.94
477.252	576.94
477.471	571.94
477.69	592.94
477.908	592.94
478.127	591.94
478.346	610.94
478.564	613.94
478.783	622.94
479.002	643.94
479.22	644.94
479.439	651.94
479.658	647.94
479.876	645.94
480.095	643.94
480.313	690.94
480.532	702.94
480.751	673.94
480.969	692.94
481.188	717.94
481.406	718.94
481.624	657.94
481.843	664.94
482.061	660.94
482.28	645.94
482.498	646.94
482.717	641.94
482.935	611.94
483.153	630.94
483.372	642.94
483.59	616.94
483.808	609.94
484.027	632.94
484.245	648.94
484.463	633.94
484.681	668.94
484.9	630.94
485.118	651.94
485.336	632.94
485.554	657.94
485.772	642.94
485.99	662.94
486.209	664.94
486.427	657.94
486.645	652.94
486.863	692.94
487.081	685.94
487.299	677.94
487.517	672.94
487.735	676.94
487.953	680.94
488.171	672.94
488.389	679.94
488.607	693.94
488.825	693.94
489.043	676.94
489.261	673.94
489.479	690.94
489.696	692.94
489.914	703.94
490.132	713.94
490.35	716.94
490.568	732.94
490.786	733.94
491.003	758.94
491.221	756.94
491.439	740.94
491.657	747.94
491.874	790.94
492.092	777.94
492.31	790.94
492.527	770.94
492.745	780.94
492.963	788.94
493.18	793.94
493.398	800.94
493.615	824.94
493.833	820.94
494.05	807.94
494.268	800.94
494.485	816.94
494.703	809.94
494.92	797.94
495.138	797.94
495.355	806.94
495.573	842.94
495.79	822.94
496.008	828.94
496.225	808.94
496.442	802.94
496.66	810.94
496.877	802.94
497.094	811.94
497.312	832.94
497.529	812.94
497.746	869.94
497.963	850.94
498.181	894.94
498.398	900.94
498.615	936.94
498.832	953.94
499.049	982.94
499.267	976.94
499.484	1050.94
499.701	1112.94
499.918	1128.94
500.135	1219.94
500.352	1308.94
500.569	1303.94
500.786	1332.94
501.003	1294.94
501.22	1229.94
501.437	1185.94
501.654	1128.94
501.871	1093.94
502.088	1054.94
502.305	993.94
502.522	940.94
502.739	931.94
502.956	900.94
503.172	910.94
503.389	858.94
503.606	844.94
503.823	849.94
504.04	840.94
504.256	825.94
504.473	844.94
504.69	813.94
504.907	829.94
505.123	802.94
505.34	778.94
505.557	752.94
505.773	746.94
505.99	755.94
506.207	757.94
506.423	759.94
506.64	748.94
506.856	743.94
507.073	724.94
507.289	743.94
507.506	736.94
507.722	736.94
507.939	734.94
508.155	748.94
508.372	721.94
508.588	694.94
508.805	716.94
509.021	716.94
509.238	728.94
509.454	722.94
509.67	719.94
509.887	685.94
510.103	692.94
510.319	684.94
510.536	737.94
510.752	1078.94
510.968	918.94
511.184	700.94
511.401	656.94
511.617	654.94
511.833	667.94
512.049	660.94
512.265	662.94
512.481	662.94
512.698	683.94
512.914	668.94
513.13	654.94
513.346	649.94
513.562	672.94
513.778	665.94
513.994	669.94
514.21	657.94
514.426	679.94
514.642	700.94
514.858	740.94
515.074	753.94
515.29	806.94
515.506	1089.94
515.721	959.94
515.937	740.94
516.153	727.94
516.369	715.94
516.585	710.94
516.801	708.94
517.016	697.94
517.232	732.94
517.448	704.94
517.664	698.94
517.879	749.94
518.095	742.94
518.311	745.94
518.527	712.94
518.742	696.94
518.958	690.94
519.173	688.94
519.389	688.94
519.605	696.94
519.82	679.94
520.036	677.94
520.251	674.94
520.467	707.94
520.682	678.94
520.898	696.94
521.113	684.94
521.329	733.94
521.544	776.94
521.76	905.94
521.975	1320.94
522.19	1300.94
522.406	820.94
522.621	658.94
522.836	618.94
523.052	648.94
523.267	625.94
523.482	636.94
523.698	628.94
523.913	608.94
524.128	601.94
524.343	587.94
524.559	591.94
524.774	597.94
524.989	585.94
525.204	574.94
525.419	579.94
525.634	586.94
525.849	575.94
526.064	562.94
526.28	576.94
526.495	557.94
526.71	567.94
526.925	548.94
527.14	553.94
527.355	544.94
527.57	546.94
527.785	549.94
527.999	529.94
528.214	538.94
528.429	555.94
528.644	537.94
528.859	571.94
529.074	564.94
529.289	581.94
529.503	640.94
529.718	619.94
529.933	578.94
530.148	573.94
530.363	560.94
530.577	549.94
530.792	543.94
531.007	558.94
531.221	571.94
531.436	558.94
531.651	568.94
531.865	556.94
532.08	541.94
532.295	536.94
532.509	560.94
532.724	532.94
532.938	538.94
533.153	543.94
533.367	523.94
533.582	538.94
533.796	551.94
534.011	553.94
534.225	539.94
534.44	517.94
534.654	523.94
534.868	529.94
535.083	530.94
535.297	498.94
535.511	515.94
535.726	534.94
535.94	537.94
536.154	540.94
536.369	519.94
536.583	514.94
536.797	526.94
537.011	521.94
537.225	516.94
537.44	507.94
537.654	522.94
537.868	501.94
538.082	499.94
538.296	524.94
538.51	515.94
538.724	522.94
538.938	502.94
539.153	527.94
539.367	523.94
539.581	524.94
539.795	550.94
540.009	510.94
540.222	546.94
540.436	530.94
540.65	488.94
540.864	526.94
541.078	532.94
541.292	536.94
541.506	518.94
541.72	504.94
541.934	522.94
542.147	522.94
542.361	518.94
542.575	498.94
542.789	518.94
543.002	523.94
543.216	477.94
543.43	512.94
543.644	487.94
543.857	493.94
544.071	529.94
544.285	527.94
544.498	499.94
544.712	498.94
544.925	493.94
545.139	524.94
545.352	515.94
545.566	506.94
545.779	496.94
545.993	511.94
546.206	533.94
546.42	519.94
546.633	512.94
546.847	486.94
547.06	496.94
547.274	504.94
547.487	498.94
547.7	527.94
547.914	514.94
548.127	520.94
548.34	503.94
548.554	491.94
548.767	501.94
548.98	510.94
549.193	489.94
549.407	502.94
549.62	490.94
549.833	498.94
550.046	496.94
550.259	496.94
550.473	497.94
550.686	495.94
550.899	512.94
551.112	478.94
551.325	482.94
551.538	496.94
551.751	482.94
551.964	483.94
552.177	497.94
552.39	488.94
552.603	512.94
552.816	502.94
553.029	537.94
553.242	534.94
553.455	526.94
553.667	509.94
553.88	504.94
554.093	505.94
554.306	516.94
554.519	526.94
554.732	507.94
554.944	508.94
555.157	485.94
555.37	487.94
555.583	479.94
555.795	487.94
556.008	457.94
556.221	476.94
556.433	466.94
556.646	452.94
556.859	444.94
557.071	465.94
557.284	456.94
557.496	458.94
557.709	455.94
557.921	441.94
558.134	440.94
558.346	451.94
558.559	444.94
558.771	468.94
558.984	444.94
559.196	436.94
559.409	450.94
559.621	445.94
559.833	452.94
560.046	433.94
560.258	444.94
560.47	456.94
560.683	451.94
560.895	442.94
561.107	443.94
561.32	445.94
561.532	426.94
561.744	426.94
561.956	443.94
562.168	415.94
562.381	446.94
562.593	442.94
562.805	442.94
563.017	439.94
563.229	439.94
563.441	452.94
563.653	440.94
563.865	451.94
564.077	459.94
564.289	448.94
564.501	454.94
564.713	470.94
564.925	496.94
565.137	490.94
565.349	481.94
565.561	496.94
565.773	490.94
565.985	498.94
566.197	537.94
566.408	537.94
566.62	574.94
566.832	589.94
567.044	583.94
567.255	581.94
567.467	588.94
567.679	609.94
567.891	615.94
568.102	629.94
568.314	615.94
568.526	562.94
568.737	562.94
568.949	557.94
569.161	497.94
569.372	489.94
569.584	478.94
569.795	483.94
570.007	468.94
570.218	471.94
570.43	485.94
570.641	426.94
570.853	449.94
571.064	448.94
571.276	441.94
571.487	440.94
571.698	432.94
571.91	413.94
572.121	417.94
572.333	414.94
572.544	410.94
572.755	404.94
572.966	386.94
573.178	394.94
573.389	404.94
573.6	373.94
573.811	383.94
574.023	385.94
574.234	370.94
574.445	402.94
574.656	377.94
574.867	394.94
575.078	383.94
575.289	386.94
575.501	388.94
575.712	360.94
575.923	376.94
576.134	369.94
576.345	393.94
576.556	366.94
576.767	357.94
576.978	388.94
577.188	386.94
577.399	366.94
577.61	372.94
577.821	370.94
578.032	363.94
578.243	374.94
578.454	521.94
578.665	442.94
578.875	379.94
579.086	339.94
579.297	342.94
579.508	361.94
579.718	348.94
579.929	360.94
580.14	346.94
580.35	329.94
580.561	345.94
580.772	321.94
580.982	327.94
581.193	340.94
581.403	346.94
581.614	350.94
581.825	339.94
582.035	346.94
582.246	347.94
582.456	335.94
582.667	337.94
582.877	352.94
583.087	339.94
583.298	344.94
583.508	361.94
583.719	339.94
583.929	341.94
584.139	361.94
584.35	318.94
584.56	332.94
584.77	348.94
584.981	350.94
585.191	347.94
585.401	329.94
585.611	334.94
585.821	332.94
586.032	318.94
586.242	333.94
586.452	331.94
586.662	326.94
586.872	346.94
587.082	334.94
587.292	345.94
587.502	343.94
587.713	321.94
587.923	327.94
588.133	328.94
588.343	335.94
588.553	331.94
588.762	325.94
588.972	334.94
589.182	334.94
589.392	332.94
589.602	360.94
589.812	344.94
590.022	348.94
590.232	309.94
590.441	324.94
590.651	344.94
590.861	318.94
591.071	326.94
591.281	333.94
591.49	323.94
591.7	340.94
591.91	353.94
592.119	354.94
592.329	352.94
592.539	369.94
592.748	375.94
592.958	351.94
593.167	353.94
593.377	359.94
593.587	362.94
593.796	369.94
594.006	362.94
594.215	376.94
594.424	376.94
594.634	373.94
594.843	364.94
595.053	360.94
595.262	343.94
595.472	335.94
595.681	359.94
595.89	330.94
596.1	325.94
596.309	326.94
596.518	318.94
596.727	313.94
596.937	324.94
597.146	320.94
597.355	305.94
597.564	307.94
597.774	316.94
597.983	308.94
598.192	312.94
598.401	301.94
598.61	296.94
598.819	286.94
599.028	304.94
599.237	290.94
599.446	306.94
599.655	306.94
599.864	311.94
600.073	301.94
600.282	289.94
600.491	301.94
600.7	281.94
600.909	266.94
601.118	281.94
601.327	283.94
601.536	283.94
601.745	291.94
601.953	281.94
602.162	293.94
602.371	295.94
602.58	303.94
602.789	289.94
602.997	277.94
603.206	293.94
603.415	297.94
603.623	281.94
603.832	264.94
604.041	289.94
604.249	276.94
604.458	282.94
604.666	279.94
604.875	284.94
605.084	277.94
605.292	281.94
605.501	298.94
605.709	295.94
605.918	292.94
606.126	283.94
606.334	282.94
606.543	282.94
606.751	283.94
606.96	275.94
607.168	268.94
607.376	297.94
607.585	269.94
607.793	290.94
608.001	286.94
608.21	258.94
608.418	278.94
608.626	277.94
608.834	267.94
609.043	258.94
609.251	282.94
609.459	260.94
609.667	283.94
609.875	257.94
610.083	273.94
610.291	277.94
610.499	274.94
610.707	267.94
610.916	268.94
611.124	266.94
611.332	278.94
611.54	296.94
611.748	263.94
611.955	282.94
612.163	267.94
612.371	276.94
612.579	274.94
612.787	274.94
612.995	284.94
613.203	266.94
613.411	264.94
613.618	273.94
613.826	262.94
614.034	272.94
614.242	274.94
614.449	266.94
614.657	261.94
614.865	279.94
615.072	278.94
615.28	277.94
615.488	275.94
615.695	265.94
615.903	258.94
616.111	275.94
616.318	257.94
616.526	274.94
616.733	281.94
616.941	262.94
617.148	276.94
617.356	281.94
617.563	261.94
617.771	274.94
617.978	268.94
618.185	258.94
618.393	260.94
618.6	254.94
618.807	257.94
619.015	269.94
619.222	261.94
619.429	261.94
619.637	249.94
619.844	251.94
620.051	254.94
620.258	268.94
620.466	251.94
620.673	256.94
620.88	229.94
621.087	248.94
621.294	264.94
621.501	253.94
621.708	246.94
621.915	242.94
622.122	250.94
622.329	260.94
622.536	253.94
622.743	265.94
622.95	280.94
623.157	251.94
623.364	247.94
623.571	237.94
623.778	241.94
623.985	253.94
624.192	245.94
624.399	244.94
624.606	241.94
624.812	250.94
625.019	227.94
625.226	238.94
625.433	228.94
625.639	230.94
625.846	238.94
626.053	226.94
626.259	220.94
626.466	242.94
626.673	236.94
626.879	232.94
627.086	225.94
627.293	225.94
627.499	229.94
627.706	216.94
627.912	225.94
628.119	219.94
628.325	238.94
628.532	227.94
628.738	216.94
628.945	224.94
629.151	221.94
629.357	234.94
629.564	207.94
629.77	212.94
629.976	226.94
630.183	207.94
630.389	210.94
630.595	226.94
630.802	222.94
631.008	226.94
631.214	220.94
631.42	207.94
631.627	206.94
631.833	204.94
632.039	206.94
632.245	206.94
632.451	188.94
632.657	193.94
632.863	201.94
633.069	220.94
633.275	215.94
633.481	190.94
633.688	208.94
633.893	222.94
634.099	215.94
634.305	212.94
634.511	222.94
634.717	210.94
634.923	205.94
635.129	186.94
635.335	195.94
635.541	218.94
635.747	216.94
635.952	196.94
636.158	221.94
636.364	193.94
636.57	218.94
636.775	198.94
636.981	196.94
637.187	196.94
637.392	204.94
637.598	192.94
637.804	185.94
638.009	195.94
638.215	193.94
638.421	193.94
638.626	204.94
638.832	187.94
639.037	193.94
639.243	198.94
639.448	193.94
639.654	199.94
639.859	191.94
640.065	188.94
640.27	192.94
640.475	205.94
640.681	195.94
640.886	198.94
641.091	184.94
641.297	190.94
641.502	197.94
641.707	202.94
641.913	203.94
642.118	197.94
642.323	185.94
642.528	186.94
642.733	180.94
642.939	194.94
643.144	198.94
643.349	183.94
643.554	182.94
643.759	184.94
643.964	192.94
644.169	192.94
644.374	175.94
644.579	181.94
644.784	168.94
644.989	168.94
645.194	183.94
645.399	184.94
645.604	180.94
645.809	184.94
646.014	193.94
646.219	187.94
646.423	195.94
646.628	187.94
646.833	195.94
647.038	186.94
647.243	186.94
647.447	196.94
647.652	170.94
647.857	198.94
648.062	193.94
648.266	200.94
648.471	177.94
648.676	189.94
648.88	187.94
649.085	195.94
649.289	178.94
649.494	184.94
649.698	198.94
649.903	197.94
650.107	181.94
650.312	181.94
650.516	180.94
650.721	172.94
650.925	164.94
651.13	172.94
651.334	168.94
651.539	174.94
651.743	170.94
651.947	173.94
652.152	173.94
652.356	161.94
652.56	156.94
652.764	140.94
652.969	171.94
653.173	157.94
653.377	154.94
653.581	148.94
653.785	137.94
653.99	154.94
654.194	154.94
654.398	159.94
654.602	147.94
654.806	144.94
655.01	157.94
655.214	145.94
655.418	155.94
655.622	166.94
655.826	134.94
656.03	141.94
656.234	141.94
656.438	147.94
656.642	154.94
656.846	148.94
657.049	140.94
657.253	133.94
657.457	141.94
657.661	133.94
657.865	120.94
658.068	118.94
658.272	120.94
658.476	107.94
658.68	110.94
658.883	97.94
659.087	99.94
659.291	105.94
659.494	97.94
659.698	99.94
659.901	101.94
660.105	107.94
660.309	95.94
660.512	87.94
660.716	89.94
660.919	97.94
661.123	90.94
661.326	98.94
661.53	99.94
661.733	99.94
661.936	95.94
662.14	99.94
662.343	81.94
662.546	85.94
662.75	91.94
662.953	82.94
663.156	88.94
663.36	85.94
663.563	72.94
663.766	97.94
663.969	84.94
664.173	85.94
664.376	83.94
664.579	85.94
664.782	89.94
664.985	84.94
665.188	73.94
665.391	82.94
665.594	87.94
665.797	85.94
666	83.94
666.203	81.94
666.406	86.94
666.609	72.94
666.812	90.94
667.015	73.94
667.218	99.94
667.421	91.94
667.624	77.94
667.827	104.94
668.03	83.94
668.232	83.94
668.435	87.94
668.638	98.94
668.841	92.94
669.043	82.94
669.246	83.94
669.449	88.94
669.651	84.94
669.854	91.94
670.057	80.94
670.259	79.94
670.462	70.94
670.665	82.94
670.867	88.94
671.07	85.94
671.272	86.94
671.475	94.94
671.677	93.94
671.88	90.94
672.082	92.94
672.284	93.94
672.487	79.94
672.689	81.94
672.892	83.94
