Data from 1974.PennyLincolnUp.Lamp.En5.5.200Scan.071719.P1.Changed Mount._HRD10591_15-53-11-857.txt Node
Date: Thu Jul 18 15:53:11 EDT 2019
User: cochatt
Spectrometer: HR+D1059
Trigger mode: 1
Integration Time (sec): 1.000000E-1
Scans to average: 1
Electric dark correction enabled: true
Nonlinearity correction enabled: false
Boxcar width: 0
XAxis mode: Wavelengths
Number of Pixels in Spectrum: 2048
>>>>>Begin Spectral Data<<<<<
223.165	-18.25
223.4	-18.25
223.635	-18.25
223.869	-14.25
224.104	-24.25
224.338	-6.25
224.573	-18.25
224.808	-6.25
225.042	2.75
225.277	-4.25
225.511	-7.25
225.746	8.75
225.98	-1.25
226.215	10.75
226.449	13.75
226.683	28.75
226.918	25.75
227.152	9.75
227.387	32.75
227.621	47.75
227.856	43.75
228.09	40.75
228.324	65.75
228.559	67.75
228.793	72.75
229.027	96.75
229.262	119.75
229.496	118.75
229.73	124.75
229.964	154.75
230.199	120.75
230.433	117.75
230.667	122.75
230.901	103.75
231.136	111.75
231.37	114.75
231.604	111.75
231.838	118.75
232.072	117.75
232.306	113.75
232.541	109.75
232.775	117.75
233.009	125.75
233.243	127.75
233.477	122.75
233.711	111.75
233.945	130.75
234.179	140.75
234.413	120.75
234.647	132.75
234.881	127.75
235.115	109.75
235.349	138.75
235.583	133.75
235.817	123.75
236.051	133.75
236.285	126.75
236.519	136.75
236.753	145.75
236.987	137.75
237.221	183.75
237.455	248.75
237.689	209.75
237.922	154.75
238.156	142.75
238.39	127.75
238.624	133.75
238.858	139.75
239.091	125.75
239.325	141.75
239.559	127.75
239.793	127.75
240.027	134.75
240.26	160.75
240.494	146.75
240.728	157.75
240.961	151.75
241.195	147.75
241.429	141.75
241.662	148.75
241.896	135.75
242.13	147.75
242.363	126.75
242.597	128.75
242.83	149.75
243.064	152.75
243.298	132.75
243.531	160.75
243.765	147.75
243.998	153.75
244.232	157.75
244.465	165.75
244.699	166.75
244.932	169.75
245.166	165.75
245.399	169.75
245.633	159.75
245.866	154.75
246.099	157.75
246.333	161.75
246.566	156.75
246.8	175.75
247.033	182.75
247.266	173.75
247.5	178.75
247.733	161.75
247.966	183.75
248.2	206.75
248.433	190.75
248.666	205.75
248.899	205.75
249.133	207.75
249.366	237.75
249.599	205.75
249.832	183.75
250.066	196.75
250.299	209.75
250.532	203.75
250.765	212.75
250.998	232.75
251.231	238.75
251.465	235.75
251.698	217.75
251.931	210.75
252.164	217.75
252.397	215.75
252.63	208.75
252.863	216.75
253.096	242.75
253.329	233.75
253.562	254.75
253.795	239.75
254.028	235.75
254.261	246.75
254.494	246.75
254.727	284.75
254.96	280.75
255.193	278.75
255.426	258.75
255.659	238.75
255.892	239.75
256.124	252.75
256.357	269.75
256.59	236.75
256.823	236.75
257.056	233.75
257.289	215.75
257.521	218.75
257.754	235.75
257.987	222.75
258.22	233.75
258.452	239.75
258.685	225.75
258.918	218.75
259.151	232.75
259.383	259.75
259.616	251.75
259.849	221.75
260.081	267.75
260.314	273.75
260.547	269.75
260.779	276.75
261.012	251.75
261.244	256.75
261.477	266.75
261.71	234.75
261.942	227.75
262.175	243.75
262.407	245.75
262.64	221.75
262.872	239.75
263.105	246.75
263.337	217.75
263.57	220.75
263.802	232.75
264.035	229.75
264.267	230.75
264.499	249.75
264.732	230.75
264.964	253.75
265.197	238.75
265.429	232.75
265.661	233.75
265.894	224.75
266.126	242.75
266.358	227.75
266.591	234.75
266.823	246.75
267.055	247.75
267.287	257.75
267.52	245.75
267.752	251.75
267.984	261.75
268.216	261.75
268.448	251.75
268.681	253.75
268.913	275.75
269.145	292.75
269.377	283.75
269.609	307.75
269.841	288.75
270.073	293.75
270.306	316.75
270.538	336.75
270.77	343.75
271.002	340.75
271.234	334.75
271.466	315.75
271.698	314.75
271.93	313.75
272.162	335.75
272.394	354.75
272.626	318.75
272.858	309.75
273.09	312.75
273.322	294.75
273.553	287.75
273.785	286.75
274.017	288.75
274.249	291.75
274.481	284.75
274.713	302.75
274.945	296.75
275.176	289.75
275.408	271.75
275.64	302.75
275.872	298.75
276.104	304.75
276.335	294.75
276.567	289.75
276.799	310.75
277.031	326.75
277.262	348.75
277.494	344.75
277.726	334.75
277.957	323.75
278.189	318.75
278.421	302.75
278.652	307.75
278.884	297.75
279.115	299.75
279.347	289.75
279.579	288.75
279.81	300.75
280.042	309.75
280.273	286.75
280.505	290.75
280.736	287.75
280.968	290.75
281.199	286.75
281.431	304.75
281.662	302.75
281.894	309.75
282.125	321.75
282.356	328.75
282.588	326.75
282.819	328.75
283.051	302.75
283.282	311.75
283.513	306.75
283.745	305.75
283.976	339.75
284.207	313.75
284.439	312.75
284.67	314.75
284.901	314.75
285.132	306.75
285.364	321.75
285.595	311.75
285.826	311.75
286.057	319.75
286.288	315.75
286.52	316.75
286.751	302.75
286.982	318.75
287.213	333.75
287.444	322.75
287.675	318.75
287.906	342.75
288.138	341.75
288.369	350.75
288.6	338.75
288.831	326.75
289.062	325.75
289.293	305.75
289.524	323.75
289.755	318.75
289.986	325.75
290.217	315.75
290.448	332.75
290.679	339.75
290.91	321.75
291.141	329.75
291.371	321.75
291.602	335.75
291.833	316.75
292.064	325.75
292.295	335.75
292.526	352.75
292.757	349.75
292.987	310.75
293.218	323.75
293.449	334.75
293.68	328.75
293.91	309.75
294.141	343.75
294.372	318.75
294.603	328.75
294.833	333.75
295.064	319.75
295.295	319.75
295.525	329.75
295.756	334.75
295.987	345.75
296.217	352.75
296.448	350.75
296.679	348.75
296.909	329.75
297.14	325.75
297.37	331.75
297.601	339.75
297.831	346.75
298.062	330.75
298.292	343.75
298.523	354.75
298.753	320.75
298.984	356.75
299.214	337.75
299.445	338.75
299.675	337.75
299.905	345.75
300.136	354.75
300.366	349.75
300.597	359.75
300.827	374.75
301.057	354.75
301.288	342.75
301.518	367.75
301.748	361.75
301.979	359.75
302.209	355.75
302.439	384.75
302.669	362.75
302.9	349.75
303.13	353.75
303.36	375.75
303.59	361.75
303.82	369.75
304.051	365.75
304.281	364.75
304.511	354.75
304.741	362.75
304.971	358.75
305.201	355.75
305.431	370.75
305.661	363.75
305.891	369.75
306.121	366.75
306.352	376.75
306.582	386.75
306.812	374.75
307.042	378.75
307.272	371.75
307.502	384.75
307.731	363.75
307.961	381.75
308.191	362.75
308.421	361.75
308.651	378.75
308.881	383.75
309.111	369.75
309.341	375.75
309.571	374.75
309.8	397.75
310.03	412.75
310.26	413.75
310.49	402.75
310.72	426.75
310.949	410.75
311.179	426.75
311.409	396.75
311.639	404.75
311.868	391.75
312.098	396.75
312.328	417.75
312.557	426.75
312.787	411.75
313.017	417.75
313.246	418.75
313.476	400.75
313.706	403.75
313.935	412.75
314.165	423.75
314.394	413.75
314.624	452.75
314.853	407.75
315.083	413.75
315.312	403.75
315.542	411.75
315.771	414.75
316.001	421.75
316.23	414.75
316.46	410.75
316.689	414.75
316.919	402.75
317.148	439.75
317.377	432.75
317.607	424.75
317.836	410.75
318.065	416.75
318.295	417.75
318.524	397.75
318.753	395.75
318.983	390.75
319.212	410.75
319.441	413.75
319.67	404.75
319.9	416.75
320.129	412.75
320.358	416.75
320.587	422.75
320.816	424.75
321.046	415.75
321.275	445.75
321.504	422.75
321.733	430.75
321.962	443.75
322.191	436.75
322.42	454.75
322.649	467.75
322.878	466.75
323.108	476.75
323.337	483.75
323.566	517.75
323.795	535.75
324.024	565.75
324.253	641.75
324.482	875.75
324.71	1265.75
324.939	1869.75
325.168	1638.75
325.397	861.75
325.626	613.75
325.855	547.75
326.084	531.75
326.313	507.75
326.542	489.75
326.77	546.75
326.999	623.75
327.228	775.75
327.457	1146.75
327.686	1438.75
327.914	990.75
328.143	658.75
328.372	586.75
328.6	585.75
328.829	545.75
329.058	539.75
329.287	554.75
329.515	545.75
329.744	505.75
329.972	515.75
330.201	554.75
330.43	562.75
330.658	590.75
330.887	608.75
331.115	582.75
331.344	526.75
331.572	538.75
331.801	536.75
332.03	503.75
332.258	501.75
332.486	496.75
332.715	501.75
332.943	517.75
333.172	519.75
333.4	541.75
333.629	524.75
333.857	526.75
334.085	552.75
334.314	548.75
334.542	571.75
334.771	601.75
334.999	561.75
335.227	540.75
335.455	523.75
335.684	533.75
335.912	502.75
336.14	513.75
336.369	495.75
336.597	494.75
336.825	510.75
337.053	494.75
337.281	485.75
337.51	473.75
337.738	491.75
337.966	485.75
338.194	479.75
338.422	487.75
338.65	499.75
338.878	486.75
339.106	494.75
339.334	471.75
339.562	483.75
339.79	481.75
340.018	512.75
340.246	496.75
340.474	497.75
340.702	469.75
340.93	477.75
341.158	457.75
341.386	473.75
341.614	480.75
341.842	488.75
342.07	488.75
342.298	488.75
342.526	484.75
342.754	484.75
342.981	465.75
343.209	481.75
343.437	449.75
343.665	461.75
343.893	487.75
344.12	520.75
344.348	510.75
344.576	515.75
344.804	494.75
345.031	498.75
345.259	501.75
345.487	494.75
345.714	475.75
345.942	476.75
346.17	461.75
346.397	469.75
346.625	483.75
346.853	454.75
347.08	447.75
347.308	467.75
347.535	462.75
347.763	469.75
347.99	452.75
348.218	475.75
348.445	483.75
348.673	484.75
348.9	447.75
349.128	452.75
349.355	443.75
349.583	447.75
349.81	451.75
350.037	468.75
350.265	445.75
350.492	456.75
350.72	432.75
350.947	465.75
351.174	461.75
351.402	461.75
351.629	463.75
351.856	461.75
352.083	459.75
352.311	470.75
352.538	458.75
352.765	449.75
352.992	455.75
353.22	463.75
353.447	457.75
353.674	472.75
353.901	454.75
354.128	438.75
354.355	429.75
354.583	447.75
354.81	438.75
355.037	440.75
355.264	431.75
355.491	449.75
355.718	443.75
355.945	442.75
356.172	441.75
356.399	421.75
356.626	437.75
356.853	464.75
357.08	436.75
357.307	444.75
357.534	456.75
357.761	451.75
357.988	433.75
358.215	435.75
358.441	417.75
358.668	443.75
358.895	445.75
359.122	438.75
359.349	458.75
359.576	479.75
359.802	480.75
360.029	494.75
360.256	501.75
360.483	477.75
360.709	465.75
360.936	469.75
361.163	471.75
361.39	473.75
361.616	468.75
361.843	462.75
362.07	474.75
362.296	443.75
362.523	455.75
362.749	455.75
362.976	486.75
363.203	450.75
363.429	475.75
363.656	453.75
363.882	459.75
364.109	466.75
364.335	464.75
364.562	473.75
364.788	467.75
365.015	446.75
365.241	453.75
365.468	458.75
365.694	445.75
365.92	471.75
366.147	448.75
366.373	457.75
366.599	454.75
366.826	433.75
367.052	461.75
367.278	450.75
367.505	454.75
367.731	435.75
367.957	449.75
368.184	438.75
368.41	441.75
368.636	476.75
368.862	477.75
369.089	472.75
369.315	453.75
369.541	471.75
369.767	435.75
369.993	473.75
370.219	437.75
370.445	434.75
370.672	467.75
370.898	471.75
371.124	447.75
371.35	459.75
371.576	474.75
371.802	453.75
372.028	463.75
372.254	471.75
372.48	454.75
372.706	474.75
372.932	474.75
373.158	481.75
373.384	503.75
373.61	462.75
373.835	478.75
374.061	480.75
374.287	462.75
374.513	471.75
374.739	488.75
374.965	477.75
375.191	470.75
375.416	473.75
375.642	484.75
375.868	471.75
376.094	470.75
376.319	464.75
376.545	483.75
376.771	465.75
376.997	441.75
377.222	449.75
377.448	467.75
377.674	467.75
377.899	471.75
378.125	463.75
378.35	459.75
378.576	464.75
378.802	462.75
379.027	465.75
379.253	470.75
379.478	471.75
379.704	468.75
379.929	453.75
380.155	475.75
380.38	469.75
380.606	448.75
380.831	441.75
381.057	463.75
381.282	460.75
381.507	454.75
381.733	475.75
381.958	487.75
382.184	461.75
382.409	462.75
382.634	494.75
382.86	488.75
383.085	490.75
383.31	482.75
383.535	483.75
383.761	497.75
383.986	495.75
384.211	508.75
384.436	492.75
384.662	506.75
384.887	519.75
385.112	486.75
385.337	501.75
385.562	511.75
385.787	520.75
386.013	499.75
386.238	530.75
386.463	530.75
386.688	557.75
386.913	519.75
387.138	531.75
387.363	520.75
387.588	510.75
387.813	519.75
388.038	518.75
388.263	527.75
388.488	548.75
388.713	518.75
388.938	523.75
389.163	509.75
389.387	528.75
389.612	521.75
389.837	519.75
390.062	496.75
390.287	509.75
390.512	490.75
390.736	507.75
390.961	525.75
391.186	522.75
391.411	546.75
391.636	522.75
391.86	529.75
392.085	556.75
392.31	549.75
392.534	539.75
392.759	534.75
392.984	538.75
393.208	539.75
393.433	533.75
393.658	548.75
393.882	531.75
394.107	512.75
394.331	525.75
394.556	528.75
394.78	519.75
395.005	543.75
395.229	556.75
395.454	535.75
395.678	558.75
395.903	574.75
396.127	592.75
396.352	574.75
396.576	562.75
396.801	566.75
397.025	560.75
397.249	543.75
397.474	547.75
397.698	570.75
397.922	595.75
398.147	605.75
398.371	615.75
398.595	619.75
398.82	607.75
399.044	640.75
399.268	643.75
399.492	710.75
399.717	725.75
399.941	767.75
400.165	765.75
400.389	758.75
400.613	702.75
400.837	653.75
401.062	610.75
401.286	641.75
401.51	599.75
401.734	594.75
401.958	602.75
402.182	619.75
402.406	637.75
402.63	613.75
402.854	625.75
403.078	622.75
403.302	638.75
403.526	651.75
403.75	646.75
403.974	645.75
404.198	640.75
404.422	648.75
404.645	646.75
404.869	651.75
405.093	671.75
405.317	724.75
405.541	780.75
405.765	681.75
405.988	660.75
406.212	672.75
406.436	714.75
406.66	689.75
406.883	672.75
407.107	718.75
407.331	769.75
407.555	834.75
407.778	833.75
408.002	771.75
408.226	712.75
408.449	711.75
408.673	683.75
408.896	713.75
409.12	743.75
409.344	716.75
409.567	643.75
409.791	671.75
410.014	658.75
410.238	645.75
410.461	646.75
410.685	620.75
410.908	627.75
411.132	670.75
411.355	718.75
411.578	693.75
411.802	626.75
412.025	633.75
412.249	641.75
412.472	652.75
412.695	703.75
412.919	703.75
413.142	654.75
413.365	639.75
413.589	601.75
413.812	621.75
414.035	634.75
414.258	606.75
414.482	609.75
414.705	599.75
414.928	623.75
415.151	621.75
415.374	600.75
415.597	613.75
415.821	583.75
416.044	592.75
416.267	609.75
416.49	586.75
416.713	602.75
416.936	593.75
417.159	585.75
417.382	594.75
417.605	625.75
417.828	603.75
418.051	614.75
418.274	609.75
418.497	612.75
418.72	603.75
418.943	604.75
419.166	634.75
419.389	670.75
419.611	654.75
419.834	624.75
420.057	622.75
420.28	622.75
420.503	642.75
420.726	643.75
420.948	650.75
421.171	644.75
421.394	683.75
421.617	652.75
421.839	628.75
422.062	639.75
422.285	639.75
422.507	675.75
422.73	762.75
422.953	779.75
423.175	664.75
423.398	644.75
423.621	647.75
423.843	678.75
424.066	658.75
424.288	668.75
424.511	689.75
424.733	733.75
424.956	815.75
425.178	787.75
425.401	802.75
425.623	812.75
425.846	683.75
426.068	653.75
426.291	643.75
426.513	652.75
426.735	656.75
426.958	701.75
427.18	779.75
427.402	923.75
427.625	976.75
427.847	859.75
428.069	786.75
428.292	681.75
428.514	653.75
428.736	613.75
428.958	625.75
429.181	607.75
429.403	586.75
429.625	593.75
429.847	638.75
430.069	706.75
430.292	704.75
430.514	626.75
430.736	607.75
430.958	599.75
431.18	602.75
431.402	598.75
431.624	575.75
431.846	589.75
432.068	574.75
432.29	587.75
432.512	583.75
432.734	606.75
432.956	601.75
433.178	594.75
433.4	595.75
433.622	588.75
433.844	595.75
434.066	584.75
434.287	587.75
434.509	601.75
434.731	601.75
434.953	600.75
435.175	632.75
435.397	620.75
435.618	657.75
435.84	686.75
436.062	764.75
436.284	847.75
436.505	723.75
436.727	664.75
436.949	609.75
437.17	616.75
437.392	597.75
437.614	607.75
437.835	636.75
438.057	740.75
438.278	843.75
438.5	854.75
438.721	919.75
438.943	898.75
439.165	697.75
439.386	672.75
439.608	655.75
439.829	651.75
440.05	678.75
440.272	737.75
440.493	652.75
440.715	619.75
440.936	637.75
441.158	610.75
441.379	592.75
441.6	646.75
441.822	630.75
442.043	688.75
442.264	771.75
442.486	812.75
442.707	738.75
442.928	682.75
443.149	690.75
443.371	721.75
443.592	736.75
443.813	814.75
444.034	921.75
444.255	805.75
444.476	706.75
444.698	716.75
444.919	686.75
445.14	781.75
445.361	729.75
445.582	718.75
445.803	736.75
446.024	869.75
446.245	860.75
446.466	811.75
446.687	718.75
446.908	647.75
447.129	626.75
447.35	603.75
447.571	605.75
447.792	592.75
448.013	623.75
448.234	595.75
448.455	677.75
448.675	777.75
448.896	885.75
449.117	757.75
449.338	725.75
449.559	877.75
449.779	936.75
450	752.75
450.221	641.75
450.442	607.75
450.662	605.75
450.883	562.75
451.104	571.75
451.324	584.75
451.545	573.75
451.766	575.75
451.986	550.75
452.207	542.75
452.428	542.75
452.648	539.75
452.869	549.75
453.089	545.75
453.31	541.75
453.53	544.75
453.751	551.75
453.971	557.75
454.192	547.75
454.412	547.75
454.633	540.75
454.853	547.75
455.073	528.75
455.294	588.75
455.514	614.75
455.734	595.75
455.955	545.75
456.175	519.75
456.395	469.75
456.616	520.75
456.836	517.75
457.056	504.75
457.276	529.75
457.497	532.75
457.717	517.75
457.937	511.75
458.157	531.75
458.377	514.75
458.598	555.75
458.818	602.75
459.038	643.75
459.258	694.75
459.478	605.75
459.698	583.75
459.918	568.75
460.138	569.75
460.358	594.75
460.578	594.75
460.798	609.75
461.018	613.75
461.238	599.75
461.458	591.75
461.678	616.75
461.898	609.75
462.118	590.75
462.338	626.75
462.558	644.75
462.777	640.75
462.997	672.75
463.217	711.75
463.437	703.75
463.657	682.75
463.876	655.75
464.096	656.75
464.316	660.75
464.536	661.75
464.755	640.75
464.975	655.75
465.195	647.75
465.414	709.75
465.634	650.75
465.854	618.75
466.073	603.75
466.293	576.75
466.512	553.75
466.732	565.75
466.951	576.75
467.171	570.75
467.391	567.75
467.61	578.75
467.829	588.75
468.049	575.75
468.268	568.75
468.488	525.75
468.707	553.75
468.927	529.75
469.146	524.75
469.365	539.75
469.585	551.75
469.804	546.75
470.023	582.75
470.243	549.75
470.462	550.75
470.681	567.75
470.901	570.75
471.12	561.75
471.339	557.75
471.558	574.75
471.777	592.75
471.997	563.75
472.216	563.75
472.435	587.75
472.654	569.75
472.873	551.75
473.092	561.75
473.311	565.75
473.53	591.75
473.749	574.75
473.968	638.75
474.187	694.75
474.406	717.75
474.625	618.75
474.844	561.75
475.063	562.75
475.282	587.75
475.501	562.75
475.72	587.75
475.939	579.75
476.158	589.75
476.377	587.75
476.596	601.75
476.814	599.75
477.033	589.75
477.252	593.75
477.471	607.75
477.69	604.75
477.908	617.75
478.127	606.75
478.346	641.75
478.564	652.75
478.783	647.75
479.002	644.75
479.22	656.75
479.439	664.75
479.658	653.75
479.876	671.75
480.095	708.75
480.313	683.75
480.532	702.75
480.751	686.75
480.969	701.75
481.188	733.75
481.406	737.75
481.624	700.75
481.843	689.75
482.061	674.75
482.28	667.75
482.498	676.75
482.717	639.75
482.935	665.75
483.153	654.75
483.372	673.75
483.59	666.75
483.808	670.75
484.027	656.75
484.245	673.75
484.463	665.75
484.681	657.75
484.9	678.75
485.118	658.75
485.336	680.75
485.554	662.75
485.772	670.75
485.99	683.75
486.209	661.75
486.427	645.75
486.645	687.75
486.863	720.75
487.081	729.75
487.299	695.75
487.517	698.75
487.735	713.75
487.953	701.75
488.171	707.75
488.389	724.75
488.607	683.75
488.825	704.75
489.043	709.75
489.261	734.75
489.479	735.75
489.696	717.75
489.914	727.75
490.132	741.75
490.35	739.75
490.568	771.75
490.786	752.75
491.003	795.75
491.221	767.75
491.439	797.75
491.657	802.75
491.874	836.75
492.092	821.75
492.31	847.75
492.527	803.75
492.745	836.75
492.963	827.75
493.18	830.75
493.398	847.75
493.615	821.75
493.833	851.75
494.05	815.75
494.268	836.75
494.485	830.75
494.703	831.75
494.92	837.75
495.138	835.75
495.355	822.75
495.573	816.75
495.79	836.75
496.008	847.75
496.225	839.75
496.442	822.75
496.66	846.75
496.877	872.75
497.094	857.75
497.312	874.75
497.529	881.75
497.746	878.75
497.963	897.75
498.181	909.75
498.398	901.75
498.615	967.75
498.832	966.75
499.049	997.75
499.267	1055.75
499.484	1090.75
499.701	1142.75
499.918	1210.75
500.135	1243.75
500.352	1341.75
500.569	1361.75
500.786	1342.75
501.003	1313.75
501.22	1285.75
501.437	1202.75
501.654	1193.75
501.871	1099.75
502.088	1088.75
502.305	1023.75
502.522	1019.75
502.739	964.75
502.956	930.75
503.172	923.75
503.389	900.75
503.606	892.75
503.823	883.75
504.04	874.75
504.256	855.75
504.473	887.75
504.69	845.75
504.907	861.75
505.123	825.75
505.34	846.75
505.557	823.75
505.773	807.75
505.99	795.75
506.207	791.75
506.423	785.75
506.64	769.75
506.856	759.75
507.073	761.75
507.289	759.75
507.506	775.75
507.722	792.75
507.939	781.75
508.155	759.75
508.372	741.75
508.588	751.75
508.805	732.75
509.021	725.75
509.238	729.75
509.454	778.75
509.67	746.75
509.887	738.75
510.103	744.75
510.319	740.75
510.536	822.75
510.752	1150.75
510.968	991.75
511.184	765.75
511.401	699.75
511.617	722.75
511.833	730.75
512.049	703.75
512.265	719.75
512.481	703.75
512.698	682.75
512.914	677.75
513.13	686.75
513.346	689.75
513.562	682.75
513.778	713.75
513.994	673.75
514.21	700.75
514.426	720.75
514.642	772.75
514.858	760.75
515.074	790.75
515.29	864.75
515.506	1150.75
515.721	999.75
515.937	790.75
516.153	741.75
516.369	748.75
516.585	757.75
516.801	730.75
517.016	720.75
517.232	742.75
517.448	742.75
517.664	744.75
517.879	754.75
518.095	773.75
518.311	761.75
518.527	748.75
518.742	718.75
518.958	710.75
519.173	705.75
519.389	705.75
519.605	684.75
519.82	679.75
520.036	717.75
520.251	714.75
520.467	721.75
520.682	745.75
520.898	700.75
521.113	710.75
521.329	757.75
521.544	810.75
521.76	930.75
521.975	1400.75
522.19	1398.75
522.406	881.75
522.621	737.75
522.836	674.75
523.052	686.75
523.267	636.75
523.482	647.75
523.698	631.75
523.913	639.75
524.128	621.75
524.343	619.75
524.559	619.75
524.774	623.75
524.989	608.75
525.204	595.75
525.419	605.75
525.634	585.75
525.849	603.75
526.064	582.75
526.28	601.75
526.495	581.75
526.71	601.75
526.925	578.75
527.14	554.75
527.355	587.75
527.57	553.75
527.785	570.75
527.999	568.75
528.214	563.75
528.429	581.75
528.644	573.75
528.859	587.75
529.074	581.75
529.289	601.75
529.503	667.75
529.718	642.75
529.933	607.75
530.148	584.75
530.363	597.75
530.577	591.75
530.792	569.75
531.007	564.75
531.221	541.75
531.436	569.75
531.651	551.75
531.865	553.75
532.08	557.75
532.295	564.75
532.509	549.75
532.724	562.75
532.938	549.75
533.153	571.75
533.367	550.75
533.582	555.75
533.796	555.75
534.011	570.75
534.225	546.75
534.44	550.75
534.654	559.75
534.868	549.75
535.083	562.75
535.297	555.75
535.511	544.75
535.726	565.75
535.94	569.75
536.154	576.75
536.369	538.75
536.583	535.75
536.797	550.75
537.011	546.75
537.225	532.75
537.44	532.75
537.654	537.75
537.868	519.75
538.082	511.75
538.296	531.75
538.51	512.75
538.724	537.75
538.938	534.75
539.153	532.75
539.367	531.75
539.581	531.75
539.795	557.75
540.009	539.75
540.222	514.75
540.436	509.75
540.65	529.75
540.864	563.75
541.078	535.75
541.292	541.75
541.506	525.75
541.72	532.75
541.934	531.75
542.147	541.75
542.361	523.75
542.575	524.75
542.789	531.75
543.002	544.75
543.216	538.75
543.43	521.75
543.644	537.75
543.857	541.75
544.071	530.75
544.285	530.75
544.498	534.75
544.712	532.75
544.925	552.75
545.139	540.75
545.352	522.75
545.566	567.75
545.779	537.75
545.993	528.75
546.206	529.75
546.42	526.75
546.633	545.75
546.847	537.75
547.06	545.75
547.274	514.75
547.487	530.75
547.7	540.75
547.914	523.75
548.127	521.75
548.34	529.75
548.554	521.75
548.767	518.75
548.98	504.75
549.193	507.75
549.407	527.75
549.62	542.75
549.833	518.75
550.046	495.75
550.259	519.75
550.473	529.75
550.686	527.75
550.899	513.75
551.112	504.75
551.325	515.75
551.538	523.75
551.751	524.75
551.964	516.75
552.177	500.75
552.39	508.75
552.603	530.75
552.816	533.75
553.029	537.75
553.242	548.75
553.455	541.75
553.667	537.75
553.88	538.75
554.093	549.75
554.306	560.75
554.519	501.75
554.732	508.75
554.944	502.75
555.157	485.75
555.37	505.75
555.583	515.75
555.795	490.75
556.008	517.75
556.221	493.75
556.433	489.75
556.646	469.75
556.859	462.75
557.071	473.75
557.284	464.75
557.496	470.75
557.709	449.75
557.921	457.75
558.134	475.75
558.346	465.75
558.559	470.75
558.771	475.75
558.984	452.75
559.196	440.75
559.409	470.75
559.621	449.75
559.833	440.75
560.046	451.75
560.258	443.75
560.47	450.75
560.683	455.75
560.895	455.75
561.107	461.75
561.32	464.75
561.532	466.75
561.744	464.75
561.956	460.75
562.168	451.75
562.381	462.75
562.593	472.75
562.805	463.75
563.017	465.75
563.229	466.75
563.441	454.75
563.653	472.75
563.865	456.75
564.077	464.75
564.289	486.75
564.501	486.75
564.713	498.75
564.925	477.75
565.137	509.75
565.349	532.75
565.561	538.75
565.773	537.75
565.985	536.75
566.197	553.75
566.408	555.75
566.62	546.75
566.832	605.75
567.044	597.75
567.255	610.75
567.467	626.75
567.679	618.75
567.891	666.75
568.102	641.75
568.314	657.75
568.526	593.75
568.737	600.75
568.949	567.75
569.161	532.75
569.372	509.75
569.584	472.75
569.795	489.75
570.007	492.75
570.218	507.75
570.43	494.75
570.641	460.75
570.853	448.75
571.064	460.75
571.276	438.75
571.487	453.75
571.698	440.75
571.91	443.75
572.121	434.75
572.333	423.75
572.544	412.75
572.755	427.75
572.966	396.75
573.178	407.75
573.389	403.75
573.6	407.75
573.811	413.75
574.023	383.75
574.234	394.75
574.445	418.75
574.656	382.75
574.867	406.75
575.078	402.75
575.289	391.75
575.501	417.75
575.712	384.75
575.923	390.75
576.134	373.75
576.345	396.75
576.556	393.75
576.767	376.75
576.978	391.75
577.188	381.75
577.399	388.75
577.61	377.75
577.821	374.75
578.032	363.75
578.243	399.75
578.454	556.75
578.665	440.75
578.875	399.75
579.086	358.75
579.297	381.75
579.508	375.75
579.718	385.75
579.929	374.75
580.14	367.75
580.35	376.75
580.561	346.75
580.772	342.75
580.982	358.75
581.193	346.75
581.403	354.75
581.614	345.75
581.825	370.75
582.035	367.75
582.246	344.75
582.456	358.75
582.667	370.75
582.877	354.75
583.087	365.75
583.298	370.75
583.508	351.75
583.719	344.75
583.929	352.75
584.139	358.75
584.35	344.75
584.56	345.75
584.77	356.75
584.981	363.75
585.191	352.75
585.401	364.75
585.611	329.75
585.821	335.75
586.032	362.75
586.242	343.75
586.452	345.75
586.662	333.75
586.872	355.75
587.082	351.75
587.292	340.75
587.502	324.75
587.713	363.75
587.923	338.75
588.133	344.75
588.343	345.75
588.553	343.75
588.762	356.75
588.972	345.75
589.182	347.75
589.392	337.75
589.602	337.75
589.812	340.75
590.022	349.75
590.232	348.75
590.441	334.75
590.651	338.75
590.861	345.75
591.071	361.75
591.281	345.75
591.49	361.75
591.7	355.75
591.91	347.75
592.119	350.75
592.329	358.75
592.539	359.75
592.748	374.75
592.958	367.75
593.167	378.75
593.377	385.75
593.587	385.75
593.796	404.75
594.006	394.75
594.215	387.75
594.424	382.75
594.634	367.75
594.843	384.75
595.053	373.75
595.262	348.75
595.472	357.75
595.681	354.75
595.89	352.75
596.1	331.75
596.309	329.75
596.518	326.75
596.727	330.75
596.937	343.75
597.146	326.75
597.355	322.75
597.564	303.75
597.774	320.75
597.983	320.75
598.192	307.75
598.401	305.75
598.61	307.75
598.819	309.75
599.028	309.75
599.237	307.75
599.446	302.75
599.655	299.75
599.864	312.75
600.073	293.75
600.282	327.75
600.491	312.75
600.7	281.75
600.909	292.75
601.118	304.75
601.327	290.75
601.536	286.75
601.745	309.75
601.953	302.75
602.162	303.75
602.371	299.75
602.58	299.75
602.789	303.75
602.997	294.75
603.206	285.75
603.415	299.75
603.623	315.75
603.832	303.75
604.041	295.75
604.249	291.75
604.458	282.75
604.666	281.75
604.875	282.75
605.084	281.75
605.292	281.75
605.501	279.75
605.709	296.75
605.918	290.75
606.126	293.75
606.334	302.75
606.543	287.75
606.751	314.75
606.96	301.75
607.168	276.75
607.376	281.75
607.585	289.75
607.793	287.75
608.001	287.75
608.21	274.75
608.418	273.75
608.626	280.75
608.834	281.75
609.043	275.75
609.251	285.75
609.459	260.75
609.667	283.75
609.875	267.75
610.083	285.75
610.291	291.75
610.499	293.75
610.707	272.75
610.916	290.75
611.124	299.75
611.332	293.75
611.54	276.75
611.748	296.75
611.955	295.75
612.163	285.75
612.371	299.75
612.579	289.75
612.787	279.75
612.995	285.75
613.203	265.75
613.411	285.75
613.618	274.75
613.826	290.75
614.034	275.75
614.242	267.75
614.449	276.75
614.657	273.75
614.865	271.75
615.072	276.75
615.28	291.75
615.488	271.75
615.695	276.75
615.903	282.75
616.111	274.75
616.318	288.75
616.526	278.75
616.733	286.75
616.941	290.75
617.148	282.75
617.356	255.75
617.563	275.75
617.771	277.75
617.978	259.75
618.185	248.75
618.393	249.75
618.6	275.75
618.807	278.75
619.015	267.75
619.222	281.75
619.429	272.75
619.637	257.75
619.844	255.75
620.051	269.75
620.258	261.75
620.466	261.75
620.673	252.75
620.88	246.75
621.087	252.75
621.294	253.75
621.501	265.75
621.708	261.75
621.915	259.75
622.122	263.75
622.329	250.75
622.536	249.75
622.743	259.75
622.95	264.75
623.157	267.75
623.364	252.75
623.571	259.75
623.778	243.75
623.985	253.75
624.192	256.75
624.399	250.75
624.606	248.75
624.812	239.75
625.019	263.75
625.226	244.75
625.433	234.75
625.639	224.75
625.846	252.75
626.053	239.75
626.259	245.75
626.466	241.75
626.673	249.75
626.879	239.75
627.086	218.75
627.293	245.75
627.499	226.75
627.706	237.75
627.912	229.75
628.119	232.75
628.325	232.75
628.532	241.75
628.738	225.75
628.945	242.75
629.151	232.75
629.357	224.75
629.564	228.75
629.77	224.75
629.976	219.75
630.183	221.75
630.389	234.75
630.595	230.75
630.802	233.75
631.008	227.75
631.214	237.75
631.42	226.75
631.627	211.75
631.833	209.75
632.039	216.75
632.245	210.75
632.451	222.75
632.657	230.75
632.863	228.75
633.069	229.75
633.275	211.75
633.481	205.75
633.688	227.75
633.893	211.75
634.099	222.75
634.305	211.75
634.511	220.75
634.717	217.75
634.923	223.75
635.129	221.75
635.335	203.75
635.541	210.75
635.747	205.75
635.952	206.75
636.158	213.75
636.364	206.75
636.57	205.75
636.775	208.75
636.981	217.75
637.187	202.75
637.392	191.75
637.598	194.75
637.804	196.75
638.009	197.75
638.215	206.75
638.421	207.75
638.626	209.75
638.832	180.75
639.037	194.75
639.243	209.75
639.448	207.75
639.654	206.75
639.859	194.75
640.065	181.75
640.27	204.75
640.475	189.75
640.681	188.75
640.886	209.75
641.091	197.75
641.297	183.75
641.502	199.75
641.707	201.75
641.913	206.75
642.118	194.75
642.323	198.75
642.528	198.75
642.733	205.75
642.939	193.75
643.144	204.75
643.349	194.75
643.554	189.75
643.759	201.75
643.964	196.75
644.169	195.75
644.374	202.75
644.579	200.75
644.784	186.75
644.989	189.75
645.194	202.75
645.399	175.75
645.604	201.75
645.809	188.75
646.014	189.75
646.219	198.75
646.423	178.75
646.628	199.75
646.833	178.75
647.038	198.75
647.243	197.75
647.447	195.75
647.652	178.75
647.857	203.75
648.062	205.75
648.266	217.75
648.471	206.75
648.676	187.75
648.88	213.75
649.085	200.75
649.289	197.75
649.494	200.75
649.698	214.75
649.903	196.75
650.107	174.75
650.312	184.75
650.516	174.75
650.721	176.75
650.925	189.75
651.13	170.75
651.334	167.75
651.539	177.75
651.743	162.75
651.947	174.75
652.152	165.75
652.356	179.75
652.56	162.75
652.764	162.75
652.969	165.75
653.173	160.75
653.377	157.75
653.581	152.75
653.785	145.75
653.99	141.75
654.194	164.75
654.398	162.75
654.602	148.75
654.806	148.75
655.01	160.75
655.214	159.75
655.418	139.75
655.622	154.75
655.826	144.75
656.03	152.75
656.234	147.75
656.438	155.75
656.642	159.75
656.846	135.75
657.049	142.75
657.253	133.75
657.457	128.75
657.661	126.75
657.865	131.75
658.068	129.75
658.272	136.75
658.476	102.75
658.68	127.75
658.883	127.75
659.087	114.75
659.291	107.75
659.494	118.75
659.698	111.75
659.901	95.75
660.105	100.75
660.309	98.75
660.512	97.75
660.716	108.75
660.919	106.75
661.123	94.75
661.326	104.75
661.53	113.75
661.733	93.75
661.936	102.75
662.14	88.75
662.343	93.75
662.546	100.75
662.75	87.75
662.953	81.75
663.156	100.75
663.36	93.75
663.563	82.75
663.766	91.75
663.969	81.75
664.173	85.75
664.376	83.75
664.579	87.75
664.782	86.75
664.985	85.75
665.188	96.75
665.391	93.75
665.594	79.75
665.797	79.75
666	93.75
666.203	86.75
666.406	80.75
666.609	82.75
666.812	82.75
667.015	93.75
667.218	94.75
667.421	89.75
667.624	83.75
667.827	91.75
668.03	85.75
668.232	91.75
668.435	89.75
668.638	96.75
668.841	79.75
669.043	85.75
669.246	81.75
669.449	87.75
669.651	85.75
669.854	81.75
670.057	89.75
670.259	91.75
670.462	80.75
670.665	87.75
670.867	89.75
671.07	84.75
671.272	104.75
671.475	88.75
671.677	99.75
671.88	86.75
672.082	91.75
672.284	81.75
672.487	78.75
672.689	88.75
672.892	98.75
