Data from 1974.PennyLincolnUp.Lamp.En5.5.200Scan.071719.P1.Changed Mount._HRD10591_15-54-08-857.txt Node
Date: Thu Jul 18 15:54:08 EDT 2019
User: cochatt
Spectrometer: HR+D1059
Trigger mode: 1
Integration Time (sec): 1.000000E-1
Scans to average: 1
Electric dark correction enabled: true
Nonlinearity correction enabled: false
Boxcar width: 0
XAxis mode: Wavelengths
Number of Pixels in Spectrum: 2048
>>>>>Begin Spectral Data<<<<<
223.165	-14.44
223.4	-14.44
223.635	-14.44
223.869	-18.44
224.104	-21.44
224.338	-11.44
224.573	0.56
224.808	-22.44
225.042	-20.44
225.277	-5.44
225.511	-9.44
225.746	2.56
225.98	8.56
226.215	18.56
226.449	15.56
226.683	15.56
226.918	30.56
227.152	31.56
227.387	34.56
227.621	44.56
227.856	46.56
228.09	60.56
228.324	70.56
228.559	55.56
228.793	68.56
229.027	106.56
229.262	103.56
229.496	114.56
229.73	140.56
229.964	170.56
230.199	150.56
230.433	119.56
230.667	121.56
230.901	122.56
231.136	128.56
231.37	105.56
231.604	130.56
231.838	96.56
232.072	110.56
232.306	123.56
232.541	121.56
232.775	120.56
233.009	118.56
233.243	128.56
233.477	120.56
233.711	117.56
233.945	110.56
234.179	133.56
234.413	129.56
234.647	130.56
234.881	119.56
235.115	123.56
235.349	132.56
235.583	129.56
235.817	133.56
236.051	140.56
236.285	130.56
236.519	125.56
236.753	134.56
236.987	131.56
237.221	182.56
237.455	240.56
237.689	192.56
237.922	150.56
238.156	159.56
238.39	127.56
238.624	135.56
238.858	141.56
239.091	130.56
239.325	132.56
239.559	126.56
239.793	141.56
240.027	143.56
240.26	150.56
240.494	173.56
240.728	157.56
240.961	149.56
241.195	133.56
241.429	138.56
241.662	136.56
241.896	139.56
242.13	156.56
242.363	145.56
242.597	134.56
242.83	145.56
243.064	130.56
243.298	140.56
243.531	160.56
243.765	152.56
243.998	152.56
244.232	152.56
244.465	158.56
244.699	149.56
244.932	149.56
245.166	140.56
245.399	176.56
245.633	178.56
245.866	156.56
246.099	152.56
246.333	152.56
246.566	168.56
246.8	172.56
247.033	162.56
247.266	171.56
247.5	174.56
247.733	181.56
247.966	194.56
248.2	191.56
248.433	198.56
248.666	166.56
248.899	184.56
249.133	196.56
249.366	221.56
249.599	218.56
249.832	198.56
250.066	186.56
250.299	213.56
250.532	201.56
250.765	226.56
250.998	257.56
251.231	240.56
251.465	237.56
251.698	229.56
251.931	223.56
252.164	223.56
252.397	212.56
252.63	199.56
252.863	210.56
253.096	245.56
253.329	244.56
253.562	241.56
253.795	236.56
254.028	229.56
254.261	230.56
254.494	229.56
254.727	259.56
254.96	288.56
255.193	284.56
255.426	261.56
255.659	267.56
255.892	235.56
256.124	267.56
256.357	258.56
256.59	258.56
256.823	214.56
257.056	223.56
257.289	236.56
257.521	228.56
257.754	225.56
257.987	227.56
258.22	234.56
258.452	227.56
258.685	228.56
258.918	241.56
259.151	222.56
259.383	230.56
259.616	244.56
259.849	249.56
260.081	252.56
260.314	282.56
260.547	275.56
260.779	274.56
261.012	261.56
261.244	238.56
261.477	256.56
261.71	242.56
261.942	254.56
262.175	242.56
262.407	237.56
262.64	240.56
262.872	245.56
263.105	221.56
263.337	226.56
263.57	235.56
263.802	228.56
264.035	218.56
264.267	232.56
264.499	247.56
264.732	224.56
264.964	242.56
265.197	244.56
265.429	243.56
265.661	226.56
265.894	244.56
266.126	243.56
266.358	248.56
266.591	240.56
266.823	257.56
267.055	243.56
267.287	252.56
267.52	270.56
267.752	262.56
267.984	252.56
268.216	236.56
268.448	248.56
268.681	264.56
268.913	266.56
269.145	290.56
269.377	306.56
269.609	292.56
269.841	290.56
270.073	306.56
270.306	329.56
270.538	329.56
270.77	356.56
271.002	320.56
271.234	304.56
271.466	324.56
271.698	326.56
271.93	327.56
272.162	335.56
272.394	349.56
272.626	339.56
272.858	319.56
273.09	313.56
273.322	297.56
273.553	280.56
273.785	298.56
274.017	274.56
274.249	293.56
274.481	292.56
274.713	290.56
274.945	312.56
275.176	296.56
275.408	285.56
275.64	286.56
275.872	290.56
276.104	284.56
276.335	292.56
276.567	304.56
276.799	310.56
277.031	346.56
277.262	356.56
277.494	344.56
277.726	324.56
277.957	322.56
278.189	301.56
278.421	304.56
278.652	302.56
278.884	308.56
279.115	293.56
279.347	291.56
279.579	308.56
279.81	301.56
280.042	291.56
280.273	306.56
280.505	305.56
280.736	291.56
280.968	333.56
281.199	297.56
281.431	306.56
281.662	305.56
281.894	292.56
282.125	297.56
282.356	324.56
282.588	352.56
282.819	356.56
283.051	315.56
283.282	292.56
283.513	325.56
283.745	300.56
283.976	320.56
284.207	332.56
284.439	322.56
284.67	316.56
284.901	323.56
285.132	322.56
285.364	310.56
285.595	312.56
285.826	321.56
286.057	318.56
286.288	300.56
286.52	315.56
286.751	329.56
286.982	312.56
287.213	323.56
287.444	316.56
287.675	337.56
287.906	342.56
288.138	335.56
288.369	338.56
288.6	346.56
288.831	337.56
289.062	336.56
289.293	323.56
289.524	334.56
289.755	320.56
289.986	316.56
290.217	320.56
290.448	325.56
290.679	329.56
290.91	317.56
291.141	331.56
291.371	325.56
291.602	328.56
291.833	311.56
292.064	336.56
292.295	342.56
292.526	325.56
292.757	329.56
292.987	335.56
293.218	332.56
293.449	336.56
293.68	334.56
293.91	321.56
294.141	310.56
294.372	351.56
294.603	322.56
294.833	342.56
295.064	344.56
295.295	324.56
295.525	335.56
295.756	337.56
295.987	335.56
296.217	364.56
296.448	362.56
296.679	349.56
296.909	331.56
297.14	346.56
297.37	349.56
297.601	349.56
297.831	350.56
298.062	330.56
298.292	337.56
298.523	346.56
298.753	358.56
298.984	327.56
299.214	350.56
299.445	355.56
299.675	358.56
299.905	377.56
300.136	365.56
300.366	355.56
300.597	348.56
300.827	342.56
301.057	355.56
301.288	372.56
301.518	376.56
301.748	385.56
301.979	384.56
302.209	372.56
302.439	347.56
302.669	362.56
302.9	386.56
303.13	361.56
303.36	392.56
303.59	348.56
303.82	392.56
304.051	386.56
304.281	365.56
304.511	346.56
304.741	372.56
304.971	374.56
305.201	388.56
305.431	368.56
305.661	369.56
305.891	362.56
306.121	379.56
306.352	362.56
306.582	378.56
306.812	373.56
307.042	368.56
307.272	376.56
307.502	360.56
307.731	374.56
307.961	372.56
308.191	377.56
308.421	362.56
308.651	373.56
308.881	356.56
309.111	378.56
309.341	388.56
309.571	388.56
309.8	381.56
310.03	405.56
310.26	420.56
310.49	406.56
310.72	408.56
310.949	422.56
311.179	418.56
311.409	401.56
311.639	429.56
311.868	402.56
312.098	406.56
312.328	413.56
312.557	435.56
312.787	413.56
313.017	424.56
313.246	416.56
313.476	409.56
313.706	400.56
313.935	437.56
314.165	436.56
314.394	434.56
314.624	419.56
314.853	422.56
315.083	424.56
315.312	408.56
315.542	403.56
315.771	404.56
316.001	399.56
316.23	409.56
316.46	404.56
316.689	451.56
316.919	420.56
317.148	429.56
317.377	454.56
317.607	410.56
317.836	432.56
318.065	435.56
318.295	417.56
318.524	406.56
318.753	416.56
318.983	392.56
319.212	406.56
319.441	404.56
319.67	428.56
319.9	435.56
320.129	415.56
320.358	425.56
320.587	423.56
320.816	428.56
321.046	434.56
321.275	440.56
321.504	424.56
321.733	433.56
321.962	439.56
322.191	438.56
322.42	457.56
322.649	477.56
322.878	483.56
323.108	469.56
323.337	490.56
323.566	522.56
323.795	536.56
324.024	574.56
324.253	652.56
324.482	924.56
324.71	1398.56
324.939	2040.56
325.168	1807.56
325.397	926.56
325.626	628.56
325.855	546.56
326.084	519.56
326.313	498.56
326.542	511.56
326.77	563.56
326.999	636.56
327.228	849.56
327.457	1284.56
327.686	1557.56
327.914	1065.56
328.143	698.56
328.372	621.56
328.6	595.56
328.829	566.56
329.058	602.56
329.287	573.56
329.515	569.56
329.744	544.56
329.972	540.56
330.201	561.56
330.43	589.56
330.658	608.56
330.887	617.56
331.115	607.56
331.344	553.56
331.572	542.56
331.801	537.56
332.03	488.56
332.258	504.56
332.486	493.56
332.715	478.56
332.943	512.56
333.172	519.56
333.4	532.56
333.629	532.56
333.857	550.56
334.085	568.56
334.314	575.56
334.542	589.56
334.771	585.56
334.999	558.56
335.227	562.56
335.455	513.56
335.684	523.56
335.912	510.56
336.14	524.56
336.369	498.56
336.597	497.56
336.825	515.56
337.053	517.56
337.281	481.56
337.51	490.56
337.738	513.56
337.966	498.56
338.194	515.56
338.422	494.56
338.65	506.56
338.878	489.56
339.106	512.56
339.334	464.56
339.562	482.56
339.79	476.56
340.018	490.56
340.246	484.56
340.474	483.56
340.702	470.56
340.93	491.56
341.158	484.56
341.386	454.56
341.614	490.56
341.842	484.56
342.07	476.56
342.298	476.56
342.526	478.56
342.754	473.56
342.981	469.56
343.209	472.56
343.437	480.56
343.665	478.56
343.893	490.56
344.12	493.56
344.348	510.56
344.576	498.56
344.804	500.56
345.031	516.56
345.259	522.56
345.487	516.56
345.714	478.56
345.942	461.56
346.17	473.56
346.397	473.56
346.625	439.56
346.853	486.56
347.08	471.56
347.308	480.56
347.535	462.56
347.763	469.56
347.99	466.56
348.218	465.56
348.445	474.56
348.673	471.56
348.9	484.56
349.128	482.56
349.355	463.56
349.583	464.56
349.81	452.56
350.037	451.56
350.265	465.56
350.492	418.56
350.72	451.56
350.947	447.56
351.174	469.56
351.402	469.56
351.629	470.56
351.856	449.56
352.083	475.56
352.311	474.56
352.538	459.56
352.765	486.56
352.992	470.56
353.22	483.56
353.447	482.56
353.674	473.56
353.901	441.56
354.128	460.56
354.355	453.56
354.583	441.56
354.81	453.56
355.037	444.56
355.264	458.56
355.491	439.56
355.718	437.56
355.945	430.56
356.172	448.56
356.399	427.56
356.626	453.56
356.853	451.56
357.08	443.56
357.307	427.56
357.534	462.56
357.761	451.56
357.988	441.56
358.215	452.56
358.441	449.56
358.668	452.56
358.895	465.56
359.122	473.56
359.349	454.56
359.576	462.56
359.802	485.56
360.029	496.56
360.256	498.56
360.483	481.56
360.709	463.56
360.936	476.56
361.163	458.56
361.39	462.56
361.616	497.56
361.843	457.56
362.07	454.56
362.296	455.56
362.523	470.56
362.749	454.56
362.976	459.56
363.203	478.56
363.429	464.56
363.656	458.56
363.882	458.56
364.109	484.56
364.335	477.56
364.562	471.56
364.788	476.56
365.015	466.56
365.241	452.56
365.468	459.56
365.694	454.56
365.92	466.56
366.147	440.56
366.373	465.56
366.599	450.56
366.826	453.56
367.052	444.56
367.278	461.56
367.505	458.56
367.731	445.56
367.957	452.56
368.184	456.56
368.41	478.56
368.636	475.56
368.862	467.56
369.089	488.56
369.315	461.56
369.541	469.56
369.767	478.56
369.993	440.56
370.219	461.56
370.445	437.56
370.672	465.56
370.898	470.56
371.124	455.56
371.35	465.56
371.576	479.56
371.802	474.56
372.028	486.56
372.254	484.56
372.48	467.56
372.706	464.56
372.932	470.56
373.158	472.56
373.384	468.56
373.61	484.56
373.835	465.56
374.061	475.56
374.287	471.56
374.513	491.56
374.739	471.56
374.965	489.56
375.191	480.56
375.416	459.56
375.642	495.56
375.868	462.56
376.094	464.56
376.319	457.56
376.545	458.56
376.771	477.56
376.997	467.56
377.222	469.56
377.448	459.56
377.674	452.56
377.899	454.56
378.125	474.56
378.35	466.56
378.576	468.56
378.802	480.56
379.027	465.56
379.253	469.56
379.478	448.56
379.704	462.56
379.929	466.56
380.155	446.56
380.38	449.56
380.606	456.56
380.831	486.56
381.057	461.56
381.282	476.56
381.507	478.56
381.733	484.56
381.958	484.56
382.184	486.56
382.409	489.56
382.634	472.56
382.86	468.56
383.085	480.56
383.31	478.56
383.535	477.56
383.761	481.56
383.986	488.56
384.211	487.56
384.436	502.56
384.662	506.56
384.887	500.56
385.112	489.56
385.337	534.56
385.562	520.56
385.787	521.56
386.013	517.56
386.238	526.56
386.463	531.56
386.688	520.56
386.913	520.56
387.138	501.56
387.363	514.56
387.588	546.56
387.813	523.56
388.038	519.56
388.263	508.56
388.488	531.56
388.713	539.56
388.938	524.56
389.163	539.56
389.387	531.56
389.612	538.56
389.837	521.56
390.062	528.56
390.287	520.56
390.512	531.56
390.736	538.56
390.961	534.56
391.186	543.56
391.411	537.56
391.636	555.56
391.86	558.56
392.085	521.56
392.31	535.56
392.534	529.56
392.759	539.56
392.984	553.56
393.208	547.56
393.433	517.56
393.658	519.56
393.882	524.56
394.107	521.56
394.331	537.56
394.556	529.56
394.78	533.56
395.005	544.56
395.229	533.56
395.454	547.56
395.678	553.56
395.903	577.56
396.127	587.56
396.352	563.56
396.576	553.56
396.801	556.56
397.025	552.56
397.249	542.56
397.474	565.56
397.698	554.56
397.922	599.56
398.147	595.56
398.371	593.56
398.595	610.56
398.82	620.56
399.044	632.56
399.268	675.56
399.492	704.56
399.717	712.56
399.941	769.56
400.165	784.56
400.389	759.56
400.613	718.56
400.837	658.56
401.062	653.56
401.286	640.56
401.51	626.56
401.734	597.56
401.958	624.56
402.182	612.56
402.406	613.56
402.63	605.56
402.854	628.56
403.078	626.56
403.302	633.56
403.526	638.56
403.75	641.56
403.974	648.56
404.198	640.56
404.422	641.56
404.645	680.56
404.869	664.56
405.093	714.56
405.317	730.56
405.541	779.56
405.765	695.56
405.988	656.56
406.212	679.56
406.436	651.56
406.66	709.56
406.883	694.56
407.107	731.56
407.331	757.56
407.555	834.56
407.778	836.56
408.002	765.56
408.226	724.56
408.449	686.56
408.673	698.56
408.896	710.56
409.12	770.56
409.344	737.56
409.567	650.56
409.791	655.56
410.014	637.56
410.238	650.56
410.461	637.56
410.685	635.56
410.908	653.56
411.132	696.56
411.355	717.56
411.578	692.56
411.802	650.56
412.025	645.56
412.249	635.56
412.472	669.56
412.695	708.56
412.919	711.56
413.142	668.56
413.365	652.56
413.589	628.56
413.812	612.56
414.035	606.56
414.258	609.56
414.482	604.56
414.705	608.56
414.928	627.56
415.151	596.56
415.374	611.56
415.597	572.56
415.821	612.56
416.044	622.56
416.267	604.56
416.49	607.56
416.713	596.56
416.936	602.56
417.159	591.56
417.382	598.56
417.605	611.56
417.828	619.56
418.051	631.56
418.274	653.56
418.497	598.56
418.72	602.56
418.943	612.56
419.166	630.56
419.389	685.56
419.611	646.56
419.834	655.56
420.057	633.56
420.28	658.56
420.503	632.56
420.726	626.56
420.948	647.56
421.171	692.56
421.394	723.56
421.617	652.56
421.839	638.56
422.062	614.56
422.285	639.56
422.507	751.56
422.73	800.56
422.953	754.56
423.175	708.56
423.398	669.56
423.621	680.56
423.843	686.56
424.066	682.56
424.288	691.56
424.511	696.56
424.733	765.56
424.956	826.56
425.178	796.56
425.401	771.56
425.623	817.56
425.846	699.56
426.068	673.56
426.291	638.56
426.513	674.56
426.735	683.56
426.958	697.56
427.18	796.56
427.402	928.56
427.625	1058.56
427.847	896.56
428.069	770.56
428.292	708.56
428.514	634.56
428.736	635.56
428.958	643.56
429.181	606.56
429.403	604.56
429.625	627.56
429.847	662.56
430.069	714.56
430.292	746.56
430.514	630.56
430.736	608.56
430.958	596.56
431.18	587.56
431.402	606.56
431.624	588.56
431.846	587.56
432.068	590.56
432.29	578.56
432.512	582.56
432.734	601.56
432.956	600.56
433.178	602.56
433.4	594.56
433.622	571.56
433.844	573.56
434.066	608.56
434.287	578.56
434.509	622.56
434.731	614.56
434.953	627.56
435.175	646.56
435.397	651.56
435.618	654.56
435.84	684.56
436.062	805.56
436.284	876.56
436.505	749.56
436.727	644.56
436.949	608.56
437.17	617.56
437.392	634.56
437.614	620.56
437.835	633.56
438.057	758.56
438.278	861.56
438.5	871.56
438.721	960.56
438.943	917.56
439.165	715.56
439.386	670.56
439.608	681.56
439.829	644.56
440.05	698.56
440.272	748.56
440.493	684.56
440.715	641.56
440.936	617.56
441.158	629.56
441.379	629.56
441.6	624.56
441.822	666.56
442.043	704.56
442.264	786.56
442.486	852.56
442.707	749.56
442.928	669.56
443.149	696.56
443.371	714.56
443.592	750.56
443.813	890.56
444.034	941.56
444.255	781.56
444.476	692.56
444.698	702.56
444.919	693.56
445.14	805.56
445.361	758.56
445.582	722.56
445.803	796.56
446.024	874.56
446.245	907.56
446.466	810.56
446.687	714.56
446.908	680.56
447.129	652.56
447.35	598.56
447.571	611.56
447.792	588.56
448.013	613.56
448.234	623.56
448.455	666.56
448.675	793.56
448.896	923.56
449.117	778.56
449.338	768.56
449.559	827.56
449.779	974.56
450	765.56
450.221	673.56
450.442	601.56
450.662	602.56
450.883	611.56
451.104	595.56
451.324	604.56
451.545	572.56
451.766	555.56
451.986	568.56
452.207	553.56
452.428	545.56
452.648	535.56
452.869	542.56
453.089	554.56
453.31	551.56
453.53	556.56
453.751	529.56
453.971	544.56
454.192	561.56
454.412	536.56
454.633	530.56
454.853	535.56
455.073	530.56
455.294	571.56
455.514	632.56
455.734	629.56
455.955	560.56
456.175	532.56
456.395	505.56
456.616	501.56
456.836	522.56
457.056	512.56
457.276	512.56
457.497	512.56
457.717	530.56
457.937	516.56
458.157	515.56
458.377	526.56
458.598	542.56
458.818	618.56
459.038	691.56
459.258	692.56
459.478	626.56
459.698	590.56
459.918	600.56
460.138	600.56
460.358	587.56
460.578	596.56
460.798	610.56
461.018	613.56
461.238	628.56
461.458	607.56
461.678	597.56
461.898	606.56
462.118	604.56
462.338	632.56
462.558	624.56
462.777	628.56
462.997	665.56
463.217	701.56
463.437	667.56
463.657	662.56
463.876	644.56
464.096	656.56
464.316	675.56
464.536	648.56
464.755	646.56
464.975	647.56
465.195	666.56
465.414	730.56
465.634	655.56
465.854	609.56
466.073	605.56
466.293	601.56
466.512	577.56
466.732	566.56
466.951	543.56
467.171	562.56
467.391	570.56
467.61	593.56
467.829	586.56
468.049	572.56
468.268	549.56
468.488	558.56
468.707	548.56
468.927	553.56
469.146	562.56
469.365	560.56
469.585	563.56
469.804	565.56
470.023	589.56
470.243	566.56
470.462	582.56
470.681	585.56
470.901	586.56
471.12	566.56
471.339	573.56
471.558	588.56
471.777	584.56
471.997	552.56
472.216	548.56
472.435	605.56
472.654	588.56
472.873	565.56
473.092	565.56
473.311	536.56
473.53	560.56
473.749	581.56
473.968	610.56
474.187	732.56
474.406	743.56
474.625	639.56
474.844	580.56
475.063	588.56
475.282	574.56
475.501	568.56
475.72	608.56
475.939	575.56
476.158	586.56
476.377	580.56
476.596	599.56
476.814	580.56
477.033	583.56
477.252	592.56
477.471	612.56
477.69	626.56
477.908	634.56
478.127	633.56
478.346	637.56
478.564	632.56
478.783	652.56
479.002	648.56
479.22	662.56
479.439	652.56
479.658	697.56
479.876	698.56
480.095	678.56
480.313	727.56
480.532	708.56
480.751	704.56
480.969	702.56
481.188	762.56
481.406	760.56
481.624	700.56
481.843	677.56
482.061	676.56
482.28	664.56
482.498	648.56
482.717	649.56
482.935	679.56
483.153	668.56
483.372	660.56
483.59	654.56
483.808	666.56
484.027	672.56
484.245	686.56
484.463	681.56
484.681	674.56
484.9	709.56
485.118	685.56
485.336	683.56
485.554	685.56
485.772	683.56
485.99	666.56
486.209	672.56
486.427	684.56
486.645	706.56
486.863	697.56
487.081	720.56
487.299	684.56
487.517	709.56
487.735	721.56
487.953	718.56
488.171	730.56
488.389	734.56
488.607	721.56
488.825	728.56
489.043	725.56
489.261	733.56
489.479	736.56
489.696	750.56
489.914	741.56
490.132	753.56
490.35	778.56
490.568	751.56
490.786	770.56
491.003	798.56
491.221	824.56
491.439	782.56
491.657	798.56
491.874	813.56
492.092	829.56
492.31	835.56
492.527	834.56
492.745	855.56
492.963	826.56
493.18	845.56
493.398	842.56
493.615	824.56
493.833	842.56
494.05	864.56
494.268	868.56
494.485	843.56
494.703	850.56
494.92	854.56
495.138	862.56
495.355	855.56
495.573	857.56
495.79	846.56
496.008	857.56
496.225	860.56
496.442	845.56
496.66	865.56
496.877	881.56
497.094	872.56
497.312	860.56
497.529	898.56
497.746	900.56
497.963	924.56
498.181	907.56
498.398	956.56
498.615	956.56
498.832	1018.56
499.049	1050.56
499.267	1063.56
499.484	1101.56
499.701	1150.56
499.918	1216.56
500.135	1269.56
500.352	1353.56
500.569	1364.56
500.786	1423.56
501.003	1356.56
501.22	1300.56
501.437	1214.56
501.654	1190.56
501.871	1159.56
502.088	1108.56
502.305	1057.56
502.522	1019.56
502.739	967.56
502.956	981.56
503.172	937.56
503.389	905.56
503.606	893.56
503.823	909.56
504.04	865.56
504.256	856.56
504.473	858.56
504.69	857.56
504.907	867.56
505.123	849.56
505.34	855.56
505.557	794.56
505.773	806.56
505.99	830.56
506.207	788.56
506.423	836.56
506.64	781.56
506.856	791.56
507.073	785.56
507.289	763.56
507.506	790.56
507.722	758.56
507.939	791.56
508.155	790.56
508.372	768.56
508.588	748.56
508.805	758.56
509.021	743.56
509.238	760.56
509.454	777.56
509.67	757.56
509.887	768.56
510.103	737.56
510.319	748.56
510.536	806.56
510.752	1204.56
510.968	1008.56
511.184	749.56
511.401	739.56
511.617	716.56
511.833	723.56
512.049	724.56
512.265	694.56
512.481	724.56
512.698	707.56
512.914	706.56
513.13	690.56
513.346	692.56
513.562	703.56
513.778	713.56
513.994	698.56
514.21	715.56
514.426	736.56
514.642	735.56
514.858	811.56
515.074	820.56
515.29	902.56
515.506	1182.56
515.721	1062.56
515.937	818.56
516.153	784.56
516.369	767.56
516.585	750.56
516.801	768.56
517.016	772.56
517.232	750.56
517.448	756.56
517.664	790.56
517.879	785.56
518.095	772.56
518.311	757.56
518.527	773.56
518.742	735.56
518.958	722.56
519.173	729.56
519.389	707.56
519.605	705.56
519.82	704.56
520.036	717.56
520.251	711.56
520.467	729.56
520.682	742.56
520.898	737.56
521.113	732.56
521.329	766.56
521.544	826.56
521.76	983.56
521.975	1469.56
522.19	1459.56
522.406	894.56
522.621	747.56
522.836	706.56
523.052	677.56
523.267	652.56
523.482	654.56
523.698	637.56
523.913	661.56
524.128	654.56
524.343	628.56
524.559	621.56
524.774	606.56
524.989	603.56
525.204	606.56
525.419	590.56
525.634	600.56
525.849	603.56
526.064	581.56
526.28	578.56
526.495	586.56
526.71	588.56
526.925	591.56
527.14	587.56
527.355	592.56
527.57	573.56
527.785	572.56
527.999	601.56
528.214	551.56
528.429	574.56
528.644	570.56
528.859	597.56
529.074	588.56
529.289	603.56
529.503	655.56
529.718	632.56
529.933	600.56
530.148	588.56
530.363	560.56
530.577	571.56
530.792	588.56
531.007	552.56
531.221	578.56
531.436	569.56
531.651	577.56
531.865	567.56
532.08	578.56
532.295	572.56
532.509	573.56
532.724	553.56
532.938	553.56
533.153	567.56
533.367	540.56
533.582	560.56
533.796	574.56
534.011	550.56
534.225	553.56
534.44	577.56
534.654	564.56
534.868	579.56
535.083	561.56
535.297	579.56
535.511	552.56
535.726	557.56
535.94	571.56
536.154	569.56
536.369	561.56
536.583	554.56
536.797	569.56
537.011	525.56
537.225	576.56
537.44	534.56
537.654	538.56
537.868	542.56
538.082	529.56
538.296	535.56
538.51	537.56
538.724	537.56
538.938	531.56
539.153	540.56
539.367	555.56
539.581	546.56
539.795	553.56
540.009	532.56
540.222	545.56
540.436	522.56
540.65	534.56
540.864	555.56
541.078	550.56
541.292	564.56
541.506	554.56
541.72	532.56
541.934	545.56
542.147	542.56
542.361	544.56
542.575	543.56
542.789	517.56
543.002	530.56
543.216	550.56
543.43	541.56
543.644	538.56
543.857	532.56
544.071	523.56
544.285	552.56
544.498	532.56
544.712	539.56
544.925	569.56
545.139	570.56
545.352	530.56
545.566	521.56
545.779	539.56
545.993	536.56
546.206	552.56
546.42	538.56
546.633	542.56
546.847	545.56
547.06	533.56
547.274	537.56
547.487	528.56
547.7	536.56
547.914	523.56
548.127	525.56
548.34	534.56
548.554	516.56
548.767	534.56
548.98	512.56
549.193	545.56
549.407	524.56
549.62	534.56
549.833	545.56
550.046	524.56
550.259	541.56
550.473	502.56
550.686	514.56
550.899	540.56
551.112	521.56
551.325	516.56
551.538	501.56
551.751	511.56
551.964	504.56
552.177	510.56
552.39	512.56
552.603	532.56
552.816	549.56
553.029	541.56
553.242	553.56
553.455	550.56
553.667	555.56
553.88	550.56
554.093	536.56
554.306	542.56
554.519	498.56
554.732	531.56
554.944	530.56
555.157	524.56
555.37	490.56
555.583	490.56
555.795	493.56
556.008	490.56
556.221	497.56
556.433	492.56
556.646	480.56
556.859	497.56
557.071	469.56
557.284	470.56
557.496	475.56
557.709	450.56
557.921	475.56
558.134	468.56
558.346	469.56
558.559	475.56
558.771	461.56
558.984	487.56
559.196	474.56
559.409	462.56
559.621	456.56
559.833	456.56
560.046	461.56
560.258	467.56
560.47	468.56
560.683	461.56
560.895	465.56
561.107	459.56
561.32	446.56
561.532	454.56
561.744	461.56
561.956	474.56
562.168	464.56
562.381	475.56
562.593	473.56
562.805	458.56
563.017	488.56
563.229	471.56
563.441	446.56
563.653	467.56
563.865	452.56
564.077	467.56
564.289	489.56
564.501	499.56
564.713	493.56
564.925	485.56
565.137	510.56
565.349	523.56
565.561	500.56
565.773	531.56
565.985	521.56
566.197	524.56
566.408	560.56
566.62	574.56
566.832	606.56
567.044	631.56
567.255	617.56
567.467	618.56
567.679	633.56
567.891	656.56
568.102	668.56
568.314	635.56
568.526	610.56
568.737	602.56
568.949	558.56
569.161	517.56
569.372	513.56
569.584	511.56
569.795	498.56
570.007	484.56
570.218	510.56
570.43	482.56
570.641	464.56
570.853	459.56
571.064	462.56
571.276	473.56
571.487	444.56
571.698	444.56
571.91	437.56
572.121	432.56
572.333	415.56
572.544	410.56
572.755	425.56
572.966	416.56
573.178	409.56
573.389	422.56
573.6	414.56
573.811	394.56
574.023	391.56
574.234	412.56
574.445	408.56
574.656	399.56
574.867	388.56
575.078	404.56
575.289	390.56
575.501	390.56
575.712	380.56
575.923	382.56
576.134	385.56
576.345	386.56
576.556	385.56
576.767	370.56
576.978	379.56
577.188	394.56
577.399	369.56
577.61	404.56
577.821	390.56
578.032	370.56
578.243	400.56
578.454	566.56
578.665	450.56
578.875	365.56
579.086	365.56
579.297	362.56
579.508	378.56
579.718	354.56
579.929	366.56
580.14	378.56
580.35	344.56
580.561	362.56
580.772	362.56
580.982	369.56
581.193	360.56
581.403	374.56
581.614	375.56
581.825	365.56
582.035	358.56
582.246	354.56
582.456	341.56
582.667	335.56
582.877	353.56
583.087	352.56
583.298	351.56
583.508	355.56
583.719	348.56
583.929	372.56
584.139	350.56
584.35	354.56
584.56	356.56
584.77	338.56
584.981	361.56
585.191	330.56
585.401	354.56
585.611	333.56
585.821	346.56
586.032	336.56
586.242	343.56
586.452	330.56
586.662	332.56
586.872	326.56
587.082	342.56
587.292	331.56
587.502	366.56
587.713	347.56
587.923	360.56
588.133	353.56
588.343	333.56
588.553	342.56
588.762	345.56
588.972	328.56
589.182	342.56
589.392	330.56
589.602	348.56
589.812	325.56
590.022	357.56
590.232	338.56
590.441	343.56
590.651	333.56
590.861	342.56
591.071	326.56
591.281	348.56
591.49	342.56
591.7	348.56
591.91	359.56
592.119	364.56
592.329	337.56
592.539	384.56
592.748	372.56
592.958	379.56
593.167	367.56
593.377	386.56
593.587	391.56
593.796	381.56
594.006	371.56
594.215	381.56
594.424	367.56
594.634	373.56
594.843	379.56
595.053	384.56
595.262	362.56
595.472	352.56
595.681	333.56
595.89	361.56
596.1	345.56
596.309	333.56
596.518	324.56
596.727	318.56
596.937	318.56
597.146	327.56
597.355	326.56
597.564	310.56
597.774	301.56
597.983	324.56
598.192	310.56
598.401	321.56
598.61	302.56
598.819	308.56
599.028	289.56
599.237	318.56
599.446	305.56
599.655	295.56
599.864	310.56
600.073	288.56
600.282	293.56
600.491	302.56
600.7	306.56
600.909	294.56
601.118	305.56
601.327	287.56
601.536	310.56
601.745	299.56
601.953	291.56
602.162	291.56
602.371	313.56
602.58	297.56
602.789	291.56
602.997	304.56
603.206	297.56
603.415	303.56
603.623	288.56
603.832	276.56
604.041	282.56
604.249	293.56
604.458	280.56
604.666	288.56
604.875	278.56
605.084	294.56
605.292	280.56
605.501	270.56
605.709	297.56
605.918	285.56
606.126	275.56
606.334	292.56
606.543	286.56
606.751	292.56
606.96	286.56
607.168	283.56
607.376	282.56
607.585	281.56
607.793	270.56
608.001	281.56
608.21	286.56
608.418	285.56
608.626	285.56
608.834	287.56
609.043	282.56
609.251	299.56
609.459	285.56
609.667	290.56
609.875	292.56
610.083	283.56
610.291	295.56
610.499	277.56
610.707	278.56
610.916	291.56
611.124	296.56
611.332	289.56
611.54	293.56
611.748	299.56
611.955	278.56
612.163	282.56
612.371	273.56
612.579	267.56
612.787	280.56
612.995	282.56
613.203	270.56
613.411	269.56
613.618	286.56
613.826	298.56
614.034	281.56
614.242	274.56
614.449	255.56
614.657	285.56
614.865	285.56
615.072	276.56
615.28	291.56
615.488	272.56
615.695	265.56
615.903	268.56
616.111	293.56
616.318	291.56
616.526	276.56
616.733	280.56
616.941	279.56
617.148	280.56
617.356	272.56
617.563	288.56
617.771	263.56
617.978	252.56
618.185	265.56
618.393	267.56
618.6	286.56
618.807	265.56
619.015	267.56
619.222	291.56
619.429	274.56
619.637	259.56
619.844	266.56
620.051	269.56
620.258	269.56
620.466	242.56
620.673	246.56
620.88	253.56
621.087	260.56
621.294	257.56
621.501	253.56
621.708	276.56
621.915	276.56
622.122	261.56
622.329	258.56
622.536	251.56
622.743	242.56
622.95	265.56
623.157	249.56
623.364	254.56
623.571	248.56
623.778	264.56
623.985	236.56
624.192	246.56
624.399	232.56
624.606	246.56
624.812	242.56
625.019	243.56
625.226	228.56
625.433	254.56
625.639	227.56
625.846	244.56
626.053	253.56
626.259	218.56
626.466	236.56
626.673	229.56
626.879	229.56
627.086	235.56
627.293	246.56
627.499	238.56
627.706	237.56
627.912	228.56
628.119	227.56
628.325	235.56
628.532	216.56
628.738	225.56
628.945	235.56
629.151	225.56
629.357	236.56
629.564	242.56
629.77	227.56
629.976	223.56
630.183	217.56
630.389	214.56
630.595	241.56
630.802	220.56
631.008	240.56
631.214	225.56
631.42	212.56
631.627	210.56
631.833	216.56
632.039	224.56
632.245	197.56
632.451	218.56
632.657	222.56
632.863	209.56
633.069	218.56
633.275	218.56
633.481	212.56
633.688	206.56
633.893	207.56
634.099	199.56
634.305	215.56
634.511	205.56
634.717	198.56
634.923	212.56
635.129	220.56
635.335	192.56
635.541	205.56
635.747	197.56
635.952	209.56
636.158	220.56
636.364	195.56
636.57	208.56
636.775	210.56
636.981	196.56
637.187	219.56
637.392	206.56
637.598	201.56
637.804	215.56
638.009	189.56
638.215	185.56
638.421	188.56
638.626	205.56
638.832	200.56
639.037	204.56
639.243	203.56
639.448	200.56
639.654	200.56
639.859	181.56
640.065	198.56
640.27	195.56
640.475	192.56
640.681	206.56
640.886	194.56
641.091	194.56
641.297	198.56
641.502	197.56
641.707	191.56
641.913	201.56
642.118	207.56
642.323	185.56
642.528	202.56
642.733	193.56
642.939	176.56
643.144	201.56
643.349	186.56
643.554	184.56
643.759	184.56
643.964	192.56
644.169	187.56
644.374	196.56
644.579	192.56
644.784	182.56
644.989	195.56
645.194	191.56
645.399	184.56
645.604	181.56
645.809	180.56
646.014	192.56
646.219	178.56
646.423	171.56
646.628	188.56
646.833	187.56
647.038	178.56
647.243	184.56
647.447	206.56
647.652	170.56
647.857	192.56
648.062	188.56
648.266	190.56
648.471	177.56
648.676	178.56
648.88	189.56
649.085	180.56
649.289	194.56
649.494	185.56
649.698	220.56
649.903	210.56
650.107	188.56
650.312	182.56
650.516	181.56
650.721	180.56
650.925	177.56
651.13	163.56
651.334	166.56
651.539	183.56
651.743	162.56
651.947	182.56
652.152	173.56
652.356	161.56
652.56	154.56
652.764	159.56
652.969	148.56
653.173	154.56
653.377	156.56
653.581	162.56
653.785	164.56
653.99	151.56
654.194	163.56
654.398	145.56
654.602	152.56
654.806	151.56
655.01	148.56
655.214	154.56
655.418	146.56
655.622	141.56
655.826	149.56
656.03	136.56
656.234	140.56
656.438	145.56
656.642	164.56
656.846	142.56
657.049	141.56
657.253	122.56
657.457	134.56
657.661	127.56
657.865	136.56
658.068	123.56
658.272	110.56
658.476	116.56
658.68	100.56
658.883	90.56
659.087	113.56
659.291	107.56
659.494	101.56
659.698	97.56
659.901	104.56
660.105	113.56
660.309	102.56
660.512	106.56
660.716	81.56
660.919	89.56
661.123	105.56
661.326	87.56
661.53	97.56
661.733	89.56
661.936	94.56
662.14	88.56
662.343	83.56
662.546	86.56
662.75	86.56
662.953	80.56
663.156	77.56
663.36	84.56
663.563	90.56
663.766	88.56
663.969	75.56
664.173	84.56
664.376	80.56
664.579	77.56
664.782	91.56
664.985	90.56
665.188	81.56
665.391	85.56
665.594	79.56
665.797	97.56
666	87.56
666.203	72.56
666.406	79.56
666.609	68.56
666.812	80.56
667.015	88.56
667.218	79.56
667.421	92.56
667.624	88.56
667.827	76.56
668.03	80.56
668.232	68.56
668.435	79.56
668.638	59.56
668.841	73.56
669.043	74.56
669.246	78.56
669.449	81.56
669.651	82.56
669.854	72.56
670.057	80.56
670.259	84.56
670.462	73.56
670.665	76.56
670.867	86.56
671.07	81.56
671.272	86.56
671.475	86.56
671.677	77.56
671.88	88.56
672.082	79.56
672.284	85.56
672.487	85.56
672.689	82.56
672.892	77.56
