Data from 1974.PennyLincolnUp.Lamp.En5.5.200Scan.071719.P1.Changed Mount._HRD10591_15-53-24-857.txt Node
Date: Thu Jul 18 15:53:24 EDT 2019
User: cochatt
Spectrometer: HR+D1059
Trigger mode: 1
Integration Time (sec): 1.000000E-1
Scans to average: 1
Electric dark correction enabled: true
Nonlinearity correction enabled: false
Boxcar width: 0
XAxis mode: Wavelengths
Number of Pixels in Spectrum: 2048
>>>>>Begin Spectral Data<<<<<
223.165	-16.31
223.4	-16.31
223.635	-16.31
223.869	-24.31
224.104	-31.31
224.338	-14.31
224.573	-11.31
224.808	-5.31
225.042	-5.31
225.277	-7.31
225.511	4.69
225.746	4.69
225.98	12.69
226.215	11.69
226.449	12.69
226.683	27.69
226.918	13.69
227.152	27.69
227.387	30.69
227.621	50.69
227.856	35.69
228.09	42.69
228.324	59.69
228.559	65.69
228.793	78.69
229.027	104.69
229.262	124.69
229.496	101.69
229.73	136.69
229.964	172.69
230.199	126.69
230.433	134.69
230.667	117.69
230.901	123.69
231.136	122.69
231.37	113.69
231.604	110.69
231.838	119.69
232.072	104.69
232.306	103.69
232.541	123.69
232.775	126.69
233.009	139.69
233.243	121.69
233.477	129.69
233.711	140.69
233.945	123.69
234.179	138.69
234.413	127.69
234.647	126.69
234.881	116.69
235.115	126.69
235.349	123.69
235.583	126.69
235.817	130.69
236.051	144.69
236.285	136.69
236.519	125.69
236.753	144.69
236.987	151.69
237.221	185.69
237.455	244.69
237.689	200.69
237.922	135.69
238.156	157.69
238.39	154.69
238.624	137.69
238.858	144.69
239.091	136.69
239.325	145.69
239.559	141.69
239.793	139.69
240.027	140.69
240.26	158.69
240.494	181.69
240.728	177.69
240.961	161.69
241.195	154.69
241.429	145.69
241.662	159.69
241.896	148.69
242.13	135.69
242.363	145.69
242.597	146.69
242.83	157.69
243.064	147.69
243.298	158.69
243.531	152.69
243.765	144.69
243.998	153.69
244.232	141.69
244.465	146.69
244.699	150.69
244.932	156.69
245.166	165.69
245.399	172.69
245.633	175.69
245.866	168.69
246.099	160.69
246.333	162.69
246.566	166.69
246.8	151.69
247.033	174.69
247.266	167.69
247.5	175.69
247.733	185.69
247.966	191.69
248.2	187.69
248.433	180.69
248.666	209.69
248.899	208.69
249.133	224.69
249.366	244.69
249.599	222.69
249.832	183.69
250.066	201.69
250.299	198.69
250.532	210.69
250.765	229.69
250.998	239.69
251.231	242.69
251.465	232.69
251.698	230.69
251.931	216.69
252.164	213.69
252.397	224.69
252.63	201.69
252.863	221.69
253.096	224.69
253.329	258.69
253.562	257.69
253.795	242.69
254.028	241.69
254.261	246.69
254.494	251.69
254.727	264.69
254.96	318.69
255.193	301.69
255.426	266.69
255.659	258.69
255.892	268.69
256.124	248.69
256.357	246.69
256.59	264.69
256.823	238.69
257.056	228.69
257.289	237.69
257.521	241.69
257.754	232.69
257.987	222.69
258.22	231.69
258.452	229.69
258.685	220.69
258.918	231.69
259.151	239.69
259.383	241.69
259.616	234.69
259.849	255.69
260.081	254.69
260.314	262.69
260.547	286.69
260.779	273.69
261.012	268.69
261.244	257.69
261.477	253.69
261.71	259.69
261.942	239.69
262.175	260.69
262.407	251.69
262.64	239.69
262.872	252.69
263.105	242.69
263.337	237.69
263.57	230.69
263.802	234.69
264.035	234.69
264.267	232.69
264.499	244.69
264.732	229.69
264.964	225.69
265.197	230.69
265.429	242.69
265.661	230.69
265.894	229.69
266.126	222.69
266.358	247.69
266.591	258.69
266.823	252.69
267.055	245.69
267.287	238.69
267.52	254.69
267.752	232.69
267.984	249.69
268.216	258.69
268.448	266.69
268.681	255.69
268.913	273.69
269.145	272.69
269.377	321.69
269.609	298.69
269.841	295.69
270.073	292.69
270.306	327.69
270.538	358.69
270.77	346.69
271.002	338.69
271.234	316.69
271.466	331.69
271.698	335.69
271.93	353.69
272.162	355.69
272.394	338.69
272.626	335.69
272.858	312.69
273.09	318.69
273.322	312.69
273.553	295.69
273.785	287.69
274.017	289.69
274.249	298.69
274.481	288.69
274.713	298.69
274.945	309.69
275.176	308.69
275.408	308.69
275.64	305.69
275.872	298.69
276.104	290.69
276.335	297.69
276.567	308.69
276.799	318.69
277.031	332.69
277.262	356.69
277.494	335.69
277.726	333.69
277.957	314.69
278.189	322.69
278.421	306.69
278.652	303.69
278.884	283.69
279.115	304.69
279.347	299.69
279.579	289.69
279.81	299.69
280.042	289.69
280.273	306.69
280.505	322.69
280.736	298.69
280.968	303.69
281.199	303.69
281.431	285.69
281.662	298.69
281.894	304.69
282.125	301.69
282.356	326.69
282.588	331.69
282.819	349.69
283.051	306.69
283.282	295.69
283.513	325.69
283.745	304.69
283.976	321.69
284.207	325.69
284.439	334.69
284.67	336.69
284.901	326.69
285.132	328.69
285.364	322.69
285.595	321.69
285.826	321.69
286.057	328.69
286.288	343.69
286.52	313.69
286.751	321.69
286.982	313.69
287.213	325.69
287.444	320.69
287.675	337.69
287.906	354.69
288.138	337.69
288.369	337.69
288.6	340.69
288.831	342.69
289.062	354.69
289.293	334.69
289.524	326.69
289.755	322.69
289.986	321.69
290.217	315.69
290.448	337.69
290.679	346.69
290.91	338.69
291.141	320.69
291.371	332.69
291.602	330.69
291.833	341.69
292.064	335.69
292.295	329.69
292.526	333.69
292.757	334.69
292.987	308.69
293.218	332.69
293.449	324.69
293.68	337.69
293.91	330.69
294.141	344.69
294.372	328.69
294.603	328.69
294.833	326.69
295.064	346.69
295.295	337.69
295.525	329.69
295.756	324.69
295.987	336.69
296.217	351.69
296.448	366.69
296.679	358.69
296.909	340.69
297.14	337.69
297.37	331.69
297.601	338.69
297.831	348.69
298.062	344.69
298.292	348.69
298.523	360.69
298.753	362.69
298.984	369.69
299.214	350.69
299.445	350.69
299.675	354.69
299.905	342.69
300.136	338.69
300.366	353.69
300.597	358.69
300.827	375.69
301.057	386.69
301.288	375.69
301.518	380.69
301.748	374.69
301.979	381.69
302.209	365.69
302.439	387.69
302.669	400.69
302.9	369.69
303.13	361.69
303.36	384.69
303.59	380.69
303.82	359.69
304.051	384.69
304.281	367.69
304.511	380.69
304.741	388.69
304.971	362.69
305.201	354.69
305.431	378.69
305.661	354.69
305.891	362.69
306.121	353.69
306.352	372.69
306.582	378.69
306.812	383.69
307.042	383.69
307.272	395.69
307.502	360.69
307.731	392.69
307.961	366.69
308.191	363.69
308.421	365.69
308.651	372.69
308.881	382.69
309.111	380.69
309.341	396.69
309.571	392.69
309.8	395.69
310.03	400.69
310.26	401.69
310.49	398.69
310.72	429.69
310.949	426.69
311.179	410.69
311.409	419.69
311.639	408.69
311.868	425.69
312.098	417.69
312.328	416.69
312.557	431.69
312.787	433.69
313.017	445.69
313.246	426.69
313.476	437.69
313.706	434.69
313.935	448.69
314.165	432.69
314.394	433.69
314.624	447.69
314.853	426.69
315.083	422.69
315.312	440.69
315.542	430.69
315.771	426.69
316.001	426.69
316.23	397.69
316.46	397.69
316.689	427.69
316.919	412.69
317.148	433.69
317.377	430.69
317.607	422.69
317.836	427.69
318.065	431.69
318.295	423.69
318.524	425.69
318.753	406.69
318.983	401.69
319.212	434.69
319.441	441.69
319.67	441.69
319.9	423.69
320.129	427.69
320.358	439.69
320.587	424.69
320.816	432.69
321.046	436.69
321.275	449.69
321.504	440.69
321.733	432.69
321.962	459.69
322.191	452.69
322.42	450.69
322.649	456.69
322.878	488.69
323.108	483.69
323.337	502.69
323.566	502.69
323.795	553.69
324.024	579.69
324.253	644.69
324.482	902.69
324.71	1340.69
324.939	1992.69
325.168	1736.69
325.397	912.69
325.626	670.69
325.855	551.69
326.084	552.69
326.313	536.69
326.542	551.69
326.77	565.69
326.999	621.69
327.228	830.69
327.457	1223.69
327.686	1556.69
327.914	1070.69
328.143	714.69
328.372	644.69
328.6	591.69
328.829	575.69
329.058	567.69
329.287	596.69
329.515	574.69
329.744	548.69
329.972	568.69
330.201	556.69
330.43	586.69
330.658	600.69
330.887	625.69
331.115	636.69
331.344	548.69
331.572	534.69
331.801	512.69
332.03	522.69
332.258	524.69
332.486	487.69
332.715	496.69
332.943	501.69
333.172	529.69
333.4	537.69
333.629	543.69
333.857	559.69
334.085	528.69
334.314	550.69
334.542	587.69
334.771	604.69
334.999	572.69
335.227	550.69
335.455	534.69
335.684	529.69
335.912	520.69
336.14	516.69
336.369	512.69
336.597	514.69
336.825	521.69
337.053	494.69
337.281	494.69
337.51	507.69
337.738	502.69
337.966	506.69
338.194	518.69
338.422	495.69
338.65	471.69
338.878	490.69
339.106	503.69
339.334	487.69
339.562	476.69
339.79	486.69
340.018	500.69
340.246	506.69
340.474	504.69
340.702	476.69
340.93	485.69
341.158	496.69
341.386	492.69
341.614	477.69
341.842	464.69
342.07	489.69
342.298	479.69
342.526	471.69
342.754	475.69
342.981	472.69
343.209	474.69
343.437	478.69
343.665	514.69
343.893	509.69
344.12	496.69
344.348	508.69
344.576	502.69
344.804	508.69
345.031	478.69
345.259	516.69
345.487	490.69
345.714	496.69
345.942	492.69
346.17	477.69
346.397	479.69
346.625	482.69
346.853	452.69
347.08	474.69
347.308	478.69
347.535	479.69
347.763	487.69
347.99	487.69
348.218	474.69
348.445	500.69
348.673	474.69
348.9	457.69
349.128	472.69
349.355	470.69
349.583	473.69
349.81	461.69
350.037	461.69
350.265	455.69
350.492	438.69
350.72	448.69
350.947	477.69
351.174	462.69
351.402	467.69
351.629	473.69
351.856	481.69
352.083	465.69
352.311	466.69
352.538	478.69
352.765	503.69
352.992	474.69
353.22	481.69
353.447	452.69
353.674	472.69
353.901	465.69
354.128	478.69
354.355	461.69
354.583	459.69
354.81	458.69
355.037	453.69
355.264	449.69
355.491	458.69
355.718	443.69
355.945	454.69
356.172	449.69
356.399	432.69
356.626	457.69
356.853	458.69
357.08	448.69
357.307	446.69
357.534	438.69
357.761	430.69
357.988	433.69
358.215	464.69
358.441	471.69
358.668	472.69
358.895	464.69
359.122	453.69
359.349	462.69
359.576	477.69
359.802	483.69
360.029	512.69
360.256	497.69
360.483	491.69
360.709	474.69
360.936	478.69
361.163	466.69
361.39	466.69
361.616	468.69
361.843	455.69
362.07	455.69
362.296	466.69
362.523	459.69
362.749	478.69
362.976	462.69
363.203	453.69
363.429	465.69
363.656	460.69
363.882	453.69
364.109	464.69
364.335	447.69
364.562	462.69
364.788	473.69
365.015	456.69
365.241	455.69
365.468	456.69
365.694	462.69
365.92	457.69
366.147	452.69
366.373	460.69
366.599	469.69
366.826	457.69
367.052	465.69
367.278	447.69
367.505	484.69
367.731	461.69
367.957	456.69
368.184	476.69
368.41	465.69
368.636	492.69
368.862	497.69
369.089	483.69
369.315	478.69
369.541	451.69
369.767	472.69
369.993	460.69
370.219	463.69
370.445	470.69
370.672	450.69
370.898	453.69
371.124	468.69
371.35	460.69
371.576	471.69
371.802	468.69
372.028	466.69
372.254	463.69
372.48	457.69
372.706	461.69
372.932	469.69
373.158	483.69
373.384	473.69
373.61	476.69
373.835	462.69
374.061	470.69
374.287	469.69
374.513	462.69
374.739	485.69
374.965	505.69
375.191	497.69
375.416	484.69
375.642	455.69
375.868	493.69
376.094	455.69
376.319	477.69
376.545	482.69
376.771	470.69
376.997	481.69
377.222	453.69
377.448	451.69
377.674	463.69
377.899	477.69
378.125	478.69
378.35	457.69
378.576	465.69
378.802	445.69
379.027	459.69
379.253	471.69
379.478	465.69
379.704	461.69
379.929	460.69
380.155	468.69
380.38	474.69
380.606	462.69
380.831	465.69
381.057	475.69
381.282	491.69
381.507	495.69
381.733	469.69
381.958	489.69
382.184	485.69
382.409	483.69
382.634	508.69
382.86	493.69
383.085	514.69
383.31	481.69
383.535	511.69
383.761	489.69
383.986	500.69
384.211	502.69
384.436	520.69
384.662	522.69
384.887	530.69
385.112	502.69
385.337	530.69
385.562	508.69
385.787	540.69
386.013	536.69
386.238	529.69
386.463	534.69
386.688	528.69
386.913	518.69
387.138	549.69
387.363	546.69
387.588	518.69
387.813	538.69
388.038	513.69
388.263	505.69
388.488	504.69
388.713	509.69
388.938	547.69
389.163	520.69
389.387	498.69
389.612	526.69
389.837	532.69
390.062	532.69
390.287	518.69
390.512	523.69
390.736	508.69
390.961	530.69
391.186	525.69
391.411	528.69
391.636	531.69
391.86	534.69
392.085	540.69
392.31	561.69
392.534	544.69
392.759	553.69
392.984	520.69
393.208	558.69
393.433	534.69
393.658	538.69
393.882	523.69
394.107	525.69
394.331	537.69
394.556	544.69
394.78	552.69
395.005	557.69
395.229	562.69
395.454	548.69
395.678	566.69
395.903	569.69
396.127	594.69
396.352	597.69
396.576	544.69
396.801	553.69
397.025	553.69
397.249	559.69
397.474	566.69
397.698	568.69
397.922	572.69
398.147	620.69
398.371	625.69
398.595	624.69
398.82	590.69
399.044	622.69
399.268	657.69
399.492	688.69
399.717	745.69
399.941	753.69
400.165	784.69
400.389	800.69
400.613	686.69
400.837	645.69
401.062	648.69
401.286	632.69
401.51	633.69
401.734	629.69
401.958	649.69
402.182	625.69
402.406	643.69
402.63	626.69
402.854	619.69
403.078	661.69
403.302	649.69
403.526	664.69
403.75	654.69
403.974	646.69
404.198	651.69
404.422	650.69
404.645	677.69
404.869	650.69
405.093	693.69
405.317	727.69
405.541	773.69
405.765	712.69
405.988	682.69
406.212	672.69
406.436	680.69
406.66	698.69
406.883	682.69
407.107	726.69
407.331	761.69
407.555	841.69
407.778	821.69
408.002	803.69
408.226	732.69
408.449	716.69
408.673	683.69
408.896	716.69
409.12	777.69
409.344	746.69
409.567	662.69
409.791	651.69
410.014	643.69
410.238	621.69
410.461	655.69
410.685	655.69
410.908	684.69
411.132	696.69
411.355	737.69
411.578	689.69
411.802	661.69
412.025	662.69
412.249	661.69
412.472	705.69
412.695	716.69
412.919	682.69
413.142	648.69
413.365	631.69
413.589	630.69
413.812	613.69
414.035	617.69
414.258	617.69
414.482	605.69
414.705	617.69
414.928	625.69
415.151	595.69
415.374	602.69
415.597	590.69
415.821	594.69
416.044	600.69
416.267	591.69
416.49	631.69
416.713	617.69
416.936	615.69
417.159	608.69
417.382	613.69
417.605	612.69
417.828	621.69
418.051	656.69
418.274	635.69
418.497	610.69
418.72	617.69
418.943	598.69
419.166	664.69
419.389	652.69
419.611	666.69
419.834	659.69
420.057	659.69
420.28	636.69
420.503	640.69
420.726	634.69
420.948	647.69
421.171	708.69
421.394	743.69
421.617	657.69
421.839	659.69
422.062	644.69
422.285	642.69
422.507	718.69
422.73	786.69
422.953	766.69
423.175	699.69
423.398	662.69
423.621	662.69
423.843	675.69
424.066	686.69
424.288	687.69
424.511	703.69
424.733	770.69
424.956	838.69
425.178	807.69
425.401	811.69
425.623	851.69
425.846	708.69
426.068	657.69
426.291	665.69
426.513	666.69
426.735	683.69
426.958	721.69
427.18	783.69
427.402	939.69
427.625	1034.69
427.847	911.69
428.069	795.69
428.292	700.69
428.514	657.69
428.736	635.69
428.958	622.69
429.181	632.69
429.403	612.69
429.625	622.69
429.847	661.69
430.069	714.69
430.292	716.69
430.514	643.69
430.736	623.69
430.958	592.69
431.18	593.69
431.402	584.69
431.624	610.69
431.846	591.69
432.068	588.69
432.29	588.69
432.512	582.69
432.734	624.69
432.956	606.69
433.178	606.69
433.4	613.69
433.622	593.69
433.844	599.69
434.066	586.69
434.287	575.69
434.509	612.69
434.731	608.69
434.953	609.69
435.175	661.69
435.397	678.69
435.618	679.69
435.84	687.69
436.062	822.69
436.284	871.69
436.505	761.69
436.727	676.69
436.949	653.69
437.17	644.69
437.392	618.69
437.614	601.69
437.835	641.69
438.057	752.69
438.278	856.69
438.5	862.69
438.721	905.69
438.943	910.69
439.165	735.69
439.386	658.69
439.608	659.69
439.829	642.69
440.05	685.69
440.272	741.69
440.493	702.69
440.715	656.69
440.936	644.69
441.158	641.69
441.379	625.69
441.6	622.69
441.822	650.69
442.043	707.69
442.264	812.69
442.486	837.69
442.707	705.69
442.928	691.69
443.149	697.69
443.371	725.69
443.592	732.69
443.813	868.69
444.034	903.69
444.255	812.69
444.476	719.69
444.698	717.69
444.919	718.69
445.14	781.69
445.361	741.69
445.582	692.69
445.803	769.69
446.024	890.69
446.245	898.69
446.466	815.69
446.687	701.69
446.908	681.69
447.129	625.69
447.35	644.69
447.571	626.69
447.792	603.69
448.013	640.69
448.234	636.69
448.455	693.69
448.675	804.69
448.896	944.69
449.117	792.69
449.338	754.69
449.559	857.69
449.779	962.69
450	784.69
450.221	671.69
450.442	630.69
450.662	601.69
450.883	607.69
451.104	607.69
451.324	581.69
451.545	564.69
451.766	575.69
451.986	552.69
452.207	537.69
452.428	557.69
452.648	536.69
452.869	559.69
453.089	551.69
453.31	568.69
453.53	548.69
453.751	568.69
453.971	534.69
454.192	557.69
454.412	559.69
454.633	524.69
454.853	544.69
455.073	565.69
455.294	576.69
455.514	647.69
455.734	633.69
455.955	541.69
456.175	549.69
456.395	506.69
456.616	526.69
456.836	516.69
457.056	517.69
457.276	517.69
457.497	508.69
457.717	520.69
457.937	504.69
458.157	526.69
458.377	526.69
458.598	564.69
458.818	628.69
459.038	654.69
459.258	734.69
459.478	636.69
459.698	591.69
459.918	582.69
460.138	613.69
460.358	601.69
460.578	619.69
460.798	598.69
461.018	648.69
461.238	613.69
461.458	609.69
461.678	584.69
461.898	623.69
462.118	615.69
462.338	648.69
462.558	644.69
462.777	643.69
462.997	704.69
463.217	696.69
463.437	717.69
463.657	670.69
463.876	662.69
464.096	677.69
464.316	648.69
464.536	649.69
464.755	653.69
464.975	653.69
465.195	695.69
465.414	709.69
465.634	656.69
465.854	596.69
466.073	609.69
466.293	567.69
466.512	587.69
466.732	558.69
466.951	564.69
467.171	584.69
467.391	558.69
467.61	555.69
467.829	579.69
468.049	578.69
468.268	555.69
468.488	550.69
468.707	549.69
468.927	555.69
469.146	552.69
469.365	547.69
469.585	548.69
469.804	557.69
470.023	568.69
470.243	568.69
470.462	590.69
470.681	613.69
470.901	611.69
471.12	566.69
471.339	564.69
471.558	567.69
471.777	567.69
471.997	567.69
472.216	562.69
472.435	600.69
472.654	609.69
472.873	560.69
473.092	575.69
473.311	563.69
473.53	575.69
473.749	620.69
473.968	628.69
474.187	723.69
474.406	708.69
474.625	615.69
474.844	562.69
475.063	594.69
475.282	577.69
475.501	557.69
475.72	600.69
475.939	585.69
476.158	587.69
476.377	587.69
476.596	597.69
476.814	575.69
477.033	568.69
477.252	615.69
477.471	590.69
477.69	611.69
477.908	610.69
478.127	609.69
478.346	657.69
478.564	642.69
478.783	661.69
479.002	668.69
479.22	668.69
479.439	687.69
479.658	670.69
479.876	671.69
480.095	708.69
480.313	751.69
480.532	731.69
480.751	704.69
480.969	731.69
481.188	753.69
481.406	750.69
481.624	708.69
481.843	716.69
482.061	665.69
482.28	665.69
482.498	655.69
482.717	666.69
482.935	664.69
483.153	656.69
483.372	676.69
483.59	664.69
483.808	695.69
484.027	665.69
484.245	681.69
484.463	688.69
484.681	688.69
484.9	693.69
485.118	694.69
485.336	710.69
485.554	684.69
485.772	687.69
485.99	705.69
486.209	684.69
486.427	712.69
486.645	708.69
486.863	724.69
487.081	706.69
487.299	736.69
487.517	703.69
487.735	710.69
487.953	712.69
488.171	724.69
488.389	735.69
488.607	731.69
488.825	719.69
489.043	710.69
489.261	742.69
489.479	762.69
489.696	742.69
489.914	749.69
490.132	748.69
490.35	742.69
490.568	792.69
490.786	801.69
491.003	789.69
491.221	790.69
491.439	806.69
491.657	845.69
491.874	812.69
492.092	844.69
492.31	855.69
492.527	828.69
492.745	830.69
492.963	884.69
493.18	860.69
493.398	850.69
493.615	842.69
493.833	880.69
494.05	868.69
494.268	880.69
494.485	842.69
494.703	865.69
494.92	889.69
495.138	826.69
495.355	870.69
495.573	840.69
495.79	876.69
496.008	854.69
496.225	862.69
496.442	853.69
496.66	869.69
496.877	873.69
497.094	864.69
497.312	882.69
497.529	888.69
497.746	893.69
497.963	881.69
498.181	933.69
498.398	953.69
498.615	993.69
498.832	991.69
499.049	1042.69
499.267	1071.69
499.484	1092.69
499.701	1166.69
499.918	1209.69
500.135	1292.69
500.352	1365.69
500.569	1374.69
500.786	1365.69
501.003	1321.69
501.22	1303.69
501.437	1245.69
501.654	1183.69
501.871	1137.69
502.088	1095.69
502.305	1029.69
502.522	1004.69
502.739	1004.69
502.956	940.69
503.172	935.69
503.389	911.69
503.606	921.69
503.823	885.69
504.04	878.69
504.256	883.69
504.473	856.69
504.69	900.69
504.907	881.69
505.123	863.69
505.34	821.69
505.557	810.69
505.773	824.69
505.99	807.69
506.207	815.69
506.423	830.69
506.64	822.69
506.856	779.69
507.073	776.69
507.289	776.69
507.506	795.69
507.722	816.69
507.939	772.69
508.155	782.69
508.372	753.69
508.588	770.69
508.805	754.69
509.021	784.69
509.238	795.69
509.454	780.69
509.67	739.69
509.887	729.69
510.103	751.69
510.319	752.69
510.536	836.69
510.752	1189.69
510.968	1024.69
511.184	763.69
511.401	719.69
511.617	706.69
511.833	726.69
512.049	740.69
512.265	706.69
512.481	720.69
512.698	715.69
512.914	694.69
513.13	711.69
513.346	705.69
513.562	672.69
513.778	719.69
513.994	694.69
514.21	728.69
514.426	743.69
514.642	756.69
514.858	778.69
515.074	826.69
515.29	911.69
515.506	1179.69
515.721	1052.69
515.937	824.69
516.153	772.69
516.369	720.69
516.585	733.69
516.801	776.69
517.016	761.69
517.232	774.69
517.448	784.69
517.664	813.69
517.879	810.69
518.095	779.69
518.311	765.69
518.527	748.69
518.742	728.69
518.958	743.69
519.173	715.69
519.389	725.69
519.605	712.69
519.82	689.69
520.036	737.69
520.251	735.69
520.467	758.69
520.682	742.69
520.898	725.69
521.113	742.69
521.329	792.69
521.544	867.69
521.76	969.69
521.975	1449.69
522.19	1471.69
522.406	916.69
522.621	732.69
522.836	692.69
523.052	665.69
523.267	655.69
523.482	668.69
523.698	640.69
523.913	631.69
524.128	642.69
524.343	634.69
524.559	630.69
524.774	615.69
524.989	621.69
525.204	639.69
525.419	617.69
525.634	634.69
525.849	581.69
526.064	604.69
526.28	594.69
526.495	618.69
526.71	607.69
526.925	599.69
527.14	597.69
527.355	585.69
527.57	594.69
527.785	586.69
527.999	569.69
528.214	593.69
528.429	581.69
528.644	591.69
528.859	586.69
529.074	598.69
529.289	600.69
529.503	668.69
529.718	637.69
529.933	617.69
530.148	591.69
530.363	601.69
530.577	577.69
530.792	583.69
531.007	576.69
531.221	568.69
531.436	566.69
531.651	566.69
531.865	584.69
532.08	569.69
532.295	586.69
532.509	566.69
532.724	572.69
532.938	550.69
533.153	563.69
533.367	569.69
533.582	564.69
533.796	590.69
534.011	564.69
534.225	550.69
534.44	537.69
534.654	569.69
534.868	558.69
535.083	568.69
535.297	548.69
535.511	551.69
535.726	541.69
535.94	556.69
536.154	566.69
536.369	557.69
536.583	526.69
536.797	537.69
537.011	547.69
537.225	539.69
537.44	541.69
537.654	524.69
537.868	542.69
538.082	545.69
538.296	569.69
538.51	534.69
538.724	556.69
538.938	566.69
539.153	538.69
539.367	568.69
539.581	548.69
539.795	536.69
540.009	519.69
540.222	542.69
540.436	558.69
540.65	545.69
540.864	539.69
541.078	556.69
541.292	556.69
541.506	543.69
541.72	552.69
541.934	555.69
542.147	551.69
542.361	537.69
542.575	538.69
542.789	536.69
543.002	552.69
543.216	557.69
543.43	554.69
543.644	525.69
543.857	535.69
544.071	547.69
544.285	544.69
544.498	568.69
544.712	535.69
544.925	537.69
545.139	548.69
545.352	538.69
545.566	526.69
545.779	527.69
545.993	525.69
546.206	543.69
546.42	565.69
546.633	550.69
546.847	524.69
547.06	522.69
547.274	527.69
547.487	549.69
547.7	530.69
547.914	512.69
548.127	528.69
548.34	549.69
548.554	524.69
548.767	529.69
548.98	541.69
549.193	542.69
549.407	529.69
549.62	549.69
549.833	530.69
550.046	530.69
550.259	541.69
550.473	522.69
550.686	548.69
550.899	535.69
551.112	527.69
551.325	523.69
551.538	506.69
551.751	545.69
551.964	523.69
552.177	536.69
552.39	538.69
552.603	537.69
552.816	549.69
553.029	534.69
553.242	537.69
553.455	558.69
553.667	593.69
553.88	584.69
554.093	537.69
554.306	568.69
554.519	528.69
554.732	495.69
554.944	536.69
555.157	530.69
555.37	515.69
555.583	513.69
555.795	493.69
556.008	484.69
556.221	489.69
556.433	466.69
556.646	469.69
556.859	478.69
557.071	474.69
557.284	478.69
557.496	461.69
557.709	482.69
557.921	472.69
558.134	473.69
558.346	475.69
558.559	449.69
558.771	472.69
558.984	474.69
559.196	479.69
559.409	464.69
559.621	469.69
559.833	472.69
560.046	448.69
560.258	450.69
560.47	457.69
560.683	474.69
560.895	453.69
561.107	471.69
561.32	456.69
561.532	446.69
561.744	460.69
561.956	454.69
562.168	472.69
562.381	449.69
562.593	471.69
562.805	484.69
563.017	478.69
563.229	458.69
563.441	463.69
563.653	464.69
563.865	457.69
564.077	472.69
564.289	495.69
564.501	488.69
564.713	500.69
564.925	495.69
565.137	522.69
565.349	524.69
565.561	502.69
565.773	510.69
565.985	534.69
566.197	555.69
566.408	593.69
566.62	593.69
566.832	603.69
567.044	610.69
567.255	640.69
567.467	626.69
567.679	629.69
567.891	652.69
568.102	641.69
568.314	626.69
568.526	601.69
568.737	601.69
568.949	580.69
569.161	534.69
569.372	500.69
569.584	517.69
569.795	473.69
570.007	486.69
570.218	534.69
570.43	502.69
570.641	465.69
570.853	473.69
571.064	469.69
571.276	454.69
571.487	453.69
571.698	458.69
571.91	446.69
572.121	439.69
572.333	436.69
572.544	423.69
572.755	415.69
572.966	416.69
573.178	426.69
573.389	398.69
573.6	408.69
573.811	420.69
574.023	400.69
574.234	407.69
574.445	409.69
574.656	403.69
574.867	392.69
575.078	389.69
575.289	400.69
575.501	397.69
575.712	399.69
575.923	390.69
576.134	388.69
576.345	381.69
576.556	390.69
576.767	400.69
576.978	401.69
577.188	393.69
577.399	394.69
577.61	394.69
577.821	401.69
578.032	397.69
578.243	415.69
578.454	558.69
578.665	468.69
578.875	388.69
579.086	358.69
579.297	386.69
579.508	356.69
579.718	360.69
579.929	374.69
580.14	360.69
580.35	344.69
580.561	351.69
580.772	376.69
580.982	372.69
581.193	341.69
581.403	367.69
581.614	342.69
581.825	379.69
582.035	352.69
582.246	352.69
582.456	362.69
582.667	374.69
582.877	341.69
583.087	354.69
583.298	367.69
583.508	355.69
583.719	357.69
583.929	335.69
584.139	369.69
584.35	356.69
584.56	344.69
584.77	352.69
584.981	351.69
585.191	337.69
585.401	357.69
585.611	342.69
585.821	354.69
586.032	352.69
586.242	349.69
586.452	345.69
586.662	334.69
586.872	347.69
587.082	357.69
587.292	347.69
587.502	342.69
587.713	333.69
587.923	350.69
588.133	348.69
588.343	361.69
588.553	337.69
588.762	323.69
588.972	333.69
589.182	350.69
589.392	346.69
589.602	348.69
589.812	344.69
590.022	318.69
590.232	365.69
590.441	350.69
590.651	339.69
590.861	337.69
591.071	340.69
591.281	337.69
591.49	340.69
591.7	353.69
591.91	352.69
592.119	348.69
592.329	347.69
592.539	377.69
592.748	390.69
592.958	383.69
593.167	385.69
593.377	374.69
593.587	385.69
593.796	394.69
594.006	401.69
594.215	379.69
594.424	379.69
594.634	381.69
594.843	384.69
595.053	361.69
595.262	375.69
595.472	385.69
595.681	364.69
595.89	340.69
596.1	339.69
596.309	337.69
596.518	349.69
596.727	355.69
596.937	338.69
597.146	346.69
597.355	317.69
597.564	328.69
597.774	306.69
597.983	320.69
598.192	333.69
598.401	310.69
598.61	301.69
598.819	297.69
599.028	304.69
599.237	298.69
599.446	315.69
599.655	286.69
599.864	322.69
600.073	315.69
600.282	299.69
600.491	320.69
600.7	316.69
600.909	313.69
601.118	302.69
601.327	293.69
601.536	310.69
601.745	300.69
601.953	290.69
602.162	314.69
602.371	302.69
602.58	303.69
602.789	296.69
602.997	287.69
603.206	288.69
603.415	310.69
603.623	292.69
603.832	320.69
604.041	308.69
604.249	292.69
604.458	283.69
604.666	287.69
604.875	262.69
605.084	278.69
605.292	291.69
605.501	295.69
605.709	309.69
605.918	276.69
606.126	295.69
606.334	300.69
606.543	272.69
606.751	288.69
606.96	275.69
607.168	292.69
607.376	288.69
607.585	296.69
607.793	296.69
608.001	303.69
608.21	293.69
608.418	291.69
608.626	283.69
608.834	273.69
609.043	297.69
609.251	288.69
609.459	284.69
609.667	294.69
609.875	288.69
610.083	268.69
610.291	286.69
610.499	282.69
610.707	288.69
610.916	284.69
611.124	285.69
611.332	288.69
611.54	298.69
611.748	294.69
611.955	278.69
612.163	286.69
612.371	286.69
612.579	300.69
612.787	266.69
612.995	288.69
613.203	299.69
613.411	284.69
613.618	296.69
613.826	274.69
614.034	285.69
614.242	278.69
614.449	274.69
614.657	273.69
614.865	262.69
615.072	294.69
615.28	262.69
615.488	276.69
615.695	268.69
615.903	280.69
616.111	301.69
616.318	288.69
616.526	282.69
616.733	289.69
616.941	272.69
617.148	290.69
617.356	273.69
617.563	291.69
617.771	280.69
617.978	284.69
618.185	287.69
618.393	276.69
618.6	273.69
618.807	267.69
619.015	288.69
619.222	270.69
619.429	263.69
619.637	268.69
619.844	277.69
620.051	265.69
620.258	247.69
620.466	264.69
620.673	252.69
620.88	248.69
621.087	250.69
621.294	276.69
621.501	265.69
621.708	262.69
621.915	268.69
622.122	257.69
622.329	257.69
622.536	264.69
622.743	254.69
622.95	262.69
623.157	263.69
623.364	254.69
623.571	250.69
623.778	258.69
623.985	281.69
624.192	253.69
624.399	248.69
624.606	263.69
624.812	249.69
625.019	252.69
625.226	246.69
625.433	248.69
625.639	261.69
625.846	233.69
626.053	224.69
626.259	233.69
626.466	237.69
626.673	231.69
626.879	233.69
627.086	232.69
627.293	238.69
627.499	235.69
627.706	232.69
627.912	225.69
628.119	244.69
628.325	234.69
628.532	243.69
628.738	224.69
628.945	223.69
629.151	218.69
629.357	233.69
629.564	249.69
629.77	236.69
629.976	237.69
630.183	228.69
630.389	219.69
630.595	241.69
630.802	230.69
631.008	235.69
631.214	228.69
631.42	216.69
631.627	235.69
631.833	225.69
632.039	247.69
632.245	228.69
632.451	215.69
632.657	225.69
632.863	236.69
633.069	228.69
633.275	210.69
633.481	214.69
633.688	218.69
633.893	211.69
634.099	217.69
634.305	221.69
634.511	220.69
634.717	212.69
634.923	208.69
635.129	196.69
635.335	203.69
635.541	204.69
635.747	208.69
635.952	200.69
636.158	199.69
636.364	225.69
636.57	213.69
636.775	213.69
636.981	216.69
637.187	221.69
637.392	205.69
637.598	195.69
637.804	220.69
638.009	196.69
638.215	212.69
638.421	200.69
638.626	193.69
638.832	188.69
639.037	209.69
639.243	196.69
639.448	194.69
639.654	187.69
639.859	199.69
640.065	203.69
640.27	210.69
640.475	192.69
640.681	196.69
640.886	208.69
641.091	191.69
641.297	203.69
641.502	198.69
641.707	196.69
641.913	201.69
642.118	182.69
642.323	189.69
642.528	189.69
642.733	178.69
642.939	204.69
643.144	200.69
643.349	184.69
643.554	196.69
643.759	190.69
643.964	184.69
644.169	182.69
644.374	193.69
644.579	206.69
644.784	202.69
644.989	201.69
645.194	182.69
645.399	194.69
645.604	187.69
645.809	201.69
646.014	192.69
646.219	193.69
646.423	188.69
646.628	211.69
646.833	188.69
647.038	187.69
647.243	189.69
647.447	182.69
647.652	188.69
647.857	170.69
648.062	188.69
648.266	186.69
648.471	177.69
648.676	212.69
648.88	219.69
649.085	192.69
649.289	187.69
649.494	191.69
649.698	192.69
649.903	209.69
650.107	200.69
650.312	197.69
650.516	189.69
650.721	182.69
650.925	182.69
651.13	168.69
651.334	190.69
651.539	164.69
651.743	166.69
651.947	170.69
652.152	180.69
652.356	154.69
652.56	173.69
652.764	164.69
652.969	177.69
653.173	175.69
653.377	169.69
653.581	144.69
653.785	160.69
653.99	160.69
654.194	153.69
654.398	167.69
654.602	148.69
654.806	155.69
655.01	145.69
655.214	164.69
655.418	147.69
655.622	152.69
655.826	169.69
656.03	151.69
656.234	167.69
656.438	159.69
656.642	150.69
656.846	139.69
657.049	132.69
657.253	130.69
657.457	128.69
657.661	130.69
657.865	133.69
658.068	118.69
658.272	120.69
658.476	109.69
658.68	130.69
658.883	103.69
659.087	120.69
659.291	104.69
659.494	91.69
659.698	103.69
659.901	102.69
660.105	92.69
660.309	95.69
660.512	97.69
660.716	118.69
660.919	106.69
661.123	99.69
661.326	105.69
661.53	95.69
661.733	97.69
661.936	90.69
662.14	80.69
662.343	92.69
662.546	89.69
662.75	93.69
662.953	88.69
663.156	88.69
663.36	86.69
663.563	89.69
663.766	84.69
663.969	82.69
664.173	89.69
664.376	99.69
664.579	79.69
664.782	81.69
664.985	80.69
665.188	82.69
665.391	89.69
665.594	103.69
665.797	80.69
666	72.69
666.203	85.69
666.406	80.69
666.609	89.69
666.812	78.69
667.015	75.69
667.218	92.69
667.421	86.69
667.624	84.69
667.827	91.69
668.03	88.69
668.232	71.69
668.435	92.69
668.638	85.69
668.841	102.69
669.043	104.69
669.246	92.69
669.449	81.69
669.651	84.69
669.854	75.69
670.057	86.69
670.259	85.69
670.462	103.69
670.665	75.69
670.867	89.69
671.07	81.69
671.272	83.69
671.475	82.69
671.677	94.69
671.88	89.69
672.082	86.69
672.284	89.69
672.487	89.69
672.689	80.69
672.892	80.69
