Data from 1974.PennyLincolnUp.Lamp.En5.5.200Scan.071719.P1.Changed Mount._HRD10591_15-53-49-857.txt Node
Date: Thu Jul 18 15:53:49 EDT 2019
User: cochatt
Spectrometer: HR+D1059
Trigger mode: 1
Integration Time (sec): 1.000000E-1
Scans to average: 1
Electric dark correction enabled: true
Nonlinearity correction enabled: false
Boxcar width: 0
XAxis mode: Wavelengths
Number of Pixels in Spectrum: 2048
>>>>>Begin Spectral Data<<<<<
223.165	-10.19
223.4	-10.19
223.635	-10.19
223.869	-22.19
224.104	-21.19
224.338	-12.19
224.573	-22.19
224.808	-14.19
225.042	-0.19
225.277	-8.19
225.511	-0.19
225.746	-2.19
225.98	2.81
226.215	14.81
226.449	20.81
226.683	23.81
226.918	28.81
227.152	21.81
227.387	34.81
227.621	38.81
227.856	46.81
228.09	43.81
228.324	56.81
228.559	50.81
228.793	70.81
229.027	93.81
229.262	106.81
229.496	107.81
229.73	121.81
229.964	159.81
230.199	127.81
230.433	130.81
230.667	116.81
230.901	94.81
231.136	120.81
231.37	105.81
231.604	106.81
231.838	107.81
232.072	118.81
232.306	102.81
232.541	122.81
232.775	115.81
233.009	119.81
233.243	119.81
233.477	132.81
233.711	122.81
233.945	119.81
234.179	132.81
234.413	128.81
234.647	138.81
234.881	114.81
235.115	107.81
235.349	139.81
235.583	134.81
235.817	117.81
236.051	127.81
236.285	121.81
236.519	123.81
236.753	135.81
236.987	144.81
237.221	167.81
237.455	232.81
237.689	196.81
237.922	144.81
238.156	149.81
238.39	139.81
238.624	129.81
238.858	121.81
239.091	119.81
239.325	125.81
239.559	131.81
239.793	147.81
240.027	137.81
240.26	156.81
240.494	155.81
240.728	148.81
240.961	157.81
241.195	141.81
241.429	154.81
241.662	139.81
241.896	137.81
242.13	136.81
242.363	142.81
242.597	140.81
242.83	156.81
243.064	163.81
243.298	153.81
243.531	154.81
243.765	153.81
243.998	137.81
244.232	155.81
244.465	154.81
244.699	156.81
244.932	152.81
245.166	139.81
245.399	149.81
245.633	149.81
245.866	142.81
246.099	162.81
246.333	157.81
246.566	145.81
246.8	154.81
247.033	162.81
247.266	156.81
247.5	170.81
247.733	187.81
247.966	176.81
248.2	188.81
248.433	188.81
248.666	171.81
248.899	191.81
249.133	198.81
249.366	216.81
249.599	200.81
249.832	196.81
250.066	191.81
250.299	180.81
250.532	199.81
250.765	204.81
250.998	241.81
251.231	241.81
251.465	227.81
251.698	204.81
251.931	202.81
252.164	201.81
252.397	206.81
252.63	216.81
252.863	215.81
253.096	231.81
253.329	243.81
253.562	247.81
253.795	236.81
254.028	226.81
254.261	230.81
254.494	219.81
254.727	257.81
254.96	297.81
255.193	272.81
255.426	260.81
255.659	235.81
255.892	242.81
256.124	243.81
256.357	242.81
256.59	231.81
256.823	239.81
257.056	242.81
257.289	212.81
257.521	220.81
257.754	210.81
257.987	221.81
258.22	219.81
258.452	207.81
258.685	213.81
258.918	216.81
259.151	210.81
259.383	231.81
259.616	216.81
259.849	233.81
260.081	244.81
260.314	250.81
260.547	266.81
260.779	258.81
261.012	244.81
261.244	249.81
261.477	238.81
261.71	222.81
261.942	239.81
262.175	236.81
262.407	226.81
262.64	221.81
262.872	218.81
263.105	239.81
263.337	216.81
263.57	248.81
263.802	219.81
264.035	226.81
264.267	207.81
264.499	225.81
264.732	217.81
264.964	224.81
265.197	228.81
265.429	217.81
265.661	218.81
265.894	225.81
266.126	227.81
266.358	230.81
266.591	230.81
266.823	229.81
267.055	251.81
267.287	230.81
267.52	236.81
267.752	239.81
267.984	239.81
268.216	244.81
268.448	247.81
268.681	249.81
268.913	242.81
269.145	277.81
269.377	296.81
269.609	283.81
269.841	283.81
270.073	292.81
270.306	290.81
270.538	314.81
270.77	317.81
271.002	311.81
271.234	306.81
271.466	320.81
271.698	322.81
271.93	310.81
272.162	315.81
272.394	321.81
272.626	315.81
272.858	295.81
273.09	278.81
273.322	278.81
273.553	280.81
273.785	283.81
274.017	282.81
274.249	277.81
274.481	298.81
274.713	279.81
274.945	285.81
275.176	279.81
275.408	274.81
275.64	261.81
275.872	268.81
276.104	281.81
276.335	296.81
276.567	262.81
276.799	282.81
277.031	320.81
277.262	338.81
277.494	339.81
277.726	315.81
277.957	295.81
278.189	298.81
278.421	276.81
278.652	284.81
278.884	298.81
279.115	279.81
279.347	304.81
279.579	295.81
279.81	272.81
280.042	273.81
280.273	286.81
280.505	274.81
280.736	299.81
280.968	279.81
281.199	282.81
281.431	278.81
281.662	284.81
281.894	308.81
282.125	292.81
282.356	297.81
282.588	304.81
282.819	326.81
283.051	303.81
283.282	295.81
283.513	299.81
283.745	298.81
283.976	294.81
284.207	296.81
284.439	312.81
284.67	305.81
284.901	289.81
285.132	308.81
285.364	309.81
285.595	313.81
285.826	312.81
286.057	321.81
286.288	304.81
286.52	307.81
286.751	291.81
286.982	314.81
287.213	283.81
287.444	304.81
287.675	303.81
287.906	310.81
288.138	310.81
288.369	322.81
288.6	326.81
288.831	310.81
289.062	316.81
289.293	315.81
289.524	306.81
289.755	323.81
289.986	324.81
290.217	314.81
290.448	312.81
290.679	320.81
290.91	321.81
291.141	312.81
291.371	323.81
291.602	332.81
291.833	324.81
292.064	298.81
292.295	307.81
292.526	307.81
292.757	324.81
292.987	313.81
293.218	293.81
293.449	296.81
293.68	319.81
293.91	307.81
294.141	332.81
294.372	309.81
294.603	315.81
294.833	328.81
295.064	317.81
295.295	332.81
295.525	307.81
295.756	312.81
295.987	308.81
296.217	349.81
296.448	346.81
296.679	332.81
296.909	324.81
297.14	326.81
297.37	333.81
297.601	325.81
297.831	319.81
298.062	323.81
298.292	313.81
298.523	322.81
298.753	320.81
298.984	331.81
299.214	323.81
299.445	329.81
299.675	342.81
299.905	348.81
300.136	327.81
300.366	337.81
300.597	327.81
300.827	337.81
301.057	345.81
301.288	356.81
301.518	348.81
301.748	339.81
301.979	344.81
302.209	369.81
302.439	353.81
302.669	353.81
302.9	360.81
303.13	362.81
303.36	348.81
303.59	370.81
303.82	348.81
304.051	359.81
304.281	347.81
304.511	337.81
304.741	344.81
304.971	355.81
305.201	336.81
305.431	337.81
305.661	344.81
305.891	349.81
306.121	344.81
306.352	349.81
306.582	337.81
306.812	371.81
307.042	351.81
307.272	356.81
307.502	332.81
307.731	347.81
307.961	360.81
308.191	344.81
308.421	368.81
308.651	374.81
308.881	333.81
309.111	339.81
309.341	358.81
309.571	387.81
309.8	377.81
310.03	372.81
310.26	381.81
310.49	384.81
310.72	393.81
310.949	396.81
311.179	409.81
311.409	399.81
311.639	404.81
311.868	390.81
312.098	383.81
312.328	387.81
312.557	410.81
312.787	414.81
313.017	425.81
313.246	389.81
313.476	400.81
313.706	397.81
313.935	399.81
314.165	393.81
314.394	423.81
314.624	404.81
314.853	399.81
315.083	416.81
315.312	413.81
315.542	407.81
315.771	392.81
316.001	381.81
316.23	387.81
316.46	390.81
316.689	407.81
316.919	390.81
317.148	391.81
317.377	408.81
317.607	405.81
317.836	397.81
318.065	379.81
318.295	370.81
318.524	383.81
318.753	390.81
318.983	385.81
319.212	406.81
319.441	412.81
319.67	424.81
319.9	410.81
320.129	406.81
320.358	415.81
320.587	385.81
320.816	412.81
321.046	420.81
321.275	410.81
321.504	427.81
321.733	411.81
321.962	424.81
322.191	445.81
322.42	447.81
322.649	448.81
322.878	456.81
323.108	452.81
323.337	483.81
323.566	482.81
323.795	484.81
324.024	561.81
324.253	632.81
324.482	856.81
324.71	1270.81
324.939	1916.81
325.168	1663.81
325.397	867.81
325.626	599.81
325.855	542.81
326.084	496.81
326.313	468.81
326.542	472.81
326.77	535.81
326.999	593.81
327.228	798.81
327.457	1169.81
327.686	1502.81
327.914	1009.81
328.143	655.81
328.372	623.81
328.6	559.81
328.829	548.81
329.058	535.81
329.287	550.81
329.515	530.81
329.744	501.81
329.972	507.81
330.201	517.81
330.43	568.81
330.658	584.81
330.887	591.81
331.115	587.81
331.344	512.81
331.572	485.81
331.801	513.81
332.03	504.81
332.258	481.81
332.486	490.81
332.715	469.81
332.943	476.81
333.172	470.81
333.4	489.81
333.629	489.81
333.857	511.81
334.085	516.81
334.314	549.81
334.542	570.81
334.771	564.81
334.999	521.81
335.227	483.81
335.455	501.81
335.684	499.81
335.912	468.81
336.14	472.81
336.369	483.81
336.597	492.81
336.825	481.81
337.053	473.81
337.281	480.81
337.51	465.81
337.738	475.81
337.966	481.81
338.194	477.81
338.422	481.81
338.65	466.81
338.878	463.81
339.106	453.81
339.334	448.81
339.562	472.81
339.79	446.81
340.018	467.81
340.246	454.81
340.474	452.81
340.702	443.81
340.93	444.81
341.158	455.81
341.386	479.81
341.614	485.81
341.842	456.81
342.07	434.81
342.298	470.81
342.526	440.81
342.754	448.81
342.981	450.81
343.209	454.81
343.437	467.81
343.665	460.81
343.893	492.81
344.12	475.81
344.348	483.81
344.576	479.81
344.804	476.81
345.031	488.81
345.259	481.81
345.487	466.81
345.714	454.81
345.942	446.81
346.17	454.81
346.397	436.81
346.625	432.81
346.853	442.81
347.08	435.81
347.308	460.81
347.535	453.81
347.763	457.81
347.99	464.81
348.218	437.81
348.445	467.81
348.673	445.81
348.9	447.81
349.128	436.81
349.355	448.81
349.583	441.81
349.81	436.81
350.037	443.81
350.265	451.81
350.492	438.81
350.72	438.81
350.947	428.81
351.174	439.81
351.402	444.81
351.629	454.81
351.856	443.81
352.083	441.81
352.311	455.81
352.538	455.81
352.765	457.81
352.992	442.81
353.22	442.81
353.447	453.81
353.674	440.81
353.901	429.81
354.128	413.81
354.355	428.81
354.583	436.81
354.81	412.81
355.037	433.81
355.264	432.81
355.491	405.81
355.718	398.81
355.945	431.81
356.172	415.81
356.399	410.81
356.626	431.81
356.853	451.81
357.08	433.81
357.307	418.81
357.534	423.81
357.761	410.81
357.988	416.81
358.215	435.81
358.441	437.81
358.668	428.81
358.895	439.81
359.122	432.81
359.349	435.81
359.576	454.81
359.802	455.81
360.029	472.81
360.256	466.81
360.483	481.81
360.709	466.81
360.936	459.81
361.163	448.81
361.39	433.81
361.616	449.81
361.843	452.81
362.07	447.81
362.296	433.81
362.523	467.81
362.749	426.81
362.976	452.81
363.203	465.81
363.429	421.81
363.656	423.81
363.882	437.81
364.109	420.81
364.335	426.81
364.562	441.81
364.788	421.81
365.015	438.81
365.241	435.81
365.468	447.81
365.694	452.81
365.92	429.81
366.147	436.81
366.373	431.81
366.599	428.81
366.826	428.81
367.052	418.81
367.278	422.81
367.505	436.81
367.731	447.81
367.957	425.81
368.184	470.81
368.41	441.81
368.636	459.81
368.862	460.81
369.089	444.81
369.315	460.81
369.541	447.81
369.767	437.81
369.993	462.81
370.219	415.81
370.445	446.81
370.672	438.81
370.898	426.81
371.124	422.81
371.35	437.81
371.576	439.81
371.802	452.81
372.028	438.81
372.254	451.81
372.48	438.81
372.706	443.81
372.932	453.81
373.158	484.81
373.384	456.81
373.61	441.81
373.835	451.81
374.061	446.81
374.287	446.81
374.513	460.81
374.739	458.81
374.965	459.81
375.191	478.81
375.416	453.81
375.642	446.81
375.868	443.81
376.094	484.81
376.319	441.81
376.545	447.81
376.771	448.81
376.997	453.81
377.222	423.81
377.448	437.81
377.674	444.81
377.899	436.81
378.125	457.81
378.35	463.81
378.576	441.81
378.802	449.81
379.027	447.81
379.253	453.81
379.478	425.81
379.704	425.81
379.929	433.81
380.155	421.81
380.38	446.81
380.606	458.81
380.831	435.81
381.057	460.81
381.282	453.81
381.507	465.81
381.733	450.81
381.958	449.81
382.184	444.81
382.409	456.81
382.634	473.81
382.86	444.81
383.085	475.81
383.31	458.81
383.535	454.81
383.761	459.81
383.986	451.81
384.211	444.81
384.436	482.81
384.662	477.81
384.887	465.81
385.112	479.81
385.337	484.81
385.562	489.81
385.787	493.81
386.013	492.81
386.238	504.81
386.463	511.81
386.688	501.81
386.913	504.81
387.138	492.81
387.363	472.81
387.588	500.81
387.813	493.81
388.038	480.81
388.263	505.81
388.488	507.81
388.713	490.81
388.938	504.81
389.163	515.81
389.387	527.81
389.612	497.81
389.837	498.81
390.062	483.81
390.287	475.81
390.512	497.81
390.736	520.81
390.961	490.81
391.186	509.81
391.411	519.81
391.636	537.81
391.86	523.81
392.085	529.81
392.31	529.81
392.534	537.81
392.759	514.81
392.984	503.81
393.208	491.81
393.433	497.81
393.658	491.81
393.882	495.81
394.107	506.81
394.331	512.81
394.556	487.81
394.78	508.81
395.005	502.81
395.229	515.81
395.454	526.81
395.678	527.81
395.903	552.81
396.127	557.81
396.352	538.81
396.576	506.81
396.801	517.81
397.025	533.81
397.249	499.81
397.474	550.81
397.698	537.81
397.922	546.81
398.147	549.81
398.371	586.81
398.595	589.81
398.82	568.81
399.044	587.81
399.268	611.81
399.492	647.81
399.717	710.81
399.941	728.81
400.165	728.81
400.389	736.81
400.613	656.81
400.837	619.81
401.062	608.81
401.286	593.81
401.51	580.81
401.734	568.81
401.958	586.81
402.182	575.81
402.406	590.81
402.63	571.81
402.854	596.81
403.078	608.81
403.302	610.81
403.526	608.81
403.75	616.81
403.974	627.81
404.198	599.81
404.422	610.81
404.645	611.81
404.869	610.81
405.093	639.81
405.317	677.81
405.541	727.81
405.765	661.81
405.988	637.81
406.212	633.81
406.436	649.81
406.66	674.81
406.883	660.81
407.107	660.81
407.331	739.81
407.555	779.81
407.778	809.81
408.002	736.81
408.226	675.81
408.449	676.81
408.673	644.81
408.896	680.81
409.12	732.81
409.344	689.81
409.567	605.81
409.791	613.81
410.014	606.81
410.238	605.81
410.461	590.81
410.685	625.81
410.908	624.81
411.132	656.81
411.355	707.81
411.578	663.81
411.802	627.81
412.025	609.81
412.249	626.81
412.472	610.81
412.695	657.81
412.919	645.81
413.142	600.81
413.365	576.81
413.589	616.81
413.812	605.81
414.035	592.81
414.258	587.81
414.482	589.81
414.705	560.81
414.928	579.81
415.151	569.81
415.374	573.81
415.597	590.81
415.821	576.81
416.044	567.81
416.267	574.81
416.49	555.81
416.713	579.81
416.936	575.81
417.159	561.81
417.382	576.81
417.605	573.81
417.828	571.81
418.051	595.81
418.274	608.81
418.497	571.81
418.72	596.81
418.943	589.81
419.166	605.81
419.389	616.81
419.611	597.81
419.834	594.81
420.057	628.81
420.28	594.81
420.503	599.81
420.726	601.81
420.948	592.81
421.171	645.81
421.394	681.81
421.617	623.81
421.839	602.81
422.062	614.81
422.285	638.81
422.507	652.81
422.73	732.81
422.953	695.81
423.175	644.81
423.398	635.81
423.621	618.81
423.843	643.81
424.066	657.81
424.288	641.81
424.511	688.81
424.733	719.81
424.956	836.81
425.178	757.81
425.401	761.81
425.623	765.81
425.846	689.81
426.068	644.81
426.291	631.81
426.513	621.81
426.735	613.81
426.958	661.81
427.18	753.81
427.402	908.81
427.625	969.81
427.847	834.81
428.069	730.81
428.292	666.81
428.514	616.81
428.736	597.81
428.958	608.81
429.181	583.81
429.403	576.81
429.625	561.81
429.847	628.81
430.069	692.81
430.292	685.81
430.514	610.81
430.736	589.81
430.958	566.81
431.18	568.81
431.402	563.81
431.624	561.81
431.846	546.81
432.068	561.81
432.29	546.81
432.512	527.81
432.734	566.81
432.956	597.81
433.178	573.81
433.4	585.81
433.622	572.81
433.844	580.81
434.066	571.81
434.287	541.81
434.509	581.81
434.731	582.81
434.953	586.81
435.175	607.81
435.397	623.81
435.618	643.81
435.84	680.81
436.062	772.81
436.284	868.81
436.505	708.81
436.727	640.81
436.949	602.81
437.17	575.81
437.392	599.81
437.614	614.81
437.835	626.81
438.057	707.81
438.278	808.81
438.5	833.81
438.721	896.81
438.943	889.81
439.165	711.81
439.386	665.81
439.608	634.81
439.829	620.81
440.05	637.81
440.272	721.81
440.493	679.81
440.715	604.81
440.936	588.81
441.158	596.81
441.379	602.81
441.6	629.81
441.822	627.81
442.043	684.81
442.264	760.81
442.486	799.81
442.707	679.81
442.928	653.81
443.149	655.81
443.371	692.81
443.592	717.81
443.813	797.81
444.034	884.81
444.255	767.81
444.476	705.81
444.698	684.81
444.919	671.81
445.14	743.81
445.361	722.81
445.582	684.81
445.803	718.81
446.024	827.81
446.245	845.81
446.466	770.81
446.687	676.81
446.908	616.81
447.129	593.81
447.35	590.81
447.571	586.81
447.792	582.81
448.013	564.81
448.234	590.81
448.455	652.81
448.675	767.81
448.896	880.81
449.117	732.81
449.338	720.81
449.559	845.81
449.779	919.81
450	766.81
450.221	629.81
450.442	577.81
450.662	565.81
450.883	548.81
451.104	561.81
451.324	561.81
451.545	535.81
451.766	538.81
451.986	508.81
452.207	507.81
452.428	528.81
452.648	520.81
452.869	529.81
453.089	533.81
453.31	561.81
453.53	545.81
453.751	514.81
453.971	507.81
454.192	531.81
454.412	521.81
454.633	515.81
454.853	508.81
455.073	489.81
455.294	549.81
455.514	594.81
455.734	594.81
455.955	530.81
456.175	494.81
456.395	498.81
456.616	498.81
456.836	470.81
457.056	483.81
457.276	459.81
457.497	468.81
457.717	483.81
457.937	506.81
458.157	498.81
458.377	499.81
458.598	544.81
458.818	581.81
459.038	625.81
459.258	674.81
459.478	590.81
459.698	544.81
459.918	559.81
460.138	541.81
460.358	572.81
460.578	586.81
460.798	581.81
461.018	601.81
461.238	567.81
461.458	563.81
461.678	556.81
461.898	572.81
462.118	575.81
462.338	619.81
462.558	609.81
462.777	604.81
462.997	635.81
463.217	663.81
463.437	652.81
463.657	619.81
463.876	620.81
464.096	619.81
464.316	616.81
464.536	644.81
464.755	632.81
464.975	602.81
465.195	644.81
465.414	671.81
465.634	601.81
465.854	585.81
466.073	546.81
466.293	541.81
466.512	542.81
466.732	541.81
466.951	531.81
467.171	532.81
467.391	538.81
467.61	562.81
467.829	535.81
468.049	518.81
468.268	536.81
468.488	521.81
468.707	531.81
468.927	533.81
469.146	536.81
469.365	536.81
469.585	502.81
469.804	524.81
470.023	540.81
470.243	555.81
470.462	571.81
470.681	571.81
470.901	541.81
471.12	562.81
471.339	549.81
471.558	537.81
471.777	540.81
471.997	523.81
472.216	550.81
472.435	588.81
472.654	555.81
472.873	523.81
473.092	539.81
473.311	522.81
473.53	549.81
473.749	540.81
473.968	587.81
474.187	661.81
474.406	711.81
474.625	594.81
474.844	545.81
475.063	557.81
475.282	551.81
475.501	547.81
475.72	555.81
475.939	547.81
476.158	560.81
476.377	556.81
476.596	555.81
476.814	572.81
477.033	561.81
477.252	577.81
477.471	583.81
477.69	588.81
477.908	594.81
478.127	594.81
478.346	584.81
478.564	641.81
478.783	632.81
479.002	623.81
479.22	617.81
479.439	632.81
479.658	652.81
479.876	648.81
480.095	649.81
480.313	701.81
480.532	703.81
480.751	677.81
480.969	685.81
481.188	704.81
481.406	735.81
481.624	681.81
481.843	649.81
482.061	662.81
482.28	661.81
482.498	633.81
482.717	641.81
482.935	622.81
483.153	648.81
483.372	620.81
483.59	649.81
483.808	645.81
484.027	636.81
484.245	638.81
484.463	645.81
484.681	643.81
484.9	665.81
485.118	653.81
485.336	651.81
485.554	666.81
485.772	665.81
485.99	651.81
486.209	639.81
486.427	638.81
486.645	663.81
486.863	693.81
487.081	672.81
487.299	687.81
487.517	682.81
487.735	681.81
487.953	674.81
488.171	691.81
488.389	689.81
488.607	674.81
488.825	687.81
489.043	697.81
489.261	698.81
489.479	663.81
489.696	703.81
489.914	683.81
490.132	722.81
490.35	712.81
490.568	740.81
490.786	725.81
491.003	744.81
491.221	757.81
491.439	753.81
491.657	759.81
491.874	794.81
492.092	801.81
492.31	824.81
492.527	804.81
492.745	780.81
492.963	791.81
493.18	796.81
493.398	807.81
493.615	827.81
493.833	839.81
494.05	810.81
494.268	818.81
494.485	823.81
494.703	796.81
494.92	796.81
495.138	808.81
495.355	788.81
495.573	812.81
495.79	835.81
496.008	813.81
496.225	821.81
496.442	838.81
496.66	800.81
496.877	829.81
497.094	807.81
497.312	816.81
497.529	806.81
497.746	863.81
497.963	854.81
498.181	884.81
498.398	903.81
498.615	910.81
498.832	942.81
499.049	945.81
499.267	991.81
499.484	1029.81
499.701	1100.81
499.918	1164.81
500.135	1190.81
500.352	1269.81
500.569	1253.81
500.786	1276.81
501.003	1301.81
501.22	1206.81
501.437	1140.81
501.654	1091.81
501.871	1079.81
502.088	1009.81
502.305	967.81
502.522	940.81
502.739	944.81
502.956	913.81
503.172	882.81
503.389	842.81
503.606	875.81
503.823	817.81
504.04	841.81
504.256	817.81
504.473	854.81
504.69	839.81
504.907	832.81
505.123	827.81
505.34	781.81
505.557	746.81
505.773	767.81
505.99	757.81
506.207	781.81
506.423	765.81
506.64	749.81
506.856	745.81
507.073	731.81
507.289	737.81
507.506	726.81
507.722	762.81
507.939	741.81
508.155	728.81
508.372	741.81
508.588	699.81
508.805	715.81
509.021	714.81
509.238	715.81
509.454	732.81
509.67	727.81
509.887	712.81
510.103	694.81
510.319	700.81
510.536	778.81
510.752	1158.81
510.968	973.81
511.184	709.81
511.401	677.81
511.617	657.81
511.833	669.81
512.049	671.81
512.265	672.81
512.481	681.81
512.698	664.81
512.914	665.81
513.13	673.81
513.346	684.81
513.562	675.81
513.778	659.81
513.994	672.81
514.21	675.81
514.426	692.81
514.642	730.81
514.858	741.81
515.074	756.81
515.29	861.81
515.506	1156.81
515.721	999.81
515.937	765.81
516.153	706.81
516.369	741.81
516.585	704.81
516.801	685.81
517.016	722.81
517.232	699.81
517.448	724.81
517.664	732.81
517.879	723.81
518.095	742.81
518.311	712.81
518.527	702.81
518.742	698.81
518.958	681.81
519.173	704.81
519.389	670.81
519.605	696.81
519.82	675.81
520.036	697.81
520.251	682.81
520.467	719.81
520.682	711.81
520.898	716.81
521.113	708.81
521.329	721.81
521.544	798.81
521.76	950.81
521.975	1388.81
522.19	1411.81
522.406	849.81
522.621	696.81
522.836	651.81
523.052	626.81
523.267	627.81
523.482	628.81
523.698	632.81
523.913	600.81
524.128	605.81
524.343	594.81
524.559	613.81
524.774	592.81
524.989	596.81
525.204	588.81
525.419	579.81
525.634	585.81
525.849	571.81
526.064	568.81
526.28	569.81
526.495	553.81
526.71	561.81
526.925	551.81
527.14	554.81
527.355	575.81
527.57	565.81
527.785	561.81
527.999	533.81
528.214	555.81
528.429	565.81
528.644	540.81
528.859	556.81
529.074	560.81
529.289	578.81
529.503	645.81
529.718	613.81
529.933	597.81
530.148	596.81
530.363	557.81
530.577	538.81
530.792	568.81
531.007	551.81
531.221	543.81
531.436	565.81
531.651	561.81
531.865	521.81
532.08	521.81
532.295	513.81
532.509	547.81
532.724	539.81
532.938	520.81
533.153	531.81
533.367	550.81
533.582	532.81
533.796	554.81
534.011	535.81
534.225	513.81
534.44	524.81
534.654	543.81
534.868	528.81
535.083	489.81
535.297	537.81
535.511	526.81
535.726	552.81
535.94	532.81
536.154	533.81
536.369	540.81
536.583	517.81
536.797	531.81
537.011	539.81
537.225	501.81
537.44	483.81
537.654	529.81
537.868	515.81
538.082	510.81
538.296	514.81
538.51	524.81
538.724	515.81
538.938	523.81
539.153	519.81
539.367	515.81
539.581	520.81
539.795	523.81
540.009	500.81
540.222	506.81
540.436	526.81
540.65	506.81
540.864	531.81
541.078	512.81
541.292	535.81
541.506	521.81
541.72	531.81
541.934	512.81
542.147	535.81
542.361	504.81
542.575	495.81
542.789	529.81
543.002	525.81
543.216	505.81
543.43	517.81
543.644	513.81
543.857	503.81
544.071	511.81
544.285	550.81
544.498	515.81
544.712	516.81
544.925	513.81
545.139	518.81
545.352	518.81
545.566	528.81
545.779	500.81
545.993	507.81
546.206	515.81
546.42	503.81
546.633	504.81
546.847	515.81
547.06	510.81
547.274	496.81
547.487	492.81
547.7	514.81
547.914	488.81
548.127	519.81
548.34	490.81
548.554	505.81
548.767	487.81
548.98	501.81
549.193	509.81
549.407	493.81
549.62	490.81
549.833	494.81
550.046	527.81
550.259	511.81
550.473	490.81
550.686	492.81
550.899	504.81
551.112	485.81
551.325	512.81
551.538	512.81
551.751	499.81
551.964	496.81
552.177	492.81
552.39	491.81
552.603	531.81
552.816	522.81
553.029	517.81
553.242	518.81
553.455	502.81
553.667	517.81
553.88	515.81
554.093	521.81
554.306	563.81
554.519	497.81
554.732	520.81
554.944	481.81
555.157	486.81
555.37	492.81
555.583	490.81
555.795	474.81
556.008	472.81
556.221	458.81
556.433	463.81
556.646	469.81
556.859	482.81
557.071	460.81
557.284	459.81
557.496	460.81
557.709	458.81
557.921	459.81
558.134	448.81
558.346	460.81
558.559	438.81
558.771	434.81
558.984	448.81
559.196	449.81
559.409	442.81
559.621	449.81
559.833	437.81
560.046	438.81
560.258	428.81
560.47	437.81
560.683	431.81
560.895	439.81
561.107	436.81
561.32	434.81
561.532	437.81
561.744	425.81
561.956	431.81
562.168	452.81
562.381	454.81
562.593	446.81
562.805	436.81
563.017	423.81
563.229	451.81
563.441	468.81
563.653	460.81
563.865	458.81
564.077	443.81
564.289	443.81
564.501	448.81
564.713	459.81
564.925	480.81
565.137	495.81
565.349	479.81
565.561	477.81
565.773	483.81
565.985	480.81
566.197	513.81
566.408	502.81
566.62	540.81
566.832	544.81
567.044	576.81
567.255	588.81
567.467	579.81
567.679	610.81
567.891	629.81
568.102	593.81
568.314	581.81
568.526	557.81
568.737	541.81
568.949	527.81
569.161	514.81
569.372	465.81
569.584	481.81
569.795	464.81
570.007	448.81
570.218	486.81
570.43	474.81
570.641	457.81
570.853	439.81
571.064	437.81
571.276	433.81
571.487	443.81
571.698	424.81
571.91	414.81
572.121	410.81
572.333	398.81
572.544	412.81
572.755	395.81
572.966	386.81
573.178	404.81
573.389	387.81
573.6	407.81
573.811	387.81
574.023	394.81
574.234	382.81
574.445	379.81
574.656	374.81
574.867	382.81
575.078	370.81
575.289	376.81
575.501	364.81
575.712	375.81
575.923	369.81
576.134	355.81
576.345	378.81
576.556	363.81
576.767	383.81
576.978	368.81
577.188	379.81
577.399	390.81
577.61	354.81
577.821	363.81
578.032	374.81
578.243	373.81
578.454	551.81
578.665	426.81
578.875	355.81
579.086	375.81
579.297	364.81
579.508	366.81
579.718	359.81
579.929	367.81
580.14	351.81
580.35	331.81
580.561	341.81
580.772	344.81
580.982	342.81
581.193	349.81
581.403	351.81
581.614	340.81
581.825	346.81
582.035	348.81
582.246	339.81
582.456	345.81
582.667	335.81
582.877	346.81
583.087	325.81
583.298	330.81
583.508	344.81
583.719	351.81
583.929	337.81
584.139	347.81
584.35	332.81
584.56	346.81
584.77	338.81
584.981	333.81
585.191	332.81
585.401	344.81
585.611	335.81
585.821	330.81
586.032	331.81
586.242	325.81
586.452	328.81
586.662	329.81
586.872	332.81
587.082	319.81
587.292	300.81
587.502	327.81
587.713	331.81
587.923	327.81
588.133	320.81
588.343	331.81
588.553	330.81
588.762	330.81
588.972	325.81
589.182	307.81
589.392	333.81
589.602	321.81
589.812	308.81
590.022	323.81
590.232	319.81
590.441	317.81
590.651	342.81
590.861	341.81
591.071	313.81
591.281	337.81
591.49	337.81
591.7	320.81
591.91	338.81
592.119	338.81
592.329	338.81
592.539	359.81
592.748	363.81
592.958	371.81
593.167	348.81
593.377	353.81
593.587	377.81
593.796	377.81
594.006	357.81
594.215	355.81
594.424	356.81
594.634	355.81
594.843	367.81
595.053	355.81
595.262	340.81
595.472	337.81
595.681	326.81
595.89	329.81
596.1	324.81
596.309	319.81
596.518	327.81
596.727	324.81
596.937	322.81
597.146	304.81
597.355	307.81
597.564	318.81
597.774	298.81
597.983	300.81
598.192	295.81
598.401	280.81
598.61	290.81
598.819	313.81
599.028	304.81
599.237	273.81
599.446	272.81
599.655	273.81
599.864	287.81
600.073	282.81
600.282	293.81
600.491	295.81
600.7	288.81
600.909	293.81
601.118	291.81
601.327	275.81
601.536	288.81
601.745	290.81
601.953	284.81
602.162	294.81
602.371	308.81
602.58	291.81
602.789	295.81
602.997	276.81
603.206	292.81
603.415	282.81
603.623	284.81
603.832	288.81
604.041	276.81
604.249	273.81
604.458	265.81
604.666	281.81
604.875	269.81
605.084	266.81
605.292	276.81
605.501	288.81
605.709	278.81
605.918	280.81
606.126	277.81
606.334	265.81
606.543	246.81
606.751	274.81
606.96	265.81
607.168	299.81
607.376	289.81
607.585	275.81
607.793	256.81
608.001	281.81
608.21	281.81
608.418	290.81
608.626	281.81
608.834	269.81
609.043	281.81
609.251	282.81
609.459	279.81
609.667	279.81
609.875	288.81
610.083	258.81
610.291	277.81
610.499	274.81
610.707	269.81
610.916	257.81
611.124	280.81
611.332	265.81
611.54	281.81
611.748	275.81
611.955	265.81
612.163	275.81
612.371	257.81
612.579	276.81
612.787	276.81
612.995	268.81
613.203	264.81
613.411	256.81
613.618	284.81
613.826	269.81
614.034	271.81
614.242	268.81
614.449	258.81
614.657	257.81
614.865	274.81
615.072	263.81
615.28	246.81
615.488	263.81
615.695	239.81
615.903	259.81
616.111	243.81
616.318	270.81
616.526	275.81
616.733	267.81
616.941	255.81
617.148	262.81
617.356	253.81
617.563	275.81
617.771	265.81
617.978	262.81
618.185	263.81
618.393	269.81
618.6	262.81
618.807	266.81
619.015	259.81
619.222	268.81
619.429	249.81
619.637	242.81
619.844	253.81
620.051	253.81
620.258	223.81
620.466	240.81
620.673	251.81
620.88	232.81
621.087	248.81
621.294	249.81
621.501	258.81
621.708	247.81
621.915	251.81
622.122	239.81
622.329	254.81
622.536	252.81
622.743	248.81
622.95	255.81
623.157	249.81
623.364	236.81
623.571	243.81
623.778	259.81
623.985	224.81
624.192	231.81
624.399	233.81
624.606	239.81
624.812	237.81
625.019	229.81
625.226	236.81
625.433	260.81
625.639	240.81
625.846	225.81
626.053	241.81
626.259	230.81
626.466	241.81
626.673	261.81
626.879	221.81
627.086	235.81
627.293	247.81
627.499	239.81
627.706	220.81
627.912	227.81
628.119	213.81
628.325	233.81
628.532	217.81
628.738	224.81
628.945	208.81
629.151	219.81
629.357	219.81
629.564	211.81
629.77	247.81
629.976	238.81
630.183	229.81
630.389	203.81
630.595	204.81
630.802	209.81
631.008	226.81
631.214	205.81
631.42	203.81
631.627	209.81
631.833	216.81
632.039	208.81
632.245	199.81
632.451	211.81
632.657	202.81
632.863	217.81
633.069	215.81
633.275	205.81
633.481	189.81
633.688	202.81
633.893	208.81
634.099	213.81
634.305	203.81
634.511	202.81
634.717	219.81
634.923	184.81
635.129	210.81
635.335	187.81
635.541	202.81
635.747	187.81
635.952	198.81
636.158	206.81
636.364	204.81
636.57	215.81
636.775	200.81
636.981	210.81
637.187	215.81
637.392	196.81
637.598	193.81
637.804	207.81
638.009	191.81
638.215	191.81
638.421	194.81
638.626	192.81
638.832	191.81
639.037	176.81
639.243	186.81
639.448	193.81
639.654	190.81
639.859	192.81
640.065	177.81
640.27	194.81
640.475	182.81
640.681	179.81
640.886	186.81
641.091	188.81
641.297	190.81
641.502	193.81
641.707	201.81
641.913	200.81
642.118	188.81
642.323	180.81
642.528	180.81
642.733	182.81
642.939	182.81
643.144	182.81
643.349	181.81
643.554	175.81
643.759	187.81
643.964	183.81
644.169	184.81
644.374	175.81
644.579	179.81
644.784	177.81
644.989	179.81
645.194	182.81
645.399	180.81
645.604	192.81
645.809	176.81
646.014	195.81
646.219	183.81
646.423	175.81
646.628	180.81
646.833	185.81
647.038	179.81
647.243	170.81
647.447	191.81
647.652	188.81
647.857	165.81
648.062	169.81
648.266	191.81
648.471	175.81
648.676	186.81
648.88	189.81
649.085	182.81
649.289	186.81
649.494	180.81
649.698	202.81
649.903	202.81
650.107	197.81
650.312	181.81
650.516	172.81
650.721	167.81
650.925	162.81
651.13	160.81
651.334	160.81
651.539	164.81
651.743	164.81
651.947	149.81
652.152	162.81
652.356	151.81
652.56	156.81
652.764	151.81
652.969	158.81
653.173	162.81
653.377	164.81
653.581	155.81
653.785	165.81
653.99	157.81
654.194	143.81
654.398	133.81
654.602	148.81
654.806	147.81
655.01	155.81
655.214	137.81
655.418	144.81
655.622	147.81
655.826	135.81
656.03	141.81
656.234	146.81
656.438	130.81
656.642	138.81
656.846	140.81
657.049	136.81
657.253	138.81
657.457	130.81
657.661	115.81
657.865	129.81
658.068	113.81
658.272	103.81
658.476	121.81
658.68	89.81
658.883	95.81
659.087	99.81
659.291	119.81
659.494	100.81
659.698	93.81
659.901	106.81
660.105	96.81
660.309	98.81
660.512	113.81
660.716	108.81
660.919	82.81
661.123	92.81
661.326	86.81
661.53	89.81
661.733	92.81
661.936	95.81
662.14	83.81
662.343	91.81
662.546	81.81
662.75	90.81
662.953	83.81
663.156	84.81
663.36	74.81
663.563	79.81
663.766	75.81
663.969	82.81
664.173	93.81
664.376	88.81
664.579	83.81
664.782	86.81
664.985	84.81
665.188	85.81
665.391	77.81
665.594	69.81
665.797	76.81
666	86.81
666.203	88.81
666.406	70.81
666.609	85.81
666.812	81.81
667.015	81.81
667.218	77.81
667.421	83.81
667.624	84.81
667.827	76.81
668.03	84.81
668.232	69.81
668.435	79.81
668.638	69.81
668.841	78.81
669.043	73.81
669.246	85.81
669.449	97.81
669.651	88.81
669.854	66.81
670.057	74.81
670.259	75.81
670.462	77.81
670.665	87.81
670.867	88.81
671.07	84.81
671.272	80.81
671.475	73.81
671.677	77.81
671.88	83.81
672.082	80.81
672.284	77.81
672.487	80.81
672.689	84.81
672.892	97.81
