Data from 1974.PennyLincolnUp.Lamp.En5.5.200Scan.071719.P1.Changed Mount._HRD10591_15-53-13-856.txt Node
Date: Thu Jul 18 15:53:13 EDT 2019
User: cochatt
Spectrometer: HR+D1059
Trigger mode: 1
Integration Time (sec): 1.000000E-1
Scans to average: 1
Electric dark correction enabled: true
Nonlinearity correction enabled: false
Boxcar width: 0
XAxis mode: Wavelengths
Number of Pixels in Spectrum: 2048
>>>>>Begin Spectral Data<<<<<
223.165	-29.94
223.4	-29.94
223.635	-29.94
223.869	-12.94
224.104	-17.94
224.338	-8.94
224.573	-9.94
224.808	-17.94
225.042	-13.94
225.277	5.06
225.511	7.06
225.746	7.06
225.98	-1.94
226.215	12.06
226.449	15.06
226.683	18.06
226.918	19.06
227.152	30.06
227.387	27.06
227.621	43.06
227.856	50.06
228.09	42.06
228.324	39.06
228.559	47.06
228.793	75.06
229.027	94.06
229.262	118.06
229.496	109.06
229.73	131.06
229.964	158.06
230.199	134.06
230.433	117.06
230.667	114.06
230.901	120.06
231.136	108.06
231.37	120.06
231.604	119.06
231.838	126.06
232.072	111.06
232.306	123.06
232.541	129.06
232.775	121.06
233.009	123.06
233.243	110.06
233.477	116.06
233.711	125.06
233.945	121.06
234.179	121.06
234.413	115.06
234.647	123.06
234.881	124.06
235.115	137.06
235.349	136.06
235.583	132.06
235.817	134.06
236.051	127.06
236.285	123.06
236.519	135.06
236.753	133.06
236.987	134.06
237.221	185.06
237.455	243.06
237.689	189.06
237.922	158.06
238.156	144.06
238.39	141.06
238.624	142.06
238.858	135.06
239.091	136.06
239.325	142.06
239.559	133.06
239.793	137.06
240.027	146.06
240.26	142.06
240.494	162.06
240.728	165.06
240.961	172.06
241.195	159.06
241.429	152.06
241.662	153.06
241.896	139.06
242.13	144.06
242.363	143.06
242.597	144.06
242.83	140.06
243.064	139.06
243.298	138.06
243.531	148.06
243.765	148.06
243.998	154.06
244.232	158.06
244.465	153.06
244.699	147.06
244.932	163.06
245.166	153.06
245.399	147.06
245.633	152.06
245.866	164.06
246.099	150.06
246.333	162.06
246.566	166.06
246.8	158.06
247.033	164.06
247.266	155.06
247.5	181.06
247.733	158.06
247.966	191.06
248.2	190.06
248.433	198.06
248.666	194.06
248.899	195.06
249.133	204.06
249.366	209.06
249.599	212.06
249.832	194.06
250.066	197.06
250.299	179.06
250.532	204.06
250.765	214.06
250.998	222.06
251.231	228.06
251.465	223.06
251.698	227.06
251.931	213.06
252.164	206.06
252.397	210.06
252.63	203.06
252.863	223.06
253.096	230.06
253.329	231.06
253.562	230.06
253.795	217.06
254.028	244.06
254.261	248.06
254.494	236.06
254.727	248.06
254.96	300.06
255.193	280.06
255.426	272.06
255.659	243.06
255.892	234.06
256.124	241.06
256.357	245.06
256.59	244.06
256.823	222.06
257.056	234.06
257.289	220.06
257.521	219.06
257.754	229.06
257.987	218.06
258.22	205.06
258.452	229.06
258.685	225.06
258.918	216.06
259.151	215.06
259.383	231.06
259.616	239.06
259.849	239.06
260.081	247.06
260.314	259.06
260.547	276.06
260.779	254.06
261.012	254.06
261.244	241.06
261.477	253.06
261.71	244.06
261.942	230.06
262.175	248.06
262.407	243.06
262.64	222.06
262.872	225.06
263.105	229.06
263.337	234.06
263.57	236.06
263.802	226.06
264.035	238.06
264.267	242.06
264.499	260.06
264.732	261.06
264.964	229.06
265.197	221.06
265.429	243.06
265.661	242.06
265.894	245.06
266.126	238.06
266.358	248.06
266.591	235.06
266.823	230.06
267.055	228.06
267.287	239.06
267.52	236.06
267.752	246.06
267.984	267.06
268.216	250.06
268.448	248.06
268.681	262.06
268.913	260.06
269.145	269.06
269.377	317.06
269.609	286.06
269.841	283.06
270.073	276.06
270.306	296.06
270.538	320.06
270.77	321.06
271.002	325.06
271.234	298.06
271.466	314.06
271.698	304.06
271.93	322.06
272.162	312.06
272.394	321.06
272.626	312.06
272.858	304.06
273.09	307.06
273.322	290.06
273.553	289.06
273.785	281.06
274.017	269.06
274.249	300.06
274.481	285.06
274.713	286.06
274.945	285.06
275.176	267.06
275.408	293.06
275.64	307.06
275.872	286.06
276.104	279.06
276.335	290.06
276.567	299.06
276.799	318.06
277.031	321.06
277.262	346.06
277.494	348.06
277.726	326.06
277.957	291.06
278.189	297.06
278.421	278.06
278.652	292.06
278.884	287.06
279.115	298.06
279.347	291.06
279.579	299.06
279.81	305.06
280.042	285.06
280.273	296.06
280.505	289.06
280.736	307.06
280.968	290.06
281.199	289.06
281.431	313.06
281.662	300.06
281.894	292.06
282.125	299.06
282.356	302.06
282.588	290.06
282.819	322.06
283.051	298.06
283.282	292.06
283.513	310.06
283.745	314.06
283.976	316.06
284.207	319.06
284.439	314.06
284.67	293.06
284.901	311.06
285.132	282.06
285.364	298.06
285.595	318.06
285.826	313.06
286.057	309.06
286.288	317.06
286.52	310.06
286.751	318.06
286.982	319.06
287.213	307.06
287.444	329.06
287.675	331.06
287.906	318.06
288.138	340.06
288.369	340.06
288.6	319.06
288.831	330.06
289.062	338.06
289.293	317.06
289.524	305.06
289.755	336.06
289.986	309.06
290.217	327.06
290.448	312.06
290.679	319.06
290.91	321.06
291.141	325.06
291.371	330.06
291.602	323.06
291.833	311.06
292.064	319.06
292.295	318.06
292.526	336.06
292.757	323.06
292.987	328.06
293.218	315.06
293.449	331.06
293.68	324.06
293.91	310.06
294.141	332.06
294.372	322.06
294.603	315.06
294.833	331.06
295.064	316.06
295.295	327.06
295.525	336.06
295.756	319.06
295.987	318.06
296.217	364.06
296.448	346.06
296.679	347.06
296.909	332.06
297.14	328.06
297.37	326.06
297.601	330.06
297.831	351.06
298.062	345.06
298.292	345.06
298.523	362.06
298.753	332.06
298.984	323.06
299.214	346.06
299.445	343.06
299.675	343.06
299.905	372.06
300.136	350.06
300.366	357.06
300.597	335.06
300.827	363.06
301.057	340.06
301.288	371.06
301.518	349.06
301.748	359.06
301.979	363.06
302.209	365.06
302.439	358.06
302.669	354.06
302.9	343.06
303.13	354.06
303.36	370.06
303.59	362.06
303.82	362.06
304.051	348.06
304.281	372.06
304.511	362.06
304.741	352.06
304.971	350.06
305.201	356.06
305.431	364.06
305.661	345.06
305.891	362.06
306.121	354.06
306.352	363.06
306.582	372.06
306.812	341.06
307.042	360.06
307.272	354.06
307.502	359.06
307.731	349.06
307.961	362.06
308.191	395.06
308.421	360.06
308.651	359.06
308.881	364.06
309.111	361.06
309.341	380.06
309.571	361.06
309.8	364.06
310.03	380.06
310.26	385.06
310.49	385.06
310.72	411.06
310.949	421.06
311.179	413.06
311.409	390.06
311.639	401.06
311.868	401.06
312.098	389.06
312.328	413.06
312.557	412.06
312.787	398.06
313.017	414.06
313.246	400.06
313.476	410.06
313.706	430.06
313.935	399.06
314.165	413.06
314.394	414.06
314.624	421.06
314.853	413.06
315.083	404.06
315.312	418.06
315.542	410.06
315.771	390.06
316.001	381.06
316.23	405.06
316.46	414.06
316.689	400.06
316.919	419.06
317.148	419.06
317.377	420.06
317.607	402.06
317.836	397.06
318.065	402.06
318.295	411.06
318.524	400.06
318.753	406.06
318.983	409.06
319.212	411.06
319.441	404.06
319.67	419.06
319.9	422.06
320.129	416.06
320.358	421.06
320.587	413.06
320.816	417.06
321.046	421.06
321.275	431.06
321.504	433.06
321.733	429.06
321.962	428.06
322.191	430.06
322.42	465.06
322.649	453.06
322.878	483.06
323.108	491.06
323.337	481.06
323.566	502.06
323.795	505.06
324.024	533.06
324.253	634.06
324.482	866.06
324.71	1283.06
324.939	1910.06
325.168	1678.06
325.397	882.06
325.626	608.06
325.855	524.06
326.084	502.06
326.313	484.06
326.542	498.06
326.77	519.06
326.999	601.06
327.228	820.06
327.457	1180.06
327.686	1461.06
327.914	1015.06
328.143	644.06
328.372	615.06
328.6	575.06
328.829	558.06
329.058	571.06
329.287	578.06
329.515	541.06
329.744	516.06
329.972	525.06
330.201	531.06
330.43	565.06
330.658	579.06
330.887	610.06
331.115	602.06
331.344	550.06
331.572	521.06
331.801	521.06
332.03	512.06
332.258	486.06
332.486	509.06
332.715	475.06
332.943	514.06
333.172	511.06
333.4	523.06
333.629	530.06
333.857	531.06
334.085	546.06
334.314	559.06
334.542	584.06
334.771	590.06
334.999	542.06
335.227	530.06
335.455	521.06
335.684	507.06
335.912	483.06
336.14	491.06
336.369	488.06
336.597	489.06
336.825	495.06
337.053	501.06
337.281	469.06
337.51	482.06
337.738	483.06
337.966	494.06
338.194	488.06
338.422	481.06
338.65	493.06
338.878	466.06
339.106	472.06
339.334	480.06
339.562	468.06
339.79	468.06
340.018	485.06
340.246	465.06
340.474	475.06
340.702	465.06
340.93	471.06
341.158	488.06
341.386	462.06
341.614	470.06
341.842	456.06
342.07	472.06
342.298	469.06
342.526	447.06
342.754	455.06
342.981	474.06
343.209	473.06
343.437	481.06
343.665	472.06
343.893	516.06
344.12	481.06
344.348	483.06
344.576	498.06
344.804	494.06
345.031	474.06
345.259	510.06
345.487	487.06
345.714	478.06
345.942	461.06
346.17	467.06
346.397	467.06
346.625	446.06
346.853	462.06
347.08	430.06
347.308	452.06
347.535	484.06
347.763	453.06
347.99	473.06
348.218	467.06
348.445	458.06
348.673	457.06
348.9	468.06
349.128	460.06
349.355	446.06
349.583	450.06
349.81	439.06
350.037	452.06
350.265	443.06
350.492	453.06
350.72	441.06
350.947	445.06
351.174	431.06
351.402	459.06
351.629	479.06
351.856	467.06
352.083	450.06
352.311	470.06
352.538	459.06
352.765	470.06
352.992	447.06
353.22	463.06
353.447	457.06
353.674	450.06
353.901	433.06
354.128	453.06
354.355	422.06
354.583	433.06
354.81	433.06
355.037	454.06
355.264	425.06
355.491	448.06
355.718	416.06
355.945	426.06
356.172	443.06
356.399	427.06
356.626	445.06
356.853	458.06
357.08	423.06
357.307	435.06
357.534	401.06
357.761	431.06
357.988	447.06
358.215	432.06
358.441	427.06
358.668	436.06
358.895	435.06
359.122	427.06
359.349	435.06
359.576	459.06
359.802	458.06
360.029	512.06
360.256	493.06
360.483	495.06
360.709	476.06
360.936	449.06
361.163	462.06
361.39	444.06
361.616	466.06
361.843	449.06
362.07	465.06
362.296	469.06
362.523	462.06
362.749	457.06
362.976	449.06
363.203	433.06
363.429	442.06
363.656	471.06
363.882	457.06
364.109	443.06
364.335	442.06
364.562	445.06
364.788	437.06
365.015	462.06
365.241	449.06
365.468	457.06
365.694	456.06
365.92	458.06
366.147	458.06
366.373	445.06
366.599	456.06
366.826	433.06
367.052	439.06
367.278	458.06
367.505	459.06
367.731	447.06
367.957	461.06
368.184	459.06
368.41	454.06
368.636	457.06
368.862	478.06
369.089	465.06
369.315	447.06
369.541	454.06
369.767	456.06
369.993	448.06
370.219	437.06
370.445	451.06
370.672	450.06
370.898	466.06
371.124	449.06
371.35	462.06
371.576	458.06
371.802	467.06
372.028	455.06
372.254	443.06
372.48	455.06
372.706	463.06
372.932	473.06
373.158	453.06
373.384	450.06
373.61	462.06
373.835	458.06
374.061	461.06
374.287	472.06
374.513	468.06
374.739	469.06
374.965	464.06
375.191	466.06
375.416	484.06
375.642	452.06
375.868	455.06
376.094	480.06
376.319	468.06
376.545	452.06
376.771	468.06
376.997	445.06
377.222	468.06
377.448	450.06
377.674	445.06
377.899	451.06
378.125	467.06
378.35	464.06
378.576	453.06
378.802	464.06
379.027	466.06
379.253	474.06
379.478	442.06
379.704	449.06
379.929	457.06
380.155	438.06
380.38	452.06
380.606	461.06
380.831	463.06
381.057	442.06
381.282	467.06
381.507	469.06
381.733	449.06
381.958	474.06
382.184	460.06
382.409	487.06
382.634	474.06
382.86	462.06
383.085	492.06
383.31	473.06
383.535	467.06
383.761	481.06
383.986	501.06
384.211	457.06
384.436	489.06
384.662	490.06
384.887	500.06
385.112	487.06
385.337	511.06
385.562	527.06
385.787	515.06
386.013	550.06
386.238	540.06
386.463	522.06
386.688	509.06
386.913	501.06
387.138	509.06
387.363	515.06
387.588	530.06
387.813	523.06
388.038	489.06
388.263	507.06
388.488	515.06
388.713	502.06
388.938	531.06
389.163	518.06
389.387	517.06
389.612	529.06
389.837	523.06
390.062	483.06
390.287	513.06
390.512	512.06
390.736	500.06
390.961	500.06
391.186	520.06
391.411	504.06
391.636	528.06
391.86	538.06
392.085	532.06
392.31	540.06
392.534	551.06
392.759	537.06
392.984	505.06
393.208	520.06
393.433	528.06
393.658	533.06
393.882	533.06
394.107	499.06
394.331	515.06
394.556	510.06
394.78	527.06
395.005	541.06
395.229	533.06
395.454	532.06
395.678	542.06
395.903	568.06
396.127	604.06
396.352	591.06
396.576	549.06
396.801	535.06
397.025	526.06
397.249	557.06
397.474	555.06
397.698	576.06
397.922	567.06
398.147	587.06
398.371	590.06
398.595	590.06
398.82	585.06
399.044	591.06
399.268	641.06
399.492	696.06
399.717	731.06
399.941	746.06
400.165	731.06
400.389	738.06
400.613	685.06
400.837	622.06
401.062	617.06
401.286	602.06
401.51	595.06
401.734	591.06
401.958	610.06
402.182	621.06
402.406	603.06
402.63	608.06
402.854	621.06
403.078	611.06
403.302	635.06
403.526	645.06
403.75	651.06
403.974	653.06
404.198	666.06
404.422	630.06
404.645	645.06
404.869	654.06
405.093	660.06
405.317	731.06
405.541	779.06
405.765	678.06
405.988	667.06
406.212	647.06
406.436	682.06
406.66	687.06
406.883	675.06
407.107	684.06
407.331	735.06
407.555	821.06
407.778	830.06
408.002	772.06
408.226	705.06
408.449	691.06
408.673	666.06
408.896	721.06
409.12	760.06
409.344	727.06
409.567	677.06
409.791	655.06
410.014	630.06
410.238	620.06
410.461	627.06
410.685	637.06
410.908	639.06
411.132	676.06
411.355	711.06
411.578	681.06
411.802	650.06
412.025	626.06
412.249	635.06
412.472	663.06
412.695	713.06
412.919	699.06
413.142	638.06
413.365	637.06
413.589	611.06
413.812	612.06
414.035	624.06
414.258	606.06
414.482	594.06
414.705	623.06
414.928	607.06
415.151	588.06
415.374	609.06
415.597	607.06
415.821	583.06
416.044	596.06
416.267	581.06
416.49	554.06
416.713	576.06
416.936	574.06
417.159	596.06
417.382	597.06
417.605	609.06
417.828	614.06
418.051	631.06
418.274	631.06
418.497	615.06
418.72	593.06
418.943	605.06
419.166	622.06
419.389	651.06
419.611	667.06
419.834	641.06
420.057	649.06
420.28	628.06
420.503	635.06
420.726	613.06
420.948	639.06
421.171	679.06
421.394	697.06
421.617	641.06
421.839	604.06
422.062	611.06
422.285	630.06
422.507	682.06
422.73	790.06
422.953	723.06
423.175	695.06
423.398	653.06
423.621	644.06
423.843	686.06
424.066	673.06
424.288	673.06
424.511	694.06
424.733	717.06
424.956	830.06
425.178	786.06
425.401	773.06
425.623	807.06
425.846	701.06
426.068	675.06
426.291	635.06
426.513	633.06
426.735	651.06
426.958	713.06
427.18	769.06
427.402	919.06
427.625	989.06
427.847	863.06
428.069	758.06
428.292	691.06
428.514	639.06
428.736	610.06
428.958	605.06
429.181	611.06
429.403	598.06
429.625	605.06
429.847	642.06
430.069	687.06
430.292	685.06
430.514	626.06
430.736	622.06
430.958	591.06
431.18	589.06
431.402	582.06
431.624	585.06
431.846	569.06
432.068	571.06
432.29	578.06
432.512	591.06
432.734	591.06
432.956	577.06
433.178	575.06
433.4	586.06
433.622	583.06
433.844	573.06
434.066	598.06
434.287	573.06
434.509	587.06
434.731	592.06
434.953	605.06
435.175	617.06
435.397	663.06
435.618	653.06
435.84	666.06
436.062	779.06
436.284	870.06
436.505	724.06
436.727	656.06
436.949	627.06
437.17	599.06
437.392	588.06
437.614	620.06
437.835	631.06
438.057	732.06
438.278	825.06
438.5	815.06
438.721	914.06
438.943	905.06
439.165	685.06
439.386	660.06
439.608	656.06
439.829	656.06
440.05	683.06
440.272	713.06
440.493	709.06
440.715	644.06
440.936	622.06
441.158	629.06
441.379	597.06
441.6	629.06
441.822	655.06
442.043	685.06
442.264	772.06
442.486	817.06
442.707	719.06
442.928	669.06
443.149	676.06
443.371	686.06
443.592	738.06
443.813	828.06
444.034	917.06
444.255	779.06
444.476	698.06
444.698	700.06
444.919	694.06
445.14	760.06
445.361	737.06
445.582	698.06
445.803	738.06
446.024	845.06
446.245	838.06
446.466	773.06
446.687	714.06
446.908	653.06
447.129	644.06
447.35	601.06
447.571	599.06
447.792	580.06
448.013	606.06
448.234	599.06
448.455	668.06
448.675	787.06
448.896	909.06
449.117	758.06
449.338	732.06
449.559	817.06
449.779	939.06
450	738.06
450.221	642.06
450.442	613.06
450.662	583.06
450.883	574.06
451.104	582.06
451.324	562.06
451.545	557.06
451.766	554.06
451.986	546.06
452.207	538.06
452.428	539.06
452.648	535.06
452.869	536.06
453.089	534.06
453.31	546.06
453.53	532.06
453.751	513.06
453.971	547.06
454.192	550.06
454.412	533.06
454.633	539.06
454.853	510.06
455.073	527.06
455.294	552.06
455.514	605.06
455.734	627.06
455.955	541.06
456.175	502.06
456.395	511.06
456.616	508.06
456.836	511.06
457.056	501.06
457.276	511.06
457.497	522.06
457.717	505.06
457.937	521.06
458.157	503.06
458.377	537.06
458.598	553.06
458.818	593.06
459.038	629.06
459.258	694.06
459.478	653.06
459.698	595.06
459.918	554.06
460.138	579.06
460.358	582.06
460.578	599.06
460.798	599.06
461.018	607.06
461.238	616.06
461.458	600.06
461.678	587.06
461.898	611.06
462.118	592.06
462.338	609.06
462.558	638.06
462.777	625.06
462.997	681.06
463.217	681.06
463.437	695.06
463.657	669.06
463.876	655.06
464.096	640.06
464.316	649.06
464.536	669.06
464.755	651.06
464.975	634.06
465.195	653.06
465.414	694.06
465.634	633.06
465.854	601.06
466.073	599.06
466.293	590.06
466.512	570.06
466.732	558.06
466.951	558.06
467.171	583.06
467.391	545.06
467.61	549.06
467.829	547.06
468.049	549.06
468.268	583.06
468.488	547.06
468.707	553.06
468.927	514.06
469.146	531.06
469.365	528.06
469.585	551.06
469.804	540.06
470.023	582.06
470.243	561.06
470.462	578.06
470.681	571.06
470.901	591.06
471.12	584.06
471.339	551.06
471.558	555.06
471.777	555.06
471.997	575.06
472.216	559.06
472.435	578.06
472.654	591.06
472.873	564.06
473.092	554.06
473.311	533.06
473.53	555.06
473.749	575.06
473.968	601.06
474.187	702.06
474.406	721.06
474.625	607.06
474.844	563.06
475.063	578.06
475.282	568.06
475.501	565.06
475.72	570.06
475.939	565.06
476.158	568.06
476.377	570.06
476.596	572.06
476.814	589.06
477.033	579.06
477.252	600.06
477.471	577.06
477.69	622.06
477.908	613.06
478.127	616.06
478.346	618.06
478.564	612.06
478.783	653.06
479.002	677.06
479.22	665.06
479.439	657.06
479.658	685.06
479.876	663.06
480.095	709.06
480.313	713.06
480.532	688.06
480.751	695.06
480.969	685.06
481.188	729.06
481.406	767.06
481.624	717.06
481.843	684.06
482.061	639.06
482.28	673.06
482.498	641.06
482.717	654.06
482.935	665.06
483.153	651.06
483.372	654.06
483.59	652.06
483.808	663.06
484.027	659.06
484.245	663.06
484.463	660.06
484.681	662.06
484.9	681.06
485.118	683.06
485.336	660.06
485.554	641.06
485.772	665.06
485.99	687.06
486.209	701.06
486.427	699.06
486.645	700.06
486.863	698.06
487.081	683.06
487.299	703.06
487.517	719.06
487.735	697.06
487.953	701.06
488.171	704.06
488.389	689.06
488.607	689.06
488.825	706.06
489.043	712.06
489.261	709.06
489.479	695.06
489.696	748.06
489.914	726.06
490.132	734.06
490.35	738.06
490.568	737.06
490.786	766.06
491.003	790.06
491.221	777.06
491.439	773.06
491.657	778.06
491.874	830.06
492.092	823.06
492.31	799.06
492.527	818.06
492.745	829.06
492.963	822.06
493.18	837.06
493.398	866.06
493.615	833.06
493.833	839.06
494.05	843.06
494.268	841.06
494.485	833.06
494.703	822.06
494.92	822.06
495.138	832.06
495.355	846.06
495.573	841.06
495.79	823.06
496.008	847.06
496.225	838.06
496.442	821.06
496.66	821.06
496.877	840.06
497.094	858.06
497.312	853.06
497.529	890.06
497.746	877.06
497.963	890.06
498.181	907.06
498.398	904.06
498.615	947.06
498.832	957.06
499.049	995.06
499.267	1048.06
499.484	1049.06
499.701	1126.06
499.918	1173.06
500.135	1234.06
500.352	1336.06
500.569	1359.06
500.786	1331.06
501.003	1300.06
501.22	1246.06
501.437	1229.06
501.654	1166.06
501.871	1134.06
502.088	1087.06
502.305	995.06
502.522	998.06
502.739	958.06
502.956	962.06
503.172	926.06
503.389	905.06
503.606	885.06
503.823	862.06
504.04	879.06
504.256	849.06
504.473	828.06
504.69	845.06
504.907	859.06
505.123	821.06
505.34	840.06
505.557	777.06
505.773	819.06
505.99	786.06
506.207	795.06
506.423	826.06
506.64	777.06
506.856	765.06
507.073	745.06
507.289	755.06
507.506	748.06
507.722	778.06
507.939	788.06
508.155	752.06
508.372	759.06
508.588	733.06
508.805	728.06
509.021	710.06
509.238	756.06
509.454	755.06
509.67	741.06
509.887	743.06
510.103	723.06
510.319	723.06
510.536	782.06
510.752	1173.06
510.968	949.06
511.184	725.06
511.401	701.06
511.617	691.06
511.833	679.06
512.049	689.06
512.265	693.06
512.481	698.06
512.698	671.06
512.914	693.06
513.13	681.06
513.346	687.06
513.562	674.06
513.778	676.06
513.994	696.06
514.21	706.06
514.426	715.06
514.642	722.06
514.858	784.06
515.074	794.06
515.29	869.06
515.506	1171.06
515.721	1041.06
515.937	772.06
516.153	739.06
516.369	731.06
516.585	751.06
516.801	711.06
517.016	730.06
517.232	758.06
517.448	767.06
517.664	764.06
517.879	723.06
518.095	763.06
518.311	736.06
518.527	714.06
518.742	711.06
518.958	719.06
519.173	690.06
519.389	691.06
519.605	685.06
519.82	701.06
520.036	714.06
520.251	724.06
520.467	734.06
520.682	736.06
520.898	722.06
521.113	756.06
521.329	773.06
521.544	825.06
521.76	949.06
521.975	1415.06
522.19	1416.06
522.406	901.06
522.621	724.06
522.836	681.06
523.052	626.06
523.267	620.06
523.482	625.06
523.698	629.06
523.913	629.06
524.128	629.06
524.343	624.06
524.559	604.06
524.774	617.06
524.989	599.06
525.204	609.06
525.419	617.06
525.634	585.06
525.849	599.06
526.064	593.06
526.28	576.06
526.495	555.06
526.71	578.06
526.925	565.06
527.14	567.06
527.355	552.06
527.57	561.06
527.785	569.06
527.999	587.06
528.214	575.06
528.429	569.06
528.644	567.06
528.859	583.06
529.074	571.06
529.289	600.06
529.503	642.06
529.718	656.06
529.933	593.06
530.148	551.06
530.363	581.06
530.577	565.06
530.792	581.06
531.007	568.06
531.221	576.06
531.436	549.06
531.651	575.06
531.865	571.06
532.08	566.06
532.295	545.06
532.509	567.06
532.724	551.06
532.938	551.06
533.153	577.06
533.367	536.06
533.582	551.06
533.796	575.06
534.011	550.06
534.225	551.06
534.44	536.06
534.654	561.06
534.868	545.06
535.083	542.06
535.297	531.06
535.511	542.06
535.726	546.06
535.94	545.06
536.154	526.06
536.369	525.06
536.583	534.06
536.797	535.06
537.011	546.06
537.225	532.06
537.44	519.06
537.654	504.06
537.868	519.06
538.082	539.06
538.296	538.06
538.51	528.06
538.724	540.06
538.938	537.06
539.153	546.06
539.367	565.06
539.581	552.06
539.795	545.06
540.009	514.06
540.222	501.06
540.436	519.06
540.65	519.06
540.864	528.06
541.078	549.06
541.292	540.06
541.506	527.06
541.72	522.06
541.934	521.06
542.147	550.06
542.361	543.06
542.575	535.06
542.789	524.06
543.002	537.06
543.216	538.06
543.43	533.06
543.644	522.06
543.857	521.06
544.071	524.06
544.285	568.06
544.498	527.06
544.712	541.06
544.925	540.06
545.139	532.06
545.352	525.06
545.566	545.06
545.779	534.06
545.993	543.06
546.206	526.06
546.42	519.06
546.633	526.06
546.847	515.06
547.06	526.06
547.274	504.06
547.487	512.06
547.7	522.06
547.914	529.06
548.127	529.06
548.34	527.06
548.554	513.06
548.767	515.06
548.98	526.06
549.193	535.06
549.407	518.06
549.62	538.06
549.833	528.06
550.046	528.06
550.259	513.06
550.473	515.06
550.686	507.06
550.899	501.06
551.112	467.06
551.325	515.06
551.538	511.06
551.751	517.06
551.964	517.06
552.177	520.06
552.39	520.06
552.603	521.06
552.816	542.06
553.029	529.06
553.242	529.06
553.455	516.06
553.667	536.06
553.88	531.06
554.093	513.06
554.306	536.06
554.519	521.06
554.732	510.06
554.944	499.06
555.157	513.06
555.37	483.06
555.583	512.06
555.795	489.06
556.008	485.06
556.221	496.06
556.433	489.06
556.646	487.06
556.859	473.06
557.071	460.06
557.284	481.06
557.496	454.06
557.709	459.06
557.921	471.06
558.134	477.06
558.346	465.06
558.559	478.06
558.771	460.06
558.984	445.06
559.196	453.06
559.409	433.06
559.621	459.06
559.833	449.06
560.046	466.06
560.258	448.06
560.47	462.06
560.683	447.06
560.895	452.06
561.107	460.06
561.32	457.06
561.532	449.06
561.744	456.06
561.956	478.06
562.168	461.06
562.381	454.06
562.593	469.06
562.805	461.06
563.017	461.06
563.229	461.06
563.441	450.06
563.653	478.06
563.865	484.06
564.077	479.06
564.289	459.06
564.501	475.06
564.713	469.06
564.925	470.06
565.137	480.06
565.349	502.06
565.561	492.06
565.773	505.06
565.985	550.06
566.197	548.06
566.408	555.06
566.62	571.06
566.832	585.06
567.044	612.06
567.255	591.06
567.467	606.06
567.679	604.06
567.891	647.06
568.102	632.06
568.314	630.06
568.526	604.06
568.737	591.06
568.949	532.06
569.161	497.06
569.372	480.06
569.584	488.06
569.795	482.06
570.007	489.06
570.218	511.06
570.43	497.06
570.641	453.06
570.853	456.06
571.064	445.06
571.276	434.06
571.487	446.06
571.698	452.06
571.91	450.06
572.121	438.06
572.333	446.06
572.544	422.06
572.755	419.06
572.966	415.06
573.178	403.06
573.389	404.06
573.6	402.06
573.811	377.06
574.023	394.06
574.234	406.06
574.445	395.06
574.656	407.06
574.867	394.06
575.078	397.06
575.289	387.06
575.501	379.06
575.712	376.06
575.923	387.06
576.134	369.06
576.345	385.06
576.556	391.06
576.767	387.06
576.978	384.06
577.188	382.06
577.399	387.06
577.61	372.06
577.821	371.06
578.032	371.06
578.243	394.06
578.454	544.06
578.665	462.06
578.875	378.06
579.086	373.06
579.297	349.06
579.508	359.06
579.718	359.06
579.929	369.06
580.14	352.06
580.35	381.06
580.561	358.06
580.772	353.06
580.982	373.06
581.193	374.06
581.403	359.06
581.614	340.06
581.825	370.06
582.035	337.06
582.246	345.06
582.456	362.06
582.667	352.06
582.877	354.06
583.087	347.06
583.298	365.06
583.508	342.06
583.719	343.06
583.929	346.06
584.139	340.06
584.35	335.06
584.56	338.06
584.77	328.06
584.981	350.06
585.191	364.06
585.401	348.06
585.611	342.06
585.821	348.06
586.032	362.06
586.242	344.06
586.452	333.06
586.662	337.06
586.872	343.06
587.082	327.06
587.292	333.06
587.502	339.06
587.713	343.06
587.923	356.06
588.133	334.06
588.343	316.06
588.553	347.06
588.762	349.06
588.972	334.06
589.182	338.06
589.392	340.06
589.602	343.06
589.812	356.06
590.022	343.06
590.232	335.06
590.441	345.06
590.651	342.06
590.861	343.06
591.071	318.06
591.281	332.06
591.49	345.06
591.7	342.06
591.91	353.06
592.119	355.06
592.329	344.06
592.539	373.06
592.748	379.06
592.958	368.06
593.167	369.06
593.377	358.06
593.587	393.06
593.796	374.06
594.006	357.06
594.215	385.06
594.424	387.06
594.634	385.06
594.843	357.06
595.053	368.06
595.262	375.06
595.472	350.06
595.681	350.06
595.89	350.06
596.1	319.06
596.309	346.06
596.518	332.06
596.727	339.06
596.937	313.06
597.146	335.06
597.355	306.06
597.564	311.06
597.774	314.06
597.983	303.06
598.192	314.06
598.401	323.06
598.61	309.06
598.819	318.06
599.028	281.06
599.237	310.06
599.446	299.06
599.655	311.06
599.864	300.06
600.073	300.06
600.282	289.06
600.491	281.06
600.7	290.06
600.909	302.06
601.118	305.06
601.327	305.06
601.536	281.06
601.745	307.06
601.953	309.06
602.162	309.06
602.371	290.06
602.58	293.06
602.789	292.06
602.997	283.06
603.206	305.06
603.415	275.06
603.623	292.06
603.832	290.06
604.041	280.06
604.249	295.06
604.458	284.06
604.666	284.06
604.875	299.06
605.084	287.06
605.292	306.06
605.501	293.06
605.709	272.06
605.918	285.06
606.126	276.06
606.334	281.06
606.543	278.06
606.751	275.06
606.96	299.06
607.168	286.06
607.376	288.06
607.585	286.06
607.793	290.06
608.001	267.06
608.21	261.06
608.418	290.06
608.626	286.06
608.834	284.06
609.043	285.06
609.251	275.06
609.459	269.06
609.667	287.06
609.875	279.06
610.083	291.06
610.291	266.06
610.499	275.06
610.707	281.06
610.916	294.06
611.124	276.06
611.332	282.06
611.54	291.06
611.748	302.06
611.955	275.06
612.163	271.06
612.371	269.06
612.579	278.06
612.787	291.06
612.995	280.06
613.203	283.06
613.411	283.06
613.618	268.06
613.826	275.06
614.034	271.06
614.242	279.06
614.449	264.06
614.657	280.06
614.865	282.06
615.072	259.06
615.28	279.06
615.488	281.06
615.695	267.06
615.903	257.06
616.111	268.06
616.318	275.06
616.526	271.06
616.733	291.06
616.941	284.06
617.148	274.06
617.356	271.06
617.563	257.06
617.771	275.06
617.978	269.06
618.185	279.06
618.393	266.06
618.6	269.06
618.807	274.06
619.015	259.06
619.222	266.06
619.429	283.06
619.637	267.06
619.844	262.06
620.051	253.06
620.258	262.06
620.466	259.06
620.673	266.06
620.88	258.06
621.087	251.06
621.294	261.06
621.501	244.06
621.708	271.06
621.915	262.06
622.122	257.06
622.329	262.06
622.536	254.06
622.743	258.06
622.95	259.06
623.157	250.06
623.364	253.06
623.571	259.06
623.778	269.06
623.985	260.06
624.192	261.06
624.399	245.06
624.606	230.06
624.812	228.06
625.019	230.06
625.226	235.06
625.433	257.06
625.639	242.06
625.846	233.06
626.053	232.06
626.259	223.06
626.466	232.06
626.673	241.06
626.879	228.06
627.086	233.06
627.293	236.06
627.499	248.06
627.706	236.06
627.912	222.06
628.119	219.06
628.325	230.06
628.532	219.06
628.738	230.06
628.945	251.06
629.151	217.06
629.357	219.06
629.564	222.06
629.77	232.06
629.976	237.06
630.183	223.06
630.389	214.06
630.595	202.06
630.802	206.06
631.008	224.06
631.214	239.06
631.42	217.06
631.627	221.06
631.833	212.06
632.039	206.06
632.245	202.06
632.451	209.06
632.657	233.06
632.863	214.06
633.069	198.06
633.275	211.06
633.481	209.06
633.688	212.06
633.893	206.06
634.099	215.06
634.305	214.06
634.511	215.06
634.717	210.06
634.923	211.06
635.129	207.06
635.335	198.06
635.541	216.06
635.747	210.06
635.952	199.06
636.158	192.06
636.364	209.06
636.57	216.06
636.775	211.06
636.981	207.06
637.187	214.06
637.392	214.06
637.598	206.06
637.804	206.06
638.009	208.06
638.215	187.06
638.421	199.06
638.626	199.06
638.832	197.06
639.037	178.06
639.243	180.06
639.448	225.06
639.654	195.06
639.859	190.06
640.065	200.06
640.27	205.06
640.475	210.06
640.681	197.06
640.886	187.06
641.091	199.06
641.297	208.06
641.502	191.06
641.707	180.06
641.913	181.06
642.118	186.06
642.323	189.06
642.528	183.06
642.733	193.06
642.939	191.06
643.144	185.06
643.349	184.06
643.554	181.06
643.759	177.06
643.964	196.06
644.169	195.06
644.374	178.06
644.579	178.06
644.784	192.06
644.989	183.06
645.194	191.06
645.399	177.06
645.604	183.06
645.809	188.06
646.014	181.06
646.219	179.06
646.423	180.06
646.628	169.06
646.833	209.06
647.038	181.06
647.243	184.06
647.447	192.06
647.652	181.06
647.857	200.06
648.062	179.06
648.266	179.06
648.471	203.06
648.676	189.06
648.88	206.06
649.085	198.06
649.289	190.06
649.494	180.06
649.698	203.06
649.903	201.06
650.107	193.06
650.312	182.06
650.516	163.06
650.721	187.06
650.925	190.06
651.13	172.06
651.334	167.06
651.539	169.06
651.743	162.06
651.947	147.06
652.152	163.06
652.356	157.06
652.56	157.06
652.764	171.06
652.969	158.06
653.173	157.06
653.377	143.06
653.581	152.06
653.785	153.06
653.99	149.06
654.194	149.06
654.398	140.06
654.602	138.06
654.806	145.06
655.01	160.06
655.214	149.06
655.418	141.06
655.622	154.06
655.826	163.06
656.03	137.06
656.234	142.06
656.438	130.06
656.642	135.06
656.846	148.06
657.049	154.06
657.253	146.06
657.457	124.06
657.661	139.06
657.865	136.06
658.068	122.06
658.272	120.06
658.476	119.06
658.68	110.06
658.883	118.06
659.087	113.06
659.291	107.06
659.494	111.06
659.698	111.06
659.901	101.06
660.105	99.06
660.309	113.06
660.512	101.06
660.716	104.06
660.919	92.06
661.123	97.06
661.326	87.06
661.53	94.06
661.733	84.06
661.936	91.06
662.14	83.06
662.343	79.06
662.546	90.06
662.75	102.06
662.953	86.06
663.156	80.06
663.36	88.06
663.563	84.06
663.766	83.06
663.969	68.06
664.173	79.06
664.376	87.06
664.579	82.06
664.782	78.06
664.985	77.06
665.188	81.06
665.391	77.06
665.594	89.06
665.797	74.06
666	92.06
666.203	94.06
666.406	78.06
666.609	83.06
666.812	86.06
667.015	84.06
667.218	77.06
667.421	82.06
667.624	91.06
667.827	85.06
668.03	86.06
668.232	77.06
668.435	78.06
668.638	81.06
668.841	91.06
669.043	94.06
669.246	88.06
669.449	78.06
669.651	89.06
669.854	75.06
670.057	77.06
670.259	77.06
670.462	66.06
670.665	84.06
670.867	97.06
671.07	83.06
671.272	87.06
671.475	88.06
671.677	88.06
671.88	81.06
672.082	79.06
672.284	76.06
672.487	87.06
672.689	82.06
672.892	81.06
