Data from 1974.PennyLincolnUp.Lamp.En5.5.200Scan.071719.P1.Changed Mount._HRD10591_15-52-36-856.txt Node
Date: Thu Jul 18 15:52:36 EDT 2019
User: cochatt
Spectrometer: HR+D1059
Trigger mode: 1
Integration Time (sec): 1.000000E-1
Scans to average: 1
Electric dark correction enabled: true
Nonlinearity correction enabled: false
Boxcar width: 0
XAxis mode: Wavelengths
Number of Pixels in Spectrum: 2048
>>>>>Begin Spectral Data<<<<<
223.165	-15.12
223.4	-15.12
223.635	-15.12
223.869	-18.12
224.104	-20.12
224.338	-8.12
224.573	-13.12
224.808	-4.12
225.042	-3.12
225.277	-16.12
225.511	9.88
225.746	-2.12
225.98	-7.12
226.215	5.88
226.449	14.88
226.683	22.88
226.918	24.88
227.152	28.88
227.387	20.88
227.621	42.88
227.856	52.88
228.09	43.88
228.324	50.88
228.559	62.88
228.793	68.88
229.027	109.88
229.262	109.88
229.496	122.88
229.73	135.88
229.964	159.88
230.199	131.88
230.433	111.88
230.667	121.88
230.901	125.88
231.136	119.88
231.37	128.88
231.604	118.88
231.838	120.88
232.072	128.88
232.306	119.88
232.541	126.88
232.775	122.88
233.009	118.88
233.243	114.88
233.477	123.88
233.711	124.88
233.945	127.88
234.179	122.88
234.413	131.88
234.647	119.88
234.881	126.88
235.115	129.88
235.349	122.88
235.583	133.88
235.817	119.88
236.051	127.88
236.285	122.88
236.519	138.88
236.753	145.88
236.987	166.88
237.221	175.88
237.455	224.88
237.689	186.88
237.922	150.88
238.156	124.88
238.39	122.88
238.624	133.88
238.858	118.88
239.091	130.88
239.325	141.88
239.559	147.88
239.793	146.88
240.027	145.88
240.26	151.88
240.494	159.88
240.728	151.88
240.961	154.88
241.195	152.88
241.429	148.88
241.662	158.88
241.896	144.88
242.13	137.88
242.363	160.88
242.597	141.88
242.83	140.88
243.064	136.88
243.298	144.88
243.531	150.88
243.765	141.88
243.998	145.88
244.232	161.88
244.465	157.88
244.699	152.88
244.932	152.88
245.166	152.88
245.399	157.88
245.633	143.88
245.866	150.88
246.099	172.88
246.333	160.88
246.566	153.88
246.8	166.88
247.033	164.88
247.266	174.88
247.5	168.88
247.733	185.88
247.966	190.88
248.2	187.88
248.433	184.88
248.666	180.88
248.899	200.88
249.133	216.88
249.366	202.88
249.599	190.88
249.832	189.88
250.066	207.88
250.299	195.88
250.532	185.88
250.765	215.88
250.998	220.88
251.231	229.88
251.465	223.88
251.698	227.88
251.931	194.88
252.164	212.88
252.397	202.88
252.63	218.88
252.863	214.88
253.096	229.88
253.329	242.88
253.562	217.88
253.795	235.88
254.028	249.88
254.261	229.88
254.494	249.88
254.727	253.88
254.96	295.88
255.193	299.88
255.426	266.88
255.659	232.88
255.892	244.88
256.124	245.88
256.357	238.88
256.59	247.88
256.823	208.88
257.056	221.88
257.289	213.88
257.521	226.88
257.754	230.88
257.987	212.88
258.22	214.88
258.452	206.88
258.685	215.88
258.918	218.88
259.151	221.88
259.383	227.88
259.616	254.88
259.849	239.88
260.081	224.88
260.314	262.88
260.547	285.88
260.779	268.88
261.012	248.88
261.244	235.88
261.477	240.88
261.71	242.88
261.942	232.88
262.175	242.88
262.407	243.88
262.64	225.88
262.872	239.88
263.105	246.88
263.337	217.88
263.57	223.88
263.802	222.88
264.035	237.88
264.267	224.88
264.499	212.88
264.732	233.88
264.964	224.88
265.197	251.88
265.429	245.88
265.661	223.88
265.894	231.88
266.126	224.88
266.358	248.88
266.591	223.88
266.823	237.88
267.055	263.88
267.287	234.88
267.52	242.88
267.752	238.88
267.984	226.88
268.216	231.88
268.448	234.88
268.681	269.88
268.913	267.88
269.145	294.88
269.377	290.88
269.609	287.88
269.841	272.88
270.073	275.88
270.306	305.88
270.538	344.88
270.77	336.88
271.002	327.88
271.234	309.88
271.466	306.88
271.698	311.88
271.93	323.88
272.162	311.88
272.394	333.88
272.626	308.88
272.858	308.88
273.09	298.88
273.322	270.88
273.553	278.88
273.785	295.88
274.017	290.88
274.249	310.88
274.481	289.88
274.713	291.88
274.945	286.88
275.176	290.88
275.408	272.88
275.64	284.88
275.872	285.88
276.104	278.88
276.335	277.88
276.567	299.88
276.799	298.88
277.031	309.88
277.262	340.88
277.494	332.88
277.726	325.88
277.957	302.88
278.189	308.88
278.421	282.88
278.652	276.88
278.884	297.88
279.115	296.88
279.347	298.88
279.579	292.88
279.81	296.88
280.042	287.88
280.273	289.88
280.505	295.88
280.736	298.88
280.968	300.88
281.199	296.88
281.431	281.88
281.662	293.88
281.894	302.88
282.125	293.88
282.356	299.88
282.588	308.88
282.819	314.88
283.051	302.88
283.282	297.88
283.513	294.88
283.745	310.88
283.976	290.88
284.207	315.88
284.439	312.88
284.67	297.88
284.901	294.88
285.132	308.88
285.364	301.88
285.595	300.88
285.826	295.88
286.057	302.88
286.288	290.88
286.52	315.88
286.751	298.88
286.982	307.88
287.213	323.88
287.444	318.88
287.675	313.88
287.906	304.88
288.138	329.88
288.369	327.88
288.6	328.88
288.831	329.88
289.062	336.88
289.293	321.88
289.524	322.88
289.755	309.88
289.986	312.88
290.217	323.88
290.448	306.88
290.679	330.88
290.91	306.88
291.141	314.88
291.371	331.88
291.602	306.88
291.833	328.88
292.064	303.88
292.295	328.88
292.526	333.88
292.757	308.88
292.987	310.88
293.218	309.88
293.449	315.88
293.68	331.88
293.91	321.88
294.141	331.88
294.372	310.88
294.603	311.88
294.833	336.88
295.064	332.88
295.295	346.88
295.525	331.88
295.756	344.88
295.987	331.88
296.217	341.88
296.448	364.88
296.679	344.88
296.909	321.88
297.14	333.88
297.37	332.88
297.601	319.88
297.831	343.88
298.062	344.88
298.292	330.88
298.523	324.88
298.753	338.88
298.984	343.88
299.214	338.88
299.445	345.88
299.675	332.88
299.905	328.88
300.136	341.88
300.366	337.88
300.597	348.88
300.827	345.88
301.057	338.88
301.288	364.88
301.518	338.88
301.748	344.88
301.979	359.88
302.209	360.88
302.439	358.88
302.669	363.88
302.9	374.88
303.13	370.88
303.36	342.88
303.59	350.88
303.82	363.88
304.051	350.88
304.281	374.88
304.511	356.88
304.741	365.88
304.971	365.88
305.201	360.88
305.431	359.88
305.661	357.88
305.891	357.88
306.121	364.88
306.352	348.88
306.582	360.88
306.812	352.88
307.042	353.88
307.272	372.88
307.502	358.88
307.731	362.88
307.961	360.88
308.191	378.88
308.421	353.88
308.651	347.88
308.881	367.88
309.111	376.88
309.341	351.88
309.571	380.88
309.8	380.88
310.03	401.88
310.26	395.88
310.49	389.88
310.72	413.88
310.949	410.88
311.179	411.88
311.409	405.88
311.639	390.88
311.868	402.88
312.098	406.88
312.328	407.88
312.557	419.88
312.787	422.88
313.017	415.88
313.246	406.88
313.476	389.88
313.706	397.88
313.935	410.88
314.165	409.88
314.394	424.88
314.624	412.88
314.853	403.88
315.083	416.88
315.312	418.88
315.542	403.88
315.771	412.88
316.001	397.88
316.23	394.88
316.46	408.88
316.689	416.88
316.919	385.88
317.148	384.88
317.377	424.88
317.607	405.88
317.836	400.88
318.065	413.88
318.295	407.88
318.524	404.88
318.753	422.88
318.983	384.88
319.212	415.88
319.441	401.88
319.67	414.88
319.9	409.88
320.129	411.88
320.358	414.88
320.587	424.88
320.816	418.88
321.046	413.88
321.275	452.88
321.504	426.88
321.733	416.88
321.962	457.88
322.191	421.88
322.42	444.88
322.649	459.88
322.878	446.88
323.108	481.88
323.337	466.88
323.566	487.88
323.795	518.88
324.024	552.88
324.253	637.88
324.482	825.88
324.71	1239.88
324.939	1802.88
325.168	1618.88
325.397	837.88
325.626	576.88
325.855	533.88
326.084	511.88
326.313	487.88
326.542	524.88
326.77	529.88
326.999	586.88
327.228	773.88
327.457	1111.88
327.686	1416.88
327.914	948.88
328.143	651.88
328.372	601.88
328.6	574.88
328.829	528.88
329.058	548.88
329.287	543.88
329.515	540.88
329.744	494.88
329.972	524.88
330.201	528.88
330.43	549.88
330.658	575.88
330.887	583.88
331.115	570.88
331.344	528.88
331.572	500.88
331.801	492.88
332.03	506.88
332.258	491.88
332.486	478.88
332.715	478.88
332.943	498.88
333.172	493.88
333.4	501.88
333.629	511.88
333.857	532.88
334.085	523.88
334.314	538.88
334.542	570.88
334.771	581.88
334.999	557.88
335.227	516.88
335.455	495.88
335.684	488.88
335.912	499.88
336.14	471.88
336.369	491.88
336.597	479.88
336.825	478.88
337.053	490.88
337.281	470.88
337.51	461.88
337.738	483.88
337.966	480.88
338.194	488.88
338.422	475.88
338.65	471.88
338.878	472.88
339.106	478.88
339.334	474.88
339.562	458.88
339.79	468.88
340.018	454.88
340.246	454.88
340.474	468.88
340.702	476.88
340.93	463.88
341.158	482.88
341.386	468.88
341.614	491.88
341.842	465.88
342.07	465.88
342.298	448.88
342.526	464.88
342.754	462.88
342.981	458.88
343.209	442.88
343.437	459.88
343.665	485.88
343.893	494.88
344.12	519.88
344.348	513.88
344.576	485.88
344.804	481.88
345.031	483.88
345.259	475.88
345.487	470.88
345.714	476.88
345.942	440.88
346.17	458.88
346.397	443.88
346.625	452.88
346.853	463.88
347.08	461.88
347.308	436.88
347.535	466.88
347.763	480.88
347.99	471.88
348.218	455.88
348.445	454.88
348.673	446.88
348.9	430.88
349.128	457.88
349.355	437.88
349.583	421.88
349.81	463.88
350.037	453.88
350.265	451.88
350.492	429.88
350.72	453.88
350.947	434.88
351.174	436.88
351.402	464.88
351.629	456.88
351.856	456.88
352.083	464.88
352.311	444.88
352.538	485.88
352.765	474.88
352.992	464.88
353.22	443.88
353.447	464.88
353.674	446.88
353.901	459.88
354.128	447.88
354.355	427.88
354.583	452.88
354.81	437.88
355.037	430.88
355.264	447.88
355.491	419.88
355.718	429.88
355.945	434.88
356.172	440.88
356.399	414.88
356.626	418.88
356.853	431.88
357.08	419.88
357.307	449.88
357.534	416.88
357.761	430.88
357.988	437.88
358.215	420.88
358.441	452.88
358.668	442.88
358.895	437.88
359.122	446.88
359.349	413.88
359.576	463.88
359.802	487.88
360.029	470.88
360.256	492.88
360.483	469.88
360.709	456.88
360.936	472.88
361.163	461.88
361.39	441.88
361.616	456.88
361.843	475.88
362.07	450.88
362.296	454.88
362.523	452.88
362.749	465.88
362.976	462.88
363.203	465.88
363.429	450.88
363.656	444.88
363.882	440.88
364.109	459.88
364.335	416.88
364.562	437.88
364.788	446.88
365.015	446.88
365.241	440.88
365.468	458.88
365.694	460.88
365.92	446.88
366.147	442.88
366.373	434.88
366.599	444.88
366.826	439.88
367.052	448.88
367.278	438.88
367.505	451.88
367.731	462.88
367.957	459.88
368.184	446.88
368.41	456.88
368.636	470.88
368.862	470.88
369.089	443.88
369.315	455.88
369.541	446.88
369.767	440.88
369.993	446.88
370.219	432.88
370.445	447.88
370.672	452.88
370.898	445.88
371.124	462.88
371.35	443.88
371.576	463.88
371.802	458.88
372.028	452.88
372.254	475.88
372.48	454.88
372.706	456.88
372.932	463.88
373.158	467.88
373.384	457.88
373.61	453.88
373.835	473.88
374.061	463.88
374.287	464.88
374.513	474.88
374.739	472.88
374.965	489.88
375.191	492.88
375.416	490.88
375.642	467.88
375.868	470.88
376.094	446.88
376.319	444.88
376.545	479.88
376.771	475.88
376.997	455.88
377.222	446.88
377.448	454.88
377.674	469.88
377.899	451.88
378.125	443.88
378.35	464.88
378.576	445.88
378.802	462.88
379.027	440.88
379.253	442.88
379.478	465.88
379.704	453.88
379.929	451.88
380.155	463.88
380.38	432.88
380.606	461.88
380.831	467.88
381.057	484.88
381.282	445.88
381.507	476.88
381.733	452.88
381.958	466.88
382.184	467.88
382.409	468.88
382.634	480.88
382.86	479.88
383.085	473.88
383.31	476.88
383.535	472.88
383.761	500.88
383.986	473.88
384.211	487.88
384.436	483.88
384.662	501.88
384.887	485.88
385.112	487.88
385.337	492.88
385.562	510.88
385.787	524.88
386.013	521.88
386.238	523.88
386.463	523.88
386.688	514.88
386.913	498.88
387.138	520.88
387.363	499.88
387.588	500.88
387.813	502.88
388.038	531.88
388.263	509.88
388.488	508.88
388.713	493.88
388.938	512.88
389.163	521.88
389.387	528.88
389.612	517.88
389.837	511.88
390.062	502.88
390.287	510.88
390.512	520.88
390.736	519.88
390.961	510.88
391.186	511.88
391.411	491.88
391.636	554.88
391.86	537.88
392.085	540.88
392.31	526.88
392.534	538.88
392.759	526.88
392.984	535.88
393.208	520.88
393.433	511.88
393.658	517.88
393.882	510.88
394.107	517.88
394.331	526.88
394.556	516.88
394.78	513.88
395.005	530.88
395.229	543.88
395.454	530.88
395.678	542.88
395.903	528.88
396.127	575.88
396.352	579.88
396.576	538.88
396.801	538.88
397.025	554.88
397.249	549.88
397.474	565.88
397.698	554.88
397.922	580.88
398.147	596.88
398.371	593.88
398.595	619.88
398.82	594.88
399.044	609.88
399.268	640.88
399.492	666.88
399.717	726.88
399.941	746.88
400.165	741.88
400.389	735.88
400.613	694.88
400.837	647.88
401.062	627.88
401.286	604.88
401.51	573.88
401.734	584.88
401.958	602.88
402.182	610.88
402.406	619.88
402.63	628.88
402.854	604.88
403.078	592.88
403.302	631.88
403.526	650.88
403.75	643.88
403.974	636.88
404.198	646.88
404.422	655.88
404.645	651.88
404.869	653.88
405.093	666.88
405.317	692.88
405.541	751.88
405.765	674.88
405.988	653.88
406.212	672.88
406.436	675.88
406.66	685.88
406.883	693.88
407.107	678.88
407.331	743.88
407.555	816.88
407.778	811.88
408.002	738.88
408.226	687.88
408.449	685.88
408.673	687.88
408.896	708.88
409.12	743.88
409.344	712.88
409.567	647.88
409.791	679.88
410.014	623.88
410.238	632.88
410.461	640.88
410.685	620.88
410.908	647.88
411.132	682.88
411.355	706.88
411.578	688.88
411.802	606.88
412.025	604.88
412.249	642.88
412.472	662.88
412.695	662.88
412.919	676.88
413.142	629.88
413.365	648.88
413.589	619.88
413.812	580.88
414.035	576.88
414.258	588.88
414.482	592.88
414.705	586.88
414.928	580.88
415.151	596.88
415.374	587.88
415.597	573.88
415.821	566.88
416.044	578.88
416.267	575.88
416.49	600.88
416.713	574.88
416.936	600.88
417.159	580.88
417.382	595.88
417.605	608.88
417.828	615.88
418.051	617.88
418.274	606.88
418.497	600.88
418.72	599.88
418.943	618.88
419.166	629.88
419.389	640.88
419.611	637.88
419.834	615.88
420.057	633.88
420.28	625.88
420.503	605.88
420.726	628.88
420.948	646.88
421.171	690.88
421.394	700.88
421.617	623.88
421.839	611.88
422.062	619.88
422.285	638.88
422.507	697.88
422.73	756.88
422.953	745.88
423.175	642.88
423.398	648.88
423.621	635.88
423.843	677.88
424.066	644.88
424.288	667.88
424.511	679.88
424.733	711.88
424.956	801.88
425.178	788.88
425.401	771.88
425.623	802.88
425.846	689.88
426.068	649.88
426.291	644.88
426.513	656.88
426.735	648.88
426.958	670.88
427.18	768.88
427.402	882.88
427.625	968.88
427.847	858.88
428.069	740.88
428.292	670.88
428.514	646.88
428.736	611.88
428.958	598.88
429.181	576.88
429.403	567.88
429.625	603.88
429.847	651.88
430.069	702.88
430.292	711.88
430.514	618.88
430.736	595.88
430.958	592.88
431.18	576.88
431.402	565.88
431.624	562.88
431.846	569.88
432.068	568.88
432.29	589.88
432.512	559.88
432.734	586.88
432.956	585.88
433.178	561.88
433.4	568.88
433.622	568.88
433.844	586.88
434.066	583.88
434.287	586.88
434.509	597.88
434.731	574.88
434.953	612.88
435.175	614.88
435.397	650.88
435.618	679.88
435.84	692.88
436.062	743.88
436.284	848.88
436.505	692.88
436.727	635.88
436.949	615.88
437.17	587.88
437.392	574.88
437.614	619.88
437.835	637.88
438.057	702.88
438.278	811.88
438.5	839.88
438.721	917.88
438.943	879.88
439.165	696.88
439.386	654.88
439.608	664.88
439.829	647.88
440.05	647.88
440.272	701.88
440.493	670.88
440.715	614.88
440.936	596.88
441.158	599.88
441.379	610.88
441.6	616.88
441.822	656.88
442.043	692.88
442.264	769.88
442.486	805.88
442.707	732.88
442.928	673.88
443.149	662.88
443.371	671.88
443.592	733.88
443.813	831.88
444.034	890.88
444.255	776.88
444.476	687.88
444.698	688.88
444.919	660.88
445.14	760.88
445.361	695.88
445.582	687.88
445.803	757.88
446.024	834.88
446.245	845.88
446.466	767.88
446.687	672.88
446.908	657.88
447.129	592.88
447.35	600.88
447.571	570.88
447.792	592.88
448.013	607.88
448.234	598.88
448.455	648.88
448.675	756.88
448.896	875.88
449.117	776.88
449.338	709.88
449.559	808.88
449.779	934.88
450	746.88
450.221	638.88
450.442	602.88
450.662	580.88
450.883	556.88
451.104	594.88
451.324	557.88
451.545	541.88
451.766	563.88
451.986	525.88
452.207	508.88
452.428	536.88
452.648	514.88
452.869	511.88
453.089	512.88
453.31	529.88
453.53	542.88
453.751	517.88
453.971	536.88
454.192	524.88
454.412	522.88
454.633	517.88
454.853	506.88
455.073	525.88
455.294	554.88
455.514	602.88
455.734	596.88
455.955	528.88
456.175	514.88
456.395	507.88
456.616	516.88
456.836	501.88
457.056	498.88
457.276	485.88
457.497	527.88
457.717	519.88
457.937	507.88
458.157	494.88
458.377	506.88
458.598	518.88
458.818	589.88
459.038	648.88
459.258	684.88
459.478	618.88
459.698	565.88
459.918	584.88
460.138	577.88
460.358	588.88
460.578	597.88
460.798	602.88
461.018	608.88
461.238	599.88
461.458	598.88
461.678	592.88
461.898	592.88
462.118	620.88
462.338	599.88
462.558	626.88
462.777	638.88
462.997	674.88
463.217	693.88
463.437	687.88
463.657	678.88
463.876	668.88
464.096	650.88
464.316	640.88
464.536	643.88
464.755	638.88
464.975	654.88
465.195	672.88
465.414	694.88
465.634	639.88
465.854	623.88
466.073	579.88
466.293	592.88
466.512	562.88
466.732	520.88
466.951	546.88
467.171	542.88
467.391	540.88
467.61	579.88
467.829	558.88
468.049	563.88
468.268	554.88
468.488	512.88
468.707	533.88
468.927	531.88
469.146	523.88
469.365	535.88
469.585	529.88
469.804	564.88
470.023	568.88
470.243	556.88
470.462	576.88
470.681	583.88
470.901	590.88
471.12	535.88
471.339	554.88
471.558	553.88
471.777	555.88
471.997	534.88
472.216	558.88
472.435	570.88
472.654	564.88
472.873	554.88
473.092	547.88
473.311	538.88
473.53	552.88
473.749	533.88
473.968	586.88
474.187	702.88
474.406	726.88
474.625	606.88
474.844	582.88
475.063	541.88
475.282	564.88
475.501	559.88
475.72	552.88
475.939	572.88
476.158	582.88
476.377	551.88
476.596	559.88
476.814	576.88
477.033	581.88
477.252	594.88
477.471	568.88
477.69	584.88
477.908	583.88
478.127	613.88
478.346	622.88
478.564	628.88
478.783	632.88
479.002	642.88
479.22	650.88
479.439	661.88
479.658	656.88
479.876	653.88
480.095	692.88
480.313	715.88
480.532	699.88
480.751	697.88
480.969	699.88
481.188	728.88
481.406	743.88
481.624	670.88
481.843	660.88
482.061	667.88
482.28	653.88
482.498	662.88
482.717	651.88
482.935	660.88
483.153	677.88
483.372	646.88
483.59	636.88
483.808	636.88
484.027	650.88
484.245	664.88
484.463	684.88
484.681	685.88
484.9	681.88
485.118	672.88
485.336	651.88
485.554	670.88
485.772	678.88
485.99	667.88
486.209	676.88
486.427	696.88
486.645	701.88
486.863	709.88
487.081	694.88
487.299	687.88
487.517	689.88
487.735	678.88
487.953	712.88
488.171	722.88
488.389	716.88
488.607	711.88
488.825	715.88
489.043	704.88
489.261	726.88
489.479	716.88
489.696	714.88
489.914	722.88
490.132	712.88
490.35	722.88
490.568	733.88
490.786	774.88
491.003	744.88
491.221	759.88
491.439	770.88
491.657	814.88
491.874	784.88
492.092	783.88
492.31	796.88
492.527	829.88
492.745	821.88
492.963	822.88
493.18	808.88
493.398	812.88
493.615	810.88
493.833	838.88
494.05	838.88
494.268	823.88
494.485	822.88
494.703	814.88
494.92	824.88
495.138	823.88
495.355	833.88
495.573	836.88
495.79	828.88
496.008	862.88
496.225	854.88
496.442	855.88
496.66	852.88
496.877	825.88
497.094	836.88
497.312	870.88
497.529	866.88
497.746	874.88
497.963	906.88
498.181	911.88
498.398	913.88
498.615	948.88
498.832	991.88
499.049	974.88
499.267	1024.88
499.484	1094.88
499.701	1133.88
499.918	1159.88
500.135	1248.88
500.352	1317.88
500.569	1292.88
500.786	1352.88
501.003	1323.88
501.22	1247.88
501.437	1200.88
501.654	1146.88
501.871	1104.88
502.088	1067.88
502.305	1013.88
502.522	959.88
502.739	970.88
502.956	938.88
503.172	895.88
503.389	897.88
503.606	871.88
503.823	848.88
504.04	854.88
504.256	866.88
504.473	849.88
504.69	844.88
504.907	841.88
505.123	836.88
505.34	809.88
505.557	785.88
505.773	799.88
505.99	790.88
506.207	772.88
506.423	793.88
506.64	790.88
506.856	741.88
507.073	736.88
507.289	754.88
507.506	753.88
507.722	758.88
507.939	747.88
508.155	727.88
508.372	719.88
508.588	729.88
508.805	739.88
509.021	730.88
509.238	740.88
509.454	735.88
509.67	728.88
509.887	723.88
510.103	723.88
510.319	712.88
510.536	777.88
510.752	1116.88
510.968	983.88
511.184	720.88
511.401	694.88
511.617	690.88
511.833	693.88
512.049	690.88
512.265	703.88
512.481	679.88
512.698	694.88
512.914	667.88
513.13	700.88
513.346	680.88
513.562	685.88
513.778	653.88
513.994	682.88
514.21	699.88
514.426	702.88
514.642	711.88
514.858	775.88
515.074	774.88
515.29	850.88
515.506	1115.88
515.721	1009.88
515.937	762.88
516.153	738.88
516.369	722.88
516.585	718.88
516.801	721.88
517.016	744.88
517.232	771.88
517.448	747.88
517.664	747.88
517.879	747.88
518.095	759.88
518.311	734.88
518.527	706.88
518.742	713.88
518.958	702.88
519.173	690.88
519.389	694.88
519.605	694.88
519.82	679.88
520.036	690.88
520.251	722.88
520.467	731.88
520.682	708.88
520.898	709.88
521.113	725.88
521.329	760.88
521.544	796.88
521.76	937.88
521.975	1390.88
522.19	1388.88
522.406	874.88
522.621	728.88
522.836	662.88
523.052	636.88
523.267	640.88
523.482	648.88
523.698	623.88
523.913	623.88
524.128	619.88
524.343	623.88
524.559	588.88
524.774	600.88
524.989	610.88
525.204	616.88
525.419	597.88
525.634	619.88
525.849	566.88
526.064	592.88
526.28	589.88
526.495	569.88
526.71	578.88
526.925	587.88
527.14	551.88
527.355	557.88
527.57	576.88
527.785	574.88
527.999	568.88
528.214	596.88
528.429	559.88
528.644	575.88
528.859	567.88
529.074	569.88
529.289	591.88
529.503	660.88
529.718	640.88
529.933	601.88
530.148	579.88
530.363	568.88
530.577	554.88
530.792	574.88
531.007	565.88
531.221	554.88
531.436	537.88
531.651	558.88
531.865	564.88
532.08	571.88
532.295	552.88
532.509	550.88
532.724	550.88
532.938	571.88
533.153	557.88
533.367	559.88
533.582	539.88
533.796	534.88
534.011	546.88
534.225	518.88
534.44	563.88
534.654	555.88
534.868	566.88
535.083	549.88
535.297	537.88
535.511	555.88
535.726	562.88
535.94	546.88
536.154	542.88
536.369	530.88
536.583	525.88
536.797	537.88
537.011	531.88
537.225	508.88
537.44	533.88
537.654	543.88
537.868	539.88
538.082	518.88
538.296	538.88
538.51	531.88
538.724	528.88
538.938	539.88
539.153	526.88
539.367	550.88
539.581	526.88
539.795	502.88
540.009	544.88
540.222	521.88
540.436	512.88
540.65	518.88
540.864	527.88
541.078	547.88
541.292	534.88
541.506	520.88
541.72	523.88
541.934	523.88
542.147	533.88
542.361	511.88
542.575	519.88
542.789	521.88
543.002	528.88
543.216	530.88
543.43	526.88
543.644	506.88
543.857	498.88
544.071	524.88
544.285	559.88
544.498	540.88
544.712	539.88
544.925	562.88
545.139	534.88
545.352	505.88
545.566	520.88
545.779	518.88
545.993	541.88
546.206	534.88
546.42	544.88
546.633	527.88
546.847	533.88
547.06	528.88
547.274	523.88
547.487	516.88
547.7	499.88
547.914	538.88
548.127	538.88
548.34	535.88
548.554	522.88
548.767	522.88
548.98	522.88
549.193	530.88
549.407	546.88
549.62	531.88
549.833	547.88
550.046	522.88
550.259	502.88
550.473	508.88
550.686	514.88
550.899	527.88
551.112	501.88
551.325	517.88
551.538	509.88
551.751	507.88
551.964	486.88
552.177	494.88
552.39	504.88
552.603	524.88
552.816	546.88
553.029	553.88
553.242	527.88
553.455	555.88
553.667	539.88
553.88	551.88
554.093	548.88
554.306	527.88
554.519	504.88
554.732	539.88
554.944	525.88
555.157	521.88
555.37	508.88
555.583	502.88
555.795	514.88
556.008	500.88
556.221	473.88
556.433	471.88
556.646	462.88
556.859	456.88
557.071	486.88
557.284	476.88
557.496	473.88
557.709	477.88
557.921	468.88
558.134	453.88
558.346	443.88
558.559	453.88
558.771	476.88
558.984	447.88
559.196	479.88
559.409	460.88
559.621	470.88
559.833	434.88
560.046	444.88
560.258	453.88
560.47	468.88
560.683	465.88
560.895	451.88
561.107	456.88
561.32	461.88
561.532	453.88
561.744	455.88
561.956	453.88
562.168	465.88
562.381	464.88
562.593	452.88
562.805	452.88
563.017	463.88
563.229	476.88
563.441	443.88
563.653	472.88
563.865	482.88
564.077	470.88
564.289	464.88
564.501	480.88
564.713	480.88
564.925	487.88
565.137	494.88
565.349	484.88
565.561	494.88
565.773	492.88
565.985	527.88
566.197	526.88
566.408	567.88
566.62	574.88
566.832	555.88
567.044	598.88
567.255	597.88
567.467	620.88
567.679	638.88
567.891	634.88
568.102	639.88
568.314	622.88
568.526	603.88
568.737	556.88
568.949	535.88
569.161	526.88
569.372	502.88
569.584	495.88
569.795	495.88
570.007	455.88
570.218	502.88
570.43	500.88
570.641	462.88
570.853	461.88
571.064	438.88
571.276	448.88
571.487	442.88
571.698	430.88
571.91	412.88
572.121	416.88
572.333	434.88
572.544	426.88
572.755	418.88
572.966	414.88
573.178	396.88
573.389	399.88
573.6	390.88
573.811	404.88
574.023	386.88
574.234	394.88
574.445	397.88
574.656	398.88
574.867	408.88
575.078	412.88
575.289	376.88
575.501	403.88
575.712	383.88
575.923	375.88
576.134	380.88
576.345	393.88
576.556	385.88
576.767	381.88
576.978	368.88
577.188	376.88
577.399	388.88
577.61	385.88
577.821	371.88
578.032	391.88
578.243	388.88
578.454	525.88
578.665	436.88
578.875	398.88
579.086	366.88
579.297	355.88
579.508	352.88
579.718	346.88
579.929	361.88
580.14	363.88
580.35	362.88
580.561	349.88
580.772	367.88
580.982	344.88
581.193	355.88
581.403	345.88
581.614	340.88
581.825	354.88
582.035	347.88
582.246	362.88
582.456	357.88
582.667	348.88
582.877	351.88
583.087	368.88
583.298	343.88
583.508	358.88
583.719	349.88
583.929	326.88
584.139	327.88
584.35	333.88
584.56	351.88
584.77	334.88
584.981	338.88
585.191	352.88
585.401	336.88
585.611	348.88
585.821	339.88
586.032	330.88
586.242	352.88
586.452	341.88
586.662	355.88
586.872	342.88
587.082	335.88
587.292	334.88
587.502	346.88
587.713	323.88
587.923	343.88
588.133	339.88
588.343	344.88
588.553	336.88
588.762	348.88
588.972	326.88
589.182	324.88
589.392	326.88
589.602	318.88
589.812	338.88
590.022	323.88
590.232	329.88
590.441	328.88
590.651	336.88
590.861	348.88
591.071	321.88
591.281	346.88
591.49	351.88
591.7	327.88
591.91	348.88
592.119	357.88
592.329	364.88
592.539	375.88
592.748	365.88
592.958	370.88
593.167	363.88
593.377	368.88
593.587	392.88
593.796	376.88
594.006	386.88
594.215	367.88
594.424	379.88
594.634	380.88
594.843	352.88
595.053	354.88
595.262	335.88
595.472	353.88
595.681	354.88
595.89	353.88
596.1	325.88
596.309	331.88
596.518	319.88
596.727	332.88
596.937	313.88
597.146	316.88
597.355	334.88
597.564	299.88
597.774	337.88
597.983	316.88
598.192	311.88
598.401	307.88
598.61	295.88
598.819	308.88
599.028	314.88
599.237	302.88
599.446	293.88
599.655	304.88
599.864	286.88
600.073	303.88
600.282	292.88
600.491	296.88
600.7	324.88
600.909	302.88
601.118	305.88
601.327	288.88
601.536	282.88
601.745	293.88
601.953	280.88
602.162	284.88
602.371	298.88
602.58	299.88
602.789	295.88
602.997	305.88
603.206	297.88
603.415	316.88
603.623	278.88
603.832	288.88
604.041	300.88
604.249	301.88
604.458	287.88
604.666	277.88
604.875	283.88
605.084	271.88
605.292	288.88
605.501	284.88
605.709	266.88
605.918	271.88
606.126	280.88
606.334	293.88
606.543	300.88
606.751	280.88
606.96	281.88
607.168	272.88
607.376	282.88
607.585	301.88
607.793	292.88
608.001	274.88
608.21	295.88
608.418	284.88
608.626	283.88
608.834	288.88
609.043	279.88
609.251	284.88
609.459	269.88
609.667	281.88
609.875	283.88
610.083	303.88
610.291	285.88
610.499	269.88
610.707	287.88
610.916	282.88
611.124	288.88
611.332	272.88
611.54	292.88
611.748	279.88
611.955	274.88
612.163	282.88
612.371	267.88
612.579	284.88
612.787	247.88
612.995	276.88
613.203	255.88
613.411	269.88
613.618	290.88
613.826	260.88
614.034	283.88
614.242	284.88
614.449	270.88
614.657	265.88
614.865	267.88
615.072	268.88
615.28	260.88
615.488	269.88
615.695	268.88
615.903	279.88
616.111	282.88
616.318	278.88
616.526	268.88
616.733	293.88
616.941	290.88
617.148	261.88
617.356	286.88
617.563	262.88
617.771	276.88
617.978	259.88
618.185	263.88
618.393	275.88
618.6	269.88
618.807	258.88
619.015	259.88
619.222	252.88
619.429	242.88
619.637	258.88
619.844	242.88
620.051	262.88
620.258	277.88
620.466	260.88
620.673	238.88
620.88	244.88
621.087	239.88
621.294	261.88
621.501	244.88
621.708	252.88
621.915	246.88
622.122	243.88
622.329	251.88
622.536	254.88
622.743	243.88
622.95	245.88
623.157	256.88
623.364	240.88
623.571	246.88
623.778	270.88
623.985	244.88
624.192	268.88
624.399	249.88
624.606	242.88
624.812	266.88
625.019	242.88
625.226	247.88
625.433	240.88
625.639	239.88
625.846	243.88
626.053	229.88
626.259	246.88
626.466	235.88
626.673	224.88
626.879	245.88
627.086	223.88
627.293	218.88
627.499	228.88
627.706	249.88
627.912	228.88
628.119	229.88
628.325	219.88
628.532	235.88
628.738	233.88
628.945	215.88
629.151	248.88
629.357	212.88
629.564	242.88
629.77	234.88
629.976	219.88
630.183	206.88
630.389	226.88
630.595	221.88
630.802	220.88
631.008	211.88
631.214	223.88
631.42	226.88
631.627	228.88
631.833	220.88
632.039	220.88
632.245	211.88
632.451	208.88
632.657	223.88
632.863	220.88
633.069	219.88
633.275	220.88
633.481	206.88
633.688	221.88
633.893	200.88
634.099	223.88
634.305	218.88
634.511	200.88
634.717	203.88
634.923	196.88
635.129	202.88
635.335	203.88
635.541	213.88
635.747	211.88
635.952	216.88
636.158	186.88
636.364	209.88
636.57	209.88
636.775	219.88
636.981	200.88
637.187	203.88
637.392	191.88
637.598	212.88
637.804	211.88
638.009	209.88
638.215	208.88
638.421	201.88
638.626	204.88
638.832	202.88
639.037	199.88
639.243	204.88
639.448	205.88
639.654	196.88
639.859	169.88
640.065	200.88
640.27	194.88
640.475	186.88
640.681	198.88
640.886	196.88
641.091	197.88
641.297	191.88
641.502	191.88
641.707	179.88
641.913	197.88
642.118	191.88
642.323	201.88
642.528	210.88
642.733	197.88
642.939	191.88
643.144	190.88
643.349	193.88
643.554	182.88
643.759	192.88
643.964	190.88
644.169	188.88
644.374	192.88
644.579	199.88
644.784	189.88
644.989	182.88
645.194	182.88
645.399	196.88
645.604	202.88
645.809	219.88
646.014	194.88
646.219	196.88
646.423	188.88
646.628	195.88
646.833	191.88
647.038	191.88
647.243	195.88
647.447	184.88
647.652	178.88
647.857	190.88
648.062	205.88
648.266	212.88
648.471	205.88
648.676	202.88
648.88	189.88
649.085	194.88
649.289	186.88
649.494	179.88
649.698	201.88
649.903	206.88
650.107	203.88
650.312	196.88
650.516	171.88
650.721	164.88
650.925	182.88
651.13	173.88
651.334	182.88
651.539	174.88
651.743	162.88
651.947	175.88
652.152	156.88
652.356	160.88
652.56	158.88
652.764	167.88
652.969	170.88
653.173	147.88
653.377	154.88
653.581	141.88
653.785	156.88
653.99	149.88
654.194	167.88
654.398	151.88
654.602	158.88
654.806	148.88
655.01	163.88
655.214	156.88
655.418	150.88
655.622	142.88
655.826	147.88
656.03	148.88
656.234	137.88
656.438	148.88
656.642	150.88
656.846	130.88
657.049	160.88
657.253	124.88
657.457	143.88
657.661	137.88
657.865	126.88
658.068	126.88
658.272	111.88
658.476	128.88
658.68	108.88
658.883	95.88
659.087	114.88
659.291	104.88
659.494	101.88
659.698	109.88
659.901	111.88
660.105	109.88
660.309	95.88
660.512	87.88
660.716	103.88
660.919	96.88
661.123	91.88
661.326	94.88
661.53	86.88
661.733	91.88
661.936	84.88
662.14	93.88
662.343	93.88
662.546	102.88
662.75	103.88
662.953	85.88
663.156	100.88
663.36	94.88
663.563	82.88
663.766	89.88
663.969	85.88
664.173	77.88
664.376	89.88
664.579	77.88
664.782	80.88
664.985	84.88
665.188	88.88
665.391	93.88
665.594	79.88
665.797	75.88
666	87.88
666.203	79.88
666.406	89.88
666.609	68.88
666.812	81.88
667.015	83.88
667.218	94.88
667.421	87.88
667.624	81.88
667.827	98.88
668.03	82.88
668.232	79.88
668.435	79.88
668.638	83.88
668.841	83.88
669.043	68.88
669.246	85.88
669.449	86.88
669.651	82.88
669.854	75.88
670.057	82.88
670.259	89.88
670.462	82.88
670.665	85.88
670.867	84.88
671.07	91.88
671.272	77.88
671.475	83.88
671.677	91.88
671.88	91.88
672.082	77.88
672.284	80.88
672.487	92.88
672.689	79.88
672.892	78.88
