Data from 1974.PennyLincolnUp.Lamp.En5.5.200Scan.071719.P1.Changed Mount._HRD10591_15-54-24-857.txt Node
Date: Thu Jul 18 15:54:24 EDT 2019
User: cochatt
Spectrometer: HR+D1059
Trigger mode: 1
Integration Time (sec): 1.000000E-1
Scans to average: 1
Electric dark correction enabled: true
Nonlinearity correction enabled: false
Boxcar width: 0
XAxis mode: Wavelengths
Number of Pixels in Spectrum: 2048
>>>>>Begin Spectral Data<<<<<
223.165	3.75
223.4	3.75
223.635	3.75
223.869	-14.25
224.104	2.75
224.338	-20.25
224.573	-28.25
224.808	-9.25
225.042	-13.25
225.277	-12.25
225.511	-6.25
225.746	-0.25
225.98	4.75
226.215	14.75
226.449	18.75
226.683	18.75
226.918	17.75
227.152	22.75
227.387	36.75
227.621	43.75
227.856	28.75
228.09	47.75
228.324	50.75
228.559	54.75
228.793	63.75
229.027	88.75
229.262	112.75
229.496	119.75
229.73	124.75
229.964	155.75
230.199	122.75
230.433	131.75
230.667	121.75
230.901	122.75
231.136	113.75
231.37	112.75
231.604	120.75
231.838	102.75
232.072	114.75
232.306	120.75
232.541	116.75
232.775	110.75
233.009	115.75
233.243	110.75
233.477	104.75
233.711	121.75
233.945	116.75
234.179	104.75
234.413	111.75
234.647	108.75
234.881	133.75
235.115	114.75
235.349	117.75
235.583	130.75
235.817	114.75
236.051	122.75
236.285	130.75
236.519	124.75
236.753	126.75
236.987	141.75
237.221	180.75
237.455	225.75
237.689	193.75
237.922	136.75
238.156	141.75
238.39	139.75
238.624	152.75
238.858	150.75
239.091	126.75
239.325	120.75
239.559	149.75
239.793	124.75
240.027	142.75
240.26	152.75
240.494	171.75
240.728	156.75
240.961	172.75
241.195	148.75
241.429	154.75
241.662	138.75
241.896	154.75
242.13	138.75
242.363	137.75
242.597	153.75
242.83	126.75
243.064	146.75
243.298	155.75
243.531	143.75
243.765	154.75
243.998	153.75
244.232	148.75
244.465	151.75
244.699	145.75
244.932	163.75
245.166	145.75
245.399	152.75
245.633	160.75
245.866	166.75
246.099	159.75
246.333	162.75
246.566	140.75
246.8	155.75
247.033	164.75
247.266	174.75
247.5	192.75
247.733	193.75
247.966	183.75
248.2	186.75
248.433	173.75
248.666	176.75
248.899	198.75
249.133	203.75
249.366	208.75
249.599	213.75
249.832	204.75
250.066	184.75
250.299	199.75
250.532	197.75
250.765	214.75
250.998	238.75
251.231	224.75
251.465	222.75
251.698	223.75
251.931	197.75
252.164	199.75
252.397	208.75
252.63	218.75
252.863	212.75
253.096	228.75
253.329	233.75
253.562	242.75
253.795	233.75
254.028	238.75
254.261	235.75
254.494	254.75
254.727	270.75
254.96	288.75
255.193	284.75
255.426	257.75
255.659	243.75
255.892	257.75
256.124	251.75
256.357	247.75
256.59	238.75
256.823	230.75
257.056	218.75
257.289	226.75
257.521	226.75
257.754	216.75
257.987	218.75
258.22	213.75
258.452	215.75
258.685	226.75
258.918	206.75
259.151	223.75
259.383	224.75
259.616	222.75
259.849	232.75
260.081	230.75
260.314	260.75
260.547	287.75
260.779	267.75
261.012	256.75
261.244	234.75
261.477	241.75
261.71	242.75
261.942	241.75
262.175	254.75
262.407	239.75
262.64	225.75
262.872	238.75
263.105	228.75
263.337	208.75
263.57	227.75
263.802	223.75
264.035	224.75
264.267	213.75
264.499	222.75
264.732	239.75
264.964	241.75
265.197	213.75
265.429	226.75
265.661	238.75
265.894	227.75
266.126	227.75
266.358	227.75
266.591	226.75
266.823	243.75
267.055	230.75
267.287	242.75
267.52	242.75
267.752	245.75
267.984	247.75
268.216	253.75
268.448	274.75
268.681	256.75
268.913	273.75
269.145	280.75
269.377	309.75
269.609	288.75
269.841	290.75
270.073	286.75
270.306	307.75
270.538	336.75
270.77	325.75
271.002	338.75
271.234	320.75
271.466	316.75
271.698	343.75
271.93	351.75
272.162	368.75
272.394	342.75
272.626	318.75
272.858	299.75
273.09	297.75
273.322	298.75
273.553	283.75
273.785	291.75
274.017	286.75
274.249	283.75
274.481	289.75
274.713	288.75
274.945	269.75
275.176	282.75
275.408	279.75
275.64	263.75
275.872	262.75
276.104	284.75
276.335	283.75
276.567	299.75
276.799	309.75
277.031	329.75
277.262	340.75
277.494	358.75
277.726	321.75
277.957	318.75
278.189	306.75
278.421	282.75
278.652	303.75
278.884	291.75
279.115	295.75
279.347	285.75
279.579	298.75
279.81	284.75
280.042	282.75
280.273	299.75
280.505	295.75
280.736	292.75
280.968	282.75
281.199	291.75
281.431	291.75
281.662	320.75
281.894	296.75
282.125	296.75
282.356	320.75
282.588	309.75
282.819	306.75
283.051	308.75
283.282	313.75
283.513	299.75
283.745	295.75
283.976	305.75
284.207	298.75
284.439	315.75
284.67	307.75
284.901	302.75
285.132	298.75
285.364	316.75
285.595	310.75
285.826	314.75
286.057	296.75
286.288	313.75
286.52	314.75
286.751	303.75
286.982	322.75
287.213	320.75
287.444	314.75
287.675	340.75
287.906	323.75
288.138	337.75
288.369	342.75
288.6	316.75
288.831	331.75
289.062	322.75
289.293	294.75
289.524	300.75
289.755	324.75
289.986	330.75
290.217	331.75
290.448	314.75
290.679	325.75
290.91	312.75
291.141	329.75
291.371	326.75
291.602	351.75
291.833	324.75
292.064	323.75
292.295	323.75
292.526	309.75
292.757	314.75
292.987	321.75
293.218	331.75
293.449	308.75
293.68	335.75
293.91	328.75
294.141	330.75
294.372	310.75
294.603	321.75
294.833	325.75
295.064	316.75
295.295	330.75
295.525	330.75
295.756	337.75
295.987	326.75
296.217	354.75
296.448	352.75
296.679	350.75
296.909	326.75
297.14	330.75
297.37	320.75
297.601	340.75
297.831	322.75
298.062	336.75
298.292	359.75
298.523	338.75
298.753	345.75
298.984	326.75
299.214	332.75
299.445	346.75
299.675	348.75
299.905	330.75
300.136	346.75
300.366	336.75
300.597	325.75
300.827	350.75
301.057	346.75
301.288	358.75
301.518	358.75
301.748	355.75
301.979	374.75
302.209	352.75
302.439	377.75
302.669	374.75
302.9	351.75
303.13	364.75
303.36	346.75
303.59	367.75
303.82	376.75
304.051	373.75
304.281	361.75
304.511	376.75
304.741	350.75
304.971	358.75
305.201	354.75
305.431	373.75
305.661	360.75
305.891	366.75
306.121	378.75
306.352	361.75
306.582	358.75
306.812	372.75
307.042	366.75
307.272	343.75
307.502	363.75
307.731	364.75
307.961	374.75
308.191	369.75
308.421	351.75
308.651	375.75
308.881	386.75
309.111	384.75
309.341	393.75
309.571	375.75
309.8	388.75
310.03	407.75
310.26	396.75
310.49	382.75
310.72	412.75
310.949	408.75
311.179	431.75
311.409	409.75
311.639	390.75
311.868	394.75
312.098	404.75
312.328	412.75
312.557	412.75
312.787	432.75
313.017	439.75
313.246	419.75
313.476	395.75
313.706	411.75
313.935	415.75
314.165	416.75
314.394	414.75
314.624	447.75
314.853	430.75
315.083	426.75
315.312	419.75
315.542	393.75
315.771	400.75
316.001	394.75
316.23	405.75
316.46	415.75
316.689	409.75
316.919	415.75
317.148	415.75
317.377	430.75
317.607	426.75
317.836	423.75
318.065	400.75
318.295	405.75
318.524	419.75
318.753	394.75
318.983	406.75
319.212	428.75
319.441	424.75
319.67	420.75
319.9	421.75
320.129	414.75
320.358	407.75
320.587	396.75
320.816	415.75
321.046	422.75
321.275	442.75
321.504	443.75
321.733	427.75
321.962	459.75
322.191	458.75
322.42	450.75
322.649	461.75
322.878	483.75
323.108	461.75
323.337	475.75
323.566	496.75
323.795	542.75
324.024	560.75
324.253	627.75
324.482	869.75
324.71	1351.75
324.939	1986.75
325.168	1788.75
325.397	912.75
325.626	617.75
325.855	552.75
326.084	531.75
326.313	512.75
326.542	507.75
326.77	560.75
326.999	622.75
327.228	805.75
327.457	1244.75
327.686	1571.75
327.914	1027.75
328.143	708.75
328.372	633.75
328.6	619.75
328.829	555.75
329.058	563.75
329.287	578.75
329.515	555.75
329.744	531.75
329.972	546.75
330.201	529.75
330.43	570.75
330.658	603.75
330.887	611.75
331.115	610.75
331.344	546.75
331.572	543.75
331.801	509.75
332.03	517.75
332.258	508.75
332.486	492.75
332.715	491.75
332.943	486.75
333.172	497.75
333.4	502.75
333.629	504.75
333.857	538.75
334.085	545.75
334.314	565.75
334.542	576.75
334.771	586.75
334.999	549.75
335.227	518.75
335.455	506.75
335.684	508.75
335.912	510.75
336.14	497.75
336.369	490.75
336.597	506.75
336.825	499.75
337.053	537.75
337.281	494.75
337.51	495.75
337.738	494.75
337.966	501.75
338.194	480.75
338.422	510.75
338.65	477.75
338.878	496.75
339.106	475.75
339.334	480.75
339.562	486.75
339.79	468.75
340.018	481.75
340.246	467.75
340.474	473.75
340.702	469.75
340.93	471.75
341.158	464.75
341.386	446.75
341.614	465.75
341.842	489.75
342.07	477.75
342.298	463.75
342.526	450.75
342.754	455.75
342.981	453.75
343.209	449.75
343.437	462.75
343.665	482.75
343.893	494.75
344.12	502.75
344.348	500.75
344.576	483.75
344.804	518.75
345.031	510.75
345.259	464.75
345.487	502.75
345.714	466.75
345.942	458.75
346.17	443.75
346.397	485.75
346.625	460.75
346.853	468.75
347.08	448.75
347.308	463.75
347.535	451.75
347.763	451.75
347.99	455.75
348.218	462.75
348.445	471.75
348.673	454.75
348.9	449.75
349.128	440.75
349.355	436.75
349.583	439.75
349.81	439.75
350.037	451.75
350.265	467.75
350.492	443.75
350.72	451.75
350.947	461.75
351.174	462.75
351.402	465.75
351.629	446.75
351.856	471.75
352.083	449.75
352.311	458.75
352.538	477.75
352.765	470.75
352.992	451.75
353.22	464.75
353.447	460.75
353.674	454.75
353.901	457.75
354.128	444.75
354.355	417.75
354.583	460.75
354.81	421.75
355.037	433.75
355.264	430.75
355.491	439.75
355.718	440.75
355.945	439.75
356.172	447.75
356.399	437.75
356.626	432.75
356.853	442.75
357.08	416.75
357.307	397.75
357.534	449.75
357.761	433.75
357.988	427.75
358.215	447.75
358.441	419.75
358.668	456.75
358.895	432.75
359.122	420.75
359.349	444.75
359.576	449.75
359.802	470.75
360.029	479.75
360.256	507.75
360.483	486.75
360.709	447.75
360.936	462.75
361.163	462.75
361.39	466.75
361.616	478.75
361.843	459.75
362.07	467.75
362.296	463.75
362.523	447.75
362.749	450.75
362.976	442.75
363.203	456.75
363.429	446.75
363.656	447.75
363.882	444.75
364.109	473.75
364.335	450.75
364.562	451.75
364.788	458.75
365.015	442.75
365.241	439.75
365.468	447.75
365.694	441.75
365.92	459.75
366.147	451.75
366.373	450.75
366.599	440.75
366.826	455.75
367.052	439.75
367.278	440.75
367.505	447.75
367.731	459.75
367.957	442.75
368.184	460.75
368.41	475.75
368.636	482.75
368.862	470.75
369.089	463.75
369.315	440.75
369.541	460.75
369.767	459.75
369.993	471.75
370.219	433.75
370.445	441.75
370.672	462.75
370.898	465.75
371.124	429.75
371.35	449.75
371.576	456.75
371.802	467.75
372.028	454.75
372.254	453.75
372.48	472.75
372.706	474.75
372.932	473.75
373.158	473.75
373.384	454.75
373.61	472.75
373.835	461.75
374.061	461.75
374.287	463.75
374.513	455.75
374.739	459.75
374.965	478.75
375.191	461.75
375.416	472.75
375.642	458.75
375.868	473.75
376.094	466.75
376.319	456.75
376.545	456.75
376.771	455.75
376.997	454.75
377.222	449.75
377.448	451.75
377.674	435.75
377.899	466.75
378.125	454.75
378.35	461.75
378.576	438.75
378.802	455.75
379.027	460.75
379.253	436.75
379.478	434.75
379.704	449.75
379.929	455.75
380.155	452.75
380.38	451.75
380.606	466.75
380.831	448.75
381.057	468.75
381.282	470.75
381.507	471.75
381.733	451.75
381.958	462.75
382.184	478.75
382.409	468.75
382.634	462.75
382.86	466.75
383.085	464.75
383.31	464.75
383.535	471.75
383.761	485.75
383.986	471.75
384.211	474.75
384.436	486.75
384.662	501.75
384.887	500.75
385.112	500.75
385.337	478.75
385.562	471.75
385.787	516.75
386.013	529.75
386.238	523.75
386.463	506.75
386.688	508.75
386.913	507.75
387.138	529.75
387.363	504.75
387.588	507.75
387.813	513.75
388.038	520.75
388.263	516.75
388.488	495.75
388.713	493.75
388.938	508.75
389.163	512.75
389.387	524.75
389.612	514.75
389.837	513.75
390.062	495.75
390.287	499.75
390.512	511.75
390.736	485.75
390.961	520.75
391.186	504.75
391.411	514.75
391.636	545.75
391.86	524.75
392.085	531.75
392.31	541.75
392.534	518.75
392.759	535.75
392.984	528.75
393.208	521.75
393.433	519.75
393.658	520.75
393.882	512.75
394.107	511.75
394.331	520.75
394.556	512.75
394.78	532.75
395.005	533.75
395.229	528.75
395.454	535.75
395.678	547.75
395.903	545.75
396.127	559.75
396.352	565.75
396.576	536.75
396.801	529.75
397.025	531.75
397.249	527.75
397.474	551.75
397.698	545.75
397.922	575.75
398.147	572.75
398.371	610.75
398.595	590.75
398.82	587.75
399.044	608.75
399.268	639.75
399.492	668.75
399.717	698.75
399.941	729.75
400.165	730.75
400.389	724.75
400.613	706.75
400.837	652.75
401.062	630.75
401.286	597.75
401.51	584.75
401.734	601.75
401.958	593.75
402.182	599.75
402.406	639.75
402.63	597.75
402.854	634.75
403.078	596.75
403.302	612.75
403.526	631.75
403.75	657.75
403.974	657.75
404.198	624.75
404.422	631.75
404.645	644.75
404.869	668.75
405.093	686.75
405.317	694.75
405.541	716.75
405.765	715.75
405.988	651.75
406.212	671.75
406.436	666.75
406.66	690.75
406.883	664.75
407.107	708.75
407.331	754.75
407.555	822.75
407.778	809.75
408.002	756.75
408.226	709.75
408.449	689.75
408.673	702.75
408.896	699.75
409.12	763.75
409.344	733.75
409.567	672.75
409.791	642.75
410.014	634.75
410.238	618.75
410.461	643.75
410.685	619.75
410.908	636.75
411.132	666.75
411.355	742.75
411.578	688.75
411.802	651.75
412.025	626.75
412.249	627.75
412.472	638.75
412.695	721.75
412.919	686.75
413.142	625.75
413.365	609.75
413.589	605.75
413.812	583.75
414.035	581.75
414.258	600.75
414.482	585.75
414.705	595.75
414.928	584.75
415.151	583.75
415.374	594.75
415.597	588.75
415.821	570.75
416.044	574.75
416.267	588.75
416.49	586.75
416.713	567.75
416.936	592.75
417.159	604.75
417.382	588.75
417.605	595.75
417.828	601.75
418.051	622.75
418.274	614.75
418.497	585.75
418.72	589.75
418.943	586.75
419.166	614.75
419.389	664.75
419.611	646.75
419.834	649.75
420.057	627.75
420.28	604.75
420.503	614.75
420.726	626.75
420.948	642.75
421.171	682.75
421.394	694.75
421.617	641.75
421.839	605.75
422.062	608.75
422.285	624.75
422.507	683.75
422.73	774.75
422.953	763.75
423.175	684.75
423.398	620.75
423.621	629.75
423.843	677.75
424.066	667.75
424.288	674.75
424.511	669.75
424.733	706.75
424.956	824.75
425.178	764.75
425.401	772.75
425.623	824.75
425.846	695.75
426.068	675.75
426.291	647.75
426.513	638.75
426.735	659.75
426.958	704.75
427.18	793.75
427.402	928.75
427.625	1008.75
427.847	858.75
428.069	776.75
428.292	710.75
428.514	637.75
428.736	632.75
428.958	622.75
429.181	609.75
429.403	613.75
429.625	621.75
429.847	640.75
430.069	739.75
430.292	729.75
430.514	621.75
430.736	601.75
430.958	593.75
431.18	596.75
431.402	591.75
431.624	582.75
431.846	577.75
432.068	571.75
432.29	567.75
432.512	580.75
432.734	599.75
432.956	582.75
433.178	614.75
433.4	587.75
433.622	561.75
433.844	579.75
434.066	574.75
434.287	547.75
434.509	574.75
434.731	598.75
434.953	613.75
435.175	641.75
435.397	642.75
435.618	634.75
435.84	681.75
436.062	797.75
436.284	874.75
436.505	732.75
436.727	655.75
436.949	602.75
437.17	618.75
437.392	595.75
437.614	609.75
437.835	628.75
438.057	747.75
438.278	834.75
438.5	847.75
438.721	919.75
438.943	914.75
439.165	722.75
439.386	657.75
439.608	666.75
439.829	652.75
440.05	671.75
440.272	731.75
440.493	696.75
440.715	644.75
440.936	637.75
441.158	610.75
441.379	611.75
441.6	604.75
441.822	659.75
442.043	697.75
442.264	795.75
442.486	839.75
442.707	684.75
442.928	664.75
443.149	682.75
443.371	707.75
443.592	733.75
443.813	843.75
444.034	896.75
444.255	776.75
444.476	700.75
444.698	681.75
444.919	678.75
445.14	794.75
445.361	738.75
445.582	705.75
445.803	745.75
446.024	859.75
446.245	857.75
446.466	810.75
446.687	674.75
446.908	640.75
447.129	653.75
447.35	602.75
447.571	596.75
447.792	601.75
448.013	598.75
448.234	601.75
448.455	652.75
448.675	802.75
448.896	900.75
449.117	761.75
449.338	728.75
449.559	857.75
449.779	960.75
450	763.75
450.221	636.75
450.442	598.75
450.662	575.75
450.883	589.75
451.104	611.75
451.324	578.75
451.545	565.75
451.766	546.75
451.986	534.75
452.207	535.75
452.428	519.75
452.648	522.75
452.869	554.75
453.089	533.75
453.31	538.75
453.53	547.75
453.751	532.75
453.971	537.75
454.192	565.75
454.412	546.75
454.633	524.75
454.853	516.75
455.073	522.75
455.294	544.75
455.514	611.75
455.734	600.75
455.955	518.75
456.175	494.75
456.395	489.75
456.616	493.75
456.836	506.75
457.056	514.75
457.276	480.75
457.497	515.75
457.717	502.75
457.937	534.75
458.157	509.75
458.377	516.75
458.598	543.75
458.818	601.75
459.038	664.75
459.258	701.75
459.478	636.75
459.698	571.75
459.918	577.75
460.138	577.75
460.358	583.75
460.578	603.75
460.798	593.75
461.018	603.75
461.238	599.75
461.458	612.75
461.678	601.75
461.898	580.75
462.118	589.75
462.338	611.75
462.558	626.75
462.777	660.75
462.997	648.75
463.217	652.75
463.437	698.75
463.657	646.75
463.876	650.75
464.096	647.75
464.316	649.75
464.536	668.75
464.755	615.75
464.975	630.75
465.195	682.75
465.414	683.75
465.634	615.75
465.854	593.75
466.073	568.75
466.293	585.75
466.512	568.75
466.732	585.75
466.951	555.75
467.171	551.75
467.391	572.75
467.61	566.75
467.829	576.75
468.049	546.75
468.268	581.75
468.488	549.75
468.707	529.75
468.927	537.75
469.146	520.75
469.365	550.75
469.585	542.75
469.804	560.75
470.023	552.75
470.243	567.75
470.462	573.75
470.681	570.75
470.901	562.75
471.12	551.75
471.339	560.75
471.558	561.75
471.777	579.75
471.997	569.75
472.216	552.75
472.435	577.75
472.654	570.75
472.873	544.75
473.092	545.75
473.311	532.75
473.53	539.75
473.749	562.75
473.968	580.75
474.187	691.75
474.406	732.75
474.625	590.75
474.844	583.75
475.063	560.75
475.282	556.75
475.501	569.75
475.72	580.75
475.939	555.75
476.158	560.75
476.377	586.75
476.596	564.75
476.814	574.75
477.033	572.75
477.252	580.75
477.471	574.75
477.69	619.75
477.908	587.75
478.127	630.75
478.346	622.75
478.564	622.75
478.783	624.75
479.002	619.75
479.22	653.75
479.439	665.75
479.658	657.75
479.876	681.75
480.095	680.75
480.313	698.75
480.532	703.75
480.751	690.75
480.969	696.75
481.188	731.75
481.406	770.75
481.624	710.75
481.843	678.75
482.061	671.75
482.28	660.75
482.498	648.75
482.717	646.75
482.935	638.75
483.153	678.75
483.372	668.75
483.59	656.75
483.808	669.75
484.027	668.75
484.245	670.75
484.463	666.75
484.681	660.75
484.9	672.75
485.118	664.75
485.336	660.75
485.554	691.75
485.772	683.75
485.99	656.75
486.209	662.75
486.427	663.75
486.645	699.75
486.863	716.75
487.081	705.75
487.299	714.75
487.517	712.75
487.735	703.75
487.953	719.75
488.171	695.75
488.389	688.75
488.607	691.75
488.825	689.75
489.043	712.75
489.261	703.75
489.479	713.75
489.696	703.75
489.914	679.75
490.132	726.75
490.35	744.75
490.568	735.75
490.786	745.75
491.003	767.75
491.221	792.75
491.439	796.75
491.657	798.75
491.874	819.75
492.092	798.75
492.31	792.75
492.527	832.75
492.745	829.75
492.963	809.75
493.18	817.75
493.398	848.75
493.615	837.75
493.833	840.75
494.05	853.75
494.268	820.75
494.485	823.75
494.703	811.75
494.92	843.75
495.138	826.75
495.355	838.75
495.573	825.75
495.79	850.75
496.008	839.75
496.225	850.75
496.442	873.75
496.66	852.75
496.877	843.75
497.094	840.75
497.312	836.75
497.529	860.75
497.746	886.75
497.963	879.75
498.181	928.75
498.398	929.75
498.615	961.75
498.832	985.75
499.049	998.75
499.267	1013.75
499.484	1072.75
499.701	1118.75
499.918	1174.75
500.135	1283.75
500.352	1299.75
500.569	1341.75
500.786	1341.75
501.003	1327.75
501.22	1249.75
501.437	1184.75
501.654	1139.75
501.871	1108.75
502.088	1088.75
502.305	1029.75
502.522	966.75
502.739	969.75
502.956	934.75
503.172	896.75
503.389	871.75
503.606	872.75
503.823	897.75
504.04	849.75
504.256	866.75
504.473	871.75
504.69	864.75
504.907	839.75
505.123	840.75
505.34	818.75
505.557	805.75
505.773	802.75
505.99	802.75
506.207	800.75
506.423	767.75
506.64	791.75
506.856	774.75
507.073	775.75
507.289	747.75
507.506	774.75
507.722	759.75
507.939	772.75
508.155	755.75
508.372	766.75
508.588	726.75
508.805	752.75
509.021	720.75
509.238	726.75
509.454	754.75
509.67	750.75
509.887	726.75
510.103	757.75
510.319	738.75
510.536	812.75
510.752	1190.75
510.968	977.75
511.184	744.75
511.401	702.75
511.617	705.75
511.833	709.75
512.049	684.75
512.265	705.75
512.481	696.75
512.698	689.75
512.914	693.75
513.13	722.75
513.346	688.75
513.562	670.75
513.778	689.75
513.994	706.75
514.21	704.75
514.426	739.75
514.642	745.75
514.858	760.75
515.074	798.75
515.29	903.75
515.506	1197.75
515.721	1074.75
515.937	778.75
516.153	763.75
516.369	733.75
516.585	733.75
516.801	730.75
517.016	731.75
517.232	732.75
517.448	780.75
517.664	744.75
517.879	767.75
518.095	734.75
518.311	734.75
518.527	724.75
518.742	702.75
518.958	754.75
519.173	716.75
519.389	705.75
519.605	693.75
519.82	693.75
520.036	696.75
520.251	700.75
520.467	757.75
520.682	715.75
520.898	699.75
521.113	747.75
521.329	770.75
521.544	825.75
521.76	965.75
521.975	1482.75
522.19	1442.75
522.406	923.75
522.621	723.75
522.836	679.75
523.052	658.75
523.267	656.75
523.482	628.75
523.698	640.75
523.913	609.75
524.128	627.75
524.343	644.75
524.559	594.75
524.774	603.75
524.989	580.75
525.204	601.75
525.419	612.75
525.634	603.75
525.849	563.75
526.064	586.75
526.28	587.75
526.495	593.75
526.71	564.75
526.925	582.75
527.14	573.75
527.355	583.75
527.57	562.75
527.785	566.75
527.999	546.75
528.214	569.75
528.429	590.75
528.644	578.75
528.859	571.75
529.074	595.75
529.289	594.75
529.503	623.75
529.718	626.75
529.933	567.75
530.148	591.75
530.363	598.75
530.577	547.75
530.792	581.75
531.007	563.75
531.221	537.75
531.436	570.75
531.651	551.75
531.865	554.75
532.08	552.75
532.295	541.75
532.509	555.75
532.724	539.75
532.938	554.75
533.153	554.75
533.367	572.75
533.582	537.75
533.796	525.75
534.011	554.75
534.225	553.75
534.44	539.75
534.654	526.75
534.868	554.75
535.083	543.75
535.297	541.75
535.511	538.75
535.726	545.75
535.94	540.75
536.154	555.75
536.369	543.75
536.583	498.75
536.797	550.75
537.011	520.75
537.225	534.75
537.44	530.75
537.654	539.75
537.868	523.75
538.082	544.75
538.296	530.75
538.51	525.75
538.724	535.75
538.938	527.75
539.153	548.75
539.367	524.75
539.581	516.75
539.795	520.75
540.009	551.75
540.222	530.75
540.436	527.75
540.65	524.75
540.864	543.75
541.078	535.75
541.292	543.75
541.506	544.75
541.72	564.75
541.934	559.75
542.147	542.75
542.361	497.75
542.575	507.75
542.789	531.75
543.002	510.75
543.216	532.75
543.43	561.75
543.644	541.75
543.857	515.75
544.071	557.75
544.285	525.75
544.498	514.75
544.712	534.75
544.925	523.75
545.139	536.75
545.352	512.75
545.566	514.75
545.779	541.75
545.993	510.75
546.206	534.75
546.42	521.75
546.633	525.75
546.847	523.75
547.06	500.75
547.274	512.75
547.487	521.75
547.7	514.75
547.914	533.75
548.127	505.75
548.34	531.75
548.554	518.75
548.767	544.75
548.98	528.75
549.193	500.75
549.407	511.75
549.62	519.75
549.833	501.75
550.046	523.75
550.259	523.75
550.473	491.75
550.686	532.75
550.899	508.75
551.112	506.75
551.325	508.75
551.538	498.75
551.751	516.75
551.964	508.75
552.177	507.75
552.39	487.75
552.603	504.75
552.816	498.75
553.029	527.75
553.242	540.75
553.455	530.75
553.667	559.75
553.88	546.75
554.093	521.75
554.306	545.75
554.519	524.75
554.732	499.75
554.944	513.75
555.157	496.75
555.37	508.75
555.583	486.75
555.795	487.75
556.008	467.75
556.221	448.75
556.433	468.75
556.646	469.75
556.859	482.75
557.071	459.75
557.284	477.75
557.496	462.75
557.709	467.75
557.921	459.75
558.134	475.75
558.346	473.75
558.559	452.75
558.771	458.75
558.984	450.75
559.196	465.75
559.409	458.75
559.621	481.75
559.833	465.75
560.046	451.75
560.258	451.75
560.47	434.75
560.683	446.75
560.895	437.75
561.107	459.75
561.32	439.75
561.532	431.75
561.744	442.75
561.956	452.75
562.168	467.75
562.381	470.75
562.593	447.75
562.805	463.75
563.017	447.75
563.229	450.75
563.441	463.75
563.653	470.75
563.865	452.75
564.077	480.75
564.289	468.75
564.501	477.75
564.713	457.75
564.925	478.75
565.137	483.75
565.349	482.75
565.561	484.75
565.773	502.75
565.985	510.75
566.197	530.75
566.408	558.75
566.62	555.75
566.832	584.75
567.044	578.75
567.255	581.75
567.467	598.75
567.679	606.75
567.891	633.75
568.102	618.75
568.314	597.75
568.526	578.75
568.737	566.75
568.949	520.75
569.161	492.75
569.372	504.75
569.584	481.75
569.795	485.75
570.007	458.75
570.218	491.75
570.43	476.75
570.641	456.75
570.853	454.75
571.064	446.75
571.276	437.75
571.487	436.75
571.698	434.75
571.91	446.75
572.121	423.75
572.333	412.75
572.544	422.75
572.755	397.75
572.966	418.75
573.178	396.75
573.389	401.75
573.6	377.75
573.811	379.75
574.023	378.75
574.234	396.75
574.445	392.75
574.656	393.75
574.867	398.75
575.078	410.75
575.289	411.75
575.501	396.75
575.712	370.75
575.923	384.75
576.134	345.75
576.345	366.75
576.556	399.75
576.767	400.75
576.978	373.75
577.188	370.75
577.399	382.75
577.61	368.75
577.821	362.75
578.032	364.75
578.243	389.75
578.454	558.75
578.665	439.75
578.875	356.75
579.086	365.75
579.297	375.75
579.508	352.75
579.718	364.75
579.929	346.75
580.14	345.75
580.35	360.75
580.561	358.75
580.772	361.75
580.982	352.75
581.193	359.75
581.403	357.75
581.614	355.75
581.825	355.75
582.035	355.75
582.246	348.75
582.456	332.75
582.667	352.75
582.877	339.75
583.087	338.75
583.298	339.75
583.508	352.75
583.719	358.75
583.929	335.75
584.139	334.75
584.35	337.75
584.56	340.75
584.77	339.75
584.981	340.75
585.191	342.75
585.401	347.75
585.611	317.75
585.821	345.75
586.032	342.75
586.242	349.75
586.452	331.75
586.662	331.75
586.872	321.75
587.082	321.75
587.292	329.75
587.502	336.75
587.713	322.75
587.923	345.75
588.133	333.75
588.343	330.75
588.553	335.75
588.762	324.75
588.972	355.75
589.182	329.75
589.392	339.75
589.602	319.75
589.812	324.75
590.022	333.75
590.232	326.75
590.441	319.75
590.651	337.75
590.861	332.75
591.071	332.75
591.281	366.75
591.49	339.75
591.7	340.75
591.91	332.75
592.119	339.75
592.329	359.75
592.539	372.75
592.748	352.75
592.958	377.75
593.167	368.75
593.377	368.75
593.587	377.75
593.796	363.75
594.006	376.75
594.215	372.75
594.424	374.75
594.634	370.75
594.843	358.75
595.053	373.75
595.262	370.75
595.472	357.75
595.681	351.75
595.89	335.75
596.1	331.75
596.309	313.75
596.518	312.75
596.727	319.75
596.937	318.75
597.146	324.75
597.355	344.75
597.564	310.75
597.774	290.75
597.983	315.75
598.192	308.75
598.401	304.75
598.61	309.75
598.819	299.75
599.028	292.75
599.237	296.75
599.446	300.75
599.655	304.75
599.864	302.75
600.073	271.75
600.282	292.75
600.491	312.75
600.7	291.75
600.909	297.75
601.118	288.75
601.327	283.75
601.536	297.75
601.745	304.75
601.953	288.75
602.162	297.75
602.371	273.75
602.58	291.75
602.789	292.75
602.997	299.75
603.206	300.75
603.415	277.75
603.623	280.75
603.832	292.75
604.041	283.75
604.249	280.75
604.458	277.75
604.666	275.75
604.875	266.75
605.084	275.75
605.292	298.75
605.501	299.75
605.709	266.75
605.918	274.75
606.126	274.75
606.334	279.75
606.543	286.75
606.751	302.75
606.96	286.75
607.168	281.75
607.376	280.75
607.585	284.75
607.793	283.75
608.001	261.75
608.21	274.75
608.418	281.75
608.626	279.75
608.834	292.75
609.043	281.75
609.251	257.75
609.459	275.75
609.667	272.75
609.875	264.75
610.083	268.75
610.291	296.75
610.499	286.75
610.707	263.75
610.916	279.75
611.124	267.75
611.332	288.75
611.54	278.75
611.748	272.75
611.955	270.75
612.163	262.75
612.371	263.75
612.579	272.75
612.787	284.75
612.995	279.75
613.203	260.75
613.411	274.75
613.618	282.75
613.826	280.75
614.034	263.75
614.242	278.75
614.449	259.75
614.657	275.75
614.865	283.75
615.072	273.75
615.28	263.75
615.488	257.75
615.695	258.75
615.903	267.75
616.111	264.75
616.318	287.75
616.526	276.75
616.733	255.75
616.941	267.75
617.148	275.75
617.356	264.75
617.563	273.75
617.771	262.75
617.978	262.75
618.185	259.75
618.393	264.75
618.6	257.75
618.807	271.75
619.015	260.75
619.222	262.75
619.429	264.75
619.637	258.75
619.844	258.75
620.051	247.75
620.258	243.75
620.466	255.75
620.673	266.75
620.88	247.75
621.087	253.75
621.294	235.75
621.501	242.75
621.708	253.75
621.915	254.75
622.122	259.75
622.329	235.75
622.536	254.75
622.743	240.75
622.95	239.75
623.157	259.75
623.364	248.75
623.571	258.75
623.778	258.75
623.985	247.75
624.192	224.75
624.399	231.75
624.606	249.75
624.812	236.75
625.019	254.75
625.226	241.75
625.433	238.75
625.639	228.75
625.846	239.75
626.053	242.75
626.259	235.75
626.466	234.75
626.673	214.75
626.879	230.75
627.086	223.75
627.293	219.75
627.499	244.75
627.706	235.75
627.912	238.75
628.119	235.75
628.325	230.75
628.532	230.75
628.738	224.75
628.945	221.75
629.151	223.75
629.357	229.75
629.564	232.75
629.77	212.75
629.976	206.75
630.183	234.75
630.389	225.75
630.595	228.75
630.802	220.75
631.008	211.75
631.214	226.75
631.42	204.75
631.627	221.75
631.833	218.75
632.039	229.75
632.245	213.75
632.451	211.75
632.657	202.75
632.863	204.75
633.069	225.75
633.275	211.75
633.481	209.75
633.688	219.75
633.893	210.75
634.099	212.75
634.305	195.75
634.511	214.75
634.717	195.75
634.923	201.75
635.129	194.75
635.335	184.75
635.541	217.75
635.747	200.75
635.952	184.75
636.158	199.75
636.364	207.75
636.57	219.75
636.775	210.75
636.981	192.75
637.187	193.75
637.392	185.75
637.598	214.75
637.804	196.75
638.009	187.75
638.215	199.75
638.421	193.75
638.626	209.75
638.832	197.75
639.037	190.75
639.243	189.75
639.448	179.75
639.654	208.75
639.859	191.75
640.065	207.75
640.27	195.75
640.475	185.75
640.681	189.75
640.886	185.75
641.091	195.75
641.297	192.75
641.502	188.75
641.707	180.75
641.913	198.75
642.118	196.75
642.323	203.75
642.528	178.75
642.733	187.75
642.939	182.75
643.144	175.75
643.349	191.75
643.554	187.75
643.759	200.75
643.964	169.75
644.169	178.75
644.374	174.75
644.579	156.75
644.784	185.75
644.989	178.75
645.194	190.75
645.399	184.75
645.604	175.75
645.809	180.75
646.014	188.75
646.219	187.75
646.423	174.75
646.628	178.75
646.833	165.75
647.038	186.75
647.243	201.75
647.447	188.75
647.652	178.75
647.857	187.75
648.062	176.75
648.266	203.75
648.471	192.75
648.676	208.75
648.88	202.75
649.085	190.75
649.289	175.75
649.494	192.75
649.698	182.75
649.903	203.75
650.107	186.75
650.312	180.75
650.516	179.75
650.721	178.75
650.925	173.75
651.13	176.75
651.334	175.75
651.539	156.75
651.743	159.75
651.947	160.75
652.152	159.75
652.356	164.75
652.56	158.75
652.764	156.75
652.969	156.75
653.173	148.75
653.377	136.75
653.581	151.75
653.785	144.75
653.99	147.75
654.194	142.75
654.398	134.75
654.602	157.75
654.806	145.75
655.01	150.75
655.214	159.75
655.418	152.75
655.622	134.75
655.826	147.75
656.03	146.75
656.234	162.75
656.438	145.75
656.642	169.75
656.846	149.75
657.049	138.75
657.253	136.75
657.457	119.75
657.661	130.75
657.865	130.75
658.068	121.75
658.272	133.75
658.476	117.75
658.68	113.75
658.883	113.75
659.087	108.75
659.291	124.75
659.494	100.75
659.698	116.75
659.901	104.75
660.105	99.75
660.309	98.75
660.512	84.75
660.716	91.75
660.919	87.75
661.123	87.75
661.326	96.75
661.53	82.75
661.733	84.75
661.936	84.75
662.14	78.75
662.343	78.75
662.546	94.75
662.75	82.75
662.953	83.75
663.156	73.75
663.36	68.75
663.563	84.75
663.766	81.75
663.969	74.75
664.173	81.75
664.376	89.75
664.579	73.75
664.782	89.75
664.985	89.75
665.188	86.75
665.391	89.75
665.594	76.75
665.797	85.75
666	83.75
666.203	76.75
666.406	73.75
666.609	76.75
666.812	81.75
667.015	105.75
667.218	88.75
667.421	70.75
667.624	85.75
667.827	80.75
668.03	68.75
668.232	89.75
668.435	72.75
668.638	67.75
668.841	83.75
669.043	83.75
669.246	94.75
669.449	86.75
669.651	81.75
669.854	84.75
670.057	91.75
670.259	78.75
670.462	78.75
670.665	75.75
670.867	68.75
671.07	87.75
671.272	73.75
671.475	86.75
671.677	87.75
671.88	88.75
672.082	74.75
672.284	80.75
672.487	82.75
672.689	74.75
672.892	76.75
