Data from 1974.PennyLincolnUp.Lamp.En5.5.200Scan.071719.P1.Changed Mount._HRD10591_15-52-34-857.txt Node
Date: Thu Jul 18 15:52:34 EDT 2019
User: cochatt
Spectrometer: HR+D1059
Trigger mode: 1
Integration Time (sec): 1.000000E-1
Scans to average: 1
Electric dark correction enabled: true
Nonlinearity correction enabled: false
Boxcar width: 0
XAxis mode: Wavelengths
Number of Pixels in Spectrum: 2048
>>>>>Begin Spectral Data<<<<<
223.165	-9.31
223.4	-9.31
223.635	-9.31
223.869	-31.31
224.104	-23.31
224.338	-2.31
224.573	-18.31
224.808	3.69
225.042	-1.31
225.277	-7.31
225.511	-12.31
225.746	-10.31
225.98	-1.31
226.215	17.69
226.449	23.69
226.683	17.69
226.918	21.69
227.152	32.69
227.387	31.69
227.621	41.69
227.856	22.69
228.09	48.69
228.324	48.69
228.559	66.69
228.793	66.69
229.027	103.69
229.262	114.69
229.496	94.69
229.73	126.69
229.964	132.69
230.199	137.69
230.433	126.69
230.667	118.69
230.901	120.69
231.136	114.69
231.37	104.69
231.604	132.69
231.838	119.69
232.072	120.69
232.306	122.69
232.541	116.69
232.775	128.69
233.009	122.69
233.243	119.69
233.477	118.69
233.711	113.69
233.945	116.69
234.179	128.69
234.413	102.69
234.647	115.69
234.881	128.69
235.115	130.69
235.349	132.69
235.583	135.69
235.817	119.69
236.051	114.69
236.285	117.69
236.519	124.69
236.753	134.69
236.987	157.69
237.221	161.69
237.455	241.69
237.689	190.69
237.922	135.69
238.156	138.69
238.39	124.69
238.624	138.69
238.858	126.69
239.091	147.69
239.325	129.69
239.559	141.69
239.793	118.69
240.027	134.69
240.26	150.69
240.494	151.69
240.728	173.69
240.961	160.69
241.195	138.69
241.429	144.69
241.662	132.69
241.896	141.69
242.13	159.69
242.363	136.69
242.597	152.69
242.83	156.69
243.064	141.69
243.298	162.69
243.531	141.69
243.765	142.69
243.998	131.69
244.232	164.69
244.465	154.69
244.699	166.69
244.932	150.69
245.166	160.69
245.399	162.69
245.633	165.69
245.866	149.69
246.099	149.69
246.333	154.69
246.566	144.69
246.8	166.69
247.033	178.69
247.266	172.69
247.5	176.69
247.733	180.69
247.966	179.69
248.2	178.69
248.433	190.69
248.666	188.69
248.899	196.69
249.133	193.69
249.366	216.69
249.599	211.69
249.832	188.69
250.066	176.69
250.299	192.69
250.532	213.69
250.765	204.69
250.998	232.69
251.231	242.69
251.465	220.69
251.698	210.69
251.931	209.69
252.164	217.69
252.397	205.69
252.63	203.69
252.863	211.69
253.096	222.69
253.329	227.69
253.562	220.69
253.795	222.69
254.028	231.69
254.261	222.69
254.494	237.69
254.727	269.69
254.96	280.69
255.193	270.69
255.426	245.69
255.659	240.69
255.892	240.69
256.124	222.69
256.357	244.69
256.59	230.69
256.823	228.69
257.056	241.69
257.289	209.69
257.521	194.69
257.754	217.69
257.987	217.69
258.22	224.69
258.452	213.69
258.685	226.69
258.918	217.69
259.151	222.69
259.383	217.69
259.616	245.69
259.849	240.69
260.081	260.69
260.314	266.69
260.547	270.69
260.779	235.69
261.012	233.69
261.244	243.69
261.477	240.69
261.71	249.69
261.942	237.69
262.175	231.69
262.407	229.69
262.64	221.69
262.872	242.69
263.105	219.69
263.337	234.69
263.57	230.69
263.802	234.69
264.035	254.69
264.267	245.69
264.499	220.69
264.732	226.69
264.964	232.69
265.197	213.69
265.429	228.69
265.661	226.69
265.894	253.69
266.126	221.69
266.358	223.69
266.591	229.69
266.823	232.69
267.055	237.69
267.287	239.69
267.52	249.69
267.752	236.69
267.984	251.69
268.216	237.69
268.448	253.69
268.681	247.69
268.913	262.69
269.145	277.69
269.377	296.69
269.609	295.69
269.841	281.69
270.073	292.69
270.306	290.69
270.538	328.69
270.77	324.69
271.002	302.69
271.234	296.69
271.466	306.69
271.698	331.69
271.93	323.69
272.162	337.69
272.394	315.69
272.626	328.69
272.858	302.69
273.09	302.69
273.322	283.69
273.553	281.69
273.785	287.69
274.017	275.69
274.249	276.69
274.481	282.69
274.713	264.69
274.945	286.69
275.176	285.69
275.408	289.69
275.64	282.69
275.872	277.69
276.104	288.69
276.335	271.69
276.567	285.69
276.799	297.69
277.031	310.69
277.262	316.69
277.494	339.69
277.726	320.69
277.957	312.69
278.189	307.69
278.421	295.69
278.652	282.69
278.884	274.69
279.115	270.69
279.347	278.69
279.579	291.69
279.81	280.69
280.042	276.69
280.273	297.69
280.505	285.69
280.736	301.69
280.968	295.69
281.199	308.69
281.431	268.69
281.662	293.69
281.894	298.69
282.125	293.69
282.356	333.69
282.588	309.69
282.819	319.69
283.051	304.69
283.282	292.69
283.513	301.69
283.745	313.69
283.976	293.69
284.207	300.69
284.439	289.69
284.67	297.69
284.901	302.69
285.132	320.69
285.364	282.69
285.595	288.69
285.826	294.69
286.057	311.69
286.288	298.69
286.52	293.69
286.751	290.69
286.982	305.69
287.213	288.69
287.444	321.69
287.675	320.69
287.906	309.69
288.138	326.69
288.369	326.69
288.6	336.69
288.831	320.69
289.062	320.69
289.293	335.69
289.524	325.69
289.755	326.69
289.986	308.69
290.217	315.69
290.448	305.69
290.679	315.69
290.91	320.69
291.141	308.69
291.371	320.69
291.602	316.69
291.833	304.69
292.064	304.69
292.295	325.69
292.526	305.69
292.757	324.69
292.987	328.69
293.218	313.69
293.449	323.69
293.68	310.69
293.91	318.69
294.141	322.69
294.372	303.69
294.603	313.69
294.833	324.69
295.064	301.69
295.295	321.69
295.525	310.69
295.756	325.69
295.987	322.69
296.217	333.69
296.448	354.69
296.679	343.69
296.909	322.69
297.14	304.69
297.37	326.69
297.601	327.69
297.831	340.69
298.062	333.69
298.292	325.69
298.523	325.69
298.753	345.69
298.984	344.69
299.214	341.69
299.445	340.69
299.675	329.69
299.905	324.69
300.136	353.69
300.366	326.69
300.597	346.69
300.827	364.69
301.057	332.69
301.288	340.69
301.518	351.69
301.748	323.69
301.979	343.69
302.209	362.69
302.439	365.69
302.669	358.69
302.9	356.69
303.13	356.69
303.36	350.69
303.59	352.69
303.82	350.69
304.051	347.69
304.281	358.69
304.511	347.69
304.741	343.69
304.971	342.69
305.201	352.69
305.431	356.69
305.661	340.69
305.891	333.69
306.121	365.69
306.352	353.69
306.582	371.69
306.812	356.69
307.042	346.69
307.272	357.69
307.502	350.69
307.731	360.69
307.961	359.69
308.191	368.69
308.421	346.69
308.651	368.69
308.881	370.69
309.111	392.69
309.341	358.69
309.571	374.69
309.8	381.69
310.03	389.69
310.26	364.69
310.49	364.69
310.72	397.69
310.949	393.69
311.179	397.69
311.409	388.69
311.639	372.69
311.868	386.69
312.098	393.69
312.328	412.69
312.557	414.69
312.787	427.69
313.017	398.69
313.246	403.69
313.476	393.69
313.706	394.69
313.935	409.69
314.165	409.69
314.394	394.69
314.624	390.69
314.853	421.69
315.083	410.69
315.312	403.69
315.542	374.69
315.771	400.69
316.001	408.69
316.23	403.69
316.46	414.69
316.689	407.69
316.919	408.69
317.148	396.69
317.377	418.69
317.607	406.69
317.836	409.69
318.065	397.69
318.295	415.69
318.524	401.69
318.753	404.69
318.983	405.69
319.212	387.69
319.441	407.69
319.67	398.69
319.9	412.69
320.129	404.69
320.358	399.69
320.587	413.69
320.816	403.69
321.046	423.69
321.275	421.69
321.504	427.69
321.733	419.69
321.962	430.69
322.191	435.69
322.42	434.69
322.649	436.69
322.878	453.69
323.108	452.69
323.337	490.69
323.566	505.69
323.795	517.69
324.024	553.69
324.253	644.69
324.482	850.69
324.71	1290.69
324.939	1896.69
325.168	1699.69
325.397	902.69
325.626	640.69
325.855	536.69
326.084	491.69
326.313	485.69
326.542	507.69
326.77	541.69
326.999	614.69
327.228	810.69
327.457	1186.69
327.686	1464.69
327.914	1002.69
328.143	675.69
328.372	596.69
328.6	564.69
328.829	550.69
329.058	557.69
329.287	584.69
329.515	548.69
329.744	530.69
329.972	520.69
330.201	516.69
330.43	556.69
330.658	582.69
330.887	588.69
331.115	596.69
331.344	529.69
331.572	505.69
331.801	512.69
332.03	496.69
332.258	487.69
332.486	502.69
332.715	484.69
332.943	495.69
333.172	499.69
333.4	501.69
333.629	504.69
333.857	505.69
334.085	537.69
334.314	544.69
334.542	563.69
334.771	576.69
334.999	549.69
335.227	513.69
335.455	513.69
335.684	502.69
335.912	498.69
336.14	473.69
336.369	510.69
336.597	522.69
336.825	507.69
337.053	469.69
337.281	461.69
337.51	465.69
337.738	491.69
337.966	463.69
338.194	488.69
338.422	477.69
338.65	489.69
338.878	477.69
339.106	476.69
339.334	452.69
339.562	444.69
339.79	482.69
340.018	472.69
340.246	455.69
340.474	457.69
340.702	454.69
340.93	465.69
341.158	472.69
341.386	467.69
341.614	473.69
341.842	440.69
342.07	457.69
342.298	465.69
342.526	445.69
342.754	446.69
342.981	454.69
343.209	444.69
343.437	459.69
343.665	473.69
343.893	461.69
344.12	519.69
344.348	477.69
344.576	488.69
344.804	484.69
345.031	498.69
345.259	504.69
345.487	484.69
345.714	461.69
345.942	456.69
346.17	449.69
346.397	470.69
346.625	449.69
346.853	445.69
347.08	458.69
347.308	449.69
347.535	443.69
347.763	452.69
347.99	450.69
348.218	461.69
348.445	440.69
348.673	459.69
348.9	452.69
349.128	452.69
349.355	428.69
349.583	414.69
349.81	437.69
350.037	422.69
350.265	442.69
350.492	427.69
350.72	432.69
350.947	470.69
351.174	448.69
351.402	456.69
351.629	440.69
351.856	442.69
352.083	460.69
352.311	471.69
352.538	444.69
352.765	457.69
352.992	438.69
353.22	467.69
353.447	456.69
353.674	448.69
353.901	460.69
354.128	441.69
354.355	429.69
354.583	433.69
354.81	436.69
355.037	413.69
355.264	422.69
355.491	417.69
355.718	422.69
355.945	455.69
356.172	432.69
356.399	418.69
356.626	428.69
356.853	418.69
357.08	429.69
357.307	444.69
357.534	427.69
357.761	421.69
357.988	434.69
358.215	424.69
358.441	427.69
358.668	448.69
358.895	431.69
359.122	417.69
359.349	434.69
359.576	446.69
359.802	454.69
360.029	498.69
360.256	516.69
360.483	468.69
360.709	456.69
360.936	461.69
361.163	457.69
361.39	436.69
361.616	449.69
361.843	462.69
362.07	455.69
362.296	447.69
362.523	460.69
362.749	434.69
362.976	454.69
363.203	458.69
363.429	447.69
363.656	440.69
363.882	441.69
364.109	420.69
364.335	442.69
364.562	443.69
364.788	431.69
365.015	444.69
365.241	424.69
365.468	423.69
365.694	456.69
365.92	430.69
366.147	428.69
366.373	442.69
366.599	443.69
366.826	417.69
367.052	419.69
367.278	428.69
367.505	436.69
367.731	432.69
367.957	457.69
368.184	445.69
368.41	428.69
368.636	444.69
368.862	452.69
369.089	445.69
369.315	432.69
369.541	446.69
369.767	447.69
369.993	446.69
370.219	455.69
370.445	454.69
370.672	447.69
370.898	443.69
371.124	446.69
371.35	444.69
371.576	441.69
371.802	442.69
372.028	446.69
372.254	439.69
372.48	448.69
372.706	446.69
372.932	438.69
373.158	453.69
373.384	458.69
373.61	472.69
373.835	441.69
374.061	434.69
374.287	456.69
374.513	444.69
374.739	451.69
374.965	480.69
375.191	467.69
375.416	472.69
375.642	460.69
375.868	446.69
376.094	457.69
376.319	442.69
376.545	459.69
376.771	452.69
376.997	450.69
377.222	439.69
377.448	453.69
377.674	457.69
377.899	442.69
378.125	445.69
378.35	449.69
378.576	462.69
378.802	425.69
379.027	437.69
379.253	450.69
379.478	446.69
379.704	452.69
379.929	452.69
380.155	459.69
380.38	453.69
380.606	470.69
380.831	457.69
381.057	448.69
381.282	441.69
381.507	453.69
381.733	473.69
381.958	456.69
382.184	452.69
382.409	466.69
382.634	470.69
382.86	453.69
383.085	488.69
383.31	464.69
383.535	486.69
383.761	474.69
383.986	468.69
384.211	462.69
384.436	476.69
384.662	488.69
384.887	503.69
385.112	494.69
385.337	498.69
385.562	500.69
385.787	509.69
386.013	499.69
386.238	508.69
386.463	511.69
386.688	506.69
386.913	501.69
387.138	493.69
387.363	520.69
387.588	498.69
387.813	512.69
388.038	519.69
388.263	493.69
388.488	489.69
388.713	491.69
388.938	514.69
389.163	504.69
389.387	534.69
389.612	505.69
389.837	510.69
390.062	516.69
390.287	503.69
390.512	492.69
390.736	514.69
390.961	515.69
391.186	498.69
391.411	491.69
391.636	516.69
391.86	516.69
392.085	525.69
392.31	524.69
392.534	530.69
392.759	510.69
392.984	526.69
393.208	546.69
393.433	502.69
393.658	516.69
393.882	474.69
394.107	534.69
394.331	513.69
394.556	517.69
394.78	523.69
395.005	555.69
395.229	515.69
395.454	521.69
395.678	540.69
395.903	552.69
396.127	567.69
396.352	572.69
396.576	551.69
396.801	512.69
397.025	527.69
397.249	519.69
397.474	540.69
397.698	542.69
397.922	588.69
398.147	596.69
398.371	573.69
398.595	588.69
398.82	583.69
399.044	588.69
399.268	610.69
399.492	687.69
399.717	716.69
399.941	726.69
400.165	732.69
400.389	744.69
400.613	652.69
400.837	636.69
401.062	614.69
401.286	586.69
401.51	602.69
401.734	579.69
401.958	578.69
402.182	599.69
402.406	611.69
402.63	606.69
402.854	589.69
403.078	612.69
403.302	613.69
403.526	637.69
403.75	635.69
403.974	639.69
404.198	650.69
404.422	636.69
404.645	611.69
404.869	631.69
405.093	672.69
405.317	688.69
405.541	739.69
405.765	684.69
405.988	650.69
406.212	642.69
406.436	678.69
406.66	682.69
406.883	670.69
407.107	694.69
407.331	734.69
407.555	802.69
407.778	811.69
408.002	731.69
408.226	674.69
408.449	659.69
408.673	663.69
408.896	705.69
409.12	739.69
409.344	720.69
409.567	639.69
409.791	640.69
410.014	630.69
410.238	628.69
410.461	617.69
410.685	630.69
410.908	638.69
411.132	665.69
411.355	710.69
411.578	674.69
411.802	634.69
412.025	615.69
412.249	637.69
412.472	654.69
412.695	709.69
412.919	659.69
413.142	619.69
413.365	612.69
413.589	600.69
413.812	588.69
414.035	582.69
414.258	593.69
414.482	592.69
414.705	587.69
414.928	586.69
415.151	587.69
415.374	590.69
415.597	568.69
415.821	586.69
416.044	575.69
416.267	581.69
416.49	574.69
416.713	588.69
416.936	577.69
417.159	557.69
417.382	590.69
417.605	583.69
417.828	571.69
418.051	605.69
418.274	604.69
418.497	583.69
418.72	582.69
418.943	604.69
419.166	644.69
419.389	657.69
419.611	644.69
419.834	633.69
420.057	613.69
420.28	630.69
420.503	601.69
420.726	592.69
420.948	628.69
421.171	641.69
421.394	689.69
421.617	631.69
421.839	629.69
422.062	607.69
422.285	637.69
422.507	665.69
422.73	729.69
422.953	746.69
423.175	646.69
423.398	659.69
423.621	636.69
423.843	655.69
424.066	675.69
424.288	647.69
424.511	671.69
424.733	723.69
424.956	802.69
425.178	779.69
425.401	772.69
425.623	770.69
425.846	680.69
426.068	645.69
426.291	615.69
426.513	631.69
426.735	620.69
426.958	677.69
427.18	768.69
427.402	894.69
427.625	972.69
427.847	869.69
428.069	728.69
428.292	680.69
428.514	637.69
428.736	609.69
428.958	602.69
429.181	606.69
429.403	581.69
429.625	607.69
429.847	629.69
430.069	698.69
430.292	719.69
430.514	620.69
430.736	582.69
430.958	585.69
431.18	540.69
431.402	560.69
431.624	577.69
431.846	557.69
432.068	555.69
432.29	565.69
432.512	553.69
432.734	588.69
432.956	547.69
433.178	572.69
433.4	587.69
433.622	562.69
433.844	557.69
434.066	581.69
434.287	582.69
434.509	590.69
434.731	586.69
434.953	597.69
435.175	626.69
435.397	620.69
435.618	635.69
435.84	666.69
436.062	778.69
436.284	837.69
436.505	716.69
436.727	650.69
436.949	622.69
437.17	605.69
437.392	579.69
437.614	573.69
437.835	638.69
438.057	722.69
438.278	823.69
438.5	813.69
438.721	891.69
438.943	866.69
439.165	716.69
439.386	669.69
439.608	647.69
439.829	660.69
440.05	634.69
440.272	700.69
440.493	650.69
440.715	603.69
440.936	611.69
441.158	588.69
441.379	589.69
441.6	613.69
441.822	645.69
442.043	684.69
442.264	780.69
442.486	800.69
442.707	691.69
442.928	677.69
443.149	645.69
443.371	678.69
443.592	735.69
443.813	817.69
444.034	885.69
444.255	778.69
444.476	694.69
444.698	682.69
444.919	678.69
445.14	741.69
445.361	711.69
445.582	679.69
445.803	735.69
446.024	854.69
446.245	865.69
446.466	784.69
446.687	685.69
446.908	630.69
447.129	620.69
447.35	611.69
447.571	596.69
447.792	597.69
448.013	580.69
448.234	602.69
448.455	646.69
448.675	775.69
448.896	893.69
449.117	749.69
449.338	731.69
449.559	809.69
449.779	924.69
450	724.69
450.221	632.69
450.442	603.69
450.662	548.69
450.883	573.69
451.104	581.69
451.324	569.69
451.545	541.69
451.766	548.69
451.986	518.69
452.207	532.69
452.428	531.69
452.648	517.69
452.869	529.69
453.089	522.69
453.31	547.69
453.53	534.69
453.751	540.69
453.971	550.69
454.192	536.69
454.412	522.69
454.633	519.69
454.853	507.69
455.073	493.69
455.294	537.69
455.514	588.69
455.734	624.69
455.955	530.69
456.175	510.69
456.395	491.69
456.616	477.69
456.836	487.69
457.056	514.69
457.276	497.69
457.497	494.69
457.717	491.69
457.937	504.69
458.157	520.69
458.377	514.69
458.598	528.69
458.818	567.69
459.038	660.69
459.258	686.69
459.478	595.69
459.698	572.69
459.918	573.69
460.138	576.69
460.358	574.69
460.578	598.69
460.798	586.69
461.018	589.69
461.238	589.69
461.458	589.69
461.678	582.69
461.898	590.69
462.118	571.69
462.338	600.69
462.558	602.69
462.777	606.69
462.997	673.69
463.217	676.69
463.437	685.69
463.657	636.69
463.876	645.69
464.096	649.69
464.316	638.69
464.536	642.69
464.755	639.69
464.975	633.69
465.195	662.69
465.414	667.69
465.634	637.69
465.854	594.69
466.073	572.69
466.293	581.69
466.512	556.69
466.732	540.69
466.951	557.69
467.171	523.69
467.391	552.69
467.61	549.69
467.829	551.69
468.049	561.69
468.268	554.69
468.488	534.69
468.707	556.69
468.927	523.69
469.146	524.69
469.365	524.69
469.585	512.69
469.804	540.69
470.023	548.69
470.243	540.69
470.462	561.69
470.681	568.69
470.901	564.69
471.12	549.69
471.339	562.69
471.558	558.69
471.777	548.69
471.997	566.69
472.216	546.69
472.435	585.69
472.654	583.69
472.873	558.69
473.092	536.69
473.311	541.69
473.53	538.69
473.749	581.69
473.968	600.69
474.187	678.69
474.406	702.69
474.625	626.69
474.844	588.69
475.063	530.69
475.282	564.69
475.501	557.69
475.72	583.69
475.939	562.69
476.158	562.69
476.377	574.69
476.596	560.69
476.814	566.69
477.033	586.69
477.252	566.69
477.471	584.69
477.69	596.69
477.908	595.69
478.127	611.69
478.346	616.69
478.564	626.69
478.783	624.69
479.002	637.69
479.22	611.69
479.439	664.69
479.658	640.69
479.876	655.69
480.095	683.69
480.313	712.69
480.532	684.69
480.751	680.69
480.969	709.69
481.188	715.69
481.406	749.69
481.624	692.69
481.843	660.69
482.061	652.69
482.28	667.69
482.498	652.69
482.717	646.69
482.935	651.69
483.153	644.69
483.372	645.69
483.59	622.69
483.808	634.69
484.027	637.69
484.245	634.69
484.463	634.69
484.681	649.69
484.9	652.69
485.118	671.69
485.336	651.69
485.554	661.69
485.772	660.69
485.99	643.69
486.209	647.69
486.427	668.69
486.645	678.69
486.863	712.69
487.081	698.69
487.299	674.69
487.517	694.69
487.735	703.69
487.953	701.69
488.171	682.69
488.389	696.69
488.607	698.69
488.825	697.69
489.043	703.69
489.261	700.69
489.479	734.69
489.696	689.69
489.914	694.69
490.132	727.69
490.35	726.69
490.568	718.69
490.786	738.69
491.003	751.69
491.221	759.69
491.439	780.69
491.657	769.69
491.874	793.69
492.092	796.69
492.31	799.69
492.527	786.69
492.745	812.69
492.963	818.69
493.18	810.69
493.398	822.69
493.615	804.69
493.833	846.69
494.05	822.69
494.268	835.69
494.485	835.69
494.703	802.69
494.92	815.69
495.138	806.69
495.355	832.69
495.573	803.69
495.79	820.69
496.008	814.69
496.225	828.69
496.442	839.69
496.66	826.69
496.877	845.69
497.094	843.69
497.312	844.69
497.529	868.69
497.746	873.69
497.963	894.69
498.181	887.69
498.398	900.69
498.615	922.69
498.832	963.69
499.049	999.69
499.267	1022.69
499.484	1057.69
499.701	1104.69
499.918	1172.69
500.135	1240.69
500.352	1292.69
500.569	1276.69
500.786	1353.69
501.003	1319.69
501.22	1245.69
501.437	1176.69
501.654	1112.69
501.871	1099.69
502.088	1022.69
502.305	1034.69
502.522	984.69
502.739	952.69
502.956	913.69
503.172	877.69
503.389	872.69
503.606	858.69
503.823	857.69
504.04	850.69
504.256	846.69
504.473	822.69
504.69	824.69
504.907	832.69
505.123	837.69
505.34	820.69
505.557	786.69
505.773	808.69
505.99	784.69
506.207	769.69
506.423	796.69
506.64	774.69
506.856	753.69
507.073	767.69
507.289	738.69
507.506	750.69
507.722	744.69
507.939	742.69
508.155	728.69
508.372	737.69
508.588	716.69
508.805	717.69
509.021	715.69
509.238	708.69
509.454	722.69
509.67	732.69
509.887	706.69
510.103	721.69
510.319	721.69
510.536	777.69
510.752	1157.69
510.968	973.69
511.184	716.69
511.401	696.69
511.617	675.69
511.833	696.69
512.049	685.69
512.265	680.69
512.481	702.69
512.698	691.69
512.914	640.69
513.13	697.69
513.346	682.69
513.562	656.69
513.778	681.69
513.994	701.69
514.21	699.69
514.426	697.69
514.642	718.69
514.858	743.69
515.074	772.69
515.29	866.69
515.506	1180.69
515.721	1047.69
515.937	772.69
516.153	729.69
516.369	728.69
516.585	737.69
516.801	740.69
517.016	741.69
517.232	715.69
517.448	742.69
517.664	746.69
517.879	741.69
518.095	740.69
518.311	744.69
518.527	740.69
518.742	713.69
518.958	701.69
519.173	716.69
519.389	719.69
519.605	696.69
519.82	684.69
520.036	697.69
520.251	712.69
520.467	708.69
520.682	713.69
520.898	717.69
521.113	742.69
521.329	764.69
521.544	832.69
521.76	980.69
521.975	1473.69
522.19	1460.69
522.406	881.69
522.621	722.69
522.836	682.69
523.052	662.69
523.267	630.69
523.482	634.69
523.698	604.69
523.913	644.69
524.128	601.69
524.343	618.69
524.559	613.69
524.774	598.69
524.989	591.69
525.204	594.69
525.419	596.69
525.634	613.69
525.849	590.69
526.064	578.69
526.28	576.69
526.495	572.69
526.71	594.69
526.925	565.69
527.14	536.69
527.355	554.69
527.57	549.69
527.785	556.69
527.999	536.69
528.214	561.69
528.429	562.69
528.644	582.69
528.859	566.69
529.074	562.69
529.289	590.69
529.503	622.69
529.718	601.69
529.933	601.69
530.148	593.69
530.363	565.69
530.577	575.69
530.792	548.69
531.007	540.69
531.221	566.69
531.436	541.69
531.651	546.69
531.865	530.69
532.08	551.69
532.295	554.69
532.509	535.69
532.724	534.69
532.938	522.69
533.153	552.69
533.367	551.69
533.582	549.69
533.796	526.69
534.011	545.69
534.225	572.69
534.44	544.69
534.654	537.69
534.868	540.69
535.083	534.69
535.297	541.69
535.511	558.69
535.726	545.69
535.94	569.69
536.154	532.69
536.369	502.69
536.583	527.69
536.797	536.69
537.011	541.69
537.225	542.69
537.44	518.69
537.654	509.69
537.868	504.69
538.082	516.69
538.296	524.69
538.51	533.69
538.724	534.69
538.938	521.69
539.153	516.69
539.367	532.69
539.581	504.69
539.795	516.69
540.009	516.69
540.222	515.69
540.436	504.69
540.65	511.69
540.864	498.69
541.078	538.69
541.292	546.69
541.506	545.69
541.72	548.69
541.934	519.69
542.147	517.69
542.361	532.69
542.575	527.69
542.789	527.69
543.002	520.69
543.216	518.69
543.43	534.69
543.644	515.69
543.857	522.69
544.071	529.69
544.285	526.69
544.498	522.69
544.712	513.69
544.925	537.69
545.139	535.69
545.352	484.69
545.566	531.69
545.779	530.69
545.993	532.69
546.206	505.69
546.42	531.69
546.633	518.69
546.847	522.69
547.06	514.69
547.274	512.69
547.487	513.69
547.7	513.69
547.914	525.69
548.127	522.69
548.34	519.69
548.554	517.69
548.767	534.69
548.98	520.69
549.193	501.69
549.407	510.69
549.62	520.69
549.833	524.69
550.046	550.69
550.259	508.69
550.473	490.69
550.686	500.69
550.899	508.69
551.112	493.69
551.325	505.69
551.538	502.69
551.751	497.69
551.964	506.69
552.177	510.69
552.39	527.69
552.603	504.69
552.816	520.69
553.029	512.69
553.242	531.69
553.455	534.69
553.667	543.69
553.88	548.69
554.093	513.69
554.306	512.69
554.519	500.69
554.732	490.69
554.944	489.69
555.157	497.69
555.37	488.69
555.583	505.69
555.795	486.69
556.008	454.69
556.221	465.69
556.433	468.69
556.646	466.69
556.859	463.69
557.071	473.69
557.284	449.69
557.496	458.69
557.709	463.69
557.921	441.69
558.134	469.69
558.346	450.69
558.559	451.69
558.771	456.69
558.984	447.69
559.196	466.69
559.409	438.69
559.621	453.69
559.833	443.69
560.046	434.69
560.258	456.69
560.47	448.69
560.683	443.69
560.895	446.69
561.107	453.69
561.32	461.69
561.532	448.69
561.744	455.69
561.956	464.69
562.168	449.69
562.381	444.69
562.593	447.69
562.805	453.69
563.017	452.69
563.229	451.69
563.441	479.69
563.653	454.69
563.865	456.69
564.077	441.69
564.289	463.69
564.501	508.69
564.713	467.69
564.925	479.69
565.137	469.69
565.349	493.69
565.561	499.69
565.773	491.69
565.985	520.69
566.197	520.69
566.408	549.69
566.62	569.69
566.832	572.69
567.044	608.69
567.255	586.69
567.467	596.69
567.679	613.69
567.891	638.69
568.102	652.69
568.314	596.69
568.526	580.69
568.737	572.69
568.949	545.69
569.161	504.69
569.372	485.69
569.584	454.69
569.795	480.69
570.007	465.69
570.218	477.69
570.43	485.69
570.641	446.69
570.853	466.69
571.064	440.69
571.276	447.69
571.487	442.69
571.698	430.69
571.91	432.69
572.121	422.69
572.333	436.69
572.544	434.69
572.755	414.69
572.966	409.69
573.178	409.69
573.389	389.69
573.6	397.69
573.811	393.69
574.023	405.69
574.234	378.69
574.445	410.69
574.656	392.69
574.867	389.69
575.078	384.69
575.289	378.69
575.501	391.69
575.712	374.69
575.923	381.69
576.134	374.69
576.345	378.69
576.556	390.69
576.767	360.69
576.978	378.69
577.188	400.69
577.399	379.69
577.61	355.69
577.821	362.69
578.032	373.69
578.243	383.69
578.454	539.69
578.665	454.69
578.875	380.69
579.086	355.69
579.297	341.69
579.508	367.69
579.718	351.69
579.929	359.69
580.14	352.69
580.35	340.69
580.561	353.69
580.772	346.69
580.982	357.69
581.193	343.69
581.403	326.69
581.614	349.69
581.825	345.69
582.035	349.69
582.246	346.69
582.456	353.69
582.667	321.69
582.877	327.69
583.087	340.69
583.298	352.69
583.508	344.69
583.719	344.69
583.929	356.69
584.139	337.69
584.35	345.69
584.56	348.69
584.77	346.69
584.981	328.69
585.191	354.69
585.401	357.69
585.611	341.69
585.821	330.69
586.032	340.69
586.242	338.69
586.452	325.69
586.662	332.69
586.872	338.69
587.082	328.69
587.292	338.69
587.502	320.69
587.713	308.69
587.923	339.69
588.133	330.69
588.343	349.69
588.553	344.69
588.762	326.69
588.972	343.69
589.182	348.69
589.392	337.69
589.602	332.69
589.812	328.69
590.022	332.69
590.232	340.69
590.441	341.69
590.651	331.69
590.861	327.69
591.071	333.69
591.281	344.69
591.49	326.69
591.7	328.69
591.91	349.69
592.119	353.69
592.329	356.69
592.539	368.69
592.748	337.69
592.958	365.69
593.167	371.69
593.377	386.69
593.587	371.69
593.796	371.69
594.006	348.69
594.215	391.69
594.424	376.69
594.634	364.69
594.843	368.69
595.053	356.69
595.262	339.69
595.472	357.69
595.681	349.69
595.89	357.69
596.1	351.69
596.309	355.69
596.518	332.69
596.727	315.69
596.937	315.69
597.146	291.69
597.355	320.69
597.564	316.69
597.774	304.69
597.983	302.69
598.192	310.69
598.401	316.69
598.61	298.69
598.819	319.69
599.028	292.69
599.237	302.69
599.446	310.69
599.655	319.69
599.864	304.69
600.073	278.69
600.282	292.69
600.491	288.69
600.7	290.69
600.909	268.69
601.118	288.69
601.327	285.69
601.536	280.69
601.745	306.69
601.953	291.69
602.162	292.69
602.371	298.69
602.58	311.69
602.789	288.69
602.997	292.69
603.206	295.69
603.415	286.69
603.623	299.69
603.832	302.69
604.041	296.69
604.249	290.69
604.458	284.69
604.666	275.69
604.875	289.69
605.084	280.69
605.292	275.69
605.501	288.69
605.709	285.69
605.918	306.69
606.126	285.69
606.334	285.69
606.543	275.69
606.751	278.69
606.96	267.69
607.168	273.69
607.376	270.69
607.585	265.69
607.793	279.69
608.001	268.69
608.21	273.69
608.418	265.69
608.626	264.69
608.834	280.69
609.043	288.69
609.251	282.69
609.459	269.69
609.667	277.69
609.875	249.69
610.083	271.69
610.291	305.69
610.499	280.69
610.707	276.69
610.916	270.69
611.124	285.69
611.332	277.69
611.54	285.69
611.748	281.69
611.955	277.69
612.163	263.69
612.371	282.69
612.579	273.69
612.787	286.69
612.995	281.69
613.203	282.69
613.411	275.69
613.618	268.69
613.826	267.69
614.034	271.69
614.242	270.69
614.449	283.69
614.657	259.69
614.865	262.69
615.072	260.69
615.28	266.69
615.488	259.69
615.695	267.69
615.903	271.69
616.111	283.69
616.318	261.69
616.526	268.69
616.733	271.69
616.941	273.69
617.148	273.69
617.356	265.69
617.563	248.69
617.771	272.69
617.978	267.69
618.185	265.69
618.393	284.69
618.6	274.69
618.807	284.69
619.015	259.69
619.222	252.69
619.429	261.69
619.637	260.69
619.844	270.69
620.051	257.69
620.258	252.69
620.466	239.69
620.673	258.69
620.88	254.69
621.087	242.69
621.294	236.69
621.501	260.69
621.708	260.69
621.915	274.69
622.122	268.69
622.329	257.69
622.536	248.69
622.743	260.69
622.95	252.69
623.157	255.69
623.364	245.69
623.571	256.69
623.778	250.69
623.985	237.69
624.192	258.69
624.399	258.69
624.606	263.69
624.812	237.69
625.019	230.69
625.226	246.69
625.433	245.69
625.639	236.69
625.846	240.69
626.053	236.69
626.259	250.69
626.466	229.69
626.673	223.69
626.879	244.69
627.086	242.69
627.293	231.69
627.499	219.69
627.706	207.69
627.912	215.69
628.119	223.69
628.325	224.69
628.532	228.69
628.738	221.69
628.945	237.69
629.151	230.69
629.357	211.69
629.564	232.69
629.77	239.69
629.976	227.69
630.183	213.69
630.389	218.69
630.595	208.69
630.802	230.69
631.008	228.69
631.214	215.69
631.42	217.69
631.627	203.69
631.833	216.69
632.039	230.69
632.245	227.69
632.451	219.69
632.657	215.69
632.863	212.69
633.069	209.69
633.275	213.69
633.481	192.69
633.688	196.69
633.893	209.69
634.099	217.69
634.305	197.69
634.511	227.69
634.717	215.69
634.923	204.69
635.129	212.69
635.335	187.69
635.541	188.69
635.747	202.69
635.952	208.69
636.158	205.69
636.364	197.69
636.57	199.69
636.775	215.69
636.981	204.69
637.187	201.69
637.392	204.69
637.598	212.69
637.804	213.69
638.009	222.69
638.215	188.69
638.421	190.69
638.626	193.69
638.832	200.69
639.037	193.69
639.243	177.69
639.448	198.69
639.654	202.69
639.859	198.69
640.065	193.69
640.27	182.69
640.475	179.69
640.681	188.69
640.886	190.69
641.091	189.69
641.297	198.69
641.502	193.69
641.707	193.69
641.913	180.69
642.118	188.69
642.323	178.69
642.528	188.69
642.733	204.69
642.939	201.69
643.144	161.69
643.349	195.69
643.554	185.69
643.759	185.69
643.964	178.69
644.169	178.69
644.374	179.69
644.579	182.69
644.784	196.69
644.989	176.69
645.194	172.69
645.399	202.69
645.604	179.69
645.809	184.69
646.014	179.69
646.219	178.69
646.423	191.69
646.628	192.69
646.833	189.69
647.038	163.69
647.243	191.69
647.447	184.69
647.652	176.69
647.857	185.69
648.062	190.69
648.266	196.69
648.471	177.69
648.676	188.69
648.88	186.69
649.085	193.69
649.289	180.69
649.494	173.69
649.698	202.69
649.903	206.69
650.107	182.69
650.312	183.69
650.516	169.69
650.721	180.69
650.925	186.69
651.13	158.69
651.334	168.69
651.539	157.69
651.743	170.69
651.947	172.69
652.152	161.69
652.356	173.69
652.56	160.69
652.764	140.69
652.969	147.69
653.173	142.69
653.377	141.69
653.581	147.69
653.785	150.69
653.99	149.69
654.194	154.69
654.398	137.69
654.602	147.69
654.806	134.69
655.01	141.69
655.214	154.69
655.418	152.69
655.622	139.69
655.826	148.69
656.03	146.69
656.234	146.69
656.438	140.69
656.642	131.69
656.846	140.69
657.049	132.69
657.253	137.69
657.457	135.69
657.661	139.69
657.865	126.69
658.068	123.69
658.272	122.69
658.476	112.69
658.68	105.69
658.883	98.69
659.087	106.69
659.291	94.69
659.494	105.69
659.698	90.69
659.901	101.69
660.105	90.69
660.309	98.69
660.512	101.69
660.716	93.69
660.919	87.69
661.123	91.69
661.326	92.69
661.53	90.69
661.733	91.69
661.936	85.69
662.14	94.69
662.343	81.69
662.546	77.69
662.75	77.69
662.953	87.69
663.156	92.69
663.36	83.69
663.563	88.69
663.766	86.69
663.969	92.69
664.173	83.69
664.376	78.69
664.579	89.69
664.782	77.69
664.985	78.69
665.188	68.69
665.391	77.69
665.594	68.69
665.797	74.69
666	71.69
666.203	81.69
666.406	86.69
666.609	80.69
666.812	92.69
667.015	85.69
667.218	84.69
667.421	83.69
667.624	77.69
667.827	94.69
668.03	79.69
668.232	77.69
668.435	86.69
668.638	91.69
668.841	81.69
669.043	73.69
669.246	72.69
669.449	77.69
669.651	72.69
669.854	82.69
670.057	82.69
670.259	70.69
670.462	77.69
670.665	85.69
670.867	67.69
671.07	77.69
671.272	84.69
671.475	86.69
671.677	73.69
671.88	78.69
672.082	91.69
672.284	77.69
672.487	82.69
672.689	80.69
672.892	77.69
