Data from 1974.PennyLincolnUp.Lamp.En5.5.200Scan.071719.P1.Changed Mount._HRD10591_15-52-20-857.txt Node
Date: Thu Jul 18 15:52:20 EDT 2019
User: cochatt
Spectrometer: HR+D1059
Trigger mode: 1
Integration Time (sec): 1.000000E-1
Scans to average: 1
Electric dark correction enabled: true
Nonlinearity correction enabled: false
Boxcar width: 0
XAxis mode: Wavelengths
Number of Pixels in Spectrum: 2048
>>>>>Begin Spectral Data<<<<<
223.165	-11.25
223.4	-11.25
223.635	-11.25
223.869	-18.25
224.104	-12.25
224.338	-21.25
224.573	-18.25
224.808	-10.25
225.042	-1.25
225.277	-4.25
225.511	-19.25
225.746	1.75
225.98	19.75
226.215	9.75
226.449	10.75
226.683	9.75
226.918	24.75
227.152	39.75
227.387	24.75
227.621	31.75
227.856	33.75
228.09	41.75
228.324	22.75
228.559	67.75
228.793	73.75
229.027	107.75
229.262	121.75
229.496	121.75
229.73	127.75
229.964	137.75
230.199	128.75
230.433	115.75
230.667	103.75
230.901	109.75
231.136	122.75
231.37	109.75
231.604	116.75
231.838	117.75
232.072	118.75
232.306	113.75
232.541	118.75
232.775	124.75
233.009	108.75
233.243	118.75
233.477	133.75
233.711	122.75
233.945	121.75
234.179	121.75
234.413	116.75
234.647	128.75
234.881	106.75
235.115	115.75
235.349	105.75
235.583	127.75
235.817	127.75
236.051	133.75
236.285	112.75
236.519	131.75
236.753	125.75
236.987	145.75
237.221	168.75
237.455	218.75
237.689	163.75
237.922	138.75
238.156	128.75
238.39	135.75
238.624	128.75
238.858	117.75
239.091	115.75
239.325	133.75
239.559	141.75
239.793	130.75
240.027	131.75
240.26	128.75
240.494	157.75
240.728	164.75
240.961	141.75
241.195	150.75
241.429	139.75
241.662	132.75
241.896	147.75
242.13	135.75
242.363	131.75
242.597	144.75
242.83	135.75
243.064	149.75
243.298	129.75
243.531	138.75
243.765	139.75
243.998	133.75
244.232	132.75
244.465	155.75
244.699	142.75
244.932	145.75
245.166	165.75
245.399	146.75
245.633	161.75
245.866	141.75
246.099	155.75
246.333	146.75
246.566	152.75
246.8	149.75
247.033	164.75
247.266	178.75
247.5	178.75
247.733	166.75
247.966	177.75
248.2	179.75
248.433	176.75
248.666	164.75
248.899	167.75
249.133	207.75
249.366	217.75
249.599	199.75
249.832	197.75
250.066	203.75
250.299	199.75
250.532	201.75
250.765	208.75
250.998	226.75
251.231	247.75
251.465	216.75
251.698	211.75
251.931	203.75
252.164	192.75
252.397	214.75
252.63	224.75
252.863	213.75
253.096	220.75
253.329	235.75
253.562	236.75
253.795	220.75
254.028	227.75
254.261	209.75
254.494	232.75
254.727	257.75
254.96	281.75
255.193	262.75
255.426	244.75
255.659	238.75
255.892	249.75
256.124	221.75
256.357	232.75
256.59	233.75
256.823	220.75
257.056	219.75
257.289	225.75
257.521	222.75
257.754	212.75
257.987	231.75
258.22	209.75
258.452	217.75
258.685	219.75
258.918	212.75
259.151	209.75
259.383	217.75
259.616	215.75
259.849	214.75
260.081	246.75
260.314	264.75
260.547	268.75
260.779	253.75
261.012	235.75
261.244	245.75
261.477	241.75
261.71	226.75
261.942	212.75
262.175	243.75
262.407	239.75
262.64	208.75
262.872	203.75
263.105	216.75
263.337	222.75
263.57	213.75
263.802	220.75
264.035	217.75
264.267	214.75
264.499	219.75
264.732	225.75
264.964	219.75
265.197	209.75
265.429	230.75
265.661	215.75
265.894	216.75
266.126	215.75
266.358	215.75
266.591	223.75
266.823	229.75
267.055	231.75
267.287	248.75
267.52	261.75
267.752	223.75
267.984	240.75
268.216	240.75
268.448	246.75
268.681	236.75
268.913	242.75
269.145	261.75
269.377	295.75
269.609	265.75
269.841	278.75
270.073	275.75
270.306	297.75
270.538	321.75
270.77	325.75
271.002	281.75
271.234	289.75
271.466	314.75
271.698	329.75
271.93	320.75
272.162	313.75
272.394	307.75
272.626	307.75
272.858	301.75
273.09	275.75
273.322	285.75
273.553	272.75
273.785	294.75
274.017	279.75
274.249	284.75
274.481	266.75
274.713	269.75
274.945	277.75
275.176	290.75
275.408	266.75
275.64	266.75
275.872	267.75
276.104	284.75
276.335	271.75
276.567	266.75
276.799	297.75
277.031	317.75
277.262	333.75
277.494	310.75
277.726	296.75
277.957	295.75
278.189	273.75
278.421	296.75
278.652	287.75
278.884	282.75
279.115	276.75
279.347	271.75
279.579	278.75
279.81	281.75
280.042	282.75
280.273	276.75
280.505	289.75
280.736	271.75
280.968	267.75
281.199	271.75
281.431	273.75
281.662	257.75
281.894	269.75
282.125	279.75
282.356	285.75
282.588	300.75
282.819	294.75
283.051	294.75
283.282	283.75
283.513	275.75
283.745	283.75
283.976	283.75
284.207	303.75
284.439	293.75
284.67	303.75
284.901	296.75
285.132	291.75
285.364	301.75
285.595	288.75
285.826	295.75
286.057	295.75
286.288	291.75
286.52	324.75
286.751	289.75
286.982	323.75
287.213	297.75
287.444	301.75
287.675	309.75
287.906	299.75
288.138	309.75
288.369	300.75
288.6	324.75
288.831	314.75
289.062	279.75
289.293	327.75
289.524	294.75
289.755	307.75
289.986	298.75
290.217	307.75
290.448	304.75
290.679	306.75
290.91	323.75
291.141	310.75
291.371	300.75
291.602	303.75
291.833	308.75
292.064	313.75
292.295	306.75
292.526	309.75
292.757	310.75
292.987	293.75
293.218	311.75
293.449	316.75
293.68	315.75
293.91	307.75
294.141	306.75
294.372	309.75
294.603	313.75
294.833	322.75
295.064	319.75
295.295	319.75
295.525	325.75
295.756	314.75
295.987	330.75
296.217	330.75
296.448	337.75
296.679	316.75
296.909	311.75
297.14	323.75
297.37	336.75
297.601	316.75
297.831	306.75
298.062	302.75
298.292	314.75
298.523	319.75
298.753	359.75
298.984	322.75
299.214	320.75
299.445	330.75
299.675	307.75
299.905	323.75
300.136	316.75
300.366	320.75
300.597	332.75
300.827	333.75
301.057	330.75
301.288	349.75
301.518	330.75
301.748	340.75
301.979	362.75
302.209	341.75
302.439	363.75
302.669	355.75
302.9	344.75
303.13	351.75
303.36	352.75
303.59	344.75
303.82	367.75
304.051	346.75
304.281	349.75
304.511	333.75
304.741	351.75
304.971	343.75
305.201	348.75
305.431	343.75
305.661	346.75
305.891	336.75
306.121	336.75
306.352	345.75
306.582	359.75
306.812	319.75
307.042	342.75
307.272	352.75
307.502	348.75
307.731	364.75
307.961	367.75
308.191	383.75
308.421	352.75
308.651	355.75
308.881	357.75
309.111	360.75
309.341	353.75
309.571	364.75
309.8	371.75
310.03	367.75
310.26	399.75
310.49	383.75
310.72	375.75
310.949	386.75
311.179	398.75
311.409	393.75
311.639	378.75
311.868	379.75
312.098	393.75
312.328	372.75
312.557	385.75
312.787	405.75
313.017	426.75
313.246	405.75
313.476	387.75
313.706	375.75
313.935	381.75
314.165	389.75
314.394	394.75
314.624	420.75
314.853	376.75
315.083	396.75
315.312	386.75
315.542	382.75
315.771	379.75
316.001	371.75
316.23	386.75
316.46	387.75
316.689	373.75
316.919	379.75
317.148	399.75
317.377	392.75
317.607	394.75
317.836	386.75
318.065	394.75
318.295	404.75
318.524	373.75
318.753	365.75
318.983	389.75
319.212	371.75
319.441	393.75
319.67	381.75
319.9	386.75
320.129	381.75
320.358	388.75
320.587	390.75
320.816	396.75
321.046	403.75
321.275	408.75
321.504	409.75
321.733	416.75
321.962	419.75
322.191	411.75
322.42	435.75
322.649	438.75
322.878	437.75
323.108	422.75
323.337	447.75
323.566	453.75
323.795	485.75
324.024	516.75
324.253	614.75
324.482	816.75
324.71	1185.75
324.939	1771.75
325.168	1557.75
325.397	817.75
325.626	563.75
325.855	539.75
326.084	490.75
326.313	486.75
326.542	480.75
326.77	476.75
326.999	576.75
327.228	733.75
327.457	1109.75
327.686	1351.75
327.914	905.75
328.143	612.75
328.372	574.75
328.6	530.75
328.829	534.75
329.058	533.75
329.287	525.75
329.515	519.75
329.744	478.75
329.972	482.75
330.201	496.75
330.43	527.75
330.658	548.75
330.887	570.75
331.115	563.75
331.344	485.75
331.572	485.75
331.801	498.75
332.03	495.75
332.258	468.75
332.486	459.75
332.715	486.75
332.943	473.75
333.172	481.75
333.4	486.75
333.629	500.75
333.857	495.75
334.085	507.75
334.314	519.75
334.542	555.75
334.771	542.75
334.999	516.75
335.227	495.75
335.455	472.75
335.684	492.75
335.912	482.75
336.14	481.75
336.369	468.75
336.597	486.75
336.825	472.75
337.053	466.75
337.281	437.75
337.51	459.75
337.738	466.75
337.966	452.75
338.194	455.75
338.422	454.75
338.65	456.75
338.878	467.75
339.106	452.75
339.334	464.75
339.562	458.75
339.79	436.75
340.018	463.75
340.246	433.75
340.474	435.75
340.702	438.75
340.93	437.75
341.158	440.75
341.386	433.75
341.614	443.75
341.842	451.75
342.07	431.75
342.298	422.75
342.526	415.75
342.754	429.75
342.981	405.75
343.209	434.75
343.437	459.75
343.665	450.75
343.893	463.75
344.12	476.75
344.348	471.75
344.576	467.75
344.804	454.75
345.031	457.75
345.259	465.75
345.487	465.75
345.714	448.75
345.942	457.75
346.17	462.75
346.397	435.75
346.625	436.75
346.853	461.75
347.08	427.75
347.308	440.75
347.535	433.75
347.763	434.75
347.99	438.75
348.218	453.75
348.445	452.75
348.673	437.75
348.9	419.75
349.128	421.75
349.355	428.75
349.583	415.75
349.81	419.75
350.037	420.75
350.265	422.75
350.492	424.75
350.72	427.75
350.947	428.75
351.174	437.75
351.402	447.75
351.629	451.75
351.856	441.75
352.083	450.75
352.311	442.75
352.538	445.75
352.765	456.75
352.992	437.75
353.22	434.75
353.447	405.75
353.674	443.75
353.901	406.75
354.128	426.75
354.355	406.75
354.583	404.75
354.81	415.75
355.037	408.75
355.264	396.75
355.491	416.75
355.718	416.75
355.945	419.75
356.172	420.75
356.399	425.75
356.626	393.75
356.853	423.75
357.08	402.75
357.307	428.75
357.534	415.75
357.761	413.75
357.988	426.75
358.215	418.75
358.441	401.75
358.668	418.75
358.895	431.75
359.122	428.75
359.349	417.75
359.576	463.75
359.802	458.75
360.029	476.75
360.256	469.75
360.483	459.75
360.709	451.75
360.936	439.75
361.163	434.75
361.39	436.75
361.616	448.75
361.843	434.75
362.07	435.75
362.296	443.75
362.523	426.75
362.749	434.75
362.976	420.75
363.203	437.75
363.429	427.75
363.656	439.75
363.882	417.75
364.109	423.75
364.335	425.75
364.562	416.75
364.788	426.75
365.015	430.75
365.241	439.75
365.468	423.75
365.694	407.75
365.92	433.75
366.147	424.75
366.373	422.75
366.599	433.75
366.826	423.75
367.052	419.75
367.278	423.75
367.505	423.75
367.731	435.75
367.957	427.75
368.184	415.75
368.41	447.75
368.636	448.75
368.862	448.75
369.089	445.75
369.315	435.75
369.541	434.75
369.767	442.75
369.993	440.75
370.219	434.75
370.445	420.75
370.672	448.75
370.898	417.75
371.124	419.75
371.35	429.75
371.576	433.75
371.802	429.75
372.028	442.75
372.254	428.75
372.48	431.75
372.706	425.75
372.932	447.75
373.158	439.75
373.384	437.75
373.61	434.75
373.835	426.75
374.061	443.75
374.287	453.75
374.513	465.75
374.739	449.75
374.965	456.75
375.191	467.75
375.416	467.75
375.642	450.75
375.868	457.75
376.094	436.75
376.319	436.75
376.545	426.75
376.771	438.75
376.997	442.75
377.222	427.75
377.448	450.75
377.674	414.75
377.899	418.75
378.125	455.75
378.35	436.75
378.576	433.75
378.802	455.75
379.027	417.75
379.253	424.75
379.478	441.75
379.704	439.75
379.929	443.75
380.155	443.75
380.38	451.75
380.606	438.75
380.831	449.75
381.057	449.75
381.282	452.75
381.507	440.75
381.733	450.75
381.958	439.75
382.184	440.75
382.409	444.75
382.634	451.75
382.86	455.75
383.085	439.75
383.31	447.75
383.535	471.75
383.761	477.75
383.986	465.75
384.211	478.75
384.436	485.75
384.662	498.75
384.887	495.75
385.112	484.75
385.337	492.75
385.562	492.75
385.787	483.75
386.013	515.75
386.238	508.75
386.463	520.75
386.688	493.75
386.913	476.75
387.138	487.75
387.363	504.75
387.588	471.75
387.813	495.75
388.038	495.75
388.263	481.75
388.488	504.75
388.713	497.75
388.938	483.75
389.163	496.75
389.387	477.75
389.612	490.75
389.837	504.75
390.062	470.75
390.287	498.75
390.512	476.75
390.736	497.75
390.961	483.75
391.186	491.75
391.411	495.75
391.636	514.75
391.86	504.75
392.085	526.75
392.31	538.75
392.534	517.75
392.759	493.75
392.984	488.75
393.208	498.75
393.433	481.75
393.658	489.75
393.882	488.75
394.107	479.75
394.331	496.75
394.556	516.75
394.78	501.75
395.005	499.75
395.229	525.75
395.454	508.75
395.678	524.75
395.903	503.75
396.127	536.75
396.352	533.75
396.576	488.75
396.801	523.75
397.025	532.75
397.249	515.75
397.474	531.75
397.698	500.75
397.922	553.75
398.147	568.75
398.371	572.75
398.595	578.75
398.82	548.75
399.044	589.75
399.268	598.75
399.492	668.75
399.717	702.75
399.941	705.75
400.165	747.75
400.389	725.75
400.613	643.75
400.837	625.75
401.062	583.75
401.286	594.75
401.51	565.75
401.734	583.75
401.958	582.75
402.182	559.75
402.406	556.75
402.63	570.75
402.854	601.75
403.078	580.75
403.302	587.75
403.526	609.75
403.75	588.75
403.974	611.75
404.198	605.75
404.422	616.75
404.645	627.75
404.869	631.75
405.093	635.75
405.317	660.75
405.541	720.75
405.765	635.75
405.988	628.75
406.212	636.75
406.436	665.75
406.66	659.75
406.883	641.75
407.107	673.75
407.331	728.75
407.555	771.75
407.778	800.75
408.002	750.75
408.226	661.75
408.449	663.75
408.673	664.75
408.896	692.75
409.12	750.75
409.344	677.75
409.567	643.75
409.791	613.75
410.014	616.75
410.238	612.75
410.461	607.75
410.685	579.75
410.908	616.75
411.132	636.75
411.355	714.75
411.578	657.75
411.802	613.75
412.025	604.75
412.249	600.75
412.472	605.75
412.695	639.75
412.919	663.75
413.142	601.75
413.365	605.75
413.589	586.75
413.812	569.75
414.035	549.75
414.258	572.75
414.482	588.75
414.705	583.75
414.928	549.75
415.151	571.75
415.374	564.75
415.597	575.75
415.821	556.75
416.044	569.75
416.267	567.75
416.49	561.75
416.713	554.75
416.936	545.75
417.159	581.75
417.382	548.75
417.605	569.75
417.828	582.75
418.051	595.75
418.274	585.75
418.497	582.75
418.72	566.75
418.943	553.75
419.166	603.75
419.389	631.75
419.611	627.75
419.834	607.75
420.057	615.75
420.28	594.75
420.503	583.75
420.726	583.75
420.948	598.75
421.171	636.75
421.394	667.75
421.617	595.75
421.839	589.75
422.062	598.75
422.285	635.75
422.507	661.75
422.73	743.75
422.953	724.75
423.175	651.75
423.398	591.75
423.621	618.75
423.843	657.75
424.066	623.75
424.288	629.75
424.511	637.75
424.733	688.75
424.956	768.75
425.178	727.75
425.401	726.75
425.623	770.75
425.846	657.75
426.068	623.75
426.291	630.75
426.513	605.75
426.735	613.75
426.958	660.75
427.18	751.75
427.402	881.75
427.625	934.75
427.847	806.75
428.069	717.75
428.292	661.75
428.514	604.75
428.736	599.75
428.958	583.75
429.181	553.75
429.403	580.75
429.625	563.75
429.847	615.75
430.069	648.75
430.292	676.75
430.514	629.75
430.736	567.75
430.958	577.75
431.18	580.75
431.402	522.75
431.624	552.75
431.846	539.75
432.068	530.75
432.29	550.75
432.512	540.75
432.734	564.75
432.956	559.75
433.178	545.75
433.4	553.75
433.622	544.75
433.844	552.75
434.066	552.75
434.287	570.75
434.509	579.75
434.731	586.75
434.953	595.75
435.175	601.75
435.397	609.75
435.618	606.75
435.84	663.75
436.062	738.75
436.284	819.75
436.505	695.75
436.727	634.75
436.949	564.75
437.17	561.75
437.392	545.75
437.614	587.75
437.835	593.75
438.057	700.75
438.278	792.75
438.5	812.75
438.721	889.75
438.943	837.75
439.165	691.75
439.386	612.75
439.608	635.75
439.829	633.75
440.05	641.75
440.272	679.75
440.493	629.75
440.715	604.75
440.936	575.75
441.158	569.75
441.379	575.75
441.6	587.75
441.822	629.75
442.043	687.75
442.264	747.75
442.486	826.75
442.707	709.75
442.928	658.75
443.149	636.75
443.371	646.75
443.592	698.75
443.813	786.75
444.034	857.75
444.255	729.75
444.476	676.75
444.698	665.75
444.919	663.75
445.14	751.75
445.361	673.75
445.582	657.75
445.803	720.75
446.024	794.75
446.245	828.75
446.466	751.75
446.687	640.75
446.908	628.75
447.129	603.75
447.35	563.75
447.571	564.75
447.792	575.75
448.013	548.75
448.234	592.75
448.455	645.75
448.675	741.75
448.896	879.75
449.117	747.75
449.338	691.75
449.559	804.75
449.779	909.75
450	696.75
450.221	619.75
450.442	547.75
450.662	547.75
450.883	560.75
451.104	545.75
451.324	551.75
451.545	547.75
451.766	504.75
451.986	481.75
452.207	499.75
452.428	514.75
452.648	504.75
452.869	508.75
453.089	514.75
453.31	525.75
453.53	503.75
453.751	497.75
453.971	517.75
454.192	538.75
454.412	486.75
454.633	517.75
454.853	513.75
455.073	500.75
455.294	528.75
455.514	572.75
455.734	580.75
455.955	513.75
456.175	496.75
456.395	490.75
456.616	492.75
456.836	461.75
457.056	452.75
457.276	459.75
457.497	495.75
457.717	487.75
457.937	488.75
458.157	481.75
458.377	493.75
458.598	512.75
458.818	547.75
459.038	646.75
459.258	667.75
459.478	611.75
459.698	556.75
459.918	567.75
460.138	563.75
460.358	571.75
460.578	562.75
460.798	581.75
461.018	603.75
461.238	581.75
461.458	579.75
461.678	583.75
461.898	597.75
462.118	592.75
462.338	611.75
462.558	598.75
462.777	598.75
462.997	623.75
463.217	659.75
463.437	652.75
463.657	632.75
463.876	616.75
464.096	621.75
464.316	612.75
464.536	625.75
464.755	629.75
464.975	611.75
465.195	628.75
465.414	671.75
465.634	629.75
465.854	571.75
466.073	597.75
466.293	580.75
466.512	546.75
466.732	533.75
466.951	537.75
467.171	525.75
467.391	528.75
467.61	525.75
467.829	532.75
468.049	522.75
468.268	539.75
468.488	527.75
468.707	531.75
468.927	508.75
469.146	498.75
469.365	516.75
469.585	511.75
469.804	522.75
470.023	549.75
470.243	546.75
470.462	568.75
470.681	542.75
470.901	531.75
471.12	547.75
471.339	548.75
471.558	545.75
471.777	534.75
471.997	531.75
472.216	534.75
472.435	561.75
472.654	546.75
472.873	544.75
473.092	522.75
473.311	543.75
473.53	559.75
473.749	523.75
473.968	573.75
474.187	665.75
474.406	671.75
474.625	584.75
474.844	555.75
475.063	545.75
475.282	532.75
475.501	526.75
475.72	538.75
475.939	541.75
476.158	541.75
476.377	553.75
476.596	562.75
476.814	547.75
477.033	573.75
477.252	555.75
477.471	561.75
477.69	582.75
477.908	575.75
478.127	613.75
478.346	585.75
478.564	602.75
478.783	609.75
479.002	621.75
479.22	632.75
479.439	651.75
479.658	644.75
479.876	626.75
480.095	649.75
480.313	697.75
480.532	691.75
480.751	661.75
480.969	649.75
481.188	705.75
481.406	761.75
481.624	653.75
481.843	667.75
482.061	634.75
482.28	614.75
482.498	628.75
482.717	639.75
482.935	632.75
483.153	634.75
483.372	619.75
483.59	623.75
483.808	625.75
484.027	626.75
484.245	639.75
484.463	612.75
484.681	653.75
484.9	635.75
485.118	632.75
485.336	654.75
485.554	667.75
485.772	646.75
485.99	631.75
486.209	652.75
486.427	668.75
486.645	671.75
486.863	683.75
487.081	661.75
487.299	679.75
487.517	653.75
487.735	660.75
487.953	682.75
488.171	674.75
488.389	647.75
488.607	671.75
488.825	677.75
489.043	682.75
489.261	680.75
489.479	676.75
489.696	675.75
489.914	720.75
490.132	687.75
490.35	709.75
490.568	710.75
490.786	724.75
491.003	716.75
491.221	737.75
491.439	760.75
491.657	765.75
491.874	771.75
492.092	763.75
492.31	771.75
492.527	774.75
492.745	753.75
492.963	801.75
493.18	755.75
493.398	789.75
493.615	805.75
493.833	803.75
494.05	789.75
494.268	793.75
494.485	791.75
494.703	788.75
494.92	785.75
495.138	785.75
495.355	791.75
495.573	789.75
495.79	789.75
496.008	815.75
496.225	815.75
496.442	780.75
496.66	808.75
496.877	815.75
497.094	835.75
497.312	841.75
497.529	835.75
497.746	834.75
497.963	847.75
498.181	846.75
498.398	864.75
498.615	900.75
498.832	931.75
499.049	952.75
499.267	987.75
499.484	998.75
499.701	1111.75
499.918	1088.75
500.135	1201.75
500.352	1247.75
500.569	1295.75
500.786	1268.75
501.003	1267.75
501.22	1223.75
501.437	1152.75
501.654	1092.75
501.871	1058.75
502.088	1014.75
502.305	967.75
502.522	931.75
502.739	936.75
502.956	887.75
503.172	880.75
503.389	844.75
503.606	839.75
503.823	839.75
504.04	808.75
504.256	825.75
504.473	811.75
504.69	822.75
504.907	812.75
505.123	769.75
505.34	776.75
505.557	741.75
505.773	773.75
505.99	779.75
506.207	756.75
506.423	739.75
506.64	725.75
506.856	738.75
507.073	727.75
507.289	720.75
507.506	736.75
507.722	743.75
507.939	728.75
508.155	712.75
508.372	723.75
508.588	739.75
508.805	709.75
509.021	688.75
509.238	693.75
509.454	704.75
509.67	719.75
509.887	705.75
510.103	689.75
510.319	677.75
510.536	726.75
510.752	1090.75
510.968	940.75
511.184	707.75
511.401	681.75
511.617	675.75
511.833	671.75
512.049	669.75
512.265	643.75
512.481	663.75
512.698	652.75
512.914	661.75
513.13	668.75
513.346	653.75
513.562	654.75
513.778	671.75
513.994	652.75
514.21	653.75
514.426	663.75
514.642	700.75
514.858	744.75
515.074	744.75
515.29	804.75
515.506	1104.75
515.721	976.75
515.937	732.75
516.153	700.75
516.369	691.75
516.585	694.75
516.801	700.75
517.016	712.75
517.232	734.75
517.448	704.75
517.664	692.75
517.879	736.75
518.095	715.75
518.311	691.75
518.527	689.75
518.742	687.75
518.958	670.75
519.173	674.75
519.389	661.75
519.605	665.75
519.82	664.75
520.036	673.75
520.251	672.75
520.467	683.75
520.682	674.75
520.898	684.75
521.113	680.75
521.329	709.75
521.544	790.75
521.76	903.75
521.975	1354.75
522.19	1339.75
522.406	840.75
522.621	670.75
522.836	634.75
523.052	620.75
523.267	603.75
523.482	603.75
523.698	587.75
523.913	607.75
524.128	607.75
524.343	604.75
524.559	567.75
524.774	569.75
524.989	582.75
525.204	594.75
525.419	561.75
525.634	573.75
525.849	554.75
526.064	567.75
526.28	568.75
526.495	565.75
526.71	556.75
526.925	541.75
527.14	554.75
527.355	533.75
527.57	553.75
527.785	555.75
527.999	549.75
528.214	515.75
528.429	572.75
528.644	537.75
528.859	542.75
529.074	533.75
529.289	550.75
529.503	651.75
529.718	625.75
529.933	568.75
530.148	555.75
530.363	551.75
530.577	532.75
530.792	535.75
531.007	526.75
531.221	541.75
531.436	533.75
531.651	539.75
531.865	521.75
532.08	543.75
532.295	540.75
532.509	526.75
532.724	531.75
532.938	513.75
533.153	539.75
533.367	525.75
533.582	537.75
533.796	528.75
534.011	520.75
534.225	517.75
534.44	524.75
534.654	534.75
534.868	521.75
535.083	524.75
535.297	536.75
535.511	525.75
535.726	498.75
535.94	525.75
536.154	530.75
536.369	512.75
536.583	516.75
536.797	521.75
537.011	501.75
537.225	499.75
537.44	524.75
537.654	500.75
537.868	492.75
538.082	507.75
538.296	497.75
538.51	496.75
538.724	512.75
538.938	509.75
539.153	487.75
539.367	525.75
539.581	511.75
539.795	492.75
540.009	517.75
540.222	503.75
540.436	491.75
540.65	498.75
540.864	511.75
541.078	534.75
541.292	515.75
541.506	515.75
541.72	491.75
541.934	510.75
542.147	521.75
542.361	529.75
542.575	488.75
542.789	506.75
543.002	511.75
543.216	500.75
543.43	500.75
543.644	504.75
543.857	503.75
544.071	513.75
544.285	521.75
544.498	509.75
544.712	492.75
544.925	505.75
545.139	498.75
545.352	513.75
545.566	516.75
545.779	544.75
545.993	534.75
546.206	513.75
546.42	496.75
546.633	485.75
546.847	513.75
547.06	521.75
547.274	490.75
547.487	500.75
547.7	492.75
547.914	491.75
548.127	497.75
548.34	481.75
548.554	490.75
548.767	492.75
548.98	474.75
549.193	501.75
549.407	532.75
549.62	512.75
549.833	503.75
550.046	511.75
550.259	517.75
550.473	493.75
550.686	480.75
550.899	466.75
551.112	489.75
551.325	487.75
551.538	474.75
551.751	461.75
551.964	489.75
552.177	494.75
552.39	481.75
552.603	497.75
552.816	512.75
553.029	499.75
553.242	475.75
553.455	514.75
553.667	525.75
553.88	539.75
554.093	502.75
554.306	504.75
554.519	512.75
554.732	525.75
554.944	501.75
555.157	485.75
555.37	482.75
555.583	468.75
555.795	475.75
556.008	468.75
556.221	465.75
556.433	444.75
556.646	439.75
556.859	431.75
557.071	445.75
557.284	452.75
557.496	456.75
557.709	448.75
557.921	450.75
558.134	436.75
558.346	421.75
558.559	444.75
558.771	423.75
558.984	434.75
559.196	462.75
559.409	458.75
559.621	444.75
559.833	447.75
560.046	413.75
560.258	443.75
560.47	441.75
560.683	440.75
560.895	435.75
561.107	427.75
561.32	439.75
561.532	425.75
561.744	431.75
561.956	426.75
562.168	433.75
562.381	434.75
562.593	444.75
562.805	443.75
563.017	431.75
563.229	438.75
563.441	443.75
563.653	431.75
563.865	444.75
564.077	450.75
564.289	453.75
564.501	444.75
564.713	467.75
564.925	485.75
565.137	488.75
565.349	452.75
565.561	481.75
565.773	478.75
565.985	503.75
566.197	514.75
566.408	547.75
566.62	542.75
566.832	563.75
567.044	559.75
567.255	604.75
567.467	582.75
567.679	602.75
567.891	612.75
568.102	599.75
568.314	605.75
568.526	556.75
568.737	551.75
568.949	540.75
569.161	504.75
569.372	482.75
569.584	463.75
569.795	450.75
570.007	451.75
570.218	471.75
570.43	439.75
570.641	432.75
570.853	450.75
571.064	433.75
571.276	413.75
571.487	415.75
571.698	434.75
571.91	413.75
572.121	424.75
572.333	421.75
572.544	406.75
572.755	415.75
572.966	397.75
573.178	383.75
573.389	391.75
573.6	411.75
573.811	386.75
574.023	400.75
574.234	385.75
574.445	392.75
574.656	388.75
574.867	378.75
575.078	375.75
575.289	364.75
575.501	373.75
575.712	352.75
575.923	346.75
576.134	368.75
576.345	347.75
576.556	371.75
576.767	390.75
576.978	374.75
577.188	369.75
577.399	353.75
577.61	352.75
577.821	362.75
578.032	355.75
578.243	394.75
578.454	495.75
578.665	433.75
578.875	366.75
579.086	334.75
579.297	337.75
579.508	326.75
579.718	350.75
579.929	335.75
580.14	332.75
580.35	355.75
580.561	352.75
580.772	347.75
580.982	348.75
581.193	332.75
581.403	326.75
581.614	322.75
581.825	324.75
582.035	340.75
582.246	327.75
582.456	329.75
582.667	325.75
582.877	342.75
583.087	327.75
583.298	315.75
583.508	321.75
583.719	327.75
583.929	321.75
584.139	336.75
584.35	330.75
584.56	356.75
584.77	312.75
584.981	335.75
585.191	339.75
585.401	351.75
585.611	307.75
585.821	315.75
586.032	330.75
586.242	316.75
586.452	320.75
586.662	315.75
586.872	310.75
587.082	324.75
587.292	311.75
587.502	318.75
587.713	311.75
587.923	330.75
588.133	332.75
588.343	327.75
588.553	330.75
588.762	309.75
588.972	313.75
589.182	333.75
589.392	335.75
589.602	328.75
589.812	311.75
590.022	321.75
590.232	343.75
590.441	334.75
590.651	334.75
590.861	328.75
591.071	324.75
591.281	335.75
591.49	317.75
591.7	337.75
591.91	339.75
592.119	328.75
592.329	345.75
592.539	362.75
592.748	351.75
592.958	355.75
593.167	352.75
593.377	370.75
593.587	374.75
593.796	354.75
594.006	367.75
594.215	351.75
594.424	365.75
594.634	360.75
594.843	368.75
595.053	349.75
595.262	343.75
595.472	337.75
595.681	335.75
595.89	313.75
596.1	321.75
596.309	308.75
596.518	314.75
596.727	295.75
596.937	319.75
597.146	307.75
597.355	309.75
597.564	288.75
597.774	298.75
597.983	293.75
598.192	276.75
598.401	296.75
598.61	293.75
598.819	303.75
599.028	292.75
599.237	297.75
599.446	291.75
599.655	299.75
599.864	295.75
600.073	300.75
600.282	301.75
600.491	298.75
600.7	292.75
600.909	306.75
601.118	281.75
601.327	296.75
601.536	298.75
601.745	267.75
601.953	295.75
602.162	277.75
602.371	284.75
602.58	269.75
602.789	292.75
602.997	281.75
603.206	286.75
603.415	277.75
603.623	279.75
603.832	277.75
604.041	255.75
604.249	256.75
604.458	251.75
604.666	267.75
604.875	269.75
605.084	265.75
605.292	275.75
605.501	287.75
605.709	269.75
605.918	274.75
606.126	290.75
606.334	256.75
606.543	283.75
606.751	285.75
606.96	290.75
607.168	249.75
607.376	264.75
607.585	278.75
607.793	294.75
608.001	255.75
608.21	268.75
608.418	262.75
608.626	264.75
608.834	270.75
609.043	279.75
609.251	271.75
609.459	290.75
609.667	272.75
609.875	257.75
610.083	273.75
610.291	299.75
610.499	265.75
610.707	262.75
610.916	268.75
611.124	269.75
611.332	291.75
611.54	265.75
611.748	283.75
611.955	279.75
612.163	300.75
612.371	260.75
612.579	268.75
612.787	245.75
612.995	282.75
613.203	263.75
613.411	257.75
613.618	267.75
613.826	269.75
614.034	268.75
614.242	259.75
614.449	262.75
614.657	265.75
614.865	244.75
615.072	263.75
615.28	260.75
615.488	252.75
615.695	266.75
615.903	272.75
616.111	249.75
616.318	264.75
616.526	277.75
616.733	260.75
616.941	272.75
617.148	263.75
617.356	259.75
617.563	265.75
617.771	277.75
617.978	252.75
618.185	269.75
618.393	279.75
618.6	240.75
618.807	261.75
619.015	260.75
619.222	241.75
619.429	248.75
619.637	267.75
619.844	262.75
620.051	255.75
620.258	253.75
620.466	228.75
620.673	249.75
620.88	257.75
621.087	255.75
621.294	229.75
621.501	225.75
621.708	235.75
621.915	241.75
622.122	257.75
622.329	254.75
622.536	247.75
622.743	248.75
622.95	242.75
623.157	240.75
623.364	248.75
623.571	244.75
623.778	259.75
623.985	244.75
624.192	228.75
624.399	248.75
624.606	240.75
624.812	208.75
625.019	243.75
625.226	236.75
625.433	236.75
625.639	220.75
625.846	230.75
626.053	218.75
626.259	227.75
626.466	227.75
626.673	224.75
626.879	228.75
627.086	229.75
627.293	227.75
627.499	221.75
627.706	231.75
627.912	217.75
628.119	223.75
628.325	231.75
628.532	231.75
628.738	216.75
628.945	199.75
629.151	218.75
629.357	193.75
629.564	215.75
629.77	212.75
629.976	227.75
630.183	223.75
630.389	205.75
630.595	224.75
630.802	208.75
631.008	210.75
631.214	228.75
631.42	220.75
631.627	217.75
631.833	211.75
632.039	197.75
632.245	215.75
632.451	213.75
632.657	213.75
632.863	198.75
633.069	202.75
633.275	203.75
633.481	217.75
633.688	218.75
633.893	225.75
634.099	199.75
634.305	209.75
634.511	191.75
634.717	190.75
634.923	202.75
635.129	198.75
635.335	204.75
635.541	205.75
635.747	192.75
635.952	208.75
636.158	190.75
636.364	217.75
636.57	208.75
636.775	199.75
636.981	211.75
637.187	212.75
637.392	206.75
637.598	193.75
637.804	215.75
638.009	200.75
638.215	195.75
638.421	173.75
638.626	199.75
638.832	201.75
639.037	185.75
639.243	204.75
639.448	191.75
639.654	202.75
639.859	202.75
640.065	172.75
640.27	194.75
640.475	184.75
640.681	203.75
640.886	192.75
641.091	173.75
641.297	189.75
641.502	193.75
641.707	196.75
641.913	198.75
642.118	193.75
642.323	181.75
642.528	171.75
642.733	175.75
642.939	185.75
643.144	191.75
643.349	185.75
643.554	184.75
643.759	174.75
643.964	188.75
644.169	185.75
644.374	183.75
644.579	177.75
644.784	187.75
644.989	178.75
645.194	181.75
645.399	185.75
645.604	182.75
645.809	180.75
646.014	178.75
646.219	191.75
646.423	187.75
646.628	184.75
646.833	183.75
647.038	175.75
647.243	175.75
647.447	182.75
647.652	184.75
647.857	169.75
648.062	182.75
648.266	180.75
648.471	192.75
648.676	181.75
648.88	193.75
649.085	197.75
649.289	187.75
649.494	190.75
649.698	194.75
649.903	206.75
650.107	185.75
650.312	168.75
650.516	158.75
650.721	157.75
650.925	170.75
651.13	156.75
651.334	151.75
651.539	165.75
651.743	179.75
651.947	162.75
652.152	151.75
652.356	147.75
652.56	144.75
652.764	151.75
652.969	145.75
653.173	152.75
653.377	148.75
653.581	150.75
653.785	148.75
653.99	148.75
654.194	138.75
654.398	147.75
654.602	133.75
654.806	145.75
655.01	145.75
655.214	147.75
655.418	155.75
655.622	132.75
655.826	145.75
656.03	134.75
656.234	138.75
656.438	133.75
656.642	134.75
656.846	140.75
657.049	132.75
657.253	131.75
657.457	137.75
657.661	121.75
657.865	117.75
658.068	106.75
658.272	115.75
658.476	108.75
658.68	129.75
658.883	120.75
659.087	93.75
659.291	105.75
659.494	98.75
659.698	106.75
659.901	113.75
660.105	100.75
660.309	81.75
660.512	87.75
660.716	80.75
660.919	72.75
661.123	88.75
661.326	96.75
661.53	65.75
661.733	95.75
661.936	85.75
662.14	91.75
662.343	83.75
662.546	77.75
662.75	77.75
662.953	88.75
663.156	80.75
663.36	79.75
663.563	95.75
663.766	78.75
663.969	79.75
664.173	90.75
664.376	75.75
664.579	96.75
664.782	89.75
664.985	68.75
665.188	76.75
665.391	83.75
665.594	85.75
665.797	76.75
666	88.75
666.203	76.75
666.406	83.75
666.609	67.75
666.812	78.75
667.015	85.75
667.218	88.75
667.421	76.75
667.624	81.75
667.827	76.75
668.03	74.75
668.232	83.75
668.435	68.75
668.638	91.75
668.841	84.75
669.043	64.75
669.246	76.75
669.449	90.75
669.651	78.75
669.854	84.75
670.057	75.75
670.259	84.75
670.462	93.75
670.665	96.75
670.867	83.75
671.07	81.75
671.272	81.75
671.475	83.75
671.677	85.75
671.88	72.75
672.082	75.75
672.284	82.75
672.487	79.75
672.689	81.75
672.892	86.75
