Data from 1974.PennyLincolnUp.Lamp.En5.5.200Scan.071719.P1.Changed Mount._HRD10591_15-51-34-856.txt Node
Date: Thu Jul 18 15:51:34 EDT 2019
User: cochatt
Spectrometer: HR+D1059
Trigger mode: 1
Integration Time (sec): 1.000000E-1
Scans to average: 1
Electric dark correction enabled: true
Nonlinearity correction enabled: false
Boxcar width: 0
XAxis mode: Wavelengths
Number of Pixels in Spectrum: 2048
>>>>>Begin Spectral Data<<<<<
223.165	-26.62
223.4	-26.62
223.635	-26.62
223.869	-24.62
224.104	-24.62
224.338	-10.62
224.573	-8.62
224.808	-26.62
225.042	-5.62
225.277	-1.62
225.511	-17.62
225.746	6.38
225.98	5.38
226.215	18.38
226.449	16.38
226.683	29.38
226.918	27.38
227.152	43.38
227.387	37.38
227.621	39.38
227.856	50.38
228.09	35.38
228.324	40.38
228.559	54.38
228.793	76.38
229.027	110.38
229.262	99.38
229.496	107.38
229.73	122.38
229.964	129.38
230.199	119.38
230.433	96.38
230.667	125.38
230.901	114.38
231.136	102.38
231.37	122.38
231.604	111.38
231.838	122.38
232.072	109.38
232.306	117.38
232.541	117.38
232.775	111.38
233.009	112.38
233.243	100.38
233.477	129.38
233.711	128.38
233.945	114.38
234.179	115.38
234.413	111.38
234.647	112.38
234.881	121.38
235.115	108.38
235.349	129.38
235.583	117.38
235.817	98.38
236.051	127.38
236.285	131.38
236.519	123.38
236.753	117.38
236.987	133.38
237.221	175.38
237.455	203.38
237.689	156.38
237.922	133.38
238.156	134.38
238.39	139.38
238.624	117.38
238.858	121.38
239.091	122.38
239.325	133.38
239.559	128.38
239.793	120.38
240.027	131.38
240.26	121.38
240.494	152.38
240.728	151.38
240.961	142.38
241.195	142.38
241.429	144.38
241.662	141.38
241.896	132.38
242.13	146.38
242.363	126.38
242.597	128.38
242.83	143.38
243.064	140.38
243.298	157.38
243.531	141.38
243.765	149.38
243.998	142.38
244.232	136.38
244.465	141.38
244.699	142.38
244.932	150.38
245.166	165.38
245.399	142.38
245.633	155.38
245.866	143.38
246.099	149.38
246.333	155.38
246.566	159.38
246.8	149.38
247.033	162.38
247.266	156.38
247.5	166.38
247.733	175.38
247.966	186.38
248.2	159.38
248.433	178.38
248.666	186.38
248.899	168.38
249.133	183.38
249.366	195.38
249.599	187.38
249.832	188.38
250.066	198.38
250.299	188.38
250.532	187.38
250.765	201.38
250.998	214.38
251.231	220.38
251.465	190.38
251.698	198.38
251.931	200.38
252.164	194.38
252.397	199.38
252.63	206.38
252.863	207.38
253.096	201.38
253.329	229.38
253.562	227.38
253.795	215.38
254.028	208.38
254.261	220.38
254.494	221.38
254.727	257.38
254.96	249.38
255.193	270.38
255.426	247.38
255.659	235.38
255.892	228.38
256.124	228.38
256.357	228.38
256.59	228.38
256.823	215.38
257.056	207.38
257.289	223.38
257.521	201.38
257.754	210.38
257.987	207.38
258.22	210.38
258.452	209.38
258.685	216.38
258.918	197.38
259.151	203.38
259.383	209.38
259.616	212.38
259.849	212.38
260.081	235.38
260.314	244.38
260.547	249.38
260.779	231.38
261.012	227.38
261.244	223.38
261.477	228.38
261.71	224.38
261.942	204.38
262.175	238.38
262.407	230.38
262.64	230.38
262.872	226.38
263.105	216.38
263.337	211.38
263.57	208.38
263.802	195.38
264.035	217.38
264.267	211.38
264.499	225.38
264.732	216.38
264.964	219.38
265.197	215.38
265.429	230.38
265.661	212.38
265.894	211.38
266.126	221.38
266.358	218.38
266.591	222.38
266.823	215.38
267.055	220.38
267.287	216.38
267.52	217.38
267.752	220.38
267.984	229.38
268.216	232.38
268.448	234.38
268.681	237.38
268.913	241.38
269.145	273.38
269.377	277.38
269.609	250.38
269.841	245.38
270.073	257.38
270.306	272.38
270.538	307.38
270.77	315.38
271.002	281.38
271.234	270.38
271.466	307.38
271.698	297.38
271.93	295.38
272.162	290.38
272.394	294.38
272.626	291.38
272.858	261.38
273.09	276.38
273.322	296.38
273.553	247.38
273.785	263.38
274.017	261.38
274.249	270.38
274.481	268.38
274.713	272.38
274.945	276.38
275.176	246.38
275.408	274.38
275.64	266.38
275.872	266.38
276.104	285.38
276.335	263.38
276.567	264.38
276.799	269.38
277.031	294.38
277.262	298.38
277.494	296.38
277.726	293.38
277.957	279.38
278.189	290.38
278.421	285.38
278.652	286.38
278.884	275.38
279.115	269.38
279.347	273.38
279.579	262.38
279.81	271.38
280.042	266.38
280.273	259.38
280.505	276.38
280.736	271.38
280.968	276.38
281.199	258.38
281.431	272.38
281.662	256.38
281.894	274.38
282.125	268.38
282.356	276.38
282.588	310.38
282.819	293.38
283.051	280.38
283.282	271.38
283.513	270.38
283.745	273.38
283.976	285.38
284.207	289.38
284.439	282.38
284.67	312.38
284.901	307.38
285.132	288.38
285.364	281.38
285.595	250.38
285.826	289.38
286.057	280.38
286.288	291.38
286.52	296.38
286.751	282.38
286.982	276.38
287.213	281.38
287.444	297.38
287.675	281.38
287.906	309.38
288.138	303.38
288.369	309.38
288.6	289.38
288.831	310.38
289.062	302.38
289.293	311.38
289.524	291.38
289.755	283.38
289.986	271.38
290.217	297.38
290.448	292.38
290.679	321.38
290.91	308.38
291.141	290.38
291.371	289.38
291.602	305.38
291.833	311.38
292.064	291.38
292.295	288.38
292.526	297.38
292.757	291.38
292.987	295.38
293.218	284.38
293.449	299.38
293.68	293.38
293.91	277.38
294.141	282.38
294.372	291.38
294.603	313.38
294.833	290.38
295.064	297.38
295.295	291.38
295.525	302.38
295.756	307.38
295.987	313.38
296.217	318.38
296.448	343.38
296.679	309.38
296.909	291.38
297.14	316.38
297.37	290.38
297.601	319.38
297.831	318.38
298.062	300.38
298.292	310.38
298.523	298.38
298.753	317.38
298.984	302.38
299.214	317.38
299.445	315.38
299.675	334.38
299.905	331.38
300.136	311.38
300.366	321.38
300.597	328.38
300.827	338.38
301.057	319.38
301.288	322.38
301.518	317.38
301.748	317.38
301.979	328.38
302.209	341.38
302.439	326.38
302.669	343.38
302.9	301.38
303.13	333.38
303.36	329.38
303.59	331.38
303.82	349.38
304.051	336.38
304.281	320.38
304.511	349.38
304.741	326.38
304.971	331.38
305.201	324.38
305.431	332.38
305.661	333.38
305.891	329.38
306.121	331.38
306.352	322.38
306.582	341.38
306.812	344.38
307.042	340.38
307.272	317.38
307.502	337.38
307.731	342.38
307.961	350.38
308.191	347.38
308.421	347.38
308.651	353.38
308.881	342.38
309.111	355.38
309.341	327.38
309.571	358.38
309.8	361.38
310.03	356.38
310.26	357.38
310.49	377.38
310.72	381.38
310.949	378.38
311.179	384.38
311.409	361.38
311.639	353.38
311.868	363.38
312.098	361.38
312.328	353.38
312.557	364.38
312.787	416.38
313.017	374.38
313.246	379.38
313.476	356.38
313.706	363.38
313.935	379.38
314.165	398.38
314.394	381.38
314.624	390.38
314.853	378.38
315.083	364.38
315.312	369.38
315.542	355.38
315.771	370.38
316.001	393.38
316.23	368.38
316.46	358.38
316.689	361.38
316.919	369.38
317.148	393.38
317.377	373.38
317.607	374.38
317.836	387.38
318.065	358.38
318.295	391.38
318.524	381.38
318.753	362.38
318.983	369.38
319.212	364.38
319.441	369.38
319.67	376.38
319.9	390.38
320.129	365.38
320.358	374.38
320.587	383.38
320.816	395.38
321.046	381.38
321.275	394.38
321.504	380.38
321.733	392.38
321.962	381.38
322.191	403.38
322.42	405.38
322.649	407.38
322.878	410.38
323.108	418.38
323.337	433.38
323.566	439.38
323.795	462.38
324.024	477.38
324.253	556.38
324.482	721.38
324.71	1054.38
324.939	1613.38
325.168	1399.38
325.397	728.38
325.626	543.38
325.855	467.38
326.084	442.38
326.313	446.38
326.542	448.38
326.77	467.38
326.999	536.38
327.228	678.38
327.457	993.38
327.686	1211.38
327.914	851.38
328.143	588.38
328.372	513.38
328.6	488.38
328.829	497.38
329.058	487.38
329.287	506.38
329.515	463.38
329.744	483.38
329.972	456.38
330.201	464.38
330.43	510.38
330.658	513.38
330.887	536.38
331.115	505.38
331.344	483.38
331.572	471.38
331.801	444.38
332.03	465.38
332.258	459.38
332.486	453.38
332.715	459.38
332.943	456.38
333.172	424.38
333.4	452.38
333.629	483.38
333.857	469.38
334.085	478.38
334.314	484.38
334.542	512.38
334.771	516.38
334.999	477.38
335.227	472.38
335.455	468.38
335.684	456.38
335.912	462.38
336.14	457.38
336.369	450.38
336.597	457.38
336.825	485.38
337.053	459.38
337.281	449.38
337.51	430.38
337.738	449.38
337.966	443.38
338.194	446.38
338.422	447.38
338.65	442.38
338.878	449.38
339.106	438.38
339.334	435.38
339.562	440.38
339.79	438.38
340.018	416.38
340.246	417.38
340.474	433.38
340.702	432.38
340.93	438.38
341.158	423.38
341.386	444.38
341.614	417.38
341.842	427.38
342.07	439.38
342.298	413.38
342.526	422.38
342.754	421.38
342.981	427.38
343.209	434.38
343.437	434.38
343.665	436.38
343.893	447.38
344.12	468.38
344.348	441.38
344.576	461.38
344.804	445.38
345.031	421.38
345.259	436.38
345.487	450.38
345.714	454.38
345.942	414.38
346.17	417.38
346.397	423.38
346.625	422.38
346.853	409.38
347.08	426.38
347.308	428.38
347.535	399.38
347.763	429.38
347.99	431.38
348.218	413.38
348.445	418.38
348.673	423.38
348.9	419.38
349.128	418.38
349.355	413.38
349.583	398.38
349.81	394.38
350.037	411.38
350.265	391.38
350.492	411.38
350.72	404.38
350.947	406.38
351.174	444.38
351.402	410.38
351.629	423.38
351.856	421.38
352.083	417.38
352.311	404.38
352.538	436.38
352.765	428.38
352.992	417.38
353.22	414.38
353.447	411.38
353.674	404.38
353.901	412.38
354.128	395.38
354.355	421.38
354.583	396.38
354.81	390.38
355.037	417.38
355.264	411.38
355.491	397.38
355.718	395.38
355.945	397.38
356.172	376.38
356.399	398.38
356.626	393.38
356.853	414.38
357.08	412.38
357.307	423.38
357.534	400.38
357.761	399.38
357.988	397.38
358.215	404.38
358.441	412.38
358.668	413.38
358.895	397.38
359.122	413.38
359.349	410.38
359.576	419.38
359.802	428.38
360.029	419.38
360.256	457.38
360.483	453.38
360.709	420.38
360.936	419.38
361.163	423.38
361.39	418.38
361.616	403.38
361.843	410.38
362.07	404.38
362.296	425.38
362.523	421.38
362.749	411.38
362.976	446.38
363.203	433.38
363.429	394.38
363.656	394.38
363.882	407.38
364.109	420.38
364.335	396.38
364.562	388.38
364.788	408.38
365.015	440.38
365.241	413.38
365.468	424.38
365.694	433.38
365.92	415.38
366.147	431.38
366.373	407.38
366.599	413.38
366.826	402.38
367.052	411.38
367.278	417.38
367.505	414.38
367.731	414.38
367.957	397.38
368.184	404.38
368.41	426.38
368.636	455.38
368.862	418.38
369.089	390.38
369.315	427.38
369.541	421.38
369.767	414.38
369.993	411.38
370.219	407.38
370.445	410.38
370.672	401.38
370.898	423.38
371.124	417.38
371.35	420.38
371.576	405.38
371.802	430.38
372.028	426.38
372.254	439.38
372.48	412.38
372.706	437.38
372.932	451.38
373.158	460.38
373.384	434.38
373.61	418.38
373.835	424.38
374.061	438.38
374.287	416.38
374.513	413.38
374.739	439.38
374.965	455.38
375.191	443.38
375.416	441.38
375.642	437.38
375.868	442.38
376.094	423.38
376.319	405.38
376.545	418.38
376.771	429.38
376.997	444.38
377.222	422.38
377.448	417.38
377.674	409.38
377.899	426.38
378.125	441.38
378.35	417.38
378.576	434.38
378.802	413.38
379.027	427.38
379.253	433.38
379.478	419.38
379.704	434.38
379.929	425.38
380.155	420.38
380.38	425.38
380.606	440.38
380.831	419.38
381.057	425.38
381.282	437.38
381.507	444.38
381.733	435.38
381.958	419.38
382.184	447.38
382.409	413.38
382.634	427.38
382.86	429.38
383.085	427.38
383.31	435.38
383.535	430.38
383.761	456.38
383.986	456.38
384.211	443.38
384.436	472.38
384.662	469.38
384.887	452.38
385.112	471.38
385.337	445.38
385.562	467.38
385.787	456.38
386.013	477.38
386.238	458.38
386.463	487.38
386.688	451.38
386.913	474.38
387.138	486.38
387.363	471.38
387.588	494.38
387.813	466.38
388.038	460.38
388.263	467.38
388.488	495.38
388.713	498.38
388.938	507.38
389.163	473.38
389.387	476.38
389.612	483.38
389.837	483.38
390.062	473.38
390.287	473.38
390.512	469.38
390.736	486.38
390.961	468.38
391.186	487.38
391.411	498.38
391.636	497.38
391.86	470.38
392.085	507.38
392.31	499.38
392.534	485.38
392.759	500.38
392.984	498.38
393.208	513.38
393.433	476.38
393.658	503.38
393.882	482.38
394.107	474.38
394.331	499.38
394.556	481.38
394.78	472.38
395.005	479.38
395.229	475.38
395.454	532.38
395.678	512.38
395.903	518.38
396.127	525.38
396.352	528.38
396.576	503.38
396.801	506.38
397.025	506.38
397.249	516.38
397.474	508.38
397.698	534.38
397.922	524.38
398.147	541.38
398.371	545.38
398.595	533.38
398.82	534.38
399.044	564.38
399.268	571.38
399.492	649.38
399.717	632.38
399.941	717.38
400.165	705.38
400.389	697.38
400.613	631.38
400.837	593.38
401.062	553.38
401.286	586.38
401.51	566.38
401.734	554.38
401.958	558.38
402.182	557.38
402.406	552.38
402.63	546.38
402.854	563.38
403.078	562.38
403.302	577.38
403.526	581.38
403.75	597.38
403.974	571.38
404.198	565.38
404.422	597.38
404.645	597.38
404.869	605.38
405.093	622.38
405.317	661.38
405.541	695.38
405.765	641.38
405.988	599.38
406.212	618.38
406.436	622.38
406.66	633.38
406.883	625.38
407.107	646.38
407.331	689.38
407.555	761.38
407.778	760.38
408.002	671.38
408.226	639.38
408.449	622.38
408.673	617.38
408.896	666.38
409.12	684.38
409.344	662.38
409.567	605.38
409.791	590.38
410.014	584.38
410.238	598.38
410.461	577.38
410.685	587.38
410.908	596.38
411.132	606.38
411.355	668.38
411.578	631.38
411.802	591.38
412.025	577.38
412.249	575.38
412.472	604.38
412.695	636.38
412.919	639.38
413.142	606.38
413.365	567.38
413.589	540.38
413.812	540.38
414.035	550.38
414.258	547.38
414.482	551.38
414.705	565.38
414.928	562.38
415.151	550.38
415.374	568.38
415.597	534.38
415.821	549.38
416.044	565.38
416.267	548.38
416.49	571.38
416.713	535.38
416.936	552.38
417.159	535.38
417.382	539.38
417.605	552.38
417.828	573.38
418.051	567.38
418.274	581.38
418.497	551.38
418.72	568.38
418.943	547.38
419.166	577.38
419.389	609.38
419.611	595.38
419.834	582.38
420.057	564.38
420.28	578.38
420.503	581.38
420.726	578.38
420.948	589.38
421.171	604.38
421.394	646.38
421.617	606.38
421.839	561.38
422.062	585.38
422.285	584.38
422.507	629.38
422.73	709.38
422.953	680.38
423.175	635.38
423.398	597.38
423.621	603.38
423.843	614.38
424.066	603.38
424.288	605.38
424.511	621.38
424.733	660.38
424.956	729.38
425.178	697.38
425.401	724.38
425.623	722.38
425.846	658.38
426.068	613.38
426.291	578.38
426.513	575.38
426.735	587.38
426.958	623.38
427.18	717.38
427.402	838.38
427.625	927.38
427.847	812.38
428.069	668.38
428.292	628.38
428.514	576.38
428.736	552.38
428.958	577.38
429.181	545.38
429.403	550.38
429.625	552.38
429.847	596.38
430.069	653.38
430.292	655.38
430.514	578.38
430.736	569.38
430.958	523.38
431.18	536.38
431.402	514.38
431.624	519.38
431.846	558.38
432.068	509.38
432.29	530.38
432.512	533.38
432.734	526.38
432.956	540.38
433.178	559.38
433.4	542.38
433.622	548.38
433.844	553.38
434.066	518.38
434.287	533.38
434.509	547.38
434.731	557.38
434.953	581.38
435.175	571.38
435.397	604.38
435.618	603.38
435.84	636.38
436.062	712.38
436.284	790.38
436.505	677.38
436.727	591.38
436.949	575.38
437.17	571.38
437.392	547.38
437.614	548.38
437.835	587.38
438.057	661.38
438.278	766.38
438.5	785.38
438.721	850.38
438.943	796.38
439.165	665.38
439.386	580.38
439.608	601.38
439.829	586.38
440.05	610.38
440.272	643.38
440.493	615.38
440.715	561.38
440.936	558.38
441.158	583.38
441.379	546.38
441.6	567.38
441.822	601.38
442.043	626.38
442.264	705.38
442.486	765.38
442.707	645.38
442.928	602.38
443.149	630.38
443.371	628.38
443.592	690.38
443.813	757.38
444.034	848.38
444.255	682.38
444.476	641.38
444.698	633.38
444.919	618.38
445.14	754.38
445.361	680.38
445.582	666.38
445.803	711.38
446.024	781.38
446.245	787.38
446.466	727.38
446.687	634.38
446.908	583.38
447.129	576.38
447.35	571.38
447.571	548.38
447.792	532.38
448.013	554.38
448.234	554.38
448.455	615.38
448.675	719.38
448.896	836.38
449.117	697.38
449.338	665.38
449.559	791.38
449.779	877.38
450	687.38
450.221	596.38
450.442	533.38
450.662	522.38
450.883	517.38
451.104	537.38
451.324	506.38
451.545	531.38
451.766	498.38
451.986	474.38
452.207	490.38
452.428	489.38
452.648	485.38
452.869	472.38
453.089	489.38
453.31	515.38
453.53	501.38
453.751	498.38
453.971	484.38
454.192	503.38
454.412	494.38
454.633	479.38
454.853	472.38
455.073	461.38
455.294	501.38
455.514	571.38
455.734	543.38
455.955	484.38
456.175	471.38
456.395	452.38
456.616	466.38
456.836	468.38
457.056	484.38
457.276	461.38
457.497	443.38
457.717	463.38
457.937	477.38
458.157	491.38
458.377	473.38
458.598	484.38
458.818	510.38
459.038	597.38
459.258	626.38
459.478	557.38
459.698	557.38
459.918	531.38
460.138	534.38
460.358	527.38
460.578	548.38
460.798	550.38
461.018	550.38
461.238	559.38
461.458	561.38
461.678	551.38
461.898	569.38
462.118	566.38
462.338	582.38
462.558	572.38
462.777	579.38
462.997	618.38
463.217	618.38
463.437	629.38
463.657	597.38
463.876	591.38
464.096	604.38
464.316	595.38
464.536	612.38
464.755	595.38
464.975	594.38
465.195	591.38
465.414	630.38
465.634	599.38
465.854	571.38
466.073	548.38
466.293	531.38
466.512	490.38
466.732	516.38
466.951	489.38
467.171	492.38
467.391	538.38
467.61	521.38
467.829	535.38
468.049	522.38
468.268	512.38
468.488	511.38
468.707	509.38
468.927	485.38
469.146	480.38
469.365	522.38
469.585	475.38
469.804	505.38
470.023	522.38
470.243	514.38
470.462	530.38
470.681	523.38
470.901	524.38
471.12	521.38
471.339	527.38
471.558	519.38
471.777	494.38
471.997	484.38
472.216	530.38
472.435	538.38
472.654	528.38
472.873	503.38
473.092	492.38
473.311	499.38
473.53	502.38
473.749	534.38
473.968	572.38
474.187	636.38
474.406	646.38
474.625	549.38
474.844	538.38
475.063	525.38
475.282	510.38
475.501	543.38
475.72	534.38
475.939	538.38
476.158	539.38
476.377	528.38
476.596	526.38
476.814	537.38
477.033	546.38
477.252	552.38
477.471	547.38
477.69	535.38
477.908	562.38
478.127	581.38
478.346	569.38
478.564	590.38
478.783	591.38
479.002	580.38
479.22	598.38
479.439	617.38
479.658	620.38
479.876	636.38
480.095	623.38
480.313	650.38
480.532	643.38
480.751	623.38
480.969	633.38
481.188	677.38
481.406	680.38
481.624	622.38
481.843	617.38
482.061	597.38
482.28	604.38
482.498	623.38
482.717	604.38
482.935	591.38
483.153	597.38
483.372	597.38
483.59	623.38
483.808	593.38
484.027	634.38
484.245	588.38
484.463	598.38
484.681	612.38
484.9	595.38
485.118	610.38
485.336	619.38
485.554	628.38
485.772	617.38
485.99	631.38
486.209	632.38
486.427	631.38
486.645	609.38
486.863	656.38
487.081	674.38
487.299	661.38
487.517	640.38
487.735	631.38
487.953	663.38
488.171	662.38
488.389	639.38
488.607	672.38
488.825	630.38
489.043	630.38
489.261	655.38
489.479	676.38
489.696	666.38
489.914	654.38
490.132	680.38
490.35	692.38
490.568	697.38
490.786	689.38
491.003	700.38
491.221	725.38
491.439	703.38
491.657	728.38
491.874	752.38
492.092	730.38
492.31	754.38
492.527	716.38
492.745	750.38
492.963	756.38
493.18	753.38
493.398	771.38
493.615	761.38
493.833	753.38
494.05	773.38
494.268	751.38
494.485	760.38
494.703	750.38
494.92	758.38
495.138	779.38
495.355	789.38
495.573	745.38
495.79	768.38
496.008	732.38
496.225	773.38
496.442	769.38
496.66	766.38
496.877	779.38
497.094	786.38
497.312	814.38
497.529	797.38
497.746	798.38
497.963	821.38
498.181	825.38
498.398	881.38
498.615	875.38
498.832	881.38
499.049	921.38
499.267	959.38
499.484	1014.38
499.701	1056.38
499.918	1100.38
500.135	1149.38
500.352	1221.38
500.569	1242.38
500.786	1248.38
501.003	1215.38
501.22	1174.38
501.437	1112.38
501.654	1045.38
501.871	1049.38
502.088	965.38
502.305	930.38
502.522	899.38
502.739	862.38
502.956	883.38
503.172	817.38
503.389	795.38
503.606	795.38
503.823	795.38
504.04	792.38
504.256	789.38
504.473	779.38
504.69	780.38
504.907	799.38
505.123	792.38
505.34	771.38
505.557	739.38
505.773	691.38
505.99	736.38
506.207	727.38
506.423	743.38
506.64	731.38
506.856	712.38
507.073	703.38
507.289	683.38
507.506	673.38
507.722	685.38
507.939	712.38
508.155	692.38
508.372	680.38
508.588	659.38
508.805	682.38
509.021	666.38
509.238	684.38
509.454	664.38
509.67	659.38
509.887	660.38
510.103	658.38
510.319	670.38
510.536	726.38
510.752	989.38
510.968	837.38
511.184	660.38
511.401	616.38
511.617	619.38
511.833	626.38
512.049	613.38
512.265	618.38
512.481	620.38
512.698	613.38
512.914	627.38
513.13	598.38
513.346	606.38
513.562	629.38
513.778	633.38
513.994	623.38
514.21	633.38
514.426	635.38
514.642	652.38
514.858	672.38
515.074	689.38
515.29	779.38
515.506	967.38
515.721	883.38
515.937	696.38
516.153	659.38
516.369	675.38
516.585	642.38
516.801	667.38
517.016	684.38
517.232	638.38
517.448	678.38
517.664	693.38
517.879	694.38
518.095	699.38
518.311	649.38
518.527	661.38
518.742	655.38
518.958	651.38
519.173	628.38
519.389	663.38
519.605	636.38
519.82	632.38
520.036	635.38
520.251	643.38
520.467	683.38
520.682	637.38
520.898	662.38
521.113	659.38
521.329	677.38
521.544	720.38
521.76	783.38
521.975	1121.38
522.19	1148.38
522.406	755.38
522.621	655.38
522.836	604.38
523.052	601.38
523.267	596.38
523.482	580.38
523.698	555.38
523.913	553.38
524.128	564.38
524.343	565.38
524.559	554.38
524.774	535.38
524.989	539.38
525.204	564.38
525.419	558.38
525.634	523.38
525.849	554.38
526.064	542.38
526.28	538.38
526.495	529.38
526.71	531.38
526.925	534.38
527.14	533.38
527.355	539.38
527.57	533.38
527.785	537.38
527.999	512.38
528.214	531.38
528.429	522.38
528.644	523.38
528.859	510.38
529.074	517.38
529.289	547.38
529.503	604.38
529.718	587.38
529.933	546.38
530.148	551.38
530.363	542.38
530.577	530.38
530.792	536.38
531.007	530.38
531.221	515.38
531.436	521.38
531.651	492.38
531.865	526.38
532.08	517.38
532.295	506.38
532.509	481.38
532.724	508.38
532.938	497.38
533.153	512.38
533.367	496.38
533.582	522.38
533.796	538.38
534.011	512.38
534.225	509.38
534.44	538.38
534.654	516.38
534.868	477.38
535.083	507.38
535.297	496.38
535.511	517.38
535.726	486.38
535.94	489.38
536.154	499.38
536.369	515.38
536.583	506.38
536.797	501.38
537.011	475.38
537.225	488.38
537.44	492.38
537.654	474.38
537.868	495.38
538.082	486.38
538.296	475.38
538.51	505.38
538.724	515.38
538.938	487.38
539.153	485.38
539.367	481.38
539.581	499.38
539.795	476.38
540.009	481.38
540.222	487.38
540.436	471.38
540.65	478.38
540.864	497.38
541.078	499.38
541.292	472.38
541.506	490.38
541.72	468.38
541.934	486.38
542.147	504.38
542.361	494.38
542.575	489.38
542.789	510.38
543.002	502.38
543.216	502.38
543.43	486.38
543.644	495.38
543.857	476.38
544.071	475.38
544.285	470.38
544.498	515.38
544.712	493.38
544.925	491.38
545.139	506.38
545.352	492.38
545.566	477.38
545.779	478.38
545.993	494.38
546.206	495.38
546.42	508.38
546.633	489.38
546.847	490.38
547.06	493.38
547.274	494.38
547.487	487.38
547.7	512.38
547.914	485.38
548.127	479.38
548.34	475.38
548.554	484.38
548.767	478.38
548.98	482.38
549.193	505.38
549.407	471.38
549.62	492.38
549.833	490.38
550.046	485.38
550.259	484.38
550.473	464.38
550.686	484.38
550.899	469.38
551.112	473.38
551.325	461.38
551.538	473.38
551.751	457.38
551.964	484.38
552.177	476.38
552.39	475.38
552.603	491.38
552.816	482.38
553.029	509.38
553.242	521.38
553.455	487.38
553.667	508.38
553.88	506.38
554.093	509.38
554.306	510.38
554.519	487.38
554.732	475.38
554.944	478.38
555.157	449.38
555.37	464.38
555.583	457.38
555.795	450.38
556.008	483.38
556.221	427.38
556.433	442.38
556.646	458.38
556.859	429.38
557.071	437.38
557.284	454.38
557.496	435.38
557.709	434.38
557.921	423.38
558.134	425.38
558.346	422.38
558.559	411.38
558.771	416.38
558.984	429.38
559.196	421.38
559.409	439.38
559.621	435.38
559.833	431.38
560.046	418.38
560.258	423.38
560.47	410.38
560.683	401.38
560.895	417.38
561.107	428.38
561.32	434.38
561.532	457.38
561.744	436.38
561.956	441.38
562.168	438.38
562.381	458.38
562.593	421.38
562.805	433.38
563.017	436.38
563.229	430.38
563.441	430.38
563.653	443.38
563.865	445.38
564.077	453.38
564.289	455.38
564.501	446.38
564.713	468.38
564.925	457.38
565.137	468.38
565.349	464.38
565.561	460.38
565.773	489.38
565.985	469.38
566.197	510.38
566.408	531.38
566.62	521.38
566.832	566.38
567.044	567.38
567.255	575.38
567.467	548.38
567.679	599.38
567.891	605.38
568.102	594.38
568.314	582.38
568.526	567.38
568.737	547.38
568.949	516.38
569.161	483.38
569.372	461.38
569.584	470.38
569.795	443.38
570.007	455.38
570.218	473.38
570.43	455.38
570.641	427.38
570.853	452.38
571.064	420.38
571.276	425.38
571.487	422.38
571.698	400.38
571.91	410.38
572.121	402.38
572.333	394.38
572.544	400.38
572.755	371.38
572.966	386.38
573.178	368.38
573.389	371.38
573.6	362.38
573.811	377.38
574.023	344.38
574.234	383.38
574.445	389.38
574.656	382.38
574.867	375.38
575.078	336.38
575.289	361.38
575.501	380.38
575.712	369.38
575.923	375.38
576.134	364.38
576.345	379.38
576.556	349.38
576.767	372.38
576.978	344.38
577.188	350.38
577.399	360.38
577.61	322.38
577.821	346.38
578.032	322.38
578.243	358.38
578.454	468.38
578.665	398.38
578.875	351.38
579.086	336.38
579.297	354.38
579.508	321.38
579.718	350.38
579.929	325.38
580.14	343.38
580.35	336.38
580.561	327.38
580.772	333.38
580.982	338.38
581.193	339.38
581.403	340.38
581.614	335.38
581.825	332.38
582.035	334.38
582.246	324.38
582.456	332.38
582.667	328.38
582.877	317.38
583.087	353.38
583.298	345.38
583.508	317.38
583.719	314.38
583.929	328.38
584.139	330.38
584.35	321.38
584.56	309.38
584.77	323.38
584.981	307.38
585.191	330.38
585.401	322.38
585.611	315.38
585.821	316.38
586.032	318.38
586.242	321.38
586.452	321.38
586.662	342.38
586.872	315.38
587.082	310.38
587.292	338.38
587.502	322.38
587.713	321.38
587.923	314.38
588.133	338.38
588.343	332.38
588.553	314.38
588.762	315.38
588.972	301.38
589.182	316.38
589.392	318.38
589.602	302.38
589.812	328.38
590.022	328.38
590.232	315.38
590.441	300.38
590.651	317.38
590.861	330.38
591.071	311.38
591.281	319.38
591.49	320.38
591.7	334.38
591.91	334.38
592.119	327.38
592.329	332.38
592.539	342.38
592.748	331.38
592.958	365.38
593.167	360.38
593.377	373.38
593.587	356.38
593.796	362.38
594.006	349.38
594.215	354.38
594.424	369.38
594.634	355.38
594.843	350.38
595.053	343.38
595.262	333.38
595.472	334.38
595.681	345.38
595.89	322.38
596.1	315.38
596.309	324.38
596.518	314.38
596.727	323.38
596.937	323.38
597.146	293.38
597.355	299.38
597.564	309.38
597.774	295.38
597.983	299.38
598.192	299.38
598.401	301.38
598.61	302.38
598.819	290.38
599.028	282.38
599.237	289.38
599.446	276.38
599.655	303.38
599.864	290.38
600.073	286.38
600.282	272.38
600.491	293.38
600.7	271.38
600.909	284.38
601.118	282.38
601.327	278.38
601.536	274.38
601.745	292.38
601.953	301.38
602.162	309.38
602.371	270.38
602.58	278.38
602.789	269.38
602.997	278.38
603.206	278.38
603.415	276.38
603.623	286.38
603.832	276.38
604.041	277.38
604.249	274.38
604.458	261.38
604.666	270.38
604.875	270.38
605.084	267.38
605.292	268.38
605.501	263.38
605.709	267.38
605.918	277.38
606.126	277.38
606.334	265.38
606.543	272.38
606.751	267.38
606.96	288.38
607.168	278.38
607.376	283.38
607.585	272.38
607.793	268.38
608.001	279.38
608.21	262.38
608.418	264.38
608.626	277.38
608.834	266.38
609.043	270.38
609.251	273.38
609.459	268.38
609.667	267.38
609.875	272.38
610.083	261.38
610.291	279.38
610.499	275.38
610.707	268.38
610.916	266.38
611.124	271.38
611.332	271.38
611.54	277.38
611.748	292.38
611.955	247.38
612.163	264.38
612.371	275.38
612.579	261.38
612.787	256.38
612.995	282.38
613.203	255.38
613.411	269.38
613.618	271.38
613.826	264.38
614.034	262.38
614.242	267.38
614.449	256.38
614.657	255.38
614.865	254.38
615.072	277.38
615.28	276.38
615.488	265.38
615.695	257.38
615.903	260.38
616.111	275.38
616.318	301.38
616.526	262.38
616.733	255.38
616.941	261.38
617.148	256.38
617.356	263.38
617.563	257.38
617.771	275.38
617.978	262.38
618.185	234.38
618.393	235.38
618.6	254.38
618.807	261.38
619.015	255.38
619.222	255.38
619.429	254.38
619.637	269.38
619.844	251.38
620.051	241.38
620.258	258.38
620.466	252.38
620.673	249.38
620.88	239.38
621.087	240.38
621.294	241.38
621.501	244.38
621.708	249.38
621.915	237.38
622.122	247.38
622.329	236.38
622.536	261.38
622.743	243.38
622.95	245.38
623.157	231.38
623.364	236.38
623.571	238.38
623.778	239.38
623.985	252.38
624.192	228.38
624.399	246.38
624.606	235.38
624.812	248.38
625.019	234.38
625.226	232.38
625.433	222.38
625.639	236.38
625.846	238.38
626.053	234.38
626.259	224.38
626.466	222.38
626.673	231.38
626.879	228.38
627.086	231.38
627.293	212.38
627.499	219.38
627.706	227.38
627.912	221.38
628.119	225.38
628.325	227.38
628.532	212.38
628.738	226.38
628.945	202.38
629.151	214.38
629.357	215.38
629.564	229.38
629.77	231.38
629.976	207.38
630.183	207.38
630.389	230.38
630.595	232.38
630.802	236.38
631.008	214.38
631.214	221.38
631.42	227.38
631.627	231.38
631.833	213.38
632.039	204.38
632.245	209.38
632.451	209.38
632.657	209.38
632.863	206.38
633.069	211.38
633.275	210.38
633.481	200.38
633.688	201.38
633.893	220.38
634.099	211.38
634.305	195.38
634.511	200.38
634.717	204.38
634.923	203.38
635.129	198.38
635.335	199.38
635.541	200.38
635.747	198.38
635.952	210.38
636.158	211.38
636.364	193.38
636.57	206.38
636.775	212.38
636.981	171.38
637.187	206.38
637.392	194.38
637.598	210.38
637.804	207.38
638.009	193.38
638.215	186.38
638.421	184.38
638.626	193.38
638.832	181.38
639.037	184.38
639.243	185.38
639.448	189.38
639.654	198.38
639.859	204.38
640.065	186.38
640.27	200.38
640.475	212.38
640.681	186.38
640.886	197.38
641.091	184.38
641.297	173.38
641.502	194.38
641.707	201.38
641.913	190.38
642.118	189.38
642.323	181.38
642.528	186.38
642.733	186.38
642.939	191.38
643.144	182.38
643.349	177.38
643.554	181.38
643.759	180.38
643.964	166.38
644.169	168.38
644.374	172.38
644.579	179.38
644.784	173.38
644.989	165.38
645.194	181.38
645.399	177.38
645.604	185.38
645.809	181.38
646.014	170.38
646.219	175.38
646.423	163.38
646.628	172.38
646.833	180.38
647.038	197.38
647.243	193.38
647.447	185.38
647.652	183.38
647.857	179.38
648.062	184.38
648.266	186.38
648.471	188.38
648.676	196.38
648.88	185.38
649.085	185.38
649.289	181.38
649.494	202.38
649.698	201.38
649.903	180.38
650.107	193.38
650.312	170.38
650.516	170.38
650.721	171.38
650.925	171.38
651.13	149.38
651.334	153.38
651.539	139.38
651.743	170.38
651.947	154.38
652.152	161.38
652.356	154.38
652.56	157.38
652.764	161.38
652.969	161.38
653.173	147.38
653.377	153.38
653.581	155.38
653.785	154.38
653.99	147.38
654.194	151.38
654.398	131.38
654.602	147.38
654.806	136.38
655.01	157.38
655.214	153.38
655.418	132.38
655.622	124.38
655.826	145.38
656.03	142.38
656.234	153.38
656.438	140.38
656.642	156.38
656.846	127.38
657.049	127.38
657.253	141.38
657.457	125.38
657.661	129.38
657.865	120.38
658.068	123.38
658.272	111.38
658.476	111.38
658.68	126.38
658.883	117.38
659.087	91.38
659.291	105.38
659.494	98.38
659.698	111.38
659.901	102.38
660.105	114.38
660.309	98.38
660.512	113.38
660.716	95.38
660.919	95.38
661.123	102.38
661.326	82.38
661.53	96.38
661.733	99.38
661.936	87.38
662.14	90.38
662.343	97.38
662.546	84.38
662.75	76.38
662.953	90.38
663.156	79.38
663.36	88.38
663.563	79.38
663.766	78.38
663.969	94.38
664.173	81.38
664.376	78.38
664.579	82.38
664.782	85.38
664.985	75.38
665.188	89.38
665.391	79.38
665.594	77.38
665.797	82.38
666	89.38
666.203	76.38
666.406	76.38
666.609	83.38
666.812	76.38
667.015	85.38
667.218	79.38
667.421	82.38
667.624	81.38
667.827	93.38
668.03	105.38
668.232	83.38
668.435	82.38
668.638	74.38
668.841	92.38
669.043	84.38
669.246	84.38
669.449	82.38
669.651	81.38
669.854	77.38
670.057	80.38
670.259	79.38
670.462	88.38
670.665	70.38
670.867	89.38
671.07	69.38
671.272	90.38
671.475	81.38
671.677	78.38
671.88	76.38
672.082	92.38
672.284	88.38
672.487	88.38
672.689	94.38
672.892	103.38
