Data from 1974.PennyLincolnUp.Lamp.En5.5.200Scan.071719.P1.Changed Mount._HRD10591_15-53-20-856.txt Node
Date: Thu Jul 18 15:53:20 EDT 2019
User: cochatt
Spectrometer: HR+D1059
Trigger mode: 1
Integration Time (sec): 1.000000E-1
Scans to average: 1
Electric dark correction enabled: true
Nonlinearity correction enabled: false
Boxcar width: 0
XAxis mode: Wavelengths
Number of Pixels in Spectrum: 2048
>>>>>Begin Spectral Data<<<<<
223.165	-14.31
223.4	-14.31
223.635	-14.31
223.869	-30.31
224.104	-6.31
224.338	-17.31
224.573	-13.31
224.808	-12.31
225.042	-6.31
225.277	2.69
225.511	-0.31
225.746	-10.31
225.98	-9.31
226.215	10.69
226.449	20.69
226.683	19.69
226.918	30.69
227.152	35.69
227.387	23.69
227.621	45.69
227.856	48.69
228.09	42.69
228.324	55.69
228.559	46.69
228.793	62.69
229.027	98.69
229.262	117.69
229.496	121.69
229.73	129.69
229.964	160.69
230.199	130.69
230.433	115.69
230.667	111.69
230.901	103.69
231.136	107.69
231.37	118.69
231.604	123.69
231.838	108.69
232.072	119.69
232.306	119.69
232.541	115.69
232.775	94.69
233.009	121.69
233.243	122.69
233.477	129.69
233.711	122.69
233.945	124.69
234.179	114.69
234.413	124.69
234.647	116.69
234.881	111.69
235.115	133.69
235.349	120.69
235.583	119.69
235.817	131.69
236.051	133.69
236.285	127.69
236.519	137.69
236.753	123.69
236.987	138.69
237.221	182.69
237.455	238.69
237.689	180.69
237.922	148.69
238.156	143.69
238.39	132.69
238.624	142.69
238.858	135.69
239.091	138.69
239.325	133.69
239.559	135.69
239.793	129.69
240.027	149.69
240.26	140.69
240.494	177.69
240.728	154.69
240.961	165.69
241.195	153.69
241.429	142.69
241.662	157.69
241.896	162.69
242.13	143.69
242.363	143.69
242.597	133.69
242.83	139.69
243.064	141.69
243.298	139.69
243.531	153.69
243.765	149.69
243.998	145.69
244.232	142.69
244.465	166.69
244.699	166.69
244.932	159.69
245.166	161.69
245.399	157.69
245.633	163.69
245.866	169.69
246.099	156.69
246.333	157.69
246.566	151.69
246.8	170.69
247.033	173.69
247.266	177.69
247.5	173.69
247.733	173.69
247.966	181.69
248.2	185.69
248.433	181.69
248.666	189.69
248.899	195.69
249.133	211.69
249.366	211.69
249.599	195.69
249.832	192.69
250.066	191.69
250.299	211.69
250.532	205.69
250.765	219.69
250.998	222.69
251.231	223.69
251.465	217.69
251.698	216.69
251.931	207.69
252.164	198.69
252.397	211.69
252.63	211.69
252.863	192.69
253.096	210.69
253.329	253.69
253.562	245.69
253.795	235.69
254.028	235.69
254.261	215.69
254.494	258.69
254.727	260.69
254.96	295.69
255.193	285.69
255.426	261.69
255.659	236.69
255.892	259.69
256.124	247.69
256.357	243.69
256.59	234.69
256.823	214.69
257.056	236.69
257.289	236.69
257.521	220.69
257.754	212.69
257.987	229.69
258.22	207.69
258.452	217.69
258.685	241.69
258.918	210.69
259.151	229.69
259.383	241.69
259.616	234.69
259.849	228.69
260.081	237.69
260.314	262.69
260.547	254.69
260.779	250.69
261.012	248.69
261.244	244.69
261.477	244.69
261.71	235.69
261.942	249.69
262.175	234.69
262.407	266.69
262.64	246.69
262.872	237.69
263.105	219.69
263.337	224.69
263.57	232.69
263.802	225.69
264.035	249.69
264.267	236.69
264.499	231.69
264.732	225.69
264.964	231.69
265.197	234.69
265.429	241.69
265.661	243.69
265.894	227.69
266.126	216.69
266.358	240.69
266.591	245.69
266.823	226.69
267.055	243.69
267.287	227.69
267.52	236.69
267.752	259.69
267.984	229.69
268.216	239.69
268.448	249.69
268.681	265.69
268.913	280.69
269.145	288.69
269.377	299.69
269.609	277.69
269.841	298.69
270.073	290.69
270.306	311.69
270.538	324.69
270.77	337.69
271.002	298.69
271.234	315.69
271.466	311.69
271.698	310.69
271.93	342.69
272.162	321.69
272.394	331.69
272.626	321.69
272.858	301.69
273.09	299.69
273.322	292.69
273.553	291.69
273.785	298.69
274.017	276.69
274.249	275.69
274.481	258.69
274.713	280.69
274.945	281.69
275.176	297.69
275.408	276.69
275.64	275.69
275.872	284.69
276.104	269.69
276.335	278.69
276.567	284.69
276.799	301.69
277.031	302.69
277.262	333.69
277.494	344.69
277.726	333.69
277.957	309.69
278.189	309.69
278.421	285.69
278.652	280.69
278.884	292.69
279.115	282.69
279.347	296.69
279.579	272.69
279.81	298.69
280.042	278.69
280.273	287.69
280.505	298.69
280.736	287.69
280.968	280.69
281.199	297.69
281.431	279.69
281.662	286.69
281.894	287.69
282.125	294.69
282.356	300.69
282.588	310.69
282.819	302.69
283.051	295.69
283.282	299.69
283.513	275.69
283.745	296.69
283.976	305.69
284.207	305.69
284.439	300.69
284.67	318.69
284.901	307.69
285.132	285.69
285.364	312.69
285.595	293.69
285.826	305.69
286.057	306.69
286.288	300.69
286.52	299.69
286.751	315.69
286.982	321.69
287.213	309.69
287.444	314.69
287.675	310.69
287.906	307.69
288.138	331.69
288.369	321.69
288.6	321.69
288.831	301.69
289.062	340.69
289.293	316.69
289.524	300.69
289.755	321.69
289.986	302.69
290.217	293.69
290.448	326.69
290.679	321.69
290.91	324.69
291.141	331.69
291.371	310.69
291.602	323.69
291.833	314.69
292.064	323.69
292.295	310.69
292.526	322.69
292.757	312.69
292.987	294.69
293.218	339.69
293.449	328.69
293.68	329.69
293.91	319.69
294.141	310.69
294.372	315.69
294.603	321.69
294.833	326.69
295.064	322.69
295.295	326.69
295.525	325.69
295.756	333.69
295.987	323.69
296.217	356.69
296.448	340.69
296.679	313.69
296.909	315.69
297.14	322.69
297.37	334.69
297.601	351.69
297.831	348.69
298.062	343.69
298.292	344.69
298.523	333.69
298.753	343.69
298.984	331.69
299.214	332.69
299.445	352.69
299.675	302.69
299.905	348.69
300.136	349.69
300.366	320.69
300.597	330.69
300.827	346.69
301.057	344.69
301.288	353.69
301.518	340.69
301.748	355.69
301.979	352.69
302.209	362.69
302.439	376.69
302.669	353.69
302.9	358.69
303.13	351.69
303.36	356.69
303.59	364.69
303.82	372.69
304.051	363.69
304.281	362.69
304.511	356.69
304.741	368.69
304.971	374.69
305.201	354.69
305.431	353.69
305.661	356.69
305.891	339.69
306.121	351.69
306.352	367.69
306.582	390.69
306.812	358.69
307.042	374.69
307.272	369.69
307.502	381.69
307.731	362.69
307.961	362.69
308.191	354.69
308.421	361.69
308.651	338.69
308.881	361.69
309.111	369.69
309.341	367.69
309.571	374.69
309.8	393.69
310.03	383.69
310.26	397.69
310.49	391.69
310.72	406.69
310.949	396.69
311.179	407.69
311.409	389.69
311.639	373.69
311.868	399.69
312.098	393.69
312.328	399.69
312.557	419.69
312.787	414.69
313.017	405.69
313.246	390.69
313.476	395.69
313.706	411.69
313.935	405.69
314.165	395.69
314.394	394.69
314.624	410.69
314.853	421.69
315.083	409.69
315.312	392.69
315.542	399.69
315.771	375.69
316.001	399.69
316.23	426.69
316.46	404.69
316.689	398.69
316.919	409.69
317.148	387.69
317.377	427.69
317.607	410.69
317.836	403.69
318.065	413.69
318.295	397.69
318.524	407.69
318.753	405.69
318.983	406.69
319.212	388.69
319.441	409.69
319.67	412.69
319.9	404.69
320.129	407.69
320.358	404.69
320.587	423.69
320.816	403.69
321.046	428.69
321.275	405.69
321.504	405.69
321.733	421.69
321.962	435.69
322.191	445.69
322.42	445.69
322.649	455.69
322.878	446.69
323.108	462.69
323.337	476.69
323.566	493.69
323.795	502.69
324.024	569.69
324.253	633.69
324.482	873.69
324.71	1299.69
324.939	1877.69
325.168	1669.69
325.397	870.69
325.626	619.69
325.855	529.69
326.084	511.69
326.313	509.69
326.542	495.69
326.77	532.69
326.999	626.69
327.228	790.69
327.457	1175.69
327.686	1457.69
327.914	950.69
328.143	664.69
328.372	587.69
328.6	566.69
328.829	555.69
329.058	539.69
329.287	548.69
329.515	559.69
329.744	511.69
329.972	541.69
330.201	514.69
330.43	566.69
330.658	585.69
330.887	585.69
331.115	563.69
331.344	538.69
331.572	515.69
331.801	505.69
332.03	522.69
332.258	514.69
332.486	495.69
332.715	478.69
332.943	485.69
333.172	486.69
333.4	493.69
333.629	513.69
333.857	538.69
334.085	522.69
334.314	556.69
334.542	545.69
334.771	574.69
334.999	540.69
335.227	514.69
335.455	503.69
335.684	512.69
335.912	483.69
336.14	489.69
336.369	473.69
336.597	481.69
336.825	484.69
337.053	501.69
337.281	469.69
337.51	477.69
337.738	462.69
337.966	467.69
338.194	473.69
338.422	490.69
338.65	472.69
338.878	474.69
339.106	463.69
339.334	476.69
339.562	471.69
339.79	482.69
340.018	449.69
340.246	453.69
340.474	470.69
340.702	482.69
340.93	460.69
341.158	465.69
341.386	469.69
341.614	469.69
341.842	463.69
342.07	470.69
342.298	467.69
342.526	463.69
342.754	447.69
342.981	439.69
343.209	454.69
343.437	473.69
343.665	470.69
343.893	475.69
344.12	484.69
344.348	501.69
344.576	487.69
344.804	476.69
345.031	483.69
345.259	474.69
345.487	485.69
345.714	468.69
345.942	430.69
346.17	459.69
346.397	468.69
346.625	445.69
346.853	439.69
347.08	458.69
347.308	450.69
347.535	463.69
347.763	443.69
347.99	463.69
348.218	439.69
348.445	451.69
348.673	448.69
348.9	448.69
349.128	440.69
349.355	446.69
349.583	430.69
349.81	434.69
350.037	448.69
350.265	437.69
350.492	441.69
350.72	441.69
350.947	449.69
351.174	446.69
351.402	473.69
351.629	451.69
351.856	438.69
352.083	461.69
352.311	482.69
352.538	462.69
352.765	477.69
352.992	445.69
353.22	439.69
353.447	448.69
353.674	452.69
353.901	443.69
354.128	441.69
354.355	455.69
354.583	426.69
354.81	429.69
355.037	426.69
355.264	427.69
355.491	434.69
355.718	424.69
355.945	437.69
356.172	419.69
356.399	441.69
356.626	428.69
356.853	429.69
357.08	421.69
357.307	434.69
357.534	441.69
357.761	429.69
357.988	423.69
358.215	429.69
358.441	430.69
358.668	411.69
358.895	429.69
359.122	430.69
359.349	441.69
359.576	434.69
359.802	451.69
360.029	485.69
360.256	509.69
360.483	477.69
360.709	462.69
360.936	449.69
361.163	436.69
361.39	456.69
361.616	443.69
361.843	461.69
362.07	457.69
362.296	454.69
362.523	447.69
362.749	478.69
362.976	443.69
363.203	453.69
363.429	437.69
363.656	416.69
363.882	409.69
364.109	458.69
364.335	447.69
364.562	451.69
364.788	454.69
365.015	424.69
365.241	451.69
365.468	446.69
365.694	443.69
365.92	457.69
366.147	427.69
366.373	426.69
366.599	418.69
366.826	443.69
367.052	453.69
367.278	430.69
367.505	435.69
367.731	444.69
367.957	429.69
368.184	447.69
368.41	454.69
368.636	439.69
368.862	460.69
369.089	429.69
369.315	439.69
369.541	440.69
369.767	441.69
369.993	416.69
370.219	444.69
370.445	459.69
370.672	451.69
370.898	443.69
371.124	451.69
371.35	451.69
371.576	422.69
371.802	433.69
372.028	433.69
372.254	446.69
372.48	464.69
372.706	454.69
372.932	459.69
373.158	486.69
373.384	441.69
373.61	450.69
373.835	456.69
374.061	427.69
374.287	468.69
374.513	471.69
374.739	453.69
374.965	454.69
375.191	467.69
375.416	457.69
375.642	462.69
375.868	439.69
376.094	456.69
376.319	461.69
376.545	459.69
376.771	453.69
376.997	439.69
377.222	443.69
377.448	449.69
377.674	443.69
377.899	454.69
378.125	454.69
378.35	458.69
378.576	445.69
378.802	460.69
379.027	467.69
379.253	458.69
379.478	415.69
379.704	428.69
379.929	425.69
380.155	463.69
380.38	447.69
380.606	430.69
380.831	461.69
381.057	462.69
381.282	463.69
381.507	462.69
381.733	469.69
381.958	458.69
382.184	482.69
382.409	452.69
382.634	474.69
382.86	450.69
383.085	471.69
383.31	474.69
383.535	471.69
383.761	472.69
383.986	490.69
384.211	490.69
384.436	462.69
384.662	487.69
384.887	495.69
385.112	486.69
385.337	502.69
385.562	493.69
385.787	497.69
386.013	508.69
386.238	517.69
386.463	516.69
386.688	508.69
386.913	527.69
387.138	511.69
387.363	499.69
387.588	523.69
387.813	483.69
388.038	492.69
388.263	490.69
388.488	499.69
388.713	501.69
388.938	495.69
389.163	490.69
389.387	486.69
389.612	492.69
389.837	493.69
390.062	532.69
390.287	524.69
390.512	498.69
390.736	505.69
390.961	519.69
391.186	515.69
391.411	485.69
391.636	509.69
391.86	522.69
392.085	549.69
392.31	509.69
392.534	504.69
392.759	533.69
392.984	542.69
393.208	520.69
393.433	521.69
393.658	490.69
393.882	505.69
394.107	515.69
394.331	531.69
394.556	506.69
394.78	526.69
395.005	521.69
395.229	524.69
395.454	554.69
395.678	513.69
395.903	540.69
396.127	569.69
396.352	558.69
396.576	526.69
396.801	541.69
397.025	522.69
397.249	555.69
397.474	552.69
397.698	557.69
397.922	568.69
398.147	566.69
398.371	585.69
398.595	547.69
398.82	579.69
399.044	602.69
399.268	622.69
399.492	671.69
399.717	714.69
399.941	737.69
400.165	741.69
400.389	734.69
400.613	669.69
400.837	620.69
401.062	579.69
401.286	609.69
401.51	607.69
401.734	582.69
401.958	609.69
402.182	597.69
402.406	607.69
402.63	601.69
402.854	594.69
403.078	595.69
403.302	614.69
403.526	642.69
403.75	632.69
403.974	626.69
404.198	604.69
404.422	626.69
404.645	648.69
404.869	635.69
405.093	646.69
405.317	698.69
405.541	714.69
405.765	681.69
405.988	656.69
406.212	639.69
406.436	647.69
406.66	654.69
406.883	656.69
407.107	694.69
407.331	756.69
407.555	809.69
407.778	800.69
408.002	724.69
408.226	678.69
408.449	679.69
408.673	656.69
408.896	700.69
409.12	715.69
409.344	693.69
409.567	663.69
409.791	630.69
410.014	631.69
410.238	621.69
410.461	621.69
410.685	635.69
410.908	650.69
411.132	653.69
411.355	710.69
411.578	669.69
411.802	630.69
412.025	610.69
412.249	631.69
412.472	657.69
412.695	680.69
412.919	651.69
413.142	610.69
413.365	594.69
413.589	622.69
413.812	598.69
414.035	584.69
414.258	581.69
414.482	596.69
414.705	606.69
414.928	603.69
415.151	581.69
415.374	604.69
415.597	583.69
415.821	579.69
416.044	566.69
416.267	579.69
416.49	572.69
416.713	565.69
416.936	569.69
417.159	568.69
417.382	586.69
417.605	591.69
417.828	585.69
418.051	597.69
418.274	611.69
418.497	574.69
418.72	571.69
418.943	593.69
419.166	617.69
419.389	669.69
419.611	641.69
419.834	612.69
420.057	634.69
420.28	620.69
420.503	584.69
420.726	613.69
420.948	627.69
421.171	656.69
421.394	683.69
421.617	627.69
421.839	597.69
422.062	606.69
422.285	603.69
422.507	670.69
422.73	747.69
422.953	728.69
423.175	635.69
423.398	652.69
423.621	632.69
423.843	655.69
424.066	649.69
424.288	646.69
424.511	666.69
424.733	719.69
424.956	819.69
425.178	760.69
425.401	767.69
425.623	783.69
425.846	689.69
426.068	632.69
426.291	633.69
426.513	656.69
426.735	643.69
426.958	676.69
427.18	757.69
427.402	902.69
427.625	952.69
427.847	858.69
428.069	744.69
428.292	692.69
428.514	635.69
428.736	607.69
428.958	608.69
429.181	618.69
429.403	583.69
429.625	602.69
429.847	635.69
430.069	695.69
430.292	692.69
430.514	622.69
430.736	604.69
430.958	596.69
431.18	572.69
431.402	554.69
431.624	575.69
431.846	571.69
432.068	570.69
432.29	579.69
432.512	567.69
432.734	601.69
432.956	597.69
433.178	592.69
433.4	569.69
433.622	568.69
433.844	569.69
434.066	542.69
434.287	562.69
434.509	566.69
434.731	607.69
434.953	595.69
435.175	601.69
435.397	627.69
435.618	647.69
435.84	678.69
436.062	754.69
436.284	841.69
436.505	709.69
436.727	659.69
436.949	616.69
437.17	603.69
437.392	587.69
437.614	580.69
437.835	633.69
438.057	721.69
438.278	811.69
438.5	826.69
438.721	892.69
438.943	863.69
439.165	709.69
439.386	644.69
439.608	651.69
439.829	618.69
440.05	666.69
440.272	697.69
440.493	667.69
440.715	629.69
440.936	614.69
441.158	623.69
441.379	615.69
441.6	638.69
441.822	630.69
442.043	663.69
442.264	768.69
442.486	837.69
442.707	699.69
442.928	651.69
443.149	677.69
443.371	667.69
443.592	741.69
443.813	853.69
444.034	868.69
444.255	746.69
444.476	681.69
444.698	673.69
444.919	658.69
445.14	774.69
445.361	699.69
445.582	709.69
445.803	751.69
446.024	828.69
446.245	870.69
446.466	809.69
446.687	708.69
446.908	642.69
447.129	587.69
447.35	601.69
447.571	580.69
447.792	555.69
448.013	573.69
448.234	591.69
448.455	661.69
448.675	756.69
448.896	917.69
449.117	761.69
449.338	715.69
449.559	834.69
449.779	915.69
450	749.69
450.221	635.69
450.442	590.69
450.662	575.69
450.883	573.69
451.104	560.69
451.324	551.69
451.545	549.69
451.766	545.69
451.986	528.69
452.207	529.69
452.428	523.69
452.648	534.69
452.869	511.69
453.089	524.69
453.31	551.69
453.53	533.69
453.751	489.69
453.971	522.69
454.192	513.69
454.412	527.69
454.633	514.69
454.853	517.69
455.073	507.69
455.294	537.69
455.514	602.69
455.734	610.69
455.955	503.69
456.175	519.69
456.395	503.69
456.616	506.69
456.836	491.69
457.056	495.69
457.276	491.69
457.497	529.69
457.717	524.69
457.937	506.69
458.157	511.69
458.377	515.69
458.598	550.69
458.818	589.69
459.038	659.69
459.258	694.69
459.478	620.69
459.698	572.69
459.918	571.69
460.138	572.69
460.358	568.69
460.578	586.69
460.798	603.69
461.018	599.69
461.238	591.69
461.458	599.69
461.678	581.69
461.898	586.69
462.118	600.69
462.338	608.69
462.558	611.69
462.777	633.69
462.997	639.69
463.217	669.69
463.437	687.69
463.657	645.69
463.876	632.69
464.096	638.69
464.316	628.69
464.536	621.69
464.755	607.69
464.975	622.69
465.195	657.69
465.414	692.69
465.634	636.69
465.854	601.69
466.073	569.69
466.293	574.69
466.512	556.69
466.732	559.69
466.951	552.69
467.171	538.69
467.391	547.69
467.61	546.69
467.829	578.69
468.049	535.69
468.268	533.69
468.488	520.69
468.707	511.69
468.927	534.69
469.146	520.69
469.365	525.69
469.585	522.69
469.804	544.69
470.023	562.69
470.243	572.69
470.462	556.69
470.681	572.69
470.901	564.69
471.12	537.69
471.339	552.69
471.558	550.69
471.777	562.69
471.997	543.69
472.216	550.69
472.435	565.69
472.654	573.69
472.873	534.69
473.092	531.69
473.311	571.69
473.53	540.69
473.749	583.69
473.968	597.69
474.187	678.69
474.406	733.69
474.625	597.69
474.844	563.69
475.063	554.69
475.282	529.69
475.501	573.69
475.72	553.69
475.939	559.69
476.158	567.69
476.377	554.69
476.596	540.69
476.814	596.69
477.033	578.69
477.252	602.69
477.471	592.69
477.69	577.69
477.908	578.69
478.127	618.69
478.346	618.69
478.564	636.69
478.783	627.69
479.002	604.69
479.22	629.69
479.439	655.69
479.658	650.69
479.876	670.69
480.095	690.69
480.313	691.69
480.532	700.69
480.751	691.69
480.969	694.69
481.188	726.69
481.406	761.69
481.624	692.69
481.843	677.69
482.061	675.69
482.28	644.69
482.498	633.69
482.717	644.69
482.935	614.69
483.153	629.69
483.372	649.69
483.59	643.69
483.808	641.69
484.027	640.69
484.245	659.69
484.463	635.69
484.681	646.69
484.9	649.69
485.118	655.69
485.336	664.69
485.554	659.69
485.772	662.69
485.99	652.69
486.209	694.69
486.427	676.69
486.645	686.69
486.863	696.69
487.081	685.69
487.299	685.69
487.517	692.69
487.735	653.69
487.953	675.69
488.171	683.69
488.389	674.69
488.607	678.69
488.825	683.69
489.043	709.69
489.261	703.69
489.479	687.69
489.696	714.69
489.914	702.69
490.132	715.69
490.35	718.69
490.568	727.69
490.786	740.69
491.003	748.69
491.221	745.69
491.439	769.69
491.657	777.69
491.874	796.69
492.092	801.69
492.31	774.69
492.527	801.69
492.745	783.69
492.963	797.69
493.18	797.69
493.398	808.69
493.615	838.69
493.833	815.69
494.05	805.69
494.268	822.69
494.485	815.69
494.703	814.69
494.92	815.69
495.138	805.69
495.355	826.69
495.573	817.69
495.79	829.69
496.008	830.69
496.225	819.69
496.442	821.69
496.66	829.69
496.877	837.69
497.094	850.69
497.312	843.69
497.529	863.69
497.746	864.69
497.963	883.69
498.181	894.69
498.398	910.69
498.615	931.69
498.832	959.69
499.049	998.69
499.267	999.69
499.484	1045.69
499.701	1113.69
499.918	1162.69
500.135	1230.69
500.352	1284.69
500.569	1270.69
500.786	1290.69
501.003	1273.69
501.22	1229.69
501.437	1207.69
501.654	1149.69
501.871	1070.69
502.088	1041.69
502.305	1009.69
502.522	954.69
502.739	921.69
502.956	911.69
503.172	895.69
503.389	865.69
503.606	864.69
503.823	826.69
504.04	857.69
504.256	866.69
504.473	837.69
504.69	815.69
504.907	898.69
505.123	789.69
505.34	806.69
505.557	786.69
505.773	785.69
505.99	786.69
506.207	769.69
506.423	786.69
506.64	769.69
506.856	765.69
507.073	758.69
507.289	744.69
507.506	738.69
507.722	754.69
507.939	762.69
508.155	733.69
508.372	738.69
508.588	739.69
508.805	734.69
509.021	716.69
509.238	735.69
509.454	749.69
509.67	738.69
509.887	714.69
510.103	726.69
510.319	708.69
510.536	760.69
510.752	1109.69
510.968	1014.69
511.184	723.69
511.401	704.69
511.617	711.69
511.833	670.69
512.049	680.69
512.265	679.69
512.481	685.69
512.698	674.69
512.914	664.69
513.13	655.69
513.346	680.69
513.562	670.69
513.778	684.69
513.994	674.69
514.21	682.69
514.426	702.69
514.642	740.69
514.858	758.69
515.074	767.69
515.29	890.69
515.506	1138.69
515.721	979.69
515.937	773.69
516.153	743.69
516.369	705.69
516.585	730.69
516.801	719.69
517.016	717.69
517.232	735.69
517.448	728.69
517.664	724.69
517.879	732.69
518.095	738.69
518.311	728.69
518.527	730.69
518.742	684.69
518.958	719.69
519.173	707.69
519.389	694.69
519.605	692.69
519.82	691.69
520.036	678.69
520.251	707.69
520.467	708.69
520.682	694.69
520.898	708.69
521.113	733.69
521.329	774.69
521.544	783.69
521.76	925.69
521.975	1390.69
522.19	1383.69
522.406	850.69
522.621	715.69
522.836	657.69
523.052	636.69
523.267	645.69
523.482	630.69
523.698	618.69
523.913	601.69
524.128	619.69
524.343	595.69
524.559	600.69
524.774	589.69
524.989	569.69
525.204	604.69
525.419	585.69
525.634	594.69
525.849	569.69
526.064	568.69
526.28	577.69
526.495	574.69
526.71	581.69
526.925	565.69
527.14	561.69
527.355	562.69
527.57	570.69
527.785	565.69
527.999	587.69
528.214	599.69
528.429	593.69
528.644	555.69
528.859	570.69
529.074	579.69
529.289	600.69
529.503	659.69
529.718	626.69
529.933	603.69
530.148	565.69
530.363	560.69
530.577	556.69
530.792	569.69
531.007	558.69
531.221	537.69
531.436	551.69
531.651	552.69
531.865	574.69
532.08	549.69
532.295	539.69
532.509	535.69
532.724	531.69
532.938	558.69
533.153	549.69
533.367	551.69
533.582	572.69
533.796	558.69
534.011	542.69
534.225	534.69
534.44	550.69
534.654	555.69
534.868	548.69
535.083	535.69
535.297	519.69
535.511	551.69
535.726	561.69
535.94	525.69
536.154	517.69
536.369	526.69
536.583	546.69
536.797	537.69
537.011	515.69
537.225	518.69
537.44	513.69
537.654	537.69
537.868	518.69
538.082	517.69
538.296	513.69
538.51	526.69
538.724	530.69
538.938	535.69
539.153	518.69
539.367	540.69
539.581	547.69
539.795	511.69
540.009	493.69
540.222	519.69
540.436	534.69
540.65	519.69
540.864	517.69
541.078	523.69
541.292	549.69
541.506	519.69
541.72	515.69
541.934	521.69
542.147	535.69
542.361	513.69
542.575	501.69
542.789	538.69
543.002	513.69
543.216	512.69
543.43	534.69
543.644	509.69
543.857	524.69
544.071	516.69
544.285	531.69
544.498	530.69
544.712	522.69
544.925	527.69
545.139	534.69
545.352	520.69
545.566	513.69
545.779	511.69
545.993	523.69
546.206	511.69
546.42	520.69
546.633	518.69
546.847	517.69
547.06	499.69
547.274	515.69
547.487	515.69
547.7	519.69
547.914	497.69
548.127	497.69
548.34	514.69
548.554	500.69
548.767	513.69
548.98	516.69
549.193	509.69
549.407	514.69
549.62	503.69
549.833	527.69
550.046	505.69
550.259	511.69
550.473	515.69
550.686	514.69
550.899	518.69
551.112	500.69
551.325	486.69
551.538	511.69
551.751	485.69
551.964	499.69
552.177	500.69
552.39	505.69
552.603	513.69
552.816	522.69
553.029	515.69
553.242	526.69
553.455	551.69
553.667	525.69
553.88	538.69
554.093	523.69
554.306	498.69
554.519	506.69
554.732	494.69
554.944	491.69
555.157	474.69
555.37	474.69
555.583	488.69
555.795	486.69
556.008	463.69
556.221	464.69
556.433	453.69
556.646	462.69
556.859	466.69
557.071	471.69
557.284	456.69
557.496	456.69
557.709	452.69
557.921	469.69
558.134	455.69
558.346	452.69
558.559	459.69
558.771	483.69
558.984	453.69
559.196	442.69
559.409	441.69
559.621	432.69
559.833	459.69
560.046	475.69
560.258	455.69
560.47	431.69
560.683	436.69
560.895	449.69
561.107	458.69
561.32	442.69
561.532	445.69
561.744	458.69
561.956	456.69
562.168	447.69
562.381	475.69
562.593	460.69
562.805	458.69
563.017	434.69
563.229	460.69
563.441	444.69
563.653	450.69
563.865	439.69
564.077	462.69
564.289	473.69
564.501	464.69
564.713	450.69
564.925	472.69
565.137	461.69
565.349	505.69
565.561	478.69
565.773	510.69
565.985	490.69
566.197	539.69
566.408	555.69
566.62	567.69
566.832	579.69
567.044	591.69
567.255	583.69
567.467	594.69
567.679	618.69
567.891	611.69
568.102	602.69
568.314	628.69
568.526	581.69
568.737	543.69
568.949	550.69
569.161	515.69
569.372	491.69
569.584	457.69
569.795	459.69
570.007	473.69
570.218	467.69
570.43	462.69
570.641	445.69
570.853	445.69
571.064	459.69
571.276	433.69
571.487	435.69
571.698	448.69
571.91	434.69
572.121	435.69
572.333	422.69
572.544	406.69
572.755	428.69
572.966	400.69
573.178	394.69
573.389	392.69
573.6	406.69
573.811	375.69
574.023	364.69
574.234	397.69
574.445	385.69
574.656	381.69
574.867	372.69
575.078	381.69
575.289	389.69
575.501	362.69
575.712	372.69
575.923	365.69
576.134	372.69
576.345	408.69
576.556	386.69
576.767	363.69
576.978	369.69
577.188	357.69
577.399	347.69
577.61	379.69
577.821	359.69
578.032	364.69
578.243	373.69
578.454	525.69
578.665	422.69
578.875	372.69
579.086	373.69
579.297	358.69
579.508	359.69
579.718	339.69
579.929	353.69
580.14	339.69
580.35	359.69
580.561	348.69
580.772	331.69
580.982	339.69
581.193	359.69
581.403	347.69
581.614	350.69
581.825	351.69
582.035	350.69
582.246	328.69
582.456	347.69
582.667	332.69
582.877	346.69
583.087	355.69
583.298	350.69
583.508	327.69
583.719	348.69
583.929	347.69
584.139	332.69
584.35	345.69
584.56	327.69
584.77	335.69
584.981	340.69
585.191	321.69
585.401	346.69
585.611	320.69
585.821	351.69
586.032	336.69
586.242	352.69
586.452	331.69
586.662	339.69
586.872	322.69
587.082	325.69
587.292	311.69
587.502	327.69
587.713	330.69
587.923	335.69
588.133	335.69
588.343	333.69
588.553	335.69
588.762	335.69
588.972	324.69
589.182	329.69
589.392	325.69
589.602	332.69
589.812	344.69
590.022	333.69
590.232	346.69
590.441	358.69
590.651	337.69
590.861	345.69
591.071	344.69
591.281	355.69
591.49	335.69
591.7	344.69
591.91	341.69
592.119	358.69
592.329	351.69
592.539	363.69
592.748	360.69
592.958	367.69
593.167	364.69
593.377	364.69
593.587	386.69
593.796	351.69
594.006	372.69
594.215	349.69
594.424	365.69
594.634	389.69
594.843	359.69
595.053	361.69
595.262	355.69
595.472	347.69
595.681	328.69
595.89	327.69
596.1	335.69
596.309	325.69
596.518	349.69
596.727	305.69
596.937	309.69
597.146	321.69
597.355	323.69
597.564	317.69
597.774	316.69
597.983	302.69
598.192	307.69
598.401	310.69
598.61	317.69
598.819	311.69
599.028	297.69
599.237	303.69
599.446	283.69
599.655	291.69
599.864	282.69
600.073	295.69
600.282	299.69
600.491	282.69
600.7	286.69
600.909	305.69
601.118	307.69
601.327	279.69
601.536	297.69
601.745	283.69
601.953	277.69
602.162	298.69
602.371	300.69
602.58	298.69
602.789	299.69
602.997	287.69
603.206	261.69
603.415	305.69
603.623	289.69
603.832	270.69
604.041	294.69
604.249	294.69
604.458	277.69
604.666	271.69
604.875	275.69
605.084	293.69
605.292	289.69
605.501	292.69
605.709	263.69
605.918	290.69
606.126	283.69
606.334	300.69
606.543	281.69
606.751	270.69
606.96	285.69
607.168	278.69
607.376	270.69
607.585	281.69
607.793	285.69
608.001	269.69
608.21	280.69
608.418	268.69
608.626	283.69
608.834	282.69
609.043	275.69
609.251	285.69
609.459	292.69
609.667	283.69
609.875	259.69
610.083	256.69
610.291	265.69
610.499	265.69
610.707	274.69
610.916	281.69
611.124	265.69
611.332	264.69
611.54	294.69
611.748	278.69
611.955	265.69
612.163	275.69
612.371	273.69
612.579	267.69
612.787	261.69
612.995	265.69
613.203	272.69
613.411	264.69
613.618	284.69
613.826	291.69
614.034	267.69
614.242	262.69
614.449	282.69
614.657	249.69
614.865	283.69
615.072	252.69
615.28	260.69
615.488	257.69
615.695	269.69
615.903	264.69
616.111	266.69
616.318	281.69
616.526	291.69
616.733	279.69
616.941	262.69
617.148	266.69
617.356	260.69
617.563	263.69
617.771	262.69
617.978	258.69
618.185	243.69
618.393	272.69
618.6	275.69
618.807	259.69
619.015	279.69
619.222	252.69
619.429	272.69
619.637	262.69
619.844	268.69
620.051	269.69
620.258	250.69
620.466	261.69
620.673	254.69
620.88	253.69
621.087	250.69
621.294	257.69
621.501	232.69
621.708	257.69
621.915	253.69
622.122	244.69
622.329	249.69
622.536	258.69
622.743	250.69
622.95	254.69
623.157	257.69
623.364	253.69
623.571	242.69
623.778	246.69
623.985	257.69
624.192	233.69
624.399	261.69
624.606	226.69
624.812	248.69
625.019	223.69
625.226	235.69
625.433	225.69
625.639	226.69
625.846	239.69
626.053	228.69
626.259	258.69
626.466	238.69
626.673	231.69
626.879	237.69
627.086	228.69
627.293	235.69
627.499	246.69
627.706	227.69
627.912	230.69
628.119	244.69
628.325	224.69
628.532	220.69
628.738	225.69
628.945	213.69
629.151	229.69
629.357	227.69
629.564	214.69
629.77	208.69
629.976	214.69
630.183	217.69
630.389	217.69
630.595	211.69
630.802	220.69
631.008	225.69
631.214	209.69
631.42	220.69
631.627	217.69
631.833	224.69
632.039	216.69
632.245	210.69
632.451	198.69
632.657	207.69
632.863	201.69
633.069	213.69
633.275	211.69
633.481	211.69
633.688	215.69
633.893	205.69
634.099	217.69
634.305	228.69
634.511	206.69
634.717	204.69
634.923	201.69
635.129	207.69
635.335	189.69
635.541	206.69
635.747	214.69
635.952	202.69
636.158	194.69
636.364	198.69
636.57	207.69
636.775	212.69
636.981	199.69
637.187	187.69
637.392	200.69
637.598	205.69
637.804	198.69
638.009	198.69
638.215	189.69
638.421	185.69
638.626	192.69
638.832	190.69
639.037	188.69
639.243	202.69
639.448	188.69
639.654	198.69
639.859	182.69
640.065	191.69
640.27	196.69
640.475	191.69
640.681	190.69
640.886	200.69
641.091	180.69
641.297	210.69
641.502	186.69
641.707	180.69
641.913	187.69
642.118	197.69
642.323	181.69
642.528	191.69
642.733	190.69
642.939	193.69
643.144	183.69
643.349	169.69
643.554	185.69
643.759	165.69
643.964	189.69
644.169	171.69
644.374	188.69
644.579	187.69
644.784	173.69
644.989	177.69
645.194	171.69
645.399	165.69
645.604	181.69
645.809	183.69
646.014	179.69
646.219	191.69
646.423	182.69
646.628	189.69
646.833	196.69
647.038	201.69
647.243	174.69
647.447	177.69
647.652	183.69
647.857	203.69
648.062	191.69
648.266	193.69
648.471	199.69
648.676	197.69
648.88	193.69
649.085	185.69
649.289	177.69
649.494	189.69
649.698	206.69
649.903	195.69
650.107	161.69
650.312	185.69
650.516	169.69
650.721	178.69
650.925	166.69
651.13	169.69
651.334	154.69
651.539	152.69
651.743	157.69
651.947	165.69
652.152	173.69
652.356	155.69
652.56	153.69
652.764	147.69
652.969	156.69
653.173	166.69
653.377	141.69
653.581	141.69
653.785	148.69
653.99	147.69
654.194	154.69
654.398	137.69
654.602	135.69
654.806	136.69
655.01	159.69
655.214	150.69
655.418	163.69
655.622	140.69
655.826	140.69
656.03	155.69
656.234	151.69
656.438	143.69
656.642	144.69
656.846	129.69
657.049	155.69
657.253	124.69
657.457	120.69
657.661	118.69
657.865	113.69
658.068	136.69
658.272	115.69
658.476	119.69
658.68	126.69
658.883	111.69
659.087	103.69
659.291	114.69
659.494	97.69
659.698	105.69
659.901	96.69
660.105	101.69
660.309	104.69
660.512	93.69
660.716	87.69
660.919	87.69
661.123	98.69
661.326	94.69
661.53	95.69
661.733	77.69
661.936	86.69
662.14	104.69
662.343	91.69
662.546	97.69
662.75	87.69
662.953	93.69
663.156	91.69
663.36	66.69
663.563	79.69
663.766	79.69
663.969	85.69
664.173	85.69
664.376	89.69
664.579	76.69
664.782	74.69
664.985	85.69
665.188	78.69
665.391	75.69
665.594	92.69
665.797	94.69
666	87.69
666.203	89.69
666.406	80.69
666.609	77.69
666.812	76.69
667.015	83.69
667.218	82.69
667.421	85.69
667.624	77.69
667.827	73.69
668.03	78.69
668.232	83.69
668.435	79.69
668.638	78.69
668.841	83.69
669.043	83.69
669.246	86.69
669.449	73.69
669.651	91.69
669.854	75.69
670.057	79.69
670.259	85.69
670.462	76.69
670.665	78.69
670.867	89.69
671.07	104.69
671.272	74.69
671.475	94.69
671.677	80.69
671.88	74.69
672.082	85.69
672.284	66.69
672.487	69.69
672.689	79.69
672.892	94.69
