Data from 1974.PennyLincolnUp.Lamp.En5.5.200Scan.071719.P1.Changed Mount._HRD10591_15-52-02-856.txt Node
Date: Thu Jul 18 15:52:02 EDT 2019
User: cochatt
Spectrometer: HR+D1059
Trigger mode: 1
Integration Time (sec): 1.000000E-1
Scans to average: 1
Electric dark correction enabled: true
Nonlinearity correction enabled: false
Boxcar width: 0
XAxis mode: Wavelengths
Number of Pixels in Spectrum: 2048
>>>>>Begin Spectral Data<<<<<
223.165	-24.12
223.4	-24.12
223.635	-24.12
223.869	-6.12
224.104	-10.12
224.338	-15.12
224.573	-19.12
224.808	-11.12
225.042	-12.12
225.277	-9.12
225.511	4.88
225.746	-0.12
225.98	4.88
226.215	14.88
226.449	13.88
226.683	18.88
226.918	27.88
227.152	21.88
227.387	21.88
227.621	41.88
227.856	40.88
228.09	56.88
228.324	47.88
228.559	53.88
228.793	71.88
229.027	93.88
229.262	118.88
229.496	109.88
229.73	117.88
229.964	138.88
230.199	125.88
230.433	108.88
230.667	89.88
230.901	103.88
231.136	119.88
231.37	102.88
231.604	124.88
231.838	115.88
232.072	99.88
232.306	115.88
232.541	109.88
232.775	120.88
233.009	122.88
233.243	115.88
233.477	121.88
233.711	123.88
233.945	124.88
234.179	114.88
234.413	127.88
234.647	122.88
234.881	123.88
235.115	109.88
235.349	120.88
235.583	124.88
235.817	130.88
236.051	121.88
236.285	135.88
236.519	131.88
236.753	143.88
236.987	137.88
237.221	179.88
237.455	221.88
237.689	173.88
237.922	147.88
238.156	130.88
238.39	145.88
238.624	145.88
238.858	114.88
239.091	145.88
239.325	127.88
239.559	134.88
239.793	135.88
240.027	117.88
240.26	173.88
240.494	167.88
240.728	147.88
240.961	153.88
241.195	164.88
241.429	129.88
241.662	129.88
241.896	136.88
242.13	142.88
242.363	145.88
242.597	144.88
242.83	138.88
243.064	156.88
243.298	141.88
243.531	149.88
243.765	156.88
243.998	155.88
244.232	156.88
244.465	151.88
244.699	144.88
244.932	167.88
245.166	148.88
245.399	153.88
245.633	155.88
245.866	156.88
246.099	149.88
246.333	159.88
246.566	155.88
246.8	164.88
247.033	169.88
247.266	163.88
247.5	140.88
247.733	157.88
247.966	198.88
248.2	176.88
248.433	184.88
248.666	166.88
248.899	181.88
249.133	208.88
249.366	220.88
249.599	207.88
249.832	198.88
250.066	186.88
250.299	183.88
250.532	202.88
250.765	223.88
250.998	226.88
251.231	225.88
251.465	225.88
251.698	210.88
251.931	207.88
252.164	210.88
252.397	213.88
252.63	208.88
252.863	214.88
253.096	224.88
253.329	227.88
253.562	232.88
253.795	236.88
254.028	235.88
254.261	233.88
254.494	236.88
254.727	234.88
254.96	279.88
255.193	292.88
255.426	246.88
255.659	221.88
255.892	231.88
256.124	244.88
256.357	232.88
256.59	228.88
256.823	234.88
257.056	228.88
257.289	223.88
257.521	223.88
257.754	207.88
257.987	220.88
258.22	228.88
258.452	223.88
258.685	222.88
258.918	227.88
259.151	228.88
259.383	228.88
259.616	219.88
259.849	223.88
260.081	233.88
260.314	264.88
260.547	267.88
260.779	259.88
261.012	245.88
261.244	249.88
261.477	232.88
261.71	228.88
261.942	242.88
262.175	226.88
262.407	217.88
262.64	228.88
262.872	224.88
263.105	221.88
263.337	205.88
263.57	204.88
263.802	203.88
264.035	224.88
264.267	211.88
264.499	244.88
264.732	228.88
264.964	232.88
265.197	223.88
265.429	222.88
265.661	226.88
265.894	234.88
266.126	234.88
266.358	217.88
266.591	248.88
266.823	259.88
267.055	235.88
267.287	244.88
267.52	247.88
267.752	240.88
267.984	254.88
268.216	229.88
268.448	257.88
268.681	263.88
268.913	255.88
269.145	269.88
269.377	277.88
269.609	302.88
269.841	279.88
270.073	290.88
270.306	289.88
270.538	329.88
270.77	339.88
271.002	311.88
271.234	297.88
271.466	298.88
271.698	311.88
271.93	308.88
272.162	329.88
272.394	331.88
272.626	305.88
272.858	303.88
273.09	285.88
273.322	281.88
273.553	271.88
273.785	285.88
274.017	276.88
274.249	287.88
274.481	271.88
274.713	272.88
274.945	270.88
275.176	283.88
275.408	284.88
275.64	282.88
275.872	276.88
276.104	262.88
276.335	282.88
276.567	280.88
276.799	289.88
277.031	308.88
277.262	326.88
277.494	332.88
277.726	321.88
277.957	313.88
278.189	295.88
278.421	269.88
278.652	287.88
278.884	276.88
279.115	287.88
279.347	279.88
279.579	282.88
279.81	297.88
280.042	280.88
280.273	269.88
280.505	295.88
280.736	278.88
280.968	283.88
281.199	288.88
281.431	299.88
281.662	276.88
281.894	284.88
282.125	291.88
282.356	280.88
282.588	319.88
282.819	320.88
283.051	304.88
283.282	294.88
283.513	313.88
283.745	315.88
283.976	275.88
284.207	284.88
284.439	298.88
284.67	289.88
284.901	293.88
285.132	298.88
285.364	309.88
285.595	296.88
285.826	288.88
286.057	288.88
286.288	295.88
286.52	296.88
286.751	306.88
286.982	305.88
287.213	304.88
287.444	320.88
287.675	293.88
287.906	323.88
288.138	311.88
288.369	338.88
288.6	319.88
288.831	313.88
289.062	325.88
289.293	327.88
289.524	329.88
289.755	304.88
289.986	329.88
290.217	311.88
290.448	311.88
290.679	310.88
290.91	317.88
291.141	319.88
291.371	321.88
291.602	314.88
291.833	311.88
292.064	318.88
292.295	321.88
292.526	307.88
292.757	325.88
292.987	325.88
293.218	320.88
293.449	308.88
293.68	316.88
293.91	318.88
294.141	316.88
294.372	327.88
294.603	320.88
294.833	330.88
295.064	337.88
295.295	326.88
295.525	326.88
295.756	331.88
295.987	307.88
296.217	331.88
296.448	324.88
296.679	342.88
296.909	322.88
297.14	319.88
297.37	351.88
297.601	328.88
297.831	335.88
298.062	328.88
298.292	329.88
298.523	339.88
298.753	333.88
298.984	331.88
299.214	340.88
299.445	319.88
299.675	322.88
299.905	313.88
300.136	332.88
300.366	363.88
300.597	328.88
300.827	333.88
301.057	359.88
301.288	355.88
301.518	357.88
301.748	356.88
301.979	359.88
302.209	370.88
302.439	343.88
302.669	344.88
302.9	341.88
303.13	353.88
303.36	364.88
303.59	359.88
303.82	371.88
304.051	359.88
304.281	352.88
304.511	355.88
304.741	359.88
304.971	353.88
305.201	336.88
305.431	360.88
305.661	336.88
305.891	344.88
306.121	363.88
306.352	355.88
306.582	365.88
306.812	373.88
307.042	358.88
307.272	342.88
307.502	362.88
307.731	364.88
307.961	352.88
308.191	342.88
308.421	369.88
308.651	319.88
308.881	372.88
309.111	377.88
309.341	365.88
309.571	362.88
309.8	372.88
310.03	391.88
310.26	367.88
310.49	370.88
310.72	367.88
310.949	394.88
311.179	413.88
311.409	394.88
311.639	406.88
311.868	389.88
312.098	405.88
312.328	402.88
312.557	403.88
312.787	412.88
313.017	415.88
313.246	398.88
313.476	406.88
313.706	395.88
313.935	401.88
314.165	407.88
314.394	400.88
314.624	417.88
314.853	398.88
315.083	423.88
315.312	403.88
315.542	395.88
315.771	390.88
316.001	389.88
316.23	402.88
316.46	384.88
316.689	369.88
316.919	407.88
317.148	410.88
317.377	422.88
317.607	401.88
317.836	429.88
318.065	394.88
318.295	406.88
318.524	390.88
318.753	381.88
318.983	391.88
319.212	386.88
319.441	414.88
319.67	394.88
319.9	412.88
320.129	400.88
320.358	406.88
320.587	394.88
320.816	400.88
321.046	423.88
321.275	421.88
321.504	404.88
321.733	400.88
321.962	413.88
322.191	435.88
322.42	435.88
322.649	440.88
322.878	433.88
323.108	440.88
323.337	462.88
323.566	467.88
323.795	487.88
324.024	521.88
324.253	573.88
324.482	773.88
324.71	1177.88
324.939	1717.88
325.168	1556.88
325.397	821.88
325.626	588.88
325.855	505.88
326.084	490.88
326.313	480.88
326.542	494.88
326.77	514.88
326.999	569.88
327.228	746.88
327.457	1063.88
327.686	1343.88
327.914	934.88
328.143	615.88
328.372	564.88
328.6	547.88
328.829	533.88
329.058	533.88
329.287	535.88
329.515	535.88
329.744	500.88
329.972	508.88
330.201	513.88
330.43	554.88
330.658	555.88
330.887	549.88
331.115	537.88
331.344	486.88
331.572	519.88
331.801	501.88
332.03	526.88
332.258	485.88
332.486	476.88
332.715	477.88
332.943	488.88
333.172	487.88
333.4	466.88
333.629	501.88
333.857	507.88
334.085	525.88
334.314	520.88
334.542	563.88
334.771	552.88
334.999	535.88
335.227	500.88
335.455	503.88
335.684	482.88
335.912	499.88
336.14	486.88
336.369	481.88
336.597	491.88
336.825	486.88
337.053	457.88
337.281	470.88
337.51	473.88
337.738	470.88
337.966	483.88
338.194	478.88
338.422	480.88
338.65	471.88
338.878	470.88
339.106	463.88
339.334	458.88
339.562	460.88
339.79	455.88
340.018	457.88
340.246	468.88
340.474	476.88
340.702	461.88
340.93	463.88
341.158	465.88
341.386	441.88
341.614	441.88
341.842	459.88
342.07	458.88
342.298	456.88
342.526	459.88
342.754	435.88
342.981	449.88
343.209	407.88
343.437	449.88
343.665	452.88
343.893	464.88
344.12	491.88
344.348	494.88
344.576	477.88
344.804	500.88
345.031	461.88
345.259	482.88
345.487	476.88
345.714	464.88
345.942	455.88
346.17	441.88
346.397	436.88
346.625	467.88
346.853	428.88
347.08	443.88
347.308	447.88
347.535	436.88
347.763	460.88
347.99	469.88
348.218	450.88
348.445	438.88
348.673	440.88
348.9	439.88
349.128	450.88
349.355	403.88
349.583	424.88
349.81	457.88
350.037	435.88
350.265	434.88
350.492	443.88
350.72	440.88
350.947	418.88
351.174	453.88
351.402	437.88
351.629	458.88
351.856	423.88
352.083	428.88
352.311	450.88
352.538	448.88
352.765	461.88
352.992	471.88
353.22	458.88
353.447	457.88
353.674	441.88
353.901	431.88
354.128	446.88
354.355	420.88
354.583	441.88
354.81	437.88
355.037	432.88
355.264	410.88
355.491	443.88
355.718	430.88
355.945	411.88
356.172	416.88
356.399	431.88
356.626	435.88
356.853	422.88
357.08	419.88
357.307	405.88
357.534	417.88
357.761	428.88
357.988	421.88
358.215	418.88
358.441	413.88
358.668	435.88
358.895	448.88
359.122	415.88
359.349	439.88
359.576	441.88
359.802	465.88
360.029	485.88
360.256	494.88
360.483	465.88
360.709	440.88
360.936	450.88
361.163	449.88
361.39	445.88
361.616	448.88
361.843	453.88
362.07	454.88
362.296	425.88
362.523	447.88
362.749	435.88
362.976	433.88
363.203	443.88
363.429	432.88
363.656	418.88
363.882	424.88
364.109	434.88
364.335	423.88
364.562	448.88
364.788	433.88
365.015	448.88
365.241	449.88
365.468	433.88
365.694	450.88
365.92	455.88
366.147	434.88
366.373	433.88
366.599	423.88
366.826	411.88
367.052	424.88
367.278	424.88
367.505	431.88
367.731	450.88
367.957	446.88
368.184	436.88
368.41	428.88
368.636	447.88
368.862	447.88
369.089	475.88
369.315	433.88
369.541	442.88
369.767	426.88
369.993	445.88
370.219	436.88
370.445	447.88
370.672	465.88
370.898	437.88
371.124	446.88
371.35	441.88
371.576	445.88
371.802	443.88
372.028	459.88
372.254	439.88
372.48	455.88
372.706	461.88
372.932	460.88
373.158	447.88
373.384	452.88
373.61	464.88
373.835	446.88
374.061	443.88
374.287	458.88
374.513	460.88
374.739	449.88
374.965	479.88
375.191	464.88
375.416	469.88
375.642	469.88
375.868	444.88
376.094	471.88
376.319	451.88
376.545	445.88
376.771	443.88
376.997	437.88
377.222	436.88
377.448	423.88
377.674	436.88
377.899	451.88
378.125	468.88
378.35	442.88
378.576	431.88
378.802	465.88
379.027	456.88
379.253	457.88
379.478	458.88
379.704	445.88
379.929	465.88
380.155	451.88
380.38	448.88
380.606	456.88
380.831	446.88
381.057	449.88
381.282	453.88
381.507	440.88
381.733	447.88
381.958	444.88
382.184	472.88
382.409	465.88
382.634	468.88
382.86	471.88
383.085	476.88
383.31	452.88
383.535	459.88
383.761	455.88
383.986	479.88
384.211	472.88
384.436	479.88
384.662	477.88
384.887	489.88
385.112	491.88
385.337	492.88
385.562	475.88
385.787	497.88
386.013	501.88
386.238	497.88
386.463	523.88
386.688	505.88
386.913	496.88
387.138	486.88
387.363	503.88
387.588	489.88
387.813	495.88
388.038	483.88
388.263	489.88
388.488	519.88
388.713	504.88
388.938	529.88
389.163	498.88
389.387	490.88
389.612	484.88
389.837	496.88
390.062	514.88
390.287	522.88
390.512	526.88
390.736	513.88
390.961	496.88
391.186	515.88
391.411	521.88
391.636	512.88
391.86	538.88
392.085	545.88
392.31	521.88
392.534	531.88
392.759	508.88
392.984	525.88
393.208	503.88
393.433	503.88
393.658	526.88
393.882	485.88
394.107	489.88
394.331	512.88
394.556	511.88
394.78	529.88
395.005	542.88
395.229	513.88
395.454	523.88
395.678	527.88
395.903	539.88
396.127	559.88
396.352	559.88
396.576	533.88
396.801	534.88
397.025	556.88
397.249	533.88
397.474	530.88
397.698	522.88
397.922	543.88
398.147	573.88
398.371	575.88
398.595	555.88
398.82	595.88
399.044	595.88
399.268	604.88
399.492	661.88
399.717	700.88
399.941	735.88
400.165	752.88
400.389	733.88
400.613	668.88
400.837	632.88
401.062	625.88
401.286	621.88
401.51	593.88
401.734	584.88
401.958	597.88
402.182	599.88
402.406	601.88
402.63	595.88
402.854	607.88
403.078	594.88
403.302	598.88
403.526	617.88
403.75	633.88
403.974	648.88
404.198	608.88
404.422	625.88
404.645	623.88
404.869	642.88
405.093	658.88
405.317	722.88
405.541	758.88
405.765	675.88
405.988	647.88
406.212	635.88
406.436	661.88
406.66	675.88
406.883	662.88
407.107	691.88
407.331	724.88
407.555	805.88
407.778	782.88
408.002	724.88
408.226	689.88
408.449	688.88
408.673	676.88
408.896	701.88
409.12	705.88
409.344	688.88
409.567	633.88
409.791	645.88
410.014	602.88
410.238	625.88
410.461	601.88
410.685	636.88
410.908	632.88
411.132	648.88
411.355	699.88
411.578	667.88
411.802	618.88
412.025	635.88
412.249	613.88
412.472	636.88
412.695	687.88
412.919	689.88
413.142	628.88
413.365	636.88
413.589	602.88
413.812	599.88
414.035	551.88
414.258	587.88
414.482	586.88
414.705	563.88
414.928	577.88
415.151	581.88
415.374	578.88
415.597	581.88
415.821	570.88
416.044	571.88
416.267	576.88
416.49	557.88
416.713	571.88
416.936	580.88
417.159	588.88
417.382	581.88
417.605	574.88
417.828	594.88
418.051	600.88
418.274	598.88
418.497	594.88
418.72	594.88
418.943	581.88
419.166	637.88
419.389	642.88
419.611	631.88
419.834	641.88
420.057	620.88
420.28	611.88
420.503	610.88
420.726	627.88
420.948	618.88
421.171	656.88
421.394	701.88
421.617	613.88
421.839	619.88
422.062	614.88
422.285	601.88
422.507	663.88
422.73	733.88
422.953	710.88
423.175	638.88
423.398	648.88
423.621	636.88
423.843	661.88
424.066	648.88
424.288	653.88
424.511	674.88
424.733	711.88
424.956	829.88
425.178	785.88
425.401	760.88
425.623	754.88
425.846	679.88
426.068	636.88
426.291	650.88
426.513	637.88
426.735	647.88
426.958	679.88
427.18	736.88
427.402	883.88
427.625	975.88
427.847	833.88
428.069	721.88
428.292	671.88
428.514	631.88
428.736	587.88
428.958	601.88
429.181	578.88
429.403	575.88
429.625	593.88
429.847	624.88
430.069	689.88
430.292	700.88
430.514	613.88
430.736	606.88
430.958	596.88
431.18	555.88
431.402	553.88
431.624	538.88
431.846	550.88
432.068	551.88
432.29	561.88
432.512	553.88
432.734	573.88
432.956	579.88
433.178	580.88
433.4	594.88
433.622	585.88
433.844	549.88
434.066	563.88
434.287	575.88
434.509	571.88
434.731	574.88
434.953	585.88
435.175	615.88
435.397	638.88
435.618	645.88
435.84	683.88
436.062	773.88
436.284	817.88
436.505	683.88
436.727	631.88
436.949	607.88
437.17	592.88
437.392	580.88
437.614	570.88
437.835	606.88
438.057	714.88
438.278	811.88
438.5	825.88
438.721	888.88
438.943	867.88
439.165	679.88
439.386	616.88
439.608	622.88
439.829	635.88
440.05	637.88
440.272	685.88
440.493	653.88
440.715	626.88
440.936	603.88
441.158	583.88
441.379	586.88
441.6	594.88
441.822	647.88
442.043	679.88
442.264	741.88
442.486	797.88
442.707	699.88
442.928	652.88
443.149	656.88
443.371	654.88
443.592	707.88
443.813	815.88
444.034	858.88
444.255	723.88
444.476	690.88
444.698	674.88
444.919	656.88
445.14	785.88
445.361	722.88
445.582	682.88
445.803	726.88
446.024	835.88
446.245	815.88
446.466	756.88
446.687	672.88
446.908	625.88
447.129	611.88
447.35	579.88
447.571	586.88
447.792	575.88
448.013	576.88
448.234	578.88
448.455	594.88
448.675	755.88
448.896	885.88
449.117	760.88
449.338	707.88
449.559	809.88
449.779	931.88
450	745.88
450.221	619.88
450.442	580.88
450.662	568.88
450.883	559.88
451.104	563.88
451.324	555.88
451.545	549.88
451.766	523.88
451.986	528.88
452.207	526.88
452.428	493.88
452.648	527.88
452.869	512.88
453.089	524.88
453.31	545.88
453.53	532.88
453.751	533.88
453.971	512.88
454.192	519.88
454.412	535.88
454.633	476.88
454.853	516.88
455.073	501.88
455.294	528.88
455.514	604.88
455.734	614.88
455.955	533.88
456.175	493.88
456.395	497.88
456.616	475.88
456.836	496.88
457.056	507.88
457.276	481.88
457.497	481.88
457.717	500.88
457.937	512.88
458.157	521.88
458.377	506.88
458.598	511.88
458.818	568.88
459.038	641.88
459.258	661.88
459.478	594.88
459.698	561.88
459.918	559.88
460.138	555.88
460.358	566.88
460.578	602.88
460.798	593.88
461.018	586.88
461.238	581.88
461.458	579.88
461.678	572.88
461.898	588.88
462.118	589.88
462.338	589.88
462.558	612.88
462.777	607.88
462.997	653.88
463.217	671.88
463.437	686.88
463.657	654.88
463.876	624.88
464.096	644.88
464.316	628.88
464.536	647.88
464.755	623.88
464.975	618.88
465.195	645.88
465.414	673.88
465.634	626.88
465.854	573.88
466.073	582.88
466.293	557.88
466.512	557.88
466.732	540.88
466.951	526.88
467.171	544.88
467.391	529.88
467.61	533.88
467.829	541.88
468.049	548.88
468.268	556.88
468.488	533.88
468.707	524.88
468.927	538.88
469.146	510.88
469.365	515.88
469.585	512.88
469.804	523.88
470.023	537.88
470.243	562.88
470.462	546.88
470.681	567.88
470.901	565.88
471.12	567.88
471.339	563.88
471.558	551.88
471.777	545.88
471.997	538.88
472.216	533.88
472.435	561.88
472.654	562.88
472.873	548.88
473.092	547.88
473.311	526.88
473.53	553.88
473.749	572.88
473.968	578.88
474.187	675.88
474.406	697.88
474.625	599.88
474.844	553.88
475.063	568.88
475.282	550.88
475.501	546.88
475.72	583.88
475.939	540.88
476.158	553.88
476.377	565.88
476.596	549.88
476.814	568.88
477.033	552.88
477.252	584.88
477.471	581.88
477.69	567.88
477.908	583.88
478.127	576.88
478.346	616.88
478.564	583.88
478.783	579.88
479.002	638.88
479.22	619.88
479.439	631.88
479.658	657.88
479.876	663.88
480.095	671.88
480.313	705.88
480.532	697.88
480.751	688.88
480.969	667.88
481.188	719.88
481.406	731.88
481.624	673.88
481.843	679.88
482.061	653.88
482.28	631.88
482.498	639.88
482.717	659.88
482.935	632.88
483.153	644.88
483.372	647.88
483.59	649.88
483.808	627.88
484.027	623.88
484.245	643.88
484.463	641.88
484.681	657.88
484.9	647.88
485.118	667.88
485.336	653.88
485.554	650.88
485.772	662.88
485.99	659.88
486.209	662.88
486.427	664.88
486.645	688.88
486.863	649.88
487.081	677.88
487.299	659.88
487.517	678.88
487.735	681.88
487.953	672.88
488.171	666.88
488.389	689.88
488.607	676.88
488.825	676.88
489.043	698.88
489.261	699.88
489.479	697.88
489.696	702.88
489.914	711.88
490.132	724.88
490.35	703.88
490.568	735.88
490.786	748.88
491.003	761.88
491.221	763.88
491.439	769.88
491.657	795.88
491.874	792.88
492.092	765.88
492.31	809.88
492.527	785.88
492.745	803.88
492.963	803.88
493.18	792.88
493.398	819.88
493.615	819.88
493.833	835.88
494.05	820.88
494.268	844.88
494.485	799.88
494.703	822.88
494.92	821.88
495.138	820.88
495.355	801.88
495.573	809.88
495.79	840.88
496.008	833.88
496.225	843.88
496.442	829.88
496.66	824.88
496.877	824.88
497.094	835.88
497.312	837.88
497.529	849.88
497.746	874.88
497.963	867.88
498.181	890.88
498.398	895.88
498.615	950.88
498.832	945.88
499.049	976.88
499.267	1020.88
499.484	1061.88
499.701	1121.88
499.918	1165.88
500.135	1239.88
500.352	1276.88
500.569	1277.88
500.786	1309.88
501.003	1316.88
501.22	1240.88
501.437	1159.88
501.654	1142.88
501.871	1096.88
502.088	1030.88
502.305	997.88
502.522	949.88
502.739	945.88
502.956	913.88
503.172	890.88
503.389	871.88
503.606	853.88
503.823	832.88
504.04	843.88
504.256	837.88
504.473	829.88
504.69	842.88
504.907	846.88
505.123	800.88
505.34	796.88
505.557	792.88
505.773	794.88
505.99	786.88
506.207	779.88
506.423	767.88
506.64	760.88
506.856	778.88
507.073	764.88
507.289	733.88
507.506	712.88
507.722	764.88
507.939	739.88
508.155	722.88
508.372	708.88
508.588	700.88
508.805	720.88
509.021	724.88
509.238	723.88
509.454	706.88
509.67	694.88
509.887	691.88
510.103	705.88
510.319	729.88
510.536	759.88
510.752	1075.88
510.968	943.88
511.184	716.88
511.401	681.88
511.617	671.88
511.833	671.88
512.049	663.88
512.265	685.88
512.481	667.88
512.698	673.88
512.914	653.88
513.13	666.88
513.346	659.88
513.562	652.88
513.778	678.88
513.994	677.88
514.21	694.88
514.426	667.88
514.642	712.88
514.858	719.88
515.074	747.88
515.29	817.88
515.506	1091.88
515.721	958.88
515.937	740.88
516.153	712.88
516.369	716.88
516.585	684.88
516.801	692.88
517.016	699.88
517.232	696.88
517.448	704.88
517.664	739.88
517.879	737.88
518.095	727.88
518.311	732.88
518.527	709.88
518.742	704.88
518.958	698.88
519.173	661.88
519.389	693.88
519.605	687.88
519.82	670.88
520.036	682.88
520.251	687.88
520.467	711.88
520.682	716.88
520.898	688.88
521.113	709.88
521.329	710.88
521.544	775.88
521.76	871.88
521.975	1312.88
522.19	1311.88
522.406	829.88
522.621	698.88
522.836	667.88
523.052	633.88
523.267	647.88
523.482	578.88
523.698	603.88
523.913	600.88
524.128	602.88
524.343	612.88
524.559	611.88
524.774	554.88
524.989	580.88
525.204	589.88
525.419	561.88
525.634	572.88
525.849	581.88
526.064	593.88
526.28	571.88
526.495	582.88
526.71	543.88
526.925	562.88
527.14	559.88
527.355	549.88
527.57	561.88
527.785	551.88
527.999	557.88
528.214	567.88
528.429	549.88
528.644	585.88
528.859	559.88
529.074	552.88
529.289	577.88
529.503	611.88
529.718	598.88
529.933	584.88
530.148	585.88
530.363	558.88
530.577	537.88
530.792	554.88
531.007	553.88
531.221	541.88
531.436	556.88
531.651	563.88
531.865	551.88
532.08	531.88
532.295	523.88
532.509	530.88
532.724	546.88
532.938	529.88
533.153	553.88
533.367	523.88
533.582	531.88
533.796	543.88
534.011	541.88
534.225	523.88
534.44	544.88
534.654	537.88
534.868	516.88
535.083	533.88
535.297	522.88
535.511	525.88
535.726	524.88
535.94	509.88
536.154	514.88
536.369	520.88
536.583	512.88
536.797	519.88
537.011	514.88
537.225	544.88
537.44	550.88
537.654	520.88
537.868	534.88
538.082	517.88
538.296	505.88
538.51	526.88
538.724	531.88
538.938	516.88
539.153	519.88
539.367	511.88
539.581	521.88
539.795	542.88
540.009	493.88
540.222	526.88
540.436	500.88
540.65	494.88
540.864	521.88
541.078	529.88
541.292	535.88
541.506	530.88
541.72	526.88
541.934	504.88
542.147	516.88
542.361	524.88
542.575	511.88
542.789	519.88
543.002	523.88
543.216	533.88
543.43	501.88
543.644	491.88
543.857	523.88
544.071	518.88
544.285	525.88
544.498	535.88
544.712	505.88
544.925	528.88
545.139	514.88
545.352	523.88
545.566	526.88
545.779	512.88
545.993	521.88
546.206	530.88
546.42	513.88
546.633	523.88
546.847	500.88
547.06	515.88
547.274	509.88
547.487	513.88
547.7	515.88
547.914	524.88
548.127	496.88
548.34	523.88
548.554	506.88
548.767	494.88
548.98	506.88
549.193	497.88
549.407	507.88
549.62	525.88
549.833	531.88
550.046	500.88
550.259	501.88
550.473	486.88
550.686	485.88
550.899	498.88
551.112	491.88
551.325	495.88
551.538	507.88
551.751	483.88
551.964	486.88
552.177	486.88
552.39	508.88
552.603	496.88
552.816	522.88
553.029	506.88
553.242	541.88
553.455	520.88
553.667	522.88
553.88	521.88
554.093	520.88
554.306	553.88
554.519	518.88
554.732	513.88
554.944	489.88
555.157	519.88
555.37	500.88
555.583	497.88
555.795	485.88
556.008	489.88
556.221	469.88
556.433	466.88
556.646	455.88
556.859	464.88
557.071	469.88
557.284	477.88
557.496	456.88
557.709	471.88
557.921	456.88
558.134	451.88
558.346	460.88
558.559	439.88
558.771	462.88
558.984	444.88
559.196	447.88
559.409	446.88
559.621	434.88
559.833	446.88
560.046	432.88
560.258	440.88
560.47	442.88
560.683	440.88
560.895	454.88
561.107	458.88
561.32	424.88
561.532	461.88
561.744	437.88
561.956	445.88
562.168	448.88
562.381	419.88
562.593	456.88
562.805	449.88
563.017	479.88
563.229	448.88
563.441	417.88
563.653	434.88
563.865	447.88
564.077	457.88
564.289	467.88
564.501	461.88
564.713	479.88
564.925	477.88
565.137	492.88
565.349	472.88
565.561	485.88
565.773	493.88
565.985	519.88
566.197	527.88
566.408	553.88
566.62	564.88
566.832	587.88
567.044	584.88
567.255	609.88
567.467	612.88
567.679	632.88
567.891	645.88
568.102	625.88
568.314	614.88
568.526	571.88
568.737	565.88
568.949	539.88
569.161	514.88
569.372	501.88
569.584	491.88
569.795	447.88
570.007	457.88
570.218	474.88
570.43	488.88
570.641	461.88
570.853	437.88
571.064	442.88
571.276	446.88
571.487	433.88
571.698	442.88
571.91	412.88
572.121	404.88
572.333	412.88
572.544	398.88
572.755	420.88
572.966	391.88
573.178	399.88
573.389	391.88
573.6	383.88
573.811	393.88
574.023	395.88
574.234	384.88
574.445	387.88
574.656	417.88
574.867	391.88
575.078	405.88
575.289	403.88
575.501	385.88
575.712	403.88
575.923	379.88
576.134	378.88
576.345	376.88
576.556	387.88
576.767	379.88
576.978	371.88
577.188	383.88
577.399	380.88
577.61	365.88
577.821	376.88
578.032	382.88
578.243	397.88
578.454	507.88
578.665	443.88
578.875	368.88
579.086	350.88
579.297	332.88
579.508	351.88
579.718	350.88
579.929	342.88
580.14	349.88
580.35	345.88
580.561	358.88
580.772	339.88
580.982	355.88
581.193	353.88
581.403	361.88
581.614	344.88
581.825	346.88
582.035	342.88
582.246	364.88
582.456	355.88
582.667	336.88
582.877	344.88
583.087	355.88
583.298	334.88
583.508	331.88
583.719	330.88
583.929	336.88
584.139	342.88
584.35	326.88
584.56	341.88
584.77	333.88
584.981	327.88
585.191	328.88
585.401	331.88
585.611	325.88
585.821	347.88
586.032	342.88
586.242	337.88
586.452	341.88
586.662	340.88
586.872	322.88
587.082	344.88
587.292	315.88
587.502	351.88
587.713	356.88
587.923	335.88
588.133	343.88
588.343	325.88
588.553	335.88
588.762	354.88
588.972	341.88
589.182	340.88
589.392	321.88
589.602	340.88
589.812	327.88
590.022	337.88
590.232	340.88
590.441	348.88
590.651	329.88
590.861	325.88
591.071	344.88
591.281	333.88
591.49	348.88
591.7	346.88
591.91	363.88
592.119	359.88
592.329	366.88
592.539	367.88
592.748	356.88
592.958	363.88
593.167	359.88
593.377	356.88
593.587	366.88
593.796	360.88
594.006	371.88
594.215	360.88
594.424	381.88
594.634	368.88
594.843	354.88
595.053	364.88
595.262	337.88
595.472	328.88
595.681	367.88
595.89	319.88
596.1	344.88
596.309	336.88
596.518	322.88
596.727	331.88
596.937	335.88
597.146	309.88
597.355	306.88
597.564	334.88
597.774	320.88
597.983	307.88
598.192	302.88
598.401	309.88
598.61	280.88
598.819	298.88
599.028	298.88
599.237	296.88
599.446	292.88
599.655	300.88
599.864	306.88
600.073	274.88
600.282	287.88
600.491	289.88
600.7	299.88
600.909	304.88
601.118	291.88
601.327	280.88
601.536	282.88
601.745	283.88
601.953	289.88
602.162	288.88
602.371	289.88
602.58	284.88
602.789	293.88
602.997	287.88
603.206	280.88
603.415	293.88
603.623	276.88
603.832	284.88
604.041	277.88
604.249	278.88
604.458	271.88
604.666	276.88
604.875	290.88
605.084	267.88
605.292	279.88
605.501	292.88
605.709	277.88
605.918	278.88
606.126	275.88
606.334	278.88
606.543	281.88
606.751	272.88
606.96	261.88
607.168	284.88
607.376	283.88
607.585	289.88
607.793	264.88
608.001	278.88
608.21	277.88
608.418	273.88
608.626	269.88
608.834	275.88
609.043	276.88
609.251	275.88
609.459	291.88
609.667	272.88
609.875	266.88
610.083	277.88
610.291	289.88
610.499	268.88
610.707	281.88
610.916	279.88
611.124	276.88
611.332	285.88
611.54	289.88
611.748	270.88
611.955	262.88
612.163	261.88
612.371	279.88
612.579	280.88
612.787	257.88
612.995	295.88
613.203	269.88
613.411	273.88
613.618	268.88
613.826	273.88
614.034	255.88
614.242	274.88
614.449	244.88
614.657	282.88
614.865	274.88
615.072	268.88
615.28	279.88
615.488	272.88
615.695	264.88
615.903	265.88
616.111	255.88
616.318	284.88
616.526	258.88
616.733	272.88
616.941	265.88
617.148	268.88
617.356	268.88
617.563	274.88
617.771	257.88
617.978	253.88
618.185	270.88
618.393	244.88
618.6	270.88
618.807	276.88
619.015	241.88
619.222	244.88
619.429	274.88
619.637	261.88
619.844	258.88
620.051	269.88
620.258	259.88
620.466	253.88
620.673	245.88
620.88	235.88
621.087	238.88
621.294	249.88
621.501	243.88
621.708	253.88
621.915	259.88
622.122	258.88
622.329	264.88
622.536	259.88
622.743	257.88
622.95	253.88
623.157	251.88
623.364	234.88
623.571	242.88
623.778	247.88
623.985	248.88
624.192	252.88
624.399	234.88
624.606	252.88
624.812	224.88
625.019	250.88
625.226	224.88
625.433	255.88
625.639	228.88
625.846	228.88
626.053	219.88
626.259	237.88
626.466	236.88
626.673	243.88
626.879	244.88
627.086	235.88
627.293	219.88
627.499	221.88
627.706	244.88
627.912	229.88
628.119	239.88
628.325	223.88
628.532	230.88
628.738	235.88
628.945	229.88
629.151	224.88
629.357	221.88
629.564	227.88
629.77	215.88
629.976	218.88
630.183	205.88
630.389	207.88
630.595	224.88
630.802	213.88
631.008	226.88
631.214	232.88
631.42	241.88
631.627	216.88
631.833	207.88
632.039	226.88
632.245	196.88
632.451	219.88
632.657	213.88
632.863	200.88
633.069	194.88
633.275	197.88
633.481	196.88
633.688	200.88
633.893	198.88
634.099	194.88
634.305	209.88
634.511	212.88
634.717	201.88
634.923	204.88
635.129	202.88
635.335	200.88
635.541	195.88
635.747	199.88
635.952	189.88
636.158	203.88
636.364	197.88
636.57	228.88
636.775	208.88
636.981	197.88
637.187	197.88
637.392	200.88
637.598	193.88
637.804	203.88
638.009	187.88
638.215	190.88
638.421	188.88
638.626	192.88
638.832	214.88
639.037	210.88
639.243	187.88
639.448	193.88
639.654	182.88
639.859	185.88
640.065	194.88
640.27	210.88
640.475	192.88
640.681	187.88
640.886	195.88
641.091	183.88
641.297	205.88
641.502	200.88
641.707	180.88
641.913	168.88
642.118	175.88
642.323	182.88
642.528	178.88
642.733	205.88
642.939	196.88
643.144	196.88
643.349	181.88
643.554	202.88
643.759	181.88
643.964	165.88
644.169	173.88
644.374	169.88
644.579	175.88
644.784	190.88
644.989	204.88
645.194	180.88
645.399	176.88
645.604	184.88
645.809	193.88
646.014	165.88
646.219	164.88
646.423	168.88
646.628	187.88
646.833	177.88
647.038	195.88
647.243	180.88
647.447	189.88
647.652	196.88
647.857	179.88
648.062	181.88
648.266	191.88
648.471	169.88
648.676	203.88
648.88	197.88
649.085	172.88
649.289	184.88
649.494	185.88
649.698	200.88
649.903	186.88
650.107	175.88
650.312	178.88
650.516	184.88
650.721	155.88
650.925	175.88
651.13	196.88
651.334	175.88
651.539	171.88
651.743	162.88
651.947	151.88
652.152	160.88
652.356	160.88
652.56	152.88
652.764	157.88
652.969	157.88
653.173	170.88
653.377	153.88
653.581	125.88
653.785	144.88
653.99	161.88
654.194	148.88
654.398	147.88
654.602	154.88
654.806	145.88
655.01	153.88
655.214	141.88
655.418	142.88
655.622	140.88
655.826	133.88
656.03	139.88
656.234	138.88
656.438	131.88
656.642	134.88
656.846	128.88
657.049	145.88
657.253	127.88
657.457	132.88
657.661	132.88
657.865	123.88
658.068	131.88
658.272	135.88
658.476	125.88
658.68	113.88
658.883	101.88
659.087	108.88
659.291	101.88
659.494	103.88
659.698	97.88
659.901	76.88
660.105	99.88
660.309	106.88
660.512	82.88
660.716	96.88
660.919	85.88
661.123	92.88
661.326	100.88
661.53	96.88
661.733	89.88
661.936	101.88
662.14	93.88
662.343	76.88
662.546	81.88
662.75	89.88
662.953	80.88
663.156	78.88
663.36	82.88
663.563	88.88
663.766	71.88
663.969	90.88
664.173	90.88
664.376	90.88
664.579	79.88
664.782	76.88
664.985	88.88
665.188	73.88
665.391	93.88
665.594	73.88
665.797	75.88
666	84.88
666.203	98.88
666.406	69.88
666.609	82.88
666.812	85.88
667.015	88.88
667.218	80.88
667.421	81.88
667.624	61.88
667.827	79.88
668.03	81.88
668.232	81.88
668.435	74.88
668.638	75.88
668.841	84.88
669.043	82.88
669.246	84.88
669.449	77.88
669.651	76.88
669.854	67.88
670.057	89.88
670.259	80.88
670.462	83.88
670.665	83.88
670.867	76.88
671.07	81.88
671.272	81.88
671.475	83.88
671.677	82.88
671.88	86.88
672.082	93.88
672.284	90.88
672.487	83.88
672.689	80.88
672.892	81.88
