Data from 1974.PennyLincolnUp.Lamp.En5.5.200Scan.071719.P1.Changed Mount._HRD10591_15-51-49-855.txt Node
Date: Thu Jul 18 15:51:49 EDT 2019
User: cochatt
Spectrometer: HR+D1059
Trigger mode: 1
Integration Time (sec): 1.000000E-1
Scans to average: 1
Electric dark correction enabled: true
Nonlinearity correction enabled: false
Boxcar width: 0
XAxis mode: Wavelengths
Number of Pixels in Spectrum: 2048
>>>>>Begin Spectral Data<<<<<
223.165	-20.44
223.4	-20.44
223.635	-20.44
223.869	-17.44
224.104	-4.44
224.338	-15.44
224.573	-18.44
224.808	-9.44
225.042	-4.44
225.277	-12.44
225.511	-0.44
225.746	-5.44
225.98	16.56
226.215	15.56
226.449	19.56
226.683	8.56
226.918	26.56
227.152	21.56
227.387	34.56
227.621	30.56
227.856	44.56
228.09	42.56
228.324	44.56
228.559	58.56
228.793	76.56
229.027	99.56
229.262	95.56
229.496	114.56
229.73	127.56
229.964	150.56
230.199	126.56
230.433	119.56
230.667	108.56
230.901	113.56
231.136	114.56
231.37	117.56
231.604	98.56
231.838	126.56
232.072	117.56
232.306	112.56
232.541	128.56
232.775	122.56
233.009	111.56
233.243	110.56
233.477	127.56
233.711	110.56
233.945	124.56
234.179	102.56
234.413	124.56
234.647	117.56
234.881	118.56
235.115	115.56
235.349	121.56
235.583	111.56
235.817	127.56
236.051	125.56
236.285	126.56
236.519	120.56
236.753	128.56
236.987	137.56
237.221	164.56
237.455	211.56
237.689	182.56
237.922	145.56
238.156	132.56
238.39	135.56
238.624	127.56
238.858	125.56
239.091	137.56
239.325	124.56
239.559	133.56
239.793	127.56
240.027	144.56
240.26	138.56
240.494	159.56
240.728	149.56
240.961	160.56
241.195	152.56
241.429	142.56
241.662	148.56
241.896	143.56
242.13	153.56
242.363	150.56
242.597	143.56
242.83	130.56
243.064	135.56
243.298	144.56
243.531	140.56
243.765	148.56
243.998	142.56
244.232	150.56
244.465	159.56
244.699	153.56
244.932	149.56
245.166	160.56
245.399	151.56
245.633	150.56
245.866	151.56
246.099	167.56
246.333	151.56
246.566	153.56
246.8	154.56
247.033	163.56
247.266	172.56
247.5	165.56
247.733	176.56
247.966	166.56
248.2	177.56
248.433	184.56
248.666	167.56
248.899	185.56
249.133	205.56
249.366	199.56
249.599	192.56
249.832	191.56
250.066	175.56
250.299	179.56
250.532	191.56
250.765	207.56
250.998	228.56
251.231	229.56
251.465	219.56
251.698	216.56
251.931	198.56
252.164	200.56
252.397	212.56
252.63	200.56
252.863	206.56
253.096	232.56
253.329	217.56
253.562	243.56
253.795	218.56
254.028	221.56
254.261	227.56
254.494	246.56
254.727	246.56
254.96	275.56
255.193	266.56
255.426	242.56
255.659	220.56
255.892	220.56
256.124	233.56
256.357	233.56
256.59	235.56
256.823	212.56
257.056	225.56
257.289	229.56
257.521	210.56
257.754	220.56
257.987	210.56
258.22	213.56
258.452	217.56
258.685	212.56
258.918	211.56
259.151	223.56
259.383	217.56
259.616	236.56
259.849	234.56
260.081	248.56
260.314	250.56
260.547	262.56
260.779	236.56
261.012	229.56
261.244	220.56
261.477	237.56
261.71	228.56
261.942	230.56
262.175	234.56
262.407	221.56
262.64	227.56
262.872	226.56
263.105	214.56
263.337	226.56
263.57	206.56
263.802	229.56
264.035	219.56
264.267	225.56
264.499	225.56
264.732	215.56
264.964	242.56
265.197	223.56
265.429	233.56
265.661	221.56
265.894	224.56
266.126	246.56
266.358	231.56
266.591	222.56
266.823	239.56
267.055	232.56
267.287	250.56
267.52	236.56
267.752	229.56
267.984	228.56
268.216	245.56
268.448	236.56
268.681	250.56
268.913	247.56
269.145	265.56
269.377	281.56
269.609	273.56
269.841	264.56
270.073	278.56
270.306	291.56
270.538	313.56
270.77	299.56
271.002	318.56
271.234	276.56
271.466	311.56
271.698	300.56
271.93	330.56
272.162	328.56
272.394	318.56
272.626	291.56
272.858	295.56
273.09	277.56
273.322	277.56
273.553	259.56
273.785	260.56
274.017	281.56
274.249	275.56
274.481	269.56
274.713	264.56
274.945	292.56
275.176	270.56
275.408	266.56
275.64	262.56
275.872	266.56
276.104	266.56
276.335	275.56
276.567	287.56
276.799	291.56
277.031	304.56
277.262	288.56
277.494	325.56
277.726	301.56
277.957	301.56
278.189	275.56
278.421	276.56
278.652	275.56
278.884	269.56
279.115	271.56
279.347	290.56
279.579	274.56
279.81	290.56
280.042	288.56
280.273	293.56
280.505	254.56
280.736	283.56
280.968	279.56
281.199	277.56
281.431	278.56
281.662	269.56
281.894	277.56
282.125	272.56
282.356	292.56
282.588	323.56
282.819	308.56
283.051	295.56
283.282	266.56
283.513	286.56
283.745	286.56
283.976	294.56
284.207	267.56
284.439	292.56
284.67	279.56
284.901	270.56
285.132	287.56
285.364	279.56
285.595	298.56
285.826	300.56
286.057	277.56
286.288	282.56
286.52	323.56
286.751	285.56
286.982	295.56
287.213	302.56
287.444	300.56
287.675	283.56
287.906	323.56
288.138	307.56
288.369	307.56
288.6	312.56
288.831	312.56
289.062	323.56
289.293	309.56
289.524	311.56
289.755	318.56
289.986	295.56
290.217	309.56
290.448	317.56
290.679	314.56
290.91	318.56
291.141	290.56
291.371	278.56
291.602	306.56
291.833	290.56
292.064	283.56
292.295	308.56
292.526	298.56
292.757	284.56
292.987	310.56
293.218	307.56
293.449	290.56
293.68	301.56
293.91	307.56
294.141	308.56
294.372	307.56
294.603	293.56
294.833	293.56
295.064	311.56
295.295	320.56
295.525	312.56
295.756	311.56
295.987	317.56
296.217	333.56
296.448	345.56
296.679	310.56
296.909	299.56
297.14	294.56
297.37	323.56
297.601	327.56
297.831	331.56
298.062	303.56
298.292	322.56
298.523	321.56
298.753	324.56
298.984	329.56
299.214	310.56
299.445	340.56
299.675	319.56
299.905	336.56
300.136	344.56
300.366	304.56
300.597	332.56
300.827	342.56
301.057	349.56
301.288	344.56
301.518	339.56
301.748	330.56
301.979	349.56
302.209	334.56
302.439	347.56
302.669	350.56
302.9	351.56
303.13	328.56
303.36	341.56
303.59	359.56
303.82	353.56
304.051	342.56
304.281	352.56
304.511	349.56
304.741	355.56
304.971	342.56
305.201	345.56
305.431	361.56
305.661	356.56
305.891	324.56
306.121	345.56
306.352	346.56
306.582	362.56
306.812	327.56
307.042	346.56
307.272	337.56
307.502	372.56
307.731	348.56
307.961	350.56
308.191	347.56
308.421	366.56
308.651	353.56
308.881	341.56
309.111	344.56
309.341	352.56
309.571	357.56
309.8	347.56
310.03	376.56
310.26	381.56
310.49	363.56
310.72	366.56
310.949	396.56
311.179	382.56
311.409	363.56
311.639	376.56
311.868	380.56
312.098	388.56
312.328	387.56
312.557	387.56
312.787	404.56
313.017	395.56
313.246	382.56
313.476	384.56
313.706	366.56
313.935	403.56
314.165	408.56
314.394	404.56
314.624	407.56
314.853	386.56
315.083	399.56
315.312	388.56
315.542	386.56
315.771	380.56
316.001	376.56
316.23	376.56
316.46	379.56
316.689	384.56
316.919	401.56
317.148	387.56
317.377	396.56
317.607	397.56
317.836	382.56
318.065	371.56
318.295	378.56
318.524	398.56
318.753	374.56
318.983	375.56
319.212	378.56
319.441	383.56
319.67	392.56
319.9	381.56
320.129	381.56
320.358	398.56
320.587	393.56
320.816	386.56
321.046	397.56
321.275	397.56
321.504	399.56
321.733	384.56
321.962	393.56
322.191	415.56
322.42	419.56
322.649	435.56
322.878	412.56
323.108	445.56
323.337	423.56
323.566	431.56
323.795	502.56
324.024	500.56
324.253	578.56
324.482	747.56
324.71	1122.56
324.939	1664.56
325.168	1476.56
325.397	772.56
325.626	562.56
325.855	483.56
326.084	477.56
326.313	469.56
326.542	457.56
326.77	484.56
326.999	542.56
327.228	710.56
327.457	1033.56
327.686	1271.56
327.914	870.56
328.143	606.56
328.372	542.56
328.6	516.56
328.829	488.56
329.058	492.56
329.287	524.56
329.515	503.56
329.744	486.56
329.972	468.56
330.201	498.56
330.43	502.56
330.658	525.56
330.887	538.56
331.115	537.56
331.344	524.56
331.572	496.56
331.801	482.56
332.03	489.56
332.258	449.56
332.486	462.56
332.715	453.56
332.943	486.56
333.172	491.56
333.4	483.56
333.629	491.56
333.857	480.56
334.085	492.56
334.314	532.56
334.542	527.56
334.771	544.56
334.999	496.56
335.227	519.56
335.455	479.56
335.684	471.56
335.912	469.56
336.14	471.56
336.369	471.56
336.597	469.56
336.825	472.56
337.053	471.56
337.281	459.56
337.51	459.56
337.738	474.56
337.966	450.56
338.194	461.56
338.422	472.56
338.65	467.56
338.878	462.56
339.106	432.56
339.334	446.56
339.562	458.56
339.79	450.56
340.018	444.56
340.246	440.56
340.474	441.56
340.702	452.56
340.93	460.56
341.158	434.56
341.386	445.56
341.614	466.56
341.842	445.56
342.07	446.56
342.298	459.56
342.526	436.56
342.754	436.56
342.981	422.56
343.209	437.56
343.437	449.56
343.665	441.56
343.893	454.56
344.12	474.56
344.348	457.56
344.576	469.56
344.804	464.56
345.031	459.56
345.259	450.56
345.487	445.56
345.714	458.56
345.942	436.56
346.17	445.56
346.397	430.56
346.625	456.56
346.853	426.56
347.08	409.56
347.308	438.56
347.535	432.56
347.763	441.56
347.99	443.56
348.218	437.56
348.445	459.56
348.673	430.56
348.9	418.56
349.128	437.56
349.355	423.56
349.583	430.56
349.81	404.56
350.037	410.56
350.265	414.56
350.492	410.56
350.72	419.56
350.947	434.56
351.174	435.56
351.402	439.56
351.629	434.56
351.856	447.56
352.083	441.56
352.311	412.56
352.538	440.56
352.765	446.56
352.992	429.56
353.22	451.56
353.447	406.56
353.674	433.56
353.901	427.56
354.128	418.56
354.355	429.56
354.583	426.56
354.81	421.56
355.037	422.56
355.264	418.56
355.491	422.56
355.718	394.56
355.945	399.56
356.172	415.56
356.399	402.56
356.626	413.56
356.853	415.56
357.08	414.56
357.307	419.56
357.534	411.56
357.761	419.56
357.988	408.56
358.215	412.56
358.441	421.56
358.668	409.56
358.895	434.56
359.122	429.56
359.349	404.56
359.576	434.56
359.802	446.56
360.029	462.56
360.256	452.56
360.483	445.56
360.709	426.56
360.936	410.56
361.163	436.56
361.39	428.56
361.616	421.56
361.843	436.56
362.07	419.56
362.296	430.56
362.523	440.56
362.749	437.56
362.976	431.56
363.203	421.56
363.429	407.56
363.656	414.56
363.882	423.56
364.109	430.56
364.335	442.56
364.562	431.56
364.788	410.56
365.015	430.56
365.241	436.56
365.468	430.56
365.694	423.56
365.92	432.56
366.147	425.56
366.373	430.56
366.599	426.56
366.826	417.56
367.052	399.56
367.278	427.56
367.505	446.56
367.731	419.56
367.957	423.56
368.184	422.56
368.41	432.56
368.636	445.56
368.862	437.56
369.089	434.56
369.315	421.56
369.541	415.56
369.767	414.56
369.993	418.56
370.219	423.56
370.445	401.56
370.672	434.56
370.898	432.56
371.124	443.56
371.35	434.56
371.576	440.56
371.802	443.56
372.028	443.56
372.254	425.56
372.48	445.56
372.706	442.56
372.932	462.56
373.158	440.56
373.384	447.56
373.61	441.56
373.835	453.56
374.061	441.56
374.287	436.56
374.513	455.56
374.739	437.56
374.965	464.56
375.191	445.56
375.416	452.56
375.642	446.56
375.868	438.56
376.094	445.56
376.319	422.56
376.545	429.56
376.771	434.56
376.997	427.56
377.222	436.56
377.448	435.56
377.674	409.56
377.899	420.56
378.125	428.56
378.35	443.56
378.576	442.56
378.802	430.56
379.027	434.56
379.253	446.56
379.478	415.56
379.704	446.56
379.929	448.56
380.155	446.56
380.38	432.56
380.606	426.56
380.831	442.56
381.057	447.56
381.282	437.56
381.507	451.56
381.733	443.56
381.958	441.56
382.184	450.56
382.409	474.56
382.634	423.56
382.86	448.56
383.085	439.56
383.31	472.56
383.535	486.56
383.761	467.56
383.986	475.56
384.211	460.56
384.436	464.56
384.662	483.56
384.887	462.56
385.112	468.56
385.337	476.56
385.562	501.56
385.787	482.56
386.013	496.56
386.238	476.56
386.463	507.56
386.688	484.56
386.913	502.56
387.138	495.56
387.363	511.56
387.588	478.56
387.813	462.56
388.038	474.56
388.263	496.56
388.488	509.56
388.713	484.56
388.938	501.56
389.163	478.56
389.387	480.56
389.612	479.56
389.837	498.56
390.062	488.56
390.287	500.56
390.512	471.56
390.736	488.56
390.961	512.56
391.186	500.56
391.411	496.56
391.636	511.56
391.86	506.56
392.085	502.56
392.31	516.56
392.534	502.56
392.759	510.56
392.984	501.56
393.208	515.56
393.433	518.56
393.658	500.56
393.882	496.56
394.107	478.56
394.331	510.56
394.556	494.56
394.78	491.56
395.005	508.56
395.229	517.56
395.454	505.56
395.678	522.56
395.903	525.56
396.127	555.56
396.352	549.56
396.576	512.56
396.801	509.56
397.025	520.56
397.249	519.56
397.474	517.56
397.698	557.56
397.922	551.56
398.147	535.56
398.371	574.56
398.595	552.56
398.82	568.56
399.044	568.56
399.268	608.56
399.492	640.56
399.717	686.56
399.941	717.56
400.165	720.56
400.389	718.56
400.613	645.56
400.837	598.56
401.062	585.56
401.286	579.56
401.51	579.56
401.734	552.56
401.958	562.56
402.182	580.56
402.406	584.56
402.63	588.56
402.854	590.56
403.078	600.56
403.302	599.56
403.526	602.56
403.75	611.56
403.974	596.56
404.198	597.56
404.422	615.56
404.645	635.56
404.869	608.56
405.093	641.56
405.317	662.56
405.541	706.56
405.765	647.56
405.988	629.56
406.212	646.56
406.436	623.56
406.66	648.56
406.883	635.56
407.107	654.56
407.331	703.56
407.555	798.56
407.778	773.56
408.002	726.56
408.226	665.56
408.449	667.56
408.673	642.56
408.896	669.56
409.12	708.56
409.344	704.56
409.567	620.56
409.791	630.56
410.014	616.56
410.238	588.56
410.461	627.56
410.685	622.56
410.908	636.56
411.132	643.56
411.355	657.56
411.578	650.56
411.802	630.56
412.025	587.56
412.249	616.56
412.472	617.56
412.695	639.56
412.919	622.56
413.142	628.56
413.365	580.56
413.589	584.56
413.812	583.56
414.035	567.56
414.258	585.56
414.482	571.56
414.705	565.56
414.928	568.56
415.151	581.56
415.374	571.56
415.597	574.56
415.821	572.56
416.044	560.56
416.267	554.56
416.49	577.56
416.713	576.56
416.936	543.56
417.159	539.56
417.382	567.56
417.605	560.56
417.828	567.56
418.051	575.56
418.274	589.56
418.497	582.56
418.72	574.56
418.943	549.56
419.166	593.56
419.389	635.56
419.611	611.56
419.834	585.56
420.057	600.56
420.28	587.56
420.503	589.56
420.726	603.56
420.948	599.56
421.171	620.56
421.394	657.56
421.617	598.56
421.839	584.56
422.062	599.56
422.285	604.56
422.507	669.56
422.73	717.56
422.953	710.56
423.175	635.56
423.398	616.56
423.621	593.56
423.843	636.56
424.066	634.56
424.288	640.56
424.511	667.56
424.733	686.56
424.956	776.56
425.178	742.56
425.401	714.56
425.623	777.56
425.846	656.56
426.068	633.56
426.291	618.56
426.513	603.56
426.735	614.56
426.958	647.56
427.18	754.56
427.402	845.56
427.625	926.56
427.847	799.56
428.069	704.56
428.292	662.56
428.514	604.56
428.736	587.56
428.958	591.56
429.181	565.56
429.403	536.56
429.625	573.56
429.847	617.56
430.069	655.56
430.292	688.56
430.514	589.56
430.736	587.56
430.958	588.56
431.18	563.56
431.402	536.56
431.624	557.56
431.846	552.56
432.068	531.56
432.29	547.56
432.512	567.56
432.734	534.56
432.956	575.56
433.178	564.56
433.4	591.56
433.622	580.56
433.844	555.56
434.066	572.56
434.287	542.56
434.509	559.56
434.731	588.56
434.953	576.56
435.175	597.56
435.397	626.56
435.618	632.56
435.84	663.56
436.062	733.56
436.284	827.56
436.505	711.56
436.727	601.56
436.949	603.56
437.17	583.56
437.392	570.56
437.614	574.56
437.835	591.56
438.057	662.56
438.278	784.56
438.5	764.56
438.721	852.56
438.943	852.56
439.165	663.56
439.386	605.56
439.608	620.56
439.829	596.56
440.05	616.56
440.272	650.56
440.493	646.56
440.715	573.56
440.936	570.56
441.158	578.56
441.379	585.56
441.6	597.56
441.822	610.56
442.043	666.56
442.264	727.56
442.486	772.56
442.707	670.56
442.928	635.56
443.149	627.56
443.371	688.56
443.592	696.56
443.813	798.56
444.034	864.56
444.255	699.56
444.476	669.56
444.698	664.56
444.919	637.56
445.14	764.56
445.361	703.56
445.582	706.56
445.803	705.56
446.024	800.56
446.245	794.56
446.466	722.56
446.687	676.56
446.908	658.56
447.129	607.56
447.35	564.56
447.571	576.56
447.792	553.56
448.013	576.56
448.234	564.56
448.455	624.56
448.675	741.56
448.896	830.56
449.117	708.56
449.338	720.56
449.559	771.56
449.779	880.56
450	722.56
450.221	613.56
450.442	580.56
450.662	531.56
450.883	543.56
451.104	549.56
451.324	552.56
451.545	521.56
451.766	535.56
451.986	509.56
452.207	501.56
452.428	505.56
452.648	512.56
452.869	498.56
453.089	490.56
453.31	503.56
453.53	518.56
453.751	500.56
453.971	502.56
454.192	521.56
454.412	516.56
454.633	491.56
454.853	488.56
455.073	504.56
455.294	521.56
455.514	561.56
455.734	585.56
455.955	518.56
456.175	475.56
456.395	488.56
456.616	480.56
456.836	445.56
457.056	471.56
457.276	456.56
457.497	479.56
457.717	474.56
457.937	468.56
458.157	482.56
458.377	527.56
458.598	514.56
458.818	531.56
459.038	622.56
459.258	637.56
459.478	590.56
459.698	546.56
459.918	551.56
460.138	537.56
460.358	570.56
460.578	576.56
460.798	573.56
461.018	571.56
461.238	573.56
461.458	567.56
461.678	563.56
461.898	572.56
462.118	569.56
462.338	577.56
462.558	614.56
462.777	598.56
462.997	615.56
463.217	643.56
463.437	683.56
463.657	640.56
463.876	611.56
464.096	614.56
464.316	608.56
464.536	599.56
464.755	603.56
464.975	607.56
465.195	620.56
465.414	659.56
465.634	615.56
465.854	556.56
466.073	563.56
466.293	556.56
466.512	521.56
466.732	536.56
466.951	542.56
467.171	516.56
467.391	536.56
467.61	504.56
467.829	531.56
468.049	530.56
468.268	532.56
468.488	520.56
468.707	530.56
468.927	516.56
469.146	487.56
469.365	507.56
469.585	518.56
469.804	521.56
470.023	519.56
470.243	536.56
470.462	502.56
470.681	545.56
470.901	522.56
471.12	522.56
471.339	565.56
471.558	536.56
471.777	544.56
471.997	525.56
472.216	516.56
472.435	550.56
472.654	522.56
472.873	537.56
473.092	544.56
473.311	516.56
473.53	514.56
473.749	518.56
473.968	590.56
474.187	681.56
474.406	680.56
474.625	589.56
474.844	532.56
475.063	515.56
475.282	559.56
475.501	532.56
475.72	540.56
475.939	552.56
476.158	525.56
476.377	556.56
476.596	555.56
476.814	549.56
477.033	564.56
477.252	554.56
477.471	562.56
477.69	588.56
477.908	595.56
478.127	596.56
478.346	598.56
478.564	571.56
478.783	593.56
479.002	612.56
479.22	605.56
479.439	610.56
479.658	640.56
479.876	619.56
480.095	642.56
480.313	668.56
480.532	680.56
480.751	665.56
480.969	634.56
481.188	667.56
481.406	708.56
481.624	683.56
481.843	660.56
482.061	638.56
482.28	615.56
482.498	637.56
482.717	637.56
482.935	641.56
483.153	624.56
483.372	621.56
483.59	619.56
483.808	619.56
484.027	595.56
484.245	617.56
484.463	616.56
484.681	641.56
484.9	647.56
485.118	666.56
485.336	630.56
485.554	635.56
485.772	639.56
485.99	633.56
486.209	644.56
486.427	634.56
486.645	655.56
486.863	680.56
487.081	682.56
487.299	659.56
487.517	647.56
487.735	642.56
487.953	651.56
488.171	662.56
488.389	670.56
488.607	642.56
488.825	658.56
489.043	656.56
489.261	667.56
489.479	663.56
489.696	676.56
489.914	680.56
490.132	666.56
490.35	687.56
490.568	689.56
490.786	726.56
491.003	745.56
491.221	714.56
491.439	730.56
491.657	738.56
491.874	755.56
492.092	766.56
492.31	785.56
492.527	760.56
492.745	779.56
492.963	762.56
493.18	771.56
493.398	755.56
493.615	783.56
493.833	804.56
494.05	786.56
494.268	785.56
494.485	790.56
494.703	797.56
494.92	789.56
495.138	787.56
495.355	794.56
495.573	782.56
495.79	780.56
496.008	807.56
496.225	793.56
496.442	811.56
496.66	808.56
496.877	808.56
497.094	826.56
497.312	788.56
497.529	804.56
497.746	820.56
497.963	836.56
498.181	876.56
498.398	888.56
498.615	912.56
498.832	936.56
499.049	956.56
499.267	1012.56
499.484	1036.56
499.701	1059.56
499.918	1086.56
500.135	1172.56
500.352	1212.56
500.569	1268.56
500.786	1287.56
501.003	1236.56
501.22	1182.56
501.437	1161.56
501.654	1107.56
501.871	1059.56
502.088	1021.56
502.305	972.56
502.522	930.56
502.739	928.56
502.956	870.56
503.172	832.56
503.389	844.56
503.606	821.56
503.823	840.56
504.04	802.56
504.256	806.56
504.473	820.56
504.69	808.56
504.907	800.56
505.123	757.56
505.34	780.56
505.557	761.56
505.773	745.56
505.99	722.56
506.207	730.56
506.423	736.56
506.64	734.56
506.856	727.56
507.073	724.56
507.289	718.56
507.506	714.56
507.722	719.56
507.939	734.56
508.155	717.56
508.372	705.56
508.588	692.56
508.805	680.56
509.021	706.56
509.238	687.56
509.454	690.56
509.67	690.56
509.887	701.56
510.103	670.56
510.319	678.56
510.536	726.56
510.752	1008.56
510.968	896.56
511.184	661.56
511.401	651.56
511.617	628.56
511.833	627.56
512.049	647.56
512.265	646.56
512.481	640.56
512.698	632.56
512.914	650.56
513.13	630.56
513.346	635.56
513.562	638.56
513.778	651.56
513.994	639.56
514.21	651.56
514.426	685.56
514.642	690.56
514.858	720.56
515.074	745.56
515.29	781.56
515.506	1038.56
515.721	914.56
515.937	725.56
516.153	696.56
516.369	702.56
516.585	691.56
516.801	679.56
517.016	702.56
517.232	716.56
517.448	714.56
517.664	700.56
517.879	701.56
518.095	711.56
518.311	710.56
518.527	678.56
518.742	700.56
518.958	654.56
519.173	668.56
519.389	664.56
519.605	637.56
519.82	655.56
520.036	643.56
520.251	693.56
520.467	690.56
520.682	666.56
520.898	675.56
521.113	669.56
521.329	700.56
521.544	746.56
521.76	867.56
521.975	1249.56
522.19	1237.56
522.406	795.56
522.621	662.56
522.836	638.56
523.052	621.56
523.267	591.56
523.482	594.56
523.698	555.56
523.913	591.56
524.128	592.56
524.343	581.56
524.559	568.56
524.774	570.56
524.989	563.56
525.204	582.56
525.419	538.56
525.634	572.56
525.849	544.56
526.064	548.56
526.28	537.56
526.495	551.56
526.71	550.56
526.925	543.56
527.14	533.56
527.355	557.56
527.57	548.56
527.785	536.56
527.999	535.56
528.214	535.56
528.429	543.56
528.644	551.56
528.859	542.56
529.074	550.56
529.289	555.56
529.503	599.56
529.718	590.56
529.933	559.56
530.148	551.56
530.363	579.56
530.577	524.56
530.792	531.56
531.007	517.56
531.221	531.56
531.436	528.56
531.651	540.56
531.865	523.56
532.08	527.56
532.295	524.56
532.509	512.56
532.724	509.56
532.938	538.56
533.153	520.56
533.367	536.56
533.582	535.56
533.796	508.56
534.011	525.56
534.225	531.56
534.44	522.56
534.654	504.56
534.868	516.56
535.083	506.56
535.297	500.56
535.511	502.56
535.726	536.56
535.94	540.56
536.154	520.56
536.369	512.56
536.583	518.56
536.797	483.56
537.011	508.56
537.225	499.56
537.44	489.56
537.654	529.56
537.868	512.56
538.082	505.56
538.296	512.56
538.51	507.56
538.724	509.56
538.938	483.56
539.153	508.56
539.367	508.56
539.581	515.56
539.795	514.56
540.009	506.56
540.222	524.56
540.436	493.56
540.65	495.56
540.864	491.56
541.078	515.56
541.292	486.56
541.506	504.56
541.72	504.56
541.934	496.56
542.147	527.56
542.361	505.56
542.575	519.56
542.789	476.56
543.002	487.56
543.216	512.56
543.43	492.56
543.644	500.56
543.857	514.56
544.071	504.56
544.285	499.56
544.498	524.56
544.712	510.56
544.925	502.56
545.139	487.56
545.352	518.56
545.566	494.56
545.779	511.56
545.993	509.56
546.206	507.56
546.42	494.56
546.633	489.56
546.847	491.56
547.06	500.56
547.274	498.56
547.487	501.56
547.7	469.56
547.914	488.56
548.127	499.56
548.34	508.56
548.554	499.56
548.767	493.56
548.98	485.56
549.193	507.56
549.407	510.56
549.62	517.56
549.833	517.56
550.046	492.56
550.259	503.56
550.473	492.56
550.686	510.56
550.899	506.56
551.112	482.56
551.325	483.56
551.538	477.56
551.751	471.56
551.964	483.56
552.177	484.56
552.39	474.56
552.603	514.56
552.816	502.56
553.029	518.56
553.242	527.56
553.455	514.56
553.667	539.56
553.88	540.56
554.093	497.56
554.306	504.56
554.519	522.56
554.732	491.56
554.944	484.56
555.157	471.56
555.37	481.56
555.583	480.56
555.795	457.56
556.008	462.56
556.221	453.56
556.433	455.56
556.646	438.56
556.859	460.56
557.071	474.56
557.284	450.56
557.496	450.56
557.709	434.56
557.921	443.56
558.134	448.56
558.346	438.56
558.559	453.56
558.771	447.56
558.984	421.56
559.196	442.56
559.409	422.56
559.621	447.56
559.833	426.56
560.046	442.56
560.258	432.56
560.47	424.56
560.683	453.56
560.895	436.56
561.107	443.56
561.32	422.56
561.532	443.56
561.744	438.56
561.956	428.56
562.168	445.56
562.381	439.56
562.593	447.56
562.805	430.56
563.017	438.56
563.229	428.56
563.441	432.56
563.653	450.56
563.865	430.56
564.077	435.56
564.289	427.56
564.501	457.56
564.713	460.56
564.925	473.56
565.137	449.56
565.349	457.56
565.561	501.56
565.773	493.56
565.985	505.56
566.197	513.56
566.408	513.56
566.62	534.56
566.832	574.56
567.044	580.56
567.255	560.56
567.467	600.56
567.679	609.56
567.891	595.56
568.102	619.56
568.314	601.56
568.526	581.56
568.737	550.56
568.949	530.56
569.161	515.56
569.372	468.56
569.584	473.56
569.795	473.56
570.007	468.56
570.218	465.56
570.43	469.56
570.641	419.56
570.853	444.56
571.064	446.56
571.276	426.56
571.487	416.56
571.698	406.56
571.91	431.56
572.121	407.56
572.333	407.56
572.544	382.56
572.755	386.56
572.966	374.56
573.178	412.56
573.389	386.56
573.6	364.56
573.811	377.56
574.023	378.56
574.234	385.56
574.445	379.56
574.656	376.56
574.867	373.56
575.078	368.56
575.289	378.56
575.501	365.56
575.712	377.56
575.923	361.56
576.134	354.56
576.345	379.56
576.556	353.56
576.767	382.56
576.978	364.56
577.188	362.56
577.399	358.56
577.61	363.56
577.821	333.56
578.032	354.56
578.243	358.56
578.454	490.56
578.665	425.56
578.875	366.56
579.086	352.56
579.297	366.56
579.508	350.56
579.718	340.56
579.929	343.56
580.14	349.56
580.35	333.56
580.561	347.56
580.772	337.56
580.982	345.56
581.193	342.56
581.403	353.56
581.614	344.56
581.825	348.56
582.035	333.56
582.246	362.56
582.456	343.56
582.667	333.56
582.877	341.56
583.087	343.56
583.298	329.56
583.508	324.56
583.719	331.56
583.929	334.56
584.139	310.56
584.35	329.56
584.56	330.56
584.77	337.56
584.981	340.56
585.191	336.56
585.401	343.56
585.611	328.56
585.821	330.56
586.032	331.56
586.242	341.56
586.452	325.56
586.662	316.56
586.872	326.56
587.082	336.56
587.292	331.56
587.502	343.56
587.713	317.56
587.923	334.56
588.133	327.56
588.343	331.56
588.553	333.56
588.762	341.56
588.972	333.56
589.182	336.56
589.392	341.56
589.602	326.56
589.812	311.56
590.022	316.56
590.232	322.56
590.441	328.56
590.651	342.56
590.861	333.56
591.071	341.56
591.281	325.56
591.49	345.56
591.7	350.56
591.91	348.56
592.119	347.56
592.329	347.56
592.539	352.56
592.748	362.56
592.958	351.56
593.167	360.56
593.377	354.56
593.587	372.56
593.796	361.56
594.006	360.56
594.215	373.56
594.424	366.56
594.634	376.56
594.843	370.56
595.053	364.56
595.262	352.56
595.472	350.56
595.681	325.56
595.89	335.56
596.1	318.56
596.309	303.56
596.518	301.56
596.727	331.56
596.937	312.56
597.146	303.56
597.355	314.56
597.564	303.56
597.774	314.56
597.983	312.56
598.192	297.56
598.401	295.56
598.61	316.56
598.819	281.56
599.028	283.56
599.237	299.56
599.446	286.56
599.655	274.56
599.864	288.56
600.073	279.56
600.282	288.56
600.491	289.56
600.7	290.56
600.909	299.56
601.118	286.56
601.327	279.56
601.536	286.56
601.745	318.56
601.953	294.56
602.162	284.56
602.371	279.56
602.58	267.56
602.789	289.56
602.997	271.56
603.206	278.56
603.415	293.56
603.623	271.56
603.832	263.56
604.041	293.56
604.249	284.56
604.458	260.56
604.666	281.56
604.875	263.56
605.084	280.56
605.292	291.56
605.501	279.56
605.709	284.56
605.918	287.56
606.126	262.56
606.334	282.56
606.543	289.56
606.751	267.56
606.96	270.56
607.168	266.56
607.376	279.56
607.585	278.56
607.793	284.56
608.001	279.56
608.21	285.56
608.418	269.56
608.626	292.56
608.834	282.56
609.043	269.56
609.251	286.56
609.459	258.56
609.667	279.56
609.875	263.56
610.083	275.56
610.291	266.56
610.499	276.56
610.707	289.56
610.916	275.56
611.124	276.56
611.332	268.56
611.54	285.56
611.748	282.56
611.955	266.56
612.163	290.56
612.371	282.56
612.579	258.56
612.787	273.56
612.995	288.56
613.203	278.56
613.411	260.56
613.618	260.56
613.826	277.56
614.034	279.56
614.242	266.56
614.449	264.56
614.657	263.56
614.865	263.56
615.072	252.56
615.28	268.56
615.488	267.56
615.695	261.56
615.903	258.56
616.111	263.56
616.318	261.56
616.526	269.56
616.733	249.56
616.941	259.56
617.148	266.56
617.356	263.56
617.563	250.56
617.771	263.56
617.978	244.56
618.185	251.56
618.393	262.56
618.6	269.56
618.807	258.56
619.015	252.56
619.222	257.56
619.429	253.56
619.637	243.56
619.844	238.56
620.051	253.56
620.258	248.56
620.466	256.56
620.673	235.56
620.88	250.56
621.087	253.56
621.294	259.56
621.501	257.56
621.708	276.56
621.915	234.56
622.122	241.56
622.329	267.56
622.536	261.56
622.743	245.56
622.95	254.56
623.157	222.56
623.364	224.56
623.571	249.56
623.778	254.56
623.985	231.56
624.192	242.56
624.399	238.56
624.606	234.56
624.812	229.56
625.019	232.56
625.226	231.56
625.433	235.56
625.639	229.56
625.846	243.56
626.053	239.56
626.259	227.56
626.466	222.56
626.673	218.56
626.879	230.56
627.086	219.56
627.293	231.56
627.499	223.56
627.706	235.56
627.912	221.56
628.119	234.56
628.325	229.56
628.532	217.56
628.738	219.56
628.945	214.56
629.151	214.56
629.357	209.56
629.564	221.56
629.77	226.56
629.976	221.56
630.183	211.56
630.389	224.56
630.595	218.56
630.802	221.56
631.008	219.56
631.214	211.56
631.42	224.56
631.627	214.56
631.833	199.56
632.039	222.56
632.245	205.56
632.451	206.56
632.657	210.56
632.863	207.56
633.069	212.56
633.275	201.56
633.481	195.56
633.688	209.56
633.893	206.56
634.099	203.56
634.305	203.56
634.511	201.56
634.717	202.56
634.923	200.56
635.129	198.56
635.335	187.56
635.541	194.56
635.747	210.56
635.952	208.56
636.158	191.56
636.364	197.56
636.57	210.56
636.775	203.56
636.981	205.56
637.187	209.56
637.392	196.56
637.598	196.56
637.804	186.56
638.009	209.56
638.215	199.56
638.421	183.56
638.626	191.56
638.832	176.56
639.037	203.56
639.243	177.56
639.448	187.56
639.654	194.56
639.859	193.56
640.065	198.56
640.27	186.56
640.475	189.56
640.681	171.56
640.886	195.56
641.091	163.56
641.297	196.56
641.502	201.56
641.707	190.56
641.913	193.56
642.118	186.56
642.323	183.56
642.528	205.56
642.733	191.56
642.939	187.56
643.144	190.56
643.349	180.56
643.554	178.56
643.759	193.56
643.964	178.56
644.169	186.56
644.374	175.56
644.579	190.56
644.784	195.56
644.989	184.56
645.194	176.56
645.399	186.56
645.604	187.56
645.809	186.56
646.014	198.56
646.219	190.56
646.423	184.56
646.628	183.56
646.833	183.56
647.038	179.56
647.243	179.56
647.447	194.56
647.652	185.56
647.857	184.56
648.062	187.56
648.266	187.56
648.471	199.56
648.676	176.56
648.88	179.56
649.085	174.56
649.289	189.56
649.494	170.56
649.698	192.56
649.903	179.56
650.107	179.56
650.312	178.56
650.516	170.56
650.721	186.56
650.925	171.56
651.13	177.56
651.334	171.56
651.539	170.56
651.743	159.56
651.947	164.56
652.152	164.56
652.356	160.56
652.56	161.56
652.764	154.56
652.969	155.56
653.173	153.56
653.377	149.56
653.581	152.56
653.785	154.56
653.99	154.56
654.194	148.56
654.398	120.56
654.602	146.56
654.806	160.56
655.01	157.56
655.214	163.56
655.418	132.56
655.622	140.56
655.826	152.56
656.03	152.56
656.234	136.56
656.438	150.56
656.642	149.56
656.846	137.56
657.049	138.56
657.253	140.56
657.457	120.56
657.661	132.56
657.865	130.56
658.068	140.56
658.272	127.56
658.476	124.56
658.68	103.56
658.883	108.56
659.087	103.56
659.291	110.56
659.494	110.56
659.698	104.56
659.901	107.56
660.105	114.56
660.309	113.56
660.512	96.56
660.716	88.56
660.919	98.56
661.123	97.56
661.326	91.56
661.53	95.56
661.733	83.56
661.936	98.56
662.14	89.56
662.343	95.56
662.546	84.56
662.75	82.56
662.953	90.56
663.156	94.56
663.36	107.56
663.563	89.56
663.766	86.56
663.969	84.56
664.173	89.56
664.376	77.56
664.579	73.56
664.782	84.56
664.985	68.56
665.188	81.56
665.391	74.56
665.594	78.56
665.797	85.56
666	87.56
666.203	82.56
666.406	68.56
666.609	84.56
666.812	83.56
667.015	81.56
667.218	83.56
667.421	88.56
667.624	87.56
667.827	88.56
668.03	85.56
668.232	74.56
668.435	80.56
668.638	78.56
668.841	84.56
669.043	85.56
669.246	82.56
669.449	98.56
669.651	91.56
669.854	80.56
670.057	90.56
670.259	74.56
670.462	92.56
670.665	93.56
670.867	82.56
671.07	78.56
671.272	84.56
671.475	95.56
671.677	68.56
671.88	73.56
672.082	90.56
672.284	90.56
672.487	80.56
672.689	93.56
672.892	89.56
