Data from 1974.PennyLincolnUp.Lamp.En5.5.200Scan.071719.P1.Changed Mount._HRD10591_15-52-40-856.txt Node
Date: Thu Jul 18 15:52:40 EDT 2019
User: cochatt
Spectrometer: HR+D1059
Trigger mode: 1
Integration Time (sec): 1.000000E-1
Scans to average: 1
Electric dark correction enabled: true
Nonlinearity correction enabled: false
Boxcar width: 0
XAxis mode: Wavelengths
Number of Pixels in Spectrum: 2048
>>>>>Begin Spectral Data<<<<<
223.165	-8.62
223.4	-8.62
223.635	-8.62
223.869	-10.62
224.104	-16.62
224.338	-28.62
224.573	-15.62
224.808	-21.62
225.042	-19.62
225.277	5.38
225.511	-3.62
225.746	7.38
225.98	14.38
226.215	16.38
226.449	11.38
226.683	20.38
226.918	28.38
227.152	21.38
227.387	30.38
227.621	51.38
227.856	39.38
228.09	35.38
228.324	43.38
228.559	55.38
228.793	63.38
229.027	102.38
229.262	114.38
229.496	121.38
229.73	121.38
229.964	159.38
230.199	123.38
230.433	109.38
230.667	127.38
230.901	127.38
231.136	109.38
231.37	110.38
231.604	123.38
231.838	109.38
232.072	123.38
232.306	94.38
232.541	116.38
232.775	115.38
233.009	124.38
233.243	122.38
233.477	122.38
233.711	132.38
233.945	104.38
234.179	127.38
234.413	105.38
234.647	117.38
234.881	133.38
235.115	115.38
235.349	122.38
235.583	125.38
235.817	134.38
236.051	150.38
236.285	135.38
236.519	133.38
236.753	143.38
236.987	147.38
237.221	177.38
237.455	235.38
237.689	199.38
237.922	153.38
238.156	137.38
238.39	137.38
238.624	130.38
238.858	142.38
239.091	119.38
239.325	144.38
239.559	126.38
239.793	143.38
240.027	147.38
240.26	143.38
240.494	146.38
240.728	171.38
240.961	156.38
241.195	159.38
241.429	151.38
241.662	145.38
241.896	138.38
242.13	125.38
242.363	136.38
242.597	143.38
242.83	140.38
243.064	146.38
243.298	151.38
243.531	154.38
243.765	136.38
243.998	144.38
244.232	153.38
244.465	142.38
244.699	157.38
244.932	148.38
245.166	164.38
245.399	168.38
245.633	145.38
245.866	136.38
246.099	150.38
246.333	154.38
246.566	158.38
246.8	160.38
247.033	174.38
247.266	152.38
247.5	182.38
247.733	184.38
247.966	170.38
248.2	184.38
248.433	183.38
248.666	189.38
248.899	196.38
249.133	211.38
249.366	223.38
249.599	200.38
249.832	192.38
250.066	188.38
250.299	186.38
250.532	181.38
250.765	216.38
250.998	251.38
251.231	235.38
251.465	217.38
251.698	205.38
251.931	216.38
252.164	213.38
252.397	210.38
252.63	209.38
252.863	206.38
253.096	224.38
253.329	245.38
253.562	225.38
253.795	227.38
254.028	234.38
254.261	223.38
254.494	224.38
254.727	255.38
254.96	280.38
255.193	263.38
255.426	274.38
255.659	245.38
255.892	236.38
256.124	234.38
256.357	232.38
256.59	235.38
256.823	214.38
257.056	231.38
257.289	226.38
257.521	209.38
257.754	223.38
257.987	209.38
258.22	230.38
258.452	228.38
258.685	215.38
258.918	211.38
259.151	200.38
259.383	233.38
259.616	216.38
259.849	242.38
260.081	256.38
260.314	260.38
260.547	259.38
260.779	259.38
261.012	244.38
261.244	248.38
261.477	245.38
261.71	214.38
261.942	223.38
262.175	233.38
262.407	236.38
262.64	229.38
262.872	212.38
263.105	223.38
263.337	225.38
263.57	222.38
263.802	237.38
264.035	230.38
264.267	222.38
264.499	231.38
264.732	220.38
264.964	219.38
265.197	221.38
265.429	208.38
265.661	222.38
265.894	228.38
266.126	234.38
266.358	238.38
266.591	233.38
266.823	245.38
267.055	225.38
267.287	235.38
267.52	232.38
267.752	241.38
267.984	241.38
268.216	253.38
268.448	251.38
268.681	244.38
268.913	278.38
269.145	273.38
269.377	277.38
269.609	281.38
269.841	271.38
270.073	297.38
270.306	314.38
270.538	320.38
270.77	328.38
271.002	316.38
271.234	301.38
271.466	314.38
271.698	311.38
271.93	325.38
272.162	331.38
272.394	325.38
272.626	319.38
272.858	294.38
273.09	298.38
273.322	284.38
273.553	276.38
273.785	280.38
274.017	264.38
274.249	274.38
274.481	285.38
274.713	283.38
274.945	292.38
275.176	283.38
275.408	279.38
275.64	263.38
275.872	272.38
276.104	290.38
276.335	278.38
276.567	270.38
276.799	298.38
277.031	319.38
277.262	345.38
277.494	328.38
277.726	312.38
277.957	309.38
278.189	279.38
278.421	286.38
278.652	283.38
278.884	281.38
279.115	282.38
279.347	261.38
279.579	276.38
279.81	286.38
280.042	296.38
280.273	286.38
280.505	299.38
280.736	295.38
280.968	289.38
281.199	285.38
281.431	298.38
281.662	291.38
281.894	276.38
282.125	311.38
282.356	308.38
282.588	337.38
282.819	312.38
283.051	300.38
283.282	305.38
283.513	303.38
283.745	295.38
283.976	292.38
284.207	299.38
284.439	305.38
284.67	327.38
284.901	279.38
285.132	286.38
285.364	302.38
285.595	299.38
285.826	317.38
286.057	301.38
286.288	309.38
286.52	310.38
286.751	304.38
286.982	304.38
287.213	304.38
287.444	300.38
287.675	319.38
287.906	319.38
288.138	320.38
288.369	313.38
288.6	339.38
288.831	320.38
289.062	305.38
289.293	325.38
289.524	332.38
289.755	306.38
289.986	311.38
290.217	311.38
290.448	311.38
290.679	310.38
290.91	311.38
291.141	313.38
291.371	315.38
291.602	324.38
291.833	294.38
292.064	315.38
292.295	316.38
292.526	318.38
292.757	331.38
292.987	312.38
293.218	305.38
293.449	312.38
293.68	310.38
293.91	328.38
294.141	315.38
294.372	317.38
294.603	311.38
294.833	315.38
295.064	302.38
295.295	306.38
295.525	320.38
295.756	328.38
295.987	316.38
296.217	340.38
296.448	329.38
296.679	341.38
296.909	314.38
297.14	321.38
297.37	324.38
297.601	316.38
297.831	320.38
298.062	336.38
298.292	327.38
298.523	331.38
298.753	336.38
298.984	326.38
299.214	325.38
299.445	326.38
299.675	343.38
299.905	340.38
300.136	363.38
300.366	331.38
300.597	345.38
300.827	336.38
301.057	358.38
301.288	362.38
301.518	358.38
301.748	353.38
301.979	355.38
302.209	360.38
302.439	357.38
302.669	369.38
302.9	353.38
303.13	337.38
303.36	360.38
303.59	341.38
303.82	360.38
304.051	368.38
304.281	355.38
304.511	349.38
304.741	353.38
304.971	349.38
305.201	376.38
305.431	359.38
305.661	355.38
305.891	361.38
306.121	348.38
306.352	356.38
306.582	357.38
306.812	374.38
307.042	354.38
307.272	362.38
307.502	356.38
307.731	355.38
307.961	362.38
308.191	349.38
308.421	356.38
308.651	355.38
308.881	350.38
309.111	355.38
309.341	374.38
309.571	355.38
309.8	365.38
310.03	385.38
310.26	387.38
310.49	391.38
310.72	392.38
310.949	387.38
311.179	400.38
311.409	384.38
311.639	401.38
311.868	383.38
312.098	388.38
312.328	403.38
312.557	407.38
312.787	414.38
313.017	429.38
313.246	411.38
313.476	392.38
313.706	411.38
313.935	386.38
314.165	390.38
314.394	402.38
314.624	425.38
314.853	419.38
315.083	418.38
315.312	390.38
315.542	387.38
315.771	383.38
316.001	396.38
316.23	394.38
316.46	401.38
316.689	407.38
316.919	389.38
317.148	415.38
317.377	407.38
317.607	404.38
317.836	397.38
318.065	405.38
318.295	397.38
318.524	386.38
318.753	391.38
318.983	404.38
319.212	405.38
319.441	402.38
319.67	406.38
319.9	396.38
320.129	391.38
320.358	414.38
320.587	401.38
320.816	416.38
321.046	432.38
321.275	416.38
321.504	419.38
321.733	406.38
321.962	423.38
322.191	439.38
322.42	425.38
322.649	444.38
322.878	459.38
323.108	480.38
323.337	484.38
323.566	499.38
323.795	512.38
324.024	513.38
324.253	633.38
324.482	837.38
324.71	1211.38
324.939	1807.38
325.168	1621.38
325.397	879.38
325.626	607.38
325.855	545.38
326.084	493.38
326.313	511.38
326.542	476.38
326.77	537.38
326.999	602.38
327.228	789.38
327.457	1139.38
327.686	1375.38
327.914	950.38
328.143	639.38
328.372	581.38
328.6	561.38
328.829	524.38
329.058	557.38
329.287	543.38
329.515	534.38
329.744	526.38
329.972	495.38
330.201	515.38
330.43	544.38
330.658	587.38
330.887	575.38
331.115	583.38
331.344	535.38
331.572	515.38
331.801	513.38
332.03	503.38
332.258	492.38
332.486	501.38
332.715	469.38
332.943	484.38
333.172	490.38
333.4	491.38
333.629	500.38
333.857	509.38
334.085	521.38
334.314	533.38
334.542	551.38
334.771	576.38
334.999	531.38
335.227	517.38
335.455	525.38
335.684	499.38
335.912	486.38
336.14	469.38
336.369	465.38
336.597	494.38
336.825	465.38
337.053	496.38
337.281	486.38
337.51	462.38
337.738	490.38
337.966	478.38
338.194	474.38
338.422	477.38
338.65	458.38
338.878	467.38
339.106	466.38
339.334	458.38
339.562	465.38
339.79	454.38
340.018	470.38
340.246	452.38
340.474	490.38
340.702	462.38
340.93	464.38
341.158	465.38
341.386	458.38
341.614	470.38
341.842	463.38
342.07	464.38
342.298	454.38
342.526	463.38
342.754	460.38
342.981	438.38
343.209	456.38
343.437	479.38
343.665	457.38
343.893	478.38
344.12	507.38
344.348	464.38
344.576	481.38
344.804	488.38
345.031	463.38
345.259	487.38
345.487	485.38
345.714	463.38
345.942	456.38
346.17	472.38
346.397	457.38
346.625	460.38
346.853	450.38
347.08	448.38
347.308	472.38
347.535	441.38
347.763	453.38
347.99	470.38
348.218	459.38
348.445	452.38
348.673	463.38
348.9	449.38
349.128	459.38
349.355	442.38
349.583	456.38
349.81	413.38
350.037	411.38
350.265	428.38
350.492	409.38
350.72	443.38
350.947	433.38
351.174	451.38
351.402	471.38
351.629	439.38
351.856	466.38
352.083	451.38
352.311	455.38
352.538	471.38
352.765	452.38
352.992	458.38
353.22	462.38
353.447	427.38
353.674	453.38
353.901	442.38
354.128	407.38
354.355	415.38
354.583	438.38
354.81	427.38
355.037	439.38
355.264	435.38
355.491	421.38
355.718	420.38
355.945	422.38
356.172	406.38
356.399	408.38
356.626	444.38
356.853	419.38
357.08	419.38
357.307	436.38
357.534	417.38
357.761	429.38
357.988	431.38
358.215	425.38
358.441	434.38
358.668	428.38
358.895	440.38
359.122	432.38
359.349	424.38
359.576	463.38
359.802	482.38
360.029	477.38
360.256	505.38
360.483	471.38
360.709	439.38
360.936	444.38
361.163	445.38
361.39	433.38
361.616	458.38
361.843	441.38
362.07	463.38
362.296	445.38
362.523	432.38
362.749	441.38
362.976	457.38
363.203	460.38
363.429	424.38
363.656	442.38
363.882	429.38
364.109	430.38
364.335	429.38
364.562	421.38
364.788	431.38
365.015	441.38
365.241	435.38
365.468	464.38
365.694	426.38
365.92	452.38
366.147	424.38
366.373	446.38
366.599	426.38
366.826	445.38
367.052	460.38
367.278	437.38
367.505	450.38
367.731	445.38
367.957	431.38
368.184	432.38
368.41	448.38
368.636	444.38
368.862	462.38
369.089	452.38
369.315	436.38
369.541	447.38
369.767	453.38
369.993	442.38
370.219	447.38
370.445	449.38
370.672	447.38
370.898	456.38
371.124	457.38
371.35	450.38
371.576	447.38
371.802	455.38
372.028	463.38
372.254	447.38
372.48	439.38
372.706	478.38
372.932	465.38
373.158	452.38
373.384	458.38
373.61	464.38
373.835	442.38
374.061	440.38
374.287	480.38
374.513	467.38
374.739	471.38
374.965	477.38
375.191	454.38
375.416	484.38
375.642	447.38
375.868	455.38
376.094	450.38
376.319	439.38
376.545	455.38
376.771	453.38
376.997	447.38
377.222	427.38
377.448	448.38
377.674	458.38
377.899	441.38
378.125	465.38
378.35	441.38
378.576	437.38
378.802	439.38
379.027	456.38
379.253	469.38
379.478	462.38
379.704	447.38
379.929	454.38
380.155	439.38
380.38	465.38
380.606	460.38
380.831	456.38
381.057	452.38
381.282	443.38
381.507	433.38
381.733	448.38
381.958	444.38
382.184	459.38
382.409	445.38
382.634	461.38
382.86	474.38
383.085	469.38
383.31	468.38
383.535	466.38
383.761	487.38
383.986	491.38
384.211	463.38
384.436	470.38
384.662	483.38
384.887	488.38
385.112	476.38
385.337	505.38
385.562	488.38
385.787	514.38
386.013	503.38
386.238	506.38
386.463	478.38
386.688	486.38
386.913	517.38
387.138	497.38
387.363	515.38
387.588	511.38
387.813	510.38
388.038	497.38
388.263	519.38
388.488	515.38
388.713	491.38
388.938	515.38
389.163	501.38
389.387	500.38
389.612	479.38
389.837	518.38
390.062	502.38
390.287	489.38
390.512	497.38
390.736	484.38
390.961	514.38
391.186	492.38
391.411	518.38
391.636	513.38
391.86	518.38
392.085	515.38
392.31	538.38
392.534	534.38
392.759	521.38
392.984	518.38
393.208	527.38
393.433	524.38
393.658	508.38
393.882	518.38
394.107	532.38
394.331	504.38
394.556	527.38
394.78	534.38
395.005	525.38
395.229	532.38
395.454	541.38
395.678	548.38
395.903	526.38
396.127	555.38
396.352	570.38
396.576	566.38
396.801	539.38
397.025	529.38
397.249	541.38
397.474	539.38
397.698	528.38
397.922	548.38
398.147	574.38
398.371	576.38
398.595	563.38
398.82	574.38
399.044	599.38
399.268	623.38
399.492	652.38
399.717	717.38
399.941	722.38
400.165	735.38
400.389	750.38
400.613	675.38
400.837	641.38
401.062	635.38
401.286	603.38
401.51	598.38
401.734	605.38
401.958	589.38
402.182	601.38
402.406	601.38
402.63	615.38
402.854	615.38
403.078	613.38
403.302	614.38
403.526	622.38
403.75	640.38
403.974	612.38
404.198	610.38
404.422	636.38
404.645	607.38
404.869	648.38
405.093	663.38
405.317	693.38
405.541	727.38
405.765	686.38
405.988	644.38
406.212	647.38
406.436	668.38
406.66	671.38
406.883	655.38
407.107	704.38
407.331	736.38
407.555	821.38
407.778	829.38
408.002	750.38
408.226	697.38
408.449	664.38
408.673	665.38
408.896	678.38
409.12	749.38
409.344	685.38
409.567	639.38
409.791	604.38
410.014	629.38
410.238	609.38
410.461	619.38
410.685	617.38
410.908	638.38
411.132	679.38
411.355	687.38
411.578	691.38
411.802	653.38
412.025	608.38
412.249	626.38
412.472	633.38
412.695	674.38
412.919	665.38
413.142	617.38
413.365	617.38
413.589	603.38
413.812	600.38
414.035	576.38
414.258	549.38
414.482	573.38
414.705	589.38
414.928	580.38
415.151	586.38
415.374	564.38
415.597	577.38
415.821	567.38
416.044	565.38
416.267	591.38
416.49	592.38
416.713	590.38
416.936	588.38
417.159	574.38
417.382	590.38
417.605	578.38
417.828	597.38
418.051	617.38
418.274	621.38
418.497	588.38
418.72	613.38
418.943	584.38
419.166	610.38
419.389	666.38
419.611	615.38
419.834	630.38
420.057	623.38
420.28	613.38
420.503	603.38
420.726	614.38
420.948	628.38
421.171	667.38
421.394	680.38
421.617	627.38
421.839	613.38
422.062	619.38
422.285	622.38
422.507	651.38
422.73	736.38
422.953	709.38
423.175	645.38
423.398	639.38
423.621	635.38
423.843	639.38
424.066	644.38
424.288	666.38
424.511	663.38
424.733	717.38
424.956	799.38
425.178	770.38
425.401	757.38
425.623	774.38
425.846	681.38
426.068	652.38
426.291	646.38
426.513	626.38
426.735	639.38
426.958	658.38
427.18	736.38
427.402	883.38
427.625	979.38
427.847	840.38
428.069	727.38
428.292	670.38
428.514	623.38
428.736	625.38
428.958	597.38
429.181	588.38
429.403	582.38
429.625	593.38
429.847	640.38
430.069	697.38
430.292	691.38
430.514	613.38
430.736	608.38
430.958	557.38
431.18	575.38
431.402	585.38
431.624	560.38
431.846	567.38
432.068	557.38
432.29	544.38
432.512	564.38
432.734	590.38
432.956	586.38
433.178	568.38
433.4	565.38
433.622	563.38
433.844	572.38
434.066	559.38
434.287	553.38
434.509	555.38
434.731	591.38
434.953	595.38
435.175	606.38
435.397	652.38
435.618	633.38
435.84	681.38
436.062	771.38
436.284	848.38
436.505	728.38
436.727	665.38
436.949	611.38
437.17	574.38
437.392	602.38
437.614	607.38
437.835	615.38
438.057	715.38
438.278	820.38
438.5	816.38
438.721	918.38
438.943	879.38
439.165	700.38
439.386	656.38
439.608	640.38
439.829	616.38
440.05	653.38
440.272	691.38
440.493	651.38
440.715	638.38
440.936	604.38
441.158	606.38
441.379	613.38
441.6	599.38
441.822	630.38
442.043	671.38
442.264	753.38
442.486	823.38
442.707	705.38
442.928	658.38
443.149	658.38
443.371	671.38
443.592	722.38
443.813	811.38
444.034	874.38
444.255	733.38
444.476	654.38
444.698	683.38
444.919	693.38
445.14	786.38
445.361	717.38
445.582	696.38
445.803	726.38
446.024	839.38
446.245	829.38
446.466	757.38
446.687	680.38
446.908	645.38
447.129	608.38
447.35	595.38
447.571	605.38
447.792	570.38
448.013	585.38
448.234	600.38
448.455	652.38
448.675	785.38
448.896	876.38
449.117	730.38
449.338	702.38
449.559	814.38
449.779	928.38
450	753.38
450.221	625.38
450.442	577.38
450.662	573.38
450.883	588.38
451.104	573.38
451.324	581.38
451.545	563.38
451.766	543.38
451.986	531.38
452.207	551.38
452.428	517.38
452.648	525.38
452.869	536.38
453.089	551.38
453.31	554.38
453.53	530.38
453.751	525.38
453.971	530.38
454.192	535.38
454.412	530.38
454.633	495.38
454.853	522.38
455.073	515.38
455.294	538.38
455.514	607.38
455.734	586.38
455.955	544.38
456.175	512.38
456.395	498.38
456.616	511.38
456.836	494.38
457.056	494.38
457.276	487.38
457.497	478.38
457.717	503.38
457.937	488.38
458.157	495.38
458.377	513.38
458.598	550.38
458.818	581.38
459.038	647.38
459.258	672.38
459.478	584.38
459.698	573.38
459.918	570.38
460.138	550.38
460.358	584.38
460.578	583.38
460.798	594.38
461.018	601.38
461.238	596.38
461.458	584.38
461.678	569.38
461.898	587.38
462.118	576.38
462.338	618.38
462.558	608.38
462.777	634.38
462.997	645.38
463.217	658.38
463.437	664.38
463.657	643.38
463.876	647.38
464.096	627.38
464.316	636.38
464.536	636.38
464.755	633.38
464.975	618.38
465.195	651.38
465.414	661.38
465.634	637.38
465.854	599.38
466.073	561.38
466.293	571.38
466.512	557.38
466.732	571.38
466.951	544.38
467.171	544.38
467.391	546.38
467.61	551.38
467.829	565.38
468.049	584.38
468.268	525.38
468.488	519.38
468.707	518.38
468.927	565.38
469.146	535.38
469.365	528.38
469.585	519.38
469.804	547.38
470.023	554.38
470.243	534.38
470.462	567.38
470.681	581.38
470.901	574.38
471.12	579.38
471.339	561.38
471.558	571.38
471.777	540.38
471.997	522.38
472.216	535.38
472.435	575.38
472.654	551.38
472.873	544.38
473.092	536.38
473.311	544.38
473.53	549.38
473.749	550.38
473.968	600.38
474.187	669.38
474.406	687.38
474.625	613.38
474.844	583.38
475.063	551.38
475.282	528.38
475.501	560.38
475.72	563.38
475.939	538.38
476.158	581.38
476.377	581.38
476.596	567.38
476.814	567.38
477.033	547.38
477.252	587.38
477.471	578.38
477.69	602.38
477.908	568.38
478.127	604.38
478.346	619.38
478.564	631.38
478.783	631.38
479.002	644.38
479.22	643.38
479.439	653.38
479.658	661.38
479.876	658.38
480.095	637.38
480.313	694.38
480.532	709.38
480.751	683.38
480.969	661.38
481.188	730.38
481.406	744.38
481.624	701.38
481.843	643.38
482.061	652.38
482.28	645.38
482.498	662.38
482.717	631.38
482.935	632.38
483.153	644.38
483.372	648.38
483.59	653.38
483.808	624.38
484.027	636.38
484.245	643.38
484.463	646.38
484.681	642.38
484.9	654.38
485.118	657.38
485.336	657.38
485.554	675.38
485.772	646.38
485.99	669.38
486.209	670.38
486.427	673.38
486.645	677.38
486.863	686.38
487.081	699.38
487.299	671.38
487.517	681.38
487.735	676.38
487.953	647.38
488.171	692.38
488.389	703.38
488.607	675.38
488.825	699.38
489.043	682.38
489.261	696.38
489.479	683.38
489.696	684.38
489.914	700.38
490.132	711.38
490.35	717.38
490.568	723.38
490.786	756.38
491.003	732.38
491.221	758.38
491.439	741.38
491.657	759.38
491.874	782.38
492.092	780.38
492.31	776.38
492.527	793.38
492.745	785.38
492.963	797.38
493.18	828.38
493.398	824.38
493.615	804.38
493.833	836.38
494.05	850.38
494.268	803.38
494.485	791.38
494.703	797.38
494.92	831.38
495.138	809.38
495.355	799.38
495.573	834.38
495.79	785.38
496.008	823.38
496.225	807.38
496.442	816.38
496.66	808.38
496.877	855.38
497.094	825.38
497.312	850.38
497.529	861.38
497.746	889.38
497.963	885.38
498.181	908.38
498.398	905.38
498.615	941.38
498.832	943.38
499.049	983.38
499.267	1017.38
499.484	1043.38
499.701	1083.38
499.918	1134.38
500.135	1208.38
500.352	1277.38
500.569	1327.38
500.786	1306.38
501.003	1306.38
501.22	1254.38
501.437	1190.38
501.654	1125.38
501.871	1083.38
502.088	1034.38
502.305	950.38
502.522	981.38
502.739	931.38
502.956	897.38
503.172	895.38
503.389	883.38
503.606	874.38
503.823	848.38
504.04	816.38
504.256	846.38
504.473	800.38
504.69	827.38
504.907	821.38
505.123	811.38
505.34	796.38
505.557	789.38
505.773	775.38
505.99	795.38
506.207	757.38
506.423	791.38
506.64	760.38
506.856	746.38
507.073	732.38
507.289	731.38
507.506	734.38
507.722	732.38
507.939	766.38
508.155	730.38
508.372	760.38
508.588	748.38
508.805	707.38
509.021	720.38
509.238	736.38
509.454	728.38
509.67	726.38
509.887	695.38
510.103	721.38
510.319	700.38
510.536	797.38
510.752	1115.38
510.968	976.38
511.184	713.38
511.401	681.38
511.617	663.38
511.833	665.38
512.049	691.38
512.265	683.38
512.481	668.38
512.698	670.38
512.914	694.38
513.13	669.38
513.346	669.38
513.562	693.38
513.778	668.38
513.994	680.38
514.21	675.38
514.426	699.38
514.642	726.38
514.858	757.38
515.074	769.38
515.29	847.38
515.506	1139.38
515.721	1002.38
515.937	738.38
516.153	719.38
516.369	739.38
516.585	723.38
516.801	720.38
517.016	734.38
517.232	718.38
517.448	743.38
517.664	715.38
517.879	726.38
518.095	742.38
518.311	741.38
518.527	725.38
518.742	697.38
518.958	689.38
519.173	692.38
519.389	688.38
519.605	679.38
519.82	681.38
520.036	700.38
520.251	687.38
520.467	702.38
520.682	692.38
520.898	704.38
521.113	705.38
521.329	745.38
521.544	803.38
521.76	934.38
521.975	1357.38
522.19	1407.38
522.406	873.38
522.621	688.38
522.836	646.38
523.052	640.38
523.267	635.38
523.482	639.38
523.698	619.38
523.913	603.38
524.128	607.38
524.343	596.38
524.559	574.38
524.774	587.38
524.989	578.38
525.204	597.38
525.419	593.38
525.634	587.38
525.849	562.38
526.064	577.38
526.28	575.38
526.495	559.38
526.71	565.38
526.925	562.38
527.14	554.38
527.355	543.38
527.57	527.38
527.785	554.38
527.999	558.38
528.214	559.38
528.429	536.38
528.644	573.38
528.859	574.38
529.074	583.38
529.289	577.38
529.503	657.38
529.718	635.38
529.933	586.38
530.148	572.38
530.363	564.38
530.577	543.38
530.792	542.38
531.007	553.38
531.221	555.38
531.436	558.38
531.651	535.38
531.865	565.38
532.08	555.38
532.295	536.38
532.509	546.38
532.724	553.38
532.938	554.38
533.153	553.38
533.367	542.38
533.582	552.38
533.796	513.38
534.011	537.38
534.225	542.38
534.44	540.38
534.654	529.38
534.868	525.38
535.083	543.38
535.297	525.38
535.511	547.38
535.726	548.38
535.94	557.38
536.154	532.38
536.369	529.38
536.583	541.38
536.797	516.38
537.011	519.38
537.225	533.38
537.44	509.38
537.654	544.38
537.868	538.38
538.082	526.38
538.296	516.38
538.51	535.38
538.724	545.38
538.938	525.38
539.153	525.38
539.367	537.38
539.581	547.38
539.795	531.38
540.009	503.38
540.222	514.38
540.436	527.38
540.65	516.38
540.864	535.38
541.078	515.38
541.292	537.38
541.506	540.38
541.72	507.38
541.934	533.38
542.147	534.38
542.361	504.38
542.575	518.38
542.789	505.38
543.002	533.38
543.216	533.38
543.43	513.38
543.644	524.38
543.857	535.38
544.071	539.38
544.285	517.38
544.498	529.38
544.712	517.38
544.925	517.38
545.139	486.38
545.352	515.38
545.566	490.38
545.779	513.38
545.993	521.38
546.206	526.38
546.42	527.38
546.633	517.38
546.847	510.38
547.06	510.38
547.274	510.38
547.487	520.38
547.7	517.38
547.914	505.38
548.127	502.38
548.34	528.38
548.554	504.38
548.767	497.38
548.98	490.38
549.193	516.38
549.407	530.38
549.62	529.38
549.833	513.38
550.046	523.38
550.259	503.38
550.473	485.38
550.686	507.38
550.899	517.38
551.112	530.38
551.325	510.38
551.538	486.38
551.751	501.38
551.964	483.38
552.177	508.38
552.39	490.38
552.603	500.38
552.816	522.38
553.029	531.38
553.242	533.38
553.455	533.38
553.667	530.38
553.88	542.38
554.093	529.38
554.306	506.38
554.519	515.38
554.732	507.38
554.944	493.38
555.157	515.38
555.37	494.38
555.583	490.38
555.795	468.38
556.008	475.38
556.221	451.38
556.433	469.38
556.646	471.38
556.859	459.38
557.071	460.38
557.284	448.38
557.496	456.38
557.709	463.38
557.921	464.38
558.134	433.38
558.346	457.38
558.559	457.38
558.771	462.38
558.984	454.38
559.196	471.38
559.409	443.38
559.621	443.38
559.833	452.38
560.046	453.38
560.258	467.38
560.47	429.38
560.683	459.38
560.895	439.38
561.107	457.38
561.32	424.38
561.532	451.38
561.744	449.38
561.956	437.38
562.168	468.38
562.381	478.38
562.593	463.38
562.805	468.38
563.017	447.38
563.229	431.38
563.441	451.38
563.653	456.38
563.865	448.38
564.077	469.38
564.289	463.38
564.501	465.38
564.713	486.38
564.925	487.38
565.137	470.38
565.349	468.38
565.561	504.38
565.773	499.38
565.985	521.38
566.197	524.38
566.408	541.38
566.62	544.38
566.832	570.38
567.044	590.38
567.255	605.38
567.467	619.38
567.679	619.38
567.891	629.38
568.102	635.38
568.314	637.38
568.526	576.38
568.737	570.38
568.949	542.38
569.161	519.38
569.372	503.38
569.584	489.38
569.795	465.38
570.007	476.38
570.218	487.38
570.43	487.38
570.641	464.38
570.853	453.38
571.064	444.38
571.276	457.38
571.487	453.38
571.698	467.38
571.91	425.38
572.121	428.38
572.333	414.38
572.544	379.38
572.755	416.38
572.966	395.38
573.178	387.38
573.389	392.38
573.6	387.38
573.811	401.38
574.023	406.38
574.234	402.38
574.445	376.38
574.656	389.38
574.867	395.38
575.078	396.38
575.289	405.38
575.501	396.38
575.712	384.38
575.923	374.38
576.134	383.38
576.345	378.38
576.556	383.38
576.767	373.38
576.978	372.38
577.188	375.38
577.399	371.38
577.61	371.38
577.821	364.38
578.032	347.38
578.243	394.38
578.454	540.38
578.665	447.38
578.875	361.38
579.086	367.38
579.297	361.38
579.508	342.38
579.718	347.38
579.929	350.38
580.14	353.38
580.35	343.38
580.561	342.38
580.772	350.38
580.982	333.38
581.193	343.38
581.403	339.38
581.614	344.38
581.825	352.38
582.035	346.38
582.246	365.38
582.456	340.38
582.667	350.38
582.877	346.38
583.087	331.38
583.298	330.38
583.508	337.38
583.719	334.38
583.929	354.38
584.139	336.38
584.35	323.38
584.56	344.38
584.77	338.38
584.981	348.38
585.191	357.38
585.401	332.38
585.611	344.38
585.821	341.38
586.032	336.38
586.242	334.38
586.452	328.38
586.662	325.38
586.872	335.38
587.082	328.38
587.292	332.38
587.502	336.38
587.713	327.38
587.923	328.38
588.133	325.38
588.343	343.38
588.553	342.38
588.762	337.38
588.972	329.38
589.182	331.38
589.392	348.38
589.602	335.38
589.812	346.38
590.022	325.38
590.232	317.38
590.441	346.38
590.651	347.38
590.861	333.38
591.071	328.38
591.281	343.38
591.49	348.38
591.7	326.38
591.91	342.38
592.119	354.38
592.329	357.38
592.539	358.38
592.748	360.38
592.958	369.38
593.167	369.38
593.377	362.38
593.587	374.38
593.796	372.38
594.006	370.38
594.215	387.38
594.424	372.38
594.634	383.38
594.843	349.38
595.053	360.38
595.262	351.38
595.472	334.38
595.681	334.38
595.89	347.38
596.1	327.38
596.309	325.38
596.518	317.38
596.727	326.38
596.937	304.38
597.146	319.38
597.355	312.38
597.564	311.38
597.774	317.38
597.983	296.38
598.192	317.38
598.401	307.38
598.61	302.38
598.819	316.38
599.028	301.38
599.237	284.38
599.446	286.38
599.655	293.38
599.864	296.38
600.073	293.38
600.282	287.38
600.491	292.38
600.7	299.38
600.909	286.38
601.118	301.38
601.327	311.38
601.536	296.38
601.745	290.38
601.953	301.38
602.162	301.38
602.371	285.38
602.58	282.38
602.789	288.38
602.997	281.38
603.206	287.38
603.415	284.38
603.623	289.38
603.832	286.38
604.041	280.38
604.249	297.38
604.458	269.38
604.666	265.38
604.875	267.38
605.084	290.38
605.292	254.38
605.501	273.38
605.709	267.38
605.918	279.38
606.126	296.38
606.334	271.38
606.543	288.38
606.751	279.38
606.96	282.38
607.168	280.38
607.376	285.38
607.585	286.38
607.793	277.38
608.001	280.38
608.21	277.38
608.418	257.38
608.626	279.38
608.834	283.38
609.043	272.38
609.251	283.38
609.459	279.38
609.667	286.38
609.875	264.38
610.083	271.38
610.291	282.38
610.499	281.38
610.707	286.38
610.916	282.38
611.124	280.38
611.332	279.38
611.54	308.38
611.748	275.38
611.955	279.38
612.163	272.38
612.371	273.38
612.579	271.38
612.787	278.38
612.995	263.38
613.203	278.38
613.411	259.38
613.618	271.38
613.826	267.38
614.034	256.38
614.242	279.38
614.449	250.38
614.657	282.38
614.865	254.38
615.072	268.38
615.28	279.38
615.488	281.38
615.695	292.38
615.903	276.38
616.111	268.38
616.318	294.38
616.526	289.38
616.733	273.38
616.941	273.38
617.148	264.38
617.356	281.38
617.563	286.38
617.771	260.38
617.978	265.38
618.185	257.38
618.393	256.38
618.6	270.38
618.807	277.38
619.015	269.38
619.222	254.38
619.429	256.38
619.637	262.38
619.844	243.38
620.051	240.38
620.258	264.38
620.466	249.38
620.673	264.38
620.88	248.38
621.087	251.38
621.294	247.38
621.501	239.38
621.708	241.38
621.915	272.38
622.122	238.38
622.329	264.38
622.536	261.38
622.743	259.38
622.95	259.38
623.157	236.38
623.364	253.38
623.571	244.38
623.778	262.38
623.985	261.38
624.192	245.38
624.399	228.38
624.606	238.38
624.812	244.38
625.019	246.38
625.226	237.38
625.433	246.38
625.639	247.38
625.846	269.38
626.053	262.38
626.259	234.38
626.466	232.38
626.673	223.38
626.879	217.38
627.086	229.38
627.293	235.38
627.499	221.38
627.706	224.38
627.912	232.38
628.119	229.38
628.325	228.38
628.532	207.38
628.738	220.38
628.945	227.38
629.151	227.38
629.357	224.38
629.564	226.38
629.77	240.38
629.976	224.38
630.183	248.38
630.389	227.38
630.595	205.38
630.802	222.38
631.008	221.38
631.214	215.38
631.42	216.38
631.627	213.38
631.833	216.38
632.039	212.38
632.245	203.38
632.451	215.38
632.657	214.38
632.863	223.38
633.069	216.38
633.275	208.38
633.481	209.38
633.688	209.38
633.893	221.38
634.099	221.38
634.305	216.38
634.511	197.38
634.717	198.38
634.923	205.38
635.129	193.38
635.335	198.38
635.541	207.38
635.747	221.38
635.952	202.38
636.158	206.38
636.364	199.38
636.57	211.38
636.775	212.38
636.981	204.38
637.187	224.38
637.392	207.38
637.598	213.38
637.804	196.38
638.009	212.38
638.215	200.38
638.421	184.38
638.626	198.38
638.832	205.38
639.037	197.38
639.243	197.38
639.448	202.38
639.654	192.38
639.859	197.38
640.065	203.38
640.27	196.38
640.475	186.38
640.681	204.38
640.886	212.38
641.091	200.38
641.297	195.38
641.502	179.38
641.707	189.38
641.913	202.38
642.118	208.38
642.323	169.38
642.528	185.38
642.733	168.38
642.939	179.38
643.144	194.38
643.349	182.38
643.554	192.38
643.759	189.38
643.964	181.38
644.169	189.38
644.374	198.38
644.579	195.38
644.784	187.38
644.989	190.38
645.194	183.38
645.399	181.38
645.604	181.38
645.809	192.38
646.014	194.38
646.219	192.38
646.423	177.38
646.628	167.38
646.833	186.38
647.038	196.38
647.243	178.38
647.447	184.38
647.652	175.38
647.857	192.38
648.062	198.38
648.266	202.38
648.471	190.38
648.676	181.38
648.88	187.38
649.085	187.38
649.289	206.38
649.494	181.38
649.698	189.38
649.903	190.38
650.107	195.38
650.312	175.38
650.516	166.38
650.721	182.38
650.925	179.38
651.13	176.38
651.334	177.38
651.539	189.38
651.743	168.38
651.947	164.38
652.152	162.38
652.356	150.38
652.56	145.38
652.764	149.38
652.969	151.38
653.173	155.38
653.377	156.38
653.581	144.38
653.785	155.38
653.99	152.38
654.194	149.38
654.398	144.38
654.602	139.38
654.806	155.38
655.01	141.38
655.214	137.38
655.418	144.38
655.622	153.38
655.826	152.38
656.03	146.38
656.234	155.38
656.438	146.38
656.642	148.38
656.846	139.38
657.049	133.38
657.253	127.38
657.457	120.38
657.661	131.38
657.865	121.38
658.068	127.38
658.272	120.38
658.476	105.38
658.68	107.38
658.883	105.38
659.087	110.38
659.291	93.38
659.494	102.38
659.698	109.38
659.901	97.38
660.105	111.38
660.309	103.38
660.512	94.38
660.716	120.38
660.919	104.38
661.123	102.38
661.326	108.38
661.53	98.38
661.733	74.38
661.936	74.38
662.14	91.38
662.343	93.38
662.546	92.38
662.75	83.38
662.953	93.38
663.156	80.38
663.36	90.38
663.563	91.38
663.766	88.38
663.969	79.38
664.173	93.38
664.376	87.38
664.579	106.38
664.782	92.38
664.985	78.38
665.188	92.38
665.391	95.38
665.594	79.38
665.797	101.38
666	81.38
666.203	107.38
666.406	89.38
666.609	81.38
666.812	92.38
667.015	80.38
667.218	100.38
667.421	89.38
667.624	80.38
667.827	73.38
668.03	79.38
668.232	72.38
668.435	78.38
668.638	88.38
668.841	85.38
669.043	86.38
669.246	87.38
669.449	88.38
669.651	77.38
669.854	91.38
670.057	102.38
670.259	85.38
670.462	92.38
670.665	89.38
670.867	87.38
671.07	91.38
671.272	86.38
671.475	91.38
671.677	92.38
671.88	77.38
672.082	84.38
672.284	90.38
672.487	92.38
672.689	92.38
672.892	99.38
