Data from 1974.PennyLincolnUp.Lamp.En5.5.200Scan.071719.P1.Changed Mount._HRD10591_15-51-39-856.txt Node
Date: Thu Jul 18 15:51:39 EDT 2019
User: cochatt
Spectrometer: HR+D1059
Trigger mode: 1
Integration Time (sec): 1.000000E-1
Scans to average: 1
Electric dark correction enabled: true
Nonlinearity correction enabled: false
Boxcar width: 0
XAxis mode: Wavelengths
Number of Pixels in Spectrum: 2048
>>>>>Begin Spectral Data<<<<<
223.165	-9.19
223.4	-9.19
223.635	-9.19
223.869	-27.19
224.104	-19.19
224.338	-9.19
224.573	-19.19
224.808	-14.19
225.042	-2.19
225.277	3.81
225.511	1.81
225.746	7.81
225.98	-2.19
226.215	23.81
226.449	9.81
226.683	12.81
226.918	19.81
227.152	22.81
227.387	27.81
227.621	37.81
227.856	44.81
228.09	36.81
228.324	59.81
228.559	48.81
228.793	68.81
229.027	82.81
229.262	97.81
229.496	90.81
229.73	121.81
229.964	133.81
230.199	123.81
230.433	97.81
230.667	110.81
230.901	122.81
231.136	121.81
231.37	99.81
231.604	116.81
231.838	120.81
232.072	117.81
232.306	111.81
232.541	102.81
232.775	95.81
233.009	100.81
233.243	111.81
233.477	98.81
233.711	114.81
233.945	114.81
234.179	100.81
234.413	130.81
234.647	114.81
234.881	103.81
235.115	118.81
235.349	114.81
235.583	126.81
235.817	124.81
236.051	126.81
236.285	125.81
236.519	128.81
236.753	134.81
236.987	146.81
237.221	161.81
237.455	214.81
237.689	179.81
237.922	135.81
238.156	151.81
238.39	119.81
238.624	122.81
238.858	124.81
239.091	121.81
239.325	131.81
239.559	131.81
239.793	133.81
240.027	121.81
240.26	148.81
240.494	155.81
240.728	149.81
240.961	144.81
241.195	128.81
241.429	144.81
241.662	137.81
241.896	119.81
242.13	130.81
242.363	126.81
242.597	125.81
242.83	122.81
243.064	128.81
243.298	146.81
243.531	143.81
243.765	139.81
243.998	138.81
244.232	138.81
244.465	141.81
244.699	117.81
244.932	132.81
245.166	143.81
245.399	138.81
245.633	140.81
245.866	132.81
246.099	140.81
246.333	149.81
246.566	156.81
246.8	149.81
247.033	162.81
247.266	152.81
247.5	163.81
247.733	165.81
247.966	160.81
248.2	160.81
248.433	177.81
248.666	171.81
248.899	179.81
249.133	190.81
249.366	201.81
249.599	191.81
249.832	188.81
250.066	157.81
250.299	188.81
250.532	182.81
250.765	200.81
250.998	217.81
251.231	231.81
251.465	220.81
251.698	195.81
251.931	188.81
252.164	185.81
252.397	196.81
252.63	197.81
252.863	211.81
253.096	205.81
253.329	228.81
253.562	205.81
253.795	215.81
254.028	212.81
254.261	221.81
254.494	235.81
254.727	244.81
254.96	262.81
255.193	275.81
255.426	240.81
255.659	218.81
255.892	229.81
256.124	222.81
256.357	220.81
256.59	224.81
256.823	195.81
257.056	222.81
257.289	210.81
257.521	207.81
257.754	206.81
257.987	189.81
258.22	210.81
258.452	209.81
258.685	209.81
258.918	198.81
259.151	201.81
259.383	205.81
259.616	214.81
259.849	231.81
260.081	223.81
260.314	244.81
260.547	254.81
260.779	224.81
261.012	228.81
261.244	218.81
261.477	233.81
261.71	221.81
261.942	218.81
262.175	226.81
262.407	228.81
262.64	231.81
262.872	218.81
263.105	196.81
263.337	209.81
263.57	223.81
263.802	217.81
264.035	208.81
264.267	199.81
264.499	214.81
264.732	209.81
264.964	213.81
265.197	222.81
265.429	219.81
265.661	206.81
265.894	229.81
266.126	214.81
266.358	225.81
266.591	228.81
266.823	228.81
267.055	238.81
267.287	253.81
267.52	216.81
267.752	236.81
267.984	234.81
268.216	235.81
268.448	246.81
268.681	249.81
268.913	250.81
269.145	258.81
269.377	266.81
269.609	261.81
269.841	254.81
270.073	255.81
270.306	277.81
270.538	292.81
270.77	313.81
271.002	283.81
271.234	297.81
271.466	297.81
271.698	293.81
271.93	314.81
272.162	306.81
272.394	300.81
272.626	293.81
272.858	272.81
273.09	270.81
273.322	249.81
273.553	254.81
273.785	262.81
274.017	241.81
274.249	252.81
274.481	266.81
274.713	237.81
274.945	248.81
275.176	272.81
275.408	246.81
275.64	267.81
275.872	266.81
276.104	259.81
276.335	280.81
276.567	281.81
276.799	277.81
277.031	296.81
277.262	313.81
277.494	309.81
277.726	301.81
277.957	272.81
278.189	265.81
278.421	285.81
278.652	267.81
278.884	262.81
279.115	262.81
279.347	269.81
279.579	269.81
279.81	270.81
280.042	286.81
280.273	254.81
280.505	265.81
280.736	265.81
280.968	261.81
281.199	257.81
281.431	262.81
281.662	262.81
281.894	269.81
282.125	274.81
282.356	286.81
282.588	317.81
282.819	284.81
283.051	274.81
283.282	259.81
283.513	274.81
283.745	290.81
283.976	273.81
284.207	292.81
284.439	281.81
284.67	290.81
284.901	283.81
285.132	285.81
285.364	280.81
285.595	275.81
285.826	285.81
286.057	301.81
286.288	305.81
286.52	297.81
286.751	299.81
286.982	281.81
287.213	280.81
287.444	304.81
287.675	293.81
287.906	296.81
288.138	294.81
288.369	304.81
288.6	294.81
288.831	302.81
289.062	288.81
289.293	289.81
289.524	297.81
289.755	301.81
289.986	270.81
290.217	289.81
290.448	284.81
290.679	278.81
290.91	291.81
291.141	296.81
291.371	284.81
291.602	290.81
291.833	312.81
292.064	282.81
292.295	288.81
292.526	304.81
292.757	295.81
292.987	279.81
293.218	284.81
293.449	283.81
293.68	284.81
293.91	285.81
294.141	313.81
294.372	288.81
294.603	301.81
294.833	301.81
295.064	301.81
295.295	298.81
295.525	302.81
295.756	306.81
295.987	303.81
296.217	341.81
296.448	336.81
296.679	311.81
296.909	287.81
297.14	301.81
297.37	302.81
297.601	296.81
297.831	310.81
298.062	298.81
298.292	302.81
298.523	292.81
298.753	315.81
298.984	312.81
299.214	312.81
299.445	328.81
299.675	313.81
299.905	325.81
300.136	316.81
300.366	316.81
300.597	320.81
300.827	319.81
301.057	331.81
301.288	314.81
301.518	333.81
301.748	314.81
301.979	326.81
302.209	323.81
302.439	312.81
302.669	345.81
302.9	348.81
303.13	350.81
303.36	323.81
303.59	325.81
303.82	335.81
304.051	323.81
304.281	313.81
304.511	329.81
304.741	321.81
304.971	334.81
305.201	326.81
305.431	340.81
305.661	334.81
305.891	345.81
306.121	321.81
306.352	324.81
306.582	336.81
306.812	318.81
307.042	349.81
307.272	334.81
307.502	348.81
307.731	348.81
307.961	333.81
308.191	346.81
308.421	334.81
308.651	348.81
308.881	327.81
309.111	338.81
309.341	343.81
309.571	355.81
309.8	330.81
310.03	350.81
310.26	351.81
310.49	336.81
310.72	365.81
310.949	380.81
311.179	371.81
311.409	356.81
311.639	354.81
311.868	378.81
312.098	362.81
312.328	372.81
312.557	364.81
312.787	374.81
313.017	395.81
313.246	377.81
313.476	371.81
313.706	351.81
313.935	372.81
314.165	393.81
314.394	395.81
314.624	374.81
314.853	385.81
315.083	361.81
315.312	370.81
315.542	376.81
315.771	356.81
316.001	372.81
316.23	372.81
316.46	376.81
316.689	361.81
316.919	376.81
317.148	384.81
317.377	378.81
317.607	386.81
317.836	385.81
318.065	372.81
318.295	384.81
318.524	378.81
318.753	357.81
318.983	362.81
319.212	380.81
319.441	389.81
319.67	375.81
319.9	376.81
320.129	371.81
320.358	369.81
320.587	371.81
320.816	392.81
321.046	390.81
321.275	389.81
321.504	369.81
321.733	391.81
321.962	396.81
322.191	394.81
322.42	397.81
322.649	412.81
322.878	405.81
323.108	403.81
323.337	421.81
323.566	444.81
323.795	440.81
324.024	495.81
324.253	560.81
324.482	732.81
324.71	1126.81
324.939	1635.81
325.168	1475.81
325.397	764.81
325.626	544.81
325.855	497.81
326.084	462.81
326.313	474.81
326.542	441.81
326.77	475.81
326.999	540.81
327.228	705.81
327.457	1036.81
327.686	1250.81
327.914	848.81
328.143	584.81
328.372	530.81
328.6	512.81
328.829	509.81
329.058	509.81
329.287	500.81
329.515	468.81
329.744	456.81
329.972	453.81
330.201	462.81
330.43	522.81
330.658	499.81
330.887	532.81
331.115	529.81
331.344	486.81
331.572	464.81
331.801	454.81
332.03	485.81
332.258	457.81
332.486	470.81
332.715	428.81
332.943	453.81
333.172	472.81
333.4	478.81
333.629	492.81
333.857	493.81
334.085	493.81
334.314	506.81
334.542	508.81
334.771	529.81
334.999	519.81
335.227	478.81
335.455	486.81
335.684	452.81
335.912	456.81
336.14	442.81
336.369	457.81
336.597	438.81
336.825	466.81
337.053	477.81
337.281	450.81
337.51	471.81
337.738	436.81
337.966	432.81
338.194	436.81
338.422	438.81
338.65	450.81
338.878	439.81
339.106	438.81
339.334	445.81
339.562	438.81
339.79	420.81
340.018	429.81
340.246	439.81
340.474	430.81
340.702	402.81
340.93	427.81
341.158	411.81
341.386	425.81
341.614	433.81
341.842	439.81
342.07	433.81
342.298	424.81
342.526	416.81
342.754	415.81
342.981	410.81
343.209	421.81
343.437	415.81
343.665	444.81
343.893	444.81
344.12	463.81
344.348	463.81
344.576	454.81
344.804	462.81
345.031	458.81
345.259	459.81
345.487	433.81
345.714	461.81
345.942	444.81
346.17	426.81
346.397	431.81
346.625	405.81
346.853	393.81
347.08	406.81
347.308	407.81
347.535	436.81
347.763	424.81
347.99	415.81
348.218	429.81
348.445	430.81
348.673	408.81
348.9	410.81
349.128	414.81
349.355	408.81
349.583	412.81
349.81	407.81
350.037	412.81
350.265	408.81
350.492	402.81
350.72	401.81
350.947	407.81
351.174	421.81
351.402	415.81
351.629	406.81
351.856	412.81
352.083	406.81
352.311	442.81
352.538	429.81
352.765	452.81
352.992	415.81
353.22	394.81
353.447	405.81
353.674	413.81
353.901	404.81
354.128	417.81
354.355	410.81
354.583	406.81
354.81	412.81
355.037	401.81
355.264	416.81
355.491	400.81
355.718	411.81
355.945	404.81
356.172	385.81
356.399	377.81
356.626	413.81
356.853	380.81
357.08	402.81
357.307	408.81
357.534	393.81
357.761	410.81
357.988	414.81
358.215	413.81
358.441	390.81
358.668	406.81
358.895	409.81
359.122	401.81
359.349	394.81
359.576	421.81
359.802	416.81
360.029	428.81
360.256	464.81
360.483	424.81
360.709	397.81
360.936	422.81
361.163	431.81
361.39	421.81
361.616	435.81
361.843	431.81
362.07	412.81
362.296	409.81
362.523	392.81
362.749	402.81
362.976	418.81
363.203	424.81
363.429	390.81
363.656	391.81
363.882	406.81
364.109	413.81
364.335	411.81
364.562	401.81
364.788	404.81
365.015	426.81
365.241	424.81
365.468	402.81
365.694	406.81
365.92	432.81
366.147	422.81
366.373	406.81
366.599	420.81
366.826	391.81
367.052	430.81
367.278	420.81
367.505	391.81
367.731	412.81
367.957	430.81
368.184	392.81
368.41	421.81
368.636	430.81
368.862	425.81
369.089	443.81
369.315	414.81
369.541	410.81
369.767	433.81
369.993	429.81
370.219	418.81
370.445	413.81
370.672	410.81
370.898	428.81
371.124	412.81
371.35	417.81
371.576	442.81
371.802	414.81
372.028	408.81
372.254	414.81
372.48	423.81
372.706	437.81
372.932	452.81
373.158	429.81
373.384	415.81
373.61	436.81
373.835	422.81
374.061	439.81
374.287	425.81
374.513	424.81
374.739	433.81
374.965	442.81
375.191	439.81
375.416	446.81
375.642	418.81
375.868	430.81
376.094	433.81
376.319	441.81
376.545	433.81
376.771	444.81
376.997	426.81
377.222	437.81
377.448	417.81
377.674	412.81
377.899	402.81
378.125	435.81
378.35	404.81
378.576	401.81
378.802	401.81
379.027	436.81
379.253	431.81
379.478	438.81
379.704	418.81
379.929	426.81
380.155	444.81
380.38	429.81
380.606	434.81
380.831	420.81
381.057	433.81
381.282	435.81
381.507	442.81
381.733	445.81
381.958	429.81
382.184	441.81
382.409	437.81
382.634	448.81
382.86	451.81
383.085	408.81
383.31	435.81
383.535	456.81
383.761	453.81
383.986	453.81
384.211	432.81
384.436	474.81
384.662	486.81
384.887	477.81
385.112	462.81
385.337	473.81
385.562	462.81
385.787	478.81
386.013	466.81
386.238	505.81
386.463	471.81
386.688	486.81
386.913	502.81
387.138	500.81
387.363	486.81
387.588	460.81
387.813	462.81
388.038	453.81
388.263	475.81
388.488	500.81
388.713	501.81
388.938	473.81
389.163	499.81
389.387	473.81
389.612	441.81
389.837	465.81
390.062	480.81
390.287	494.81
390.512	462.81
390.736	471.81
390.961	476.81
391.186	458.81
391.411	501.81
391.636	485.81
391.86	504.81
392.085	498.81
392.31	488.81
392.534	497.81
392.759	518.81
392.984	478.81
393.208	503.81
393.433	493.81
393.658	481.81
393.882	490.81
394.107	484.81
394.331	486.81
394.556	489.81
394.78	479.81
395.005	477.81
395.229	493.81
395.454	496.81
395.678	510.81
395.903	527.81
396.127	535.81
396.352	513.81
396.576	499.81
396.801	492.81
397.025	512.81
397.249	493.81
397.474	499.81
397.698	506.81
397.922	533.81
398.147	542.81
398.371	524.81
398.595	550.81
398.82	552.81
399.044	566.81
399.268	580.81
399.492	625.81
399.717	672.81
399.941	703.81
400.165	705.81
400.389	695.81
400.613	617.81
400.837	595.81
401.062	552.81
401.286	558.81
401.51	552.81
401.734	556.81
401.958	559.81
402.182	575.81
402.406	561.81
402.63	565.81
402.854	555.81
403.078	576.81
403.302	584.81
403.526	589.81
403.75	593.81
403.974	582.81
404.198	600.81
404.422	600.81
404.645	586.81
404.869	612.81
405.093	626.81
405.317	643.81
405.541	671.81
405.765	633.81
405.988	607.81
406.212	610.81
406.436	616.81
406.66	636.81
406.883	616.81
407.107	658.81
407.331	692.81
407.555	764.81
407.778	734.81
408.002	697.81
408.226	633.81
408.449	653.81
408.673	637.81
408.896	648.81
409.12	720.81
409.344	643.81
409.567	607.81
409.791	615.81
410.014	597.81
410.238	583.81
410.461	578.81
410.685	596.81
410.908	588.81
411.132	610.81
411.355	673.81
411.578	646.81
411.802	598.81
412.025	562.81
412.249	586.81
412.472	632.81
412.695	628.81
412.919	612.81
413.142	561.81
413.365	569.81
413.589	573.81
413.812	580.81
414.035	579.81
414.258	564.81
414.482	542.81
414.705	538.81
414.928	536.81
415.151	551.81
415.374	559.81
415.597	536.81
415.821	560.81
416.044	525.81
416.267	554.81
416.49	532.81
416.713	531.81
416.936	543.81
417.159	542.81
417.382	554.81
417.605	565.81
417.828	554.81
418.051	576.81
418.274	543.81
418.497	553.81
418.72	563.81
418.943	538.81
419.166	574.81
419.389	604.81
419.611	621.81
419.834	581.81
420.057	578.81
420.28	586.81
420.503	561.81
420.726	585.81
420.948	607.81
421.171	636.81
421.394	647.81
421.617	578.81
421.839	566.81
422.062	582.81
422.285	582.81
422.507	641.81
422.73	728.81
422.953	686.81
423.175	608.81
423.398	574.81
423.621	582.81
423.843	610.81
424.066	615.81
424.288	618.81
424.511	637.81
424.733	694.81
424.956	765.81
425.178	715.81
425.401	708.81
425.623	752.81
425.846	633.81
426.068	616.81
426.291	603.81
426.513	585.81
426.735	597.81
426.958	642.81
427.18	704.81
427.402	845.81
427.625	929.81
427.847	805.81
428.069	681.81
428.292	638.81
428.514	591.81
428.736	560.81
428.958	581.81
429.181	570.81
429.403	552.81
429.625	561.81
429.847	566.81
430.069	666.81
430.292	639.81
430.514	546.81
430.736	556.81
430.958	557.81
431.18	543.81
431.402	532.81
431.624	553.81
431.846	522.81
432.068	517.81
432.29	545.81
432.512	537.81
432.734	548.81
432.956	530.81
433.178	542.81
433.4	565.81
433.622	532.81
433.844	515.81
434.066	546.81
434.287	541.81
434.509	549.81
434.731	558.81
434.953	570.81
435.175	589.81
435.397	608.81
435.618	599.81
435.84	638.81
436.062	708.81
436.284	789.81
436.505	655.81
436.727	580.81
436.949	571.81
437.17	541.81
437.392	538.81
437.614	557.81
437.835	601.81
438.057	666.81
438.278	758.81
438.5	761.81
438.721	857.81
438.943	832.81
439.165	661.81
439.386	616.81
439.608	597.81
439.829	566.81
440.05	621.81
440.272	674.81
440.493	623.81
440.715	584.81
440.936	582.81
441.158	568.81
441.379	566.81
441.6	596.81
441.822	615.81
442.043	651.81
442.264	712.81
442.486	767.81
442.707	642.81
442.928	614.81
443.149	608.81
443.371	625.81
443.592	652.81
443.813	782.81
444.034	835.81
444.255	695.81
444.476	624.81
444.698	627.81
444.919	608.81
445.14	737.81
445.361	693.81
445.582	624.81
445.803	689.81
446.024	783.81
446.245	781.81
446.466	735.81
446.687	620.81
446.908	597.81
447.129	572.81
447.35	534.81
447.571	541.81
447.792	536.81
448.013	558.81
448.234	565.81
448.455	609.81
448.675	735.81
448.896	819.81
449.117	716.81
449.338	661.81
449.559	785.81
449.779	887.81
450	692.81
450.221	601.81
450.442	554.81
450.662	556.81
450.883	528.81
451.104	531.81
451.324	551.81
451.545	514.81
451.766	514.81
451.986	470.81
452.207	481.81
452.428	484.81
452.648	500.81
452.869	480.81
453.089	489.81
453.31	487.81
453.53	501.81
453.751	482.81
453.971	488.81
454.192	516.81
454.412	498.81
454.633	476.81
454.853	485.81
455.073	480.81
455.294	516.81
455.514	558.81
455.734	571.81
455.955	486.81
456.175	481.81
456.395	454.81
456.616	458.81
456.836	484.81
457.056	474.81
457.276	452.81
457.497	455.81
457.717	478.81
457.937	461.81
458.157	462.81
458.377	479.81
458.598	508.81
458.818	540.81
459.038	617.81
459.258	623.81
459.478	558.81
459.698	540.81
459.918	529.81
460.138	537.81
460.358	568.81
460.578	563.81
460.798	549.81
461.018	553.81
461.238	540.81
461.458	548.81
461.678	560.81
461.898	547.81
462.118	575.81
462.338	565.81
462.558	569.81
462.777	579.81
462.997	611.81
463.217	621.81
463.437	636.81
463.657	616.81
463.876	602.81
464.096	620.81
464.316	596.81
464.536	592.81
464.755	578.81
464.975	596.81
465.195	585.81
465.414	644.81
465.634	606.81
465.854	545.81
466.073	545.81
466.293	550.81
466.512	515.81
466.732	511.81
466.951	514.81
467.171	473.81
467.391	499.81
467.61	532.81
467.829	509.81
468.049	529.81
468.268	513.81
468.488	489.81
468.707	506.81
468.927	496.81
469.146	476.81
469.365	472.81
469.585	501.81
469.804	502.81
470.023	532.81
470.243	520.81
470.462	516.81
470.681	549.81
470.901	553.81
471.12	515.81
471.339	506.81
471.558	518.81
471.777	523.81
471.997	514.81
472.216	508.81
472.435	541.81
472.654	526.81
472.873	497.81
473.092	512.81
473.311	495.81
473.53	512.81
473.749	511.81
473.968	542.81
474.187	649.81
474.406	674.81
474.625	567.81
474.844	534.81
475.063	516.81
475.282	520.81
475.501	518.81
475.72	540.81
475.939	538.81
476.158	514.81
476.377	516.81
476.596	524.81
476.814	563.81
477.033	518.81
477.252	524.81
477.471	540.81
477.69	564.81
477.908	564.81
478.127	591.81
478.346	570.81
478.564	574.81
478.783	576.81
479.002	610.81
479.22	581.81
479.439	624.81
479.658	606.81
479.876	628.81
480.095	624.81
480.313	649.81
480.532	642.81
480.751	648.81
480.969	658.81
481.188	660.81
481.406	695.81
481.624	616.81
481.843	606.81
482.061	621.81
482.28	614.81
482.498	614.81
482.717	602.81
482.935	605.81
483.153	581.81
483.372	611.81
483.59	592.81
483.808	603.81
484.027	606.81
484.245	580.81
484.463	609.81
484.681	616.81
484.9	620.81
485.118	624.81
485.336	629.81
485.554	608.81
485.772	640.81
485.99	620.81
486.209	622.81
486.427	629.81
486.645	639.81
486.863	642.81
487.081	647.81
487.299	626.81
487.517	638.81
487.735	663.81
487.953	633.81
488.171	646.81
488.389	647.81
488.607	647.81
488.825	656.81
489.043	648.81
489.261	679.81
489.479	658.81
489.696	659.81
489.914	644.81
490.132	681.81
490.35	689.81
490.568	706.81
490.786	706.81
491.003	726.81
491.221	704.81
491.439	731.81
491.657	737.81
491.874	741.81
492.092	761.81
492.31	752.81
492.527	742.81
492.745	746.81
492.963	753.81
493.18	755.81
493.398	750.81
493.615	766.81
493.833	766.81
494.05	785.81
494.268	765.81
494.485	772.81
494.703	752.81
494.92	762.81
495.138	755.81
495.355	781.81
495.573	785.81
495.79	782.81
496.008	786.81
496.225	760.81
496.442	769.81
496.66	786.81
496.877	789.81
497.094	784.81
497.312	795.81
497.529	807.81
497.746	820.81
497.963	817.81
498.181	839.81
498.398	878.81
498.615	886.81
498.832	906.81
499.049	925.81
499.267	978.81
499.484	988.81
499.701	1038.81
499.918	1089.81
500.135	1152.81
500.352	1238.81
500.569	1248.81
500.786	1235.81
501.003	1207.81
501.22	1174.81
501.437	1126.81
501.654	1075.81
501.871	1061.81
502.088	991.81
502.305	951.81
502.522	930.81
502.739	872.81
502.956	861.81
503.172	867.81
503.389	816.81
503.606	813.81
503.823	805.81
504.04	798.81
504.256	781.81
504.473	792.81
504.69	778.81
504.907	785.81
505.123	756.81
505.34	756.81
505.557	722.81
505.773	722.81
505.99	743.81
506.207	730.81
506.423	716.81
506.64	711.81
506.856	724.81
507.073	720.81
507.289	692.81
507.506	696.81
507.722	697.81
507.939	681.81
508.155	701.81
508.372	680.81
508.588	680.81
508.805	672.81
509.021	662.81
509.238	720.81
509.454	725.81
509.67	701.81
509.887	658.81
510.103	650.81
510.319	666.81
510.536	730.81
510.752	961.81
510.968	867.81
511.184	645.81
511.401	651.81
511.617	632.81
511.833	649.81
512.049	649.81
512.265	637.81
512.481	633.81
512.698	627.81
512.914	609.81
513.13	624.81
513.346	612.81
513.562	617.81
513.778	636.81
513.994	638.81
514.21	658.81
514.426	647.81
514.642	671.81
514.858	671.81
515.074	694.81
515.29	760.81
515.506	988.81
515.721	851.81
515.937	711.81
516.153	694.81
516.369	686.81
516.585	659.81
516.801	674.81
517.016	686.81
517.232	695.81
517.448	679.81
517.664	693.81
517.879	689.81
518.095	693.81
518.311	675.81
518.527	651.81
518.742	664.81
518.958	642.81
519.173	640.81
519.389	642.81
519.605	645.81
519.82	636.81
520.036	645.81
520.251	637.81
520.467	663.81
520.682	662.81
520.898	647.81
521.113	634.81
521.329	655.81
521.544	728.81
521.76	821.81
521.975	1216.81
522.19	1185.81
522.406	782.81
522.621	630.81
522.836	601.81
523.052	604.81
523.267	580.81
523.482	582.81
523.698	575.81
523.913	592.81
524.128	570.81
524.343	561.81
524.559	552.81
524.774	559.81
524.989	562.81
525.204	542.81
525.419	535.81
525.634	528.81
525.849	547.81
526.064	534.81
526.28	549.81
526.495	552.81
526.71	533.81
526.925	517.81
527.14	533.81
527.355	523.81
527.57	515.81
527.785	540.81
527.999	505.81
528.214	517.81
528.429	552.81
528.644	543.81
528.859	494.81
529.074	517.81
529.289	528.81
529.503	575.81
529.718	592.81
529.933	557.81
530.148	536.81
530.363	536.81
530.577	544.81
530.792	529.81
531.007	483.81
531.221	518.81
531.436	533.81
531.651	535.81
531.865	522.81
532.08	515.81
532.295	514.81
532.509	521.81
532.724	527.81
532.938	508.81
533.153	508.81
533.367	502.81
533.582	512.81
533.796	513.81
534.011	502.81
534.225	507.81
534.44	517.81
534.654	504.81
534.868	503.81
535.083	532.81
535.297	510.81
535.511	497.81
535.726	527.81
535.94	515.81
536.154	504.81
536.369	485.81
536.583	479.81
536.797	478.81
537.011	484.81
537.225	483.81
537.44	470.81
537.654	501.81
537.868	481.81
538.082	466.81
538.296	484.81
538.51	471.81
538.724	507.81
538.938	478.81
539.153	486.81
539.367	491.81
539.581	506.81
539.795	474.81
540.009	510.81
540.222	483.81
540.436	479.81
540.65	485.81
540.864	467.81
541.078	511.81
541.292	477.81
541.506	503.81
541.72	487.81
541.934	468.81
542.147	484.81
542.361	484.81
542.575	480.81
542.789	502.81
543.002	473.81
543.216	489.81
543.43	478.81
543.644	478.81
543.857	477.81
544.071	495.81
544.285	523.81
544.498	489.81
544.712	487.81
544.925	481.81
545.139	508.81
545.352	497.81
545.566	486.81
545.779	480.81
545.993	476.81
546.206	489.81
546.42	478.81
546.633	501.81
546.847	487.81
547.06	485.81
547.274	482.81
547.487	493.81
547.7	466.81
547.914	494.81
548.127	453.81
548.34	481.81
548.554	494.81
548.767	484.81
548.98	500.81
549.193	474.81
549.407	488.81
549.62	514.81
549.833	485.81
550.046	497.81
550.259	487.81
550.473	481.81
550.686	455.81
550.899	476.81
551.112	473.81
551.325	450.81
551.538	461.81
551.751	451.81
551.964	480.81
552.177	485.81
552.39	476.81
552.603	481.81
552.816	513.81
553.029	489.81
553.242	486.81
553.455	496.81
553.667	498.81
553.88	514.81
554.093	487.81
554.306	462.81
554.519	499.81
554.732	484.81
554.944	491.81
555.157	478.81
555.37	460.81
555.583	459.81
555.795	482.81
556.008	440.81
556.221	449.81
556.433	422.81
556.646	441.81
556.859	438.81
557.071	436.81
557.284	453.81
557.496	434.81
557.709	440.81
557.921	438.81
558.134	435.81
558.346	425.81
558.559	424.81
558.771	425.81
558.984	411.81
559.196	430.81
559.409	430.81
559.621	464.81
559.833	420.81
560.046	406.81
560.258	417.81
560.47	409.81
560.683	406.81
560.895	424.81
561.107	421.81
561.32	435.81
561.532	410.81
561.744	405.81
561.956	423.81
562.168	429.81
562.381	415.81
562.593	416.81
562.805	422.81
563.017	416.81
563.229	418.81
563.441	430.81
563.653	440.81
563.865	438.81
564.077	422.81
564.289	419.81
564.501	424.81
564.713	459.81
564.925	452.81
565.137	450.81
565.349	464.81
565.561	473.81
565.773	459.81
565.985	466.81
566.197	482.81
566.408	505.81
566.62	530.81
566.832	563.81
567.044	576.81
567.255	558.81
567.467	559.81
567.679	564.81
567.891	584.81
568.102	596.81
568.314	569.81
568.526	537.81
568.737	523.81
568.949	521.81
569.161	489.81
569.372	455.81
569.584	440.81
569.795	462.81
570.007	457.81
570.218	464.81
570.43	448.81
570.641	437.81
570.853	421.81
571.064	408.81
571.276	406.81
571.487	422.81
571.698	388.81
571.91	406.81
572.121	398.81
572.333	395.81
572.544	398.81
572.755	379.81
572.966	388.81
573.178	376.81
573.389	378.81
573.6	372.81
573.811	382.81
574.023	372.81
574.234	372.81
574.445	373.81
574.656	375.81
574.867	370.81
575.078	356.81
575.289	358.81
575.501	374.81
575.712	355.81
575.923	337.81
576.134	374.81
576.345	352.81
576.556	348.81
576.767	366.81
576.978	359.81
577.188	353.81
577.399	343.81
577.61	337.81
577.821	344.81
578.032	348.81
578.243	358.81
578.454	488.81
578.665	406.81
578.875	336.81
579.086	342.81
579.297	335.81
579.508	318.81
579.718	329.81
579.929	325.81
580.14	325.81
580.35	334.81
580.561	338.81
580.772	327.81
580.982	343.81
581.193	329.81
581.403	338.81
581.614	334.81
581.825	336.81
582.035	344.81
582.246	321.81
582.456	331.81
582.667	332.81
582.877	325.81
583.087	325.81
583.298	329.81
583.508	326.81
583.719	326.81
583.929	329.81
584.139	334.81
584.35	327.81
584.56	320.81
584.77	322.81
584.981	328.81
585.191	324.81
585.401	317.81
585.611	304.81
585.821	313.81
586.032	301.81
586.242	328.81
586.452	310.81
586.662	332.81
586.872	329.81
587.082	307.81
587.292	306.81
587.502	303.81
587.713	316.81
587.923	320.81
588.133	308.81
588.343	312.81
588.553	300.81
588.762	325.81
588.972	306.81
589.182	321.81
589.392	316.81
589.602	308.81
589.812	316.81
590.022	312.81
590.232	298.81
590.441	319.81
590.651	320.81
590.861	313.81
591.071	330.81
591.281	321.81
591.49	331.81
591.7	317.81
591.91	340.81
592.119	341.81
592.329	331.81
592.539	334.81
592.748	341.81
592.958	338.81
593.167	343.81
593.377	344.81
593.587	353.81
593.796	365.81
594.006	364.81
594.215	359.81
594.424	326.81
594.634	338.81
594.843	349.81
595.053	349.81
595.262	339.81
595.472	314.81
595.681	324.81
595.89	328.81
596.1	320.81
596.309	326.81
596.518	300.81
596.727	300.81
596.937	309.81
597.146	294.81
597.355	304.81
597.564	297.81
597.774	298.81
597.983	275.81
598.192	301.81
598.401	289.81
598.61	277.81
598.819	262.81
599.028	277.81
599.237	280.81
599.446	277.81
599.655	262.81
599.864	276.81
600.073	264.81
600.282	280.81
600.491	290.81
600.7	284.81
600.909	289.81
601.118	280.81
601.327	293.81
601.536	262.81
601.745	273.81
601.953	285.81
602.162	284.81
602.371	280.81
602.58	267.81
602.789	260.81
602.997	273.81
603.206	270.81
603.415	260.81
603.623	282.81
603.832	275.81
604.041	279.81
604.249	268.81
604.458	246.81
604.666	261.81
604.875	253.81
605.084	262.81
605.292	253.81
605.501	263.81
605.709	263.81
605.918	274.81
606.126	264.81
606.334	262.81
606.543	259.81
606.751	267.81
606.96	265.81
607.168	244.81
607.376	261.81
607.585	282.81
607.793	258.81
608.001	283.81
608.21	270.81
608.418	271.81
608.626	267.81
608.834	257.81
609.043	271.81
609.251	270.81
609.459	246.81
609.667	258.81
609.875	253.81
610.083	272.81
610.291	277.81
610.499	261.81
610.707	250.81
610.916	261.81
611.124	268.81
611.332	265.81
611.54	260.81
611.748	261.81
611.955	254.81
612.163	264.81
612.371	255.81
612.579	250.81
612.787	242.81
612.995	250.81
613.203	274.81
613.411	254.81
613.618	262.81
613.826	266.81
614.034	266.81
614.242	258.81
614.449	242.81
614.657	264.81
614.865	250.81
615.072	264.81
615.28	255.81
615.488	233.81
615.695	268.81
615.903	261.81
616.111	246.81
616.318	284.81
616.526	261.81
616.733	266.81
616.941	257.81
617.148	260.81
617.356	247.81
617.563	259.81
617.771	245.81
617.978	264.81
618.185	248.81
618.393	251.81
618.6	253.81
618.807	257.81
619.015	238.81
619.222	252.81
619.429	245.81
619.637	233.81
619.844	248.81
620.051	240.81
620.258	218.81
620.466	236.81
620.673	235.81
620.88	244.81
621.087	237.81
621.294	237.81
621.501	239.81
621.708	243.81
621.915	238.81
622.122	253.81
622.329	250.81
622.536	233.81
622.743	230.81
622.95	235.81
623.157	226.81
623.364	229.81
623.571	244.81
623.778	229.81
623.985	230.81
624.192	247.81
624.399	212.81
624.606	231.81
624.812	231.81
625.019	220.81
625.226	216.81
625.433	234.81
625.639	228.81
625.846	216.81
626.053	213.81
626.259	214.81
626.466	222.81
626.673	215.81
626.879	196.81
627.086	217.81
627.293	195.81
627.499	211.81
627.706	219.81
627.912	236.81
628.119	229.81
628.325	215.81
628.532	221.81
628.738	219.81
628.945	201.81
629.151	198.81
629.357	240.81
629.564	199.81
629.77	226.81
629.976	213.81
630.183	212.81
630.389	203.81
630.595	203.81
630.802	216.81
631.008	186.81
631.214	208.81
631.42	212.81
631.627	192.81
631.833	204.81
632.039	198.81
632.245	211.81
632.451	185.81
632.657	196.81
632.863	180.81
633.069	205.81
633.275	196.81
633.481	202.81
633.688	187.81
633.893	208.81
634.099	202.81
634.305	199.81
634.511	196.81
634.717	194.81
634.923	197.81
635.129	178.81
635.335	187.81
635.541	188.81
635.747	192.81
635.952	184.81
636.158	194.81
636.364	201.81
636.57	198.81
636.775	205.81
636.981	185.81
637.187	194.81
637.392	190.81
637.598	195.81
637.804	203.81
638.009	190.81
638.215	189.81
638.421	185.81
638.626	184.81
638.832	167.81
639.037	189.81
639.243	178.81
639.448	160.81
639.654	186.81
639.859	174.81
640.065	184.81
640.27	194.81
640.475	179.81
640.681	169.81
640.886	179.81
641.091	184.81
641.297	184.81
641.502	183.81
641.707	204.81
641.913	174.81
642.118	172.81
642.323	188.81
642.528	168.81
642.733	186.81
642.939	182.81
643.144	181.81
643.349	174.81
643.554	186.81
643.759	176.81
643.964	172.81
644.169	176.81
644.374	182.81
644.579	193.81
644.784	172.81
644.989	172.81
645.194	169.81
645.399	187.81
645.604	180.81
645.809	189.81
646.014	169.81
646.219	177.81
646.423	182.81
646.628	176.81
646.833	172.81
647.038	185.81
647.243	167.81
647.447	183.81
647.652	155.81
647.857	184.81
648.062	188.81
648.266	192.81
648.471	177.81
648.676	187.81
648.88	168.81
649.085	189.81
649.289	174.81
649.494	167.81
649.698	186.81
649.903	181.81
650.107	166.81
650.312	168.81
650.516	170.81
650.721	162.81
650.925	162.81
651.13	155.81
651.334	156.81
651.539	141.81
651.743	156.81
651.947	172.81
652.152	149.81
652.356	163.81
652.56	147.81
652.764	148.81
652.969	150.81
653.173	139.81
653.377	137.81
653.581	123.81
653.785	134.81
653.99	146.81
654.194	137.81
654.398	141.81
654.602	128.81
654.806	124.81
655.01	135.81
655.214	143.81
655.418	137.81
655.622	135.81
655.826	127.81
656.03	137.81
656.234	142.81
656.438	139.81
656.642	134.81
656.846	130.81
657.049	141.81
657.253	126.81
657.457	126.81
657.661	121.81
657.865	127.81
658.068	111.81
658.272	105.81
658.476	107.81
658.68	108.81
658.883	103.81
659.087	103.81
659.291	111.81
659.494	101.81
659.698	100.81
659.901	96.81
660.105	97.81
660.309	103.81
660.512	86.81
660.716	73.81
660.919	93.81
661.123	87.81
661.326	93.81
661.53	78.81
661.733	53.81
661.936	79.81
662.14	74.81
662.343	76.81
662.546	84.81
662.75	84.81
662.953	73.81
663.156	87.81
663.36	72.81
663.563	71.81
663.766	81.81
663.969	81.81
664.173	80.81
664.376	77.81
664.579	82.81
664.782	90.81
664.985	78.81
665.188	76.81
665.391	81.81
665.594	74.81
665.797	74.81
666	73.81
666.203	83.81
666.406	71.81
666.609	78.81
666.812	62.81
667.015	89.81
667.218	82.81
667.421	73.81
667.624	75.81
667.827	73.81
668.03	73.81
668.232	84.81
668.435	82.81
668.638	78.81
668.841	74.81
669.043	84.81
669.246	69.81
669.449	82.81
669.651	90.81
669.854	75.81
670.057	80.81
670.259	75.81
670.462	74.81
670.665	75.81
670.867	90.81
671.07	74.81
671.272	77.81
671.475	89.81
671.677	78.81
671.88	80.81
672.082	72.81
672.284	72.81
672.487	81.81
672.689	74.81
672.892	76.81
