Data from 1974.PennyLincolnUp.Lamp.En5.5.200Scan.071719.P1.Changed Mount._HRD10591_15-52-47-857.txt Node
Date: Thu Jul 18 15:52:47 EDT 2019
User: cochatt
Spectrometer: HR+D1059
Trigger mode: 1
Integration Time (sec): 1.000000E-1
Scans to average: 1
Electric dark correction enabled: true
Nonlinearity correction enabled: false
Boxcar width: 0
XAxis mode: Wavelengths
Number of Pixels in Spectrum: 2048
>>>>>Begin Spectral Data<<<<<
223.165	-24.12
223.4	-24.12
223.635	-24.12
223.869	-17.12
224.104	-18.12
224.338	-18.12
224.573	-28.12
224.808	-16.12
225.042	2.88
225.277	-3.12
225.511	-21.12
225.746	-4.12
225.98	19.88
226.215	28.88
226.449	14.88
226.683	11.88
226.918	25.88
227.152	45.88
227.387	27.88
227.621	37.88
227.856	45.88
228.09	41.88
228.324	41.88
228.559	45.88
228.793	60.88
229.027	92.88
229.262	100.88
229.496	124.88
229.73	126.88
229.964	138.88
230.199	118.88
230.433	118.88
230.667	104.88
230.901	108.88
231.136	108.88
231.37	109.88
231.604	113.88
231.838	110.88
232.072	116.88
232.306	117.88
232.541	115.88
232.775	117.88
233.009	108.88
233.243	110.88
233.477	102.88
233.711	124.88
233.945	121.88
234.179	119.88
234.413	117.88
234.647	108.88
234.881	113.88
235.115	116.88
235.349	113.88
235.583	112.88
235.817	112.88
236.051	122.88
236.285	123.88
236.519	129.88
236.753	121.88
236.987	141.88
237.221	182.88
237.455	211.88
237.689	182.88
237.922	145.88
238.156	136.88
238.39	136.88
238.624	124.88
238.858	150.88
239.091	118.88
239.325	120.88
239.559	116.88
239.793	132.88
240.027	140.88
240.26	140.88
240.494	148.88
240.728	146.88
240.961	147.88
241.195	130.88
241.429	126.88
241.662	127.88
241.896	137.88
242.13	141.88
242.363	153.88
242.597	128.88
242.83	139.88
243.064	147.88
243.298	162.88
243.531	145.88
243.765	134.88
243.998	156.88
244.232	142.88
244.465	148.88
244.699	147.88
244.932	138.88
245.166	139.88
245.399	150.88
245.633	141.88
245.866	144.88
246.099	162.88
246.333	154.88
246.566	141.88
246.8	150.88
247.033	145.88
247.266	161.88
247.5	186.88
247.733	152.88
247.966	175.88
248.2	168.88
248.433	162.88
248.666	173.88
248.899	180.88
249.133	216.88
249.366	192.88
249.599	203.88
249.832	165.88
250.066	177.88
250.299	166.88
250.532	202.88
250.765	195.88
250.998	220.88
251.231	231.88
251.465	227.88
251.698	212.88
251.931	186.88
252.164	208.88
252.397	197.88
252.63	203.88
252.863	213.88
253.096	202.88
253.329	225.88
253.562	228.88
253.795	210.88
254.028	212.88
254.261	235.88
254.494	217.88
254.727	257.88
254.96	277.88
255.193	262.88
255.426	262.88
255.659	235.88
255.892	220.88
256.124	231.88
256.357	238.88
256.59	233.88
256.823	202.88
257.056	225.88
257.289	204.88
257.521	213.88
257.754	205.88
257.987	202.88
258.22	216.88
258.452	208.88
258.685	207.88
258.918	213.88
259.151	212.88
259.383	228.88
259.616	230.88
259.849	232.88
260.081	221.88
260.314	270.88
260.547	280.88
260.779	247.88
261.012	237.88
261.244	230.88
261.477	245.88
261.71	237.88
261.942	202.88
262.175	228.88
262.407	217.88
262.64	215.88
262.872	220.88
263.105	221.88
263.337	225.88
263.57	233.88
263.802	235.88
264.035	213.88
264.267	240.88
264.499	229.88
264.732	226.88
264.964	223.88
265.197	214.88
265.429	233.88
265.661	224.88
265.894	217.88
266.126	240.88
266.358	231.88
266.591	220.88
266.823	218.88
267.055	231.88
267.287	243.88
267.52	253.88
267.752	232.88
267.984	239.88
268.216	240.88
268.448	236.88
268.681	264.88
268.913	263.88
269.145	262.88
269.377	289.88
269.609	282.88
269.841	264.88
270.073	255.88
270.306	302.88
270.538	314.88
270.77	319.88
271.002	314.88
271.234	284.88
271.466	304.88
271.698	330.88
271.93	328.88
272.162	338.88
272.394	324.88
272.626	317.88
272.858	306.88
273.09	277.88
273.322	286.88
273.553	270.88
273.785	272.88
274.017	292.88
274.249	281.88
274.481	268.88
274.713	275.88
274.945	284.88
275.176	293.88
275.408	277.88
275.64	260.88
275.872	282.88
276.104	293.88
276.335	270.88
276.567	279.88
276.799	296.88
277.031	315.88
277.262	334.88
277.494	334.88
277.726	311.88
277.957	314.88
278.189	278.88
278.421	278.88
278.652	279.88
278.884	290.88
279.115	286.88
279.347	272.88
279.579	270.88
279.81	294.88
280.042	291.88
280.273	281.88
280.505	294.88
280.736	287.88
280.968	289.88
281.199	271.88
281.431	294.88
281.662	282.88
281.894	300.88
282.125	281.88
282.356	280.88
282.588	293.88
282.819	308.88
283.051	289.88
283.282	285.88
283.513	284.88
283.745	290.88
283.976	312.88
284.207	307.88
284.439	298.88
284.67	310.88
284.901	311.88
285.132	283.88
285.364	280.88
285.595	304.88
285.826	298.88
286.057	286.88
286.288	297.88
286.52	285.88
286.751	326.88
286.982	319.88
287.213	313.88
287.444	300.88
287.675	309.88
287.906	296.88
288.138	310.88
288.369	316.88
288.6	320.88
288.831	314.88
289.062	329.88
289.293	321.88
289.524	330.88
289.755	316.88
289.986	301.88
290.217	322.88
290.448	324.88
290.679	306.88
290.91	318.88
291.141	316.88
291.371	295.88
291.602	316.88
291.833	290.88
292.064	314.88
292.295	313.88
292.526	322.88
292.757	322.88
292.987	319.88
293.218	302.88
293.449	316.88
293.68	314.88
293.91	313.88
294.141	303.88
294.372	327.88
294.603	294.88
294.833	306.88
295.064	309.88
295.295	316.88
295.525	313.88
295.756	313.88
295.987	324.88
296.217	333.88
296.448	340.88
296.679	340.88
296.909	337.88
297.14	329.88
297.37	341.88
297.601	328.88
297.831	324.88
298.062	345.88
298.292	320.88
298.523	354.88
298.753	329.88
298.984	339.88
299.214	324.88
299.445	308.88
299.675	335.88
299.905	342.88
300.136	332.88
300.366	314.88
300.597	326.88
300.827	353.88
301.057	345.88
301.288	357.88
301.518	352.88
301.748	349.88
301.979	352.88
302.209	376.88
302.439	356.88
302.669	343.88
302.9	364.88
303.13	370.88
303.36	359.88
303.59	370.88
303.82	361.88
304.051	376.88
304.281	348.88
304.511	361.88
304.741	353.88
304.971	342.88
305.201	352.88
305.431	359.88
305.661	381.88
305.891	353.88
306.121	356.88
306.352	352.88
306.582	336.88
306.812	347.88
307.042	354.88
307.272	341.88
307.502	339.88
307.731	348.88
307.961	355.88
308.191	361.88
308.421	355.88
308.651	359.88
308.881	378.88
309.111	365.88
309.341	364.88
309.571	369.88
309.8	376.88
310.03	387.88
310.26	396.88
310.49	393.88
310.72	381.88
310.949	386.88
311.179	418.88
311.409	377.88
311.639	367.88
311.868	387.88
312.098	395.88
312.328	373.88
312.557	398.88
312.787	409.88
313.017	410.88
313.246	412.88
313.476	384.88
313.706	384.88
313.935	386.88
314.165	399.88
314.394	411.88
314.624	403.88
314.853	405.88
315.083	396.88
315.312	412.88
315.542	391.88
315.771	406.88
316.001	394.88
316.23	391.88
316.46	410.88
316.689	394.88
316.919	402.88
317.148	418.88
317.377	403.88
317.607	386.88
317.836	396.88
318.065	381.88
318.295	402.88
318.524	388.88
318.753	384.88
318.983	407.88
319.212	391.88
319.441	409.88
319.67	411.88
319.9	406.88
320.129	404.88
320.358	408.88
320.587	420.88
320.816	385.88
321.046	404.88
321.275	407.88
321.504	422.88
321.733	406.88
321.962	398.88
322.191	432.88
322.42	442.88
322.649	430.88
322.878	424.88
323.108	457.88
323.337	459.88
323.566	458.88
323.795	489.88
324.024	532.88
324.253	629.88
324.482	829.88
324.71	1244.88
324.939	1823.88
325.168	1592.88
325.397	823.88
325.626	598.88
325.855	513.88
326.084	505.88
326.313	512.88
326.542	485.88
326.77	530.88
326.999	604.88
327.228	749.88
327.457	1107.88
327.686	1420.88
327.914	982.88
328.143	665.88
328.372	596.88
328.6	562.88
328.829	545.88
329.058	526.88
329.287	557.88
329.515	521.88
329.744	507.88
329.972	505.88
330.201	512.88
330.43	552.88
330.658	563.88
330.887	576.88
331.115	575.88
331.344	521.88
331.572	494.88
331.801	495.88
332.03	481.88
332.258	494.88
332.486	493.88
332.715	475.88
332.943	461.88
333.172	512.88
333.4	494.88
333.629	516.88
333.857	518.88
334.085	545.88
334.314	516.88
334.542	547.88
334.771	564.88
334.999	542.88
335.227	506.88
335.455	498.88
335.684	484.88
335.912	504.88
336.14	496.88
336.369	488.88
336.597	468.88
336.825	478.88
337.053	484.88
337.281	462.88
337.51	464.88
337.738	481.88
337.966	476.88
338.194	465.88
338.422	482.88
338.65	505.88
338.878	487.88
339.106	447.88
339.334	451.88
339.562	459.88
339.79	457.88
340.018	453.88
340.246	479.88
340.474	460.88
340.702	464.88
340.93	457.88
341.158	469.88
341.386	450.88
341.614	453.88
341.842	468.88
342.07	442.88
342.298	458.88
342.526	435.88
342.754	438.88
342.981	457.88
343.209	463.88
343.437	467.88
343.665	483.88
343.893	481.88
344.12	494.88
344.348	478.88
344.576	486.88
344.804	474.88
345.031	495.88
345.259	482.88
345.487	470.88
345.714	465.88
345.942	471.88
346.17	447.88
346.397	429.88
346.625	445.88
346.853	441.88
347.08	457.88
347.308	448.88
347.535	442.88
347.763	458.88
347.99	470.88
348.218	437.88
348.445	458.88
348.673	441.88
348.9	440.88
349.128	436.88
349.355	432.88
349.583	434.88
349.81	419.88
350.037	422.88
350.265	445.88
350.492	433.88
350.72	453.88
350.947	445.88
351.174	442.88
351.402	453.88
351.629	455.88
351.856	437.88
352.083	468.88
352.311	449.88
352.538	465.88
352.765	468.88
352.992	448.88
353.22	428.88
353.447	428.88
353.674	445.88
353.901	442.88
354.128	473.88
354.355	432.88
354.583	428.88
354.81	416.88
355.037	418.88
355.264	439.88
355.491	435.88
355.718	428.88
355.945	432.88
356.172	415.88
356.399	420.88
356.626	422.88
356.853	431.88
357.08	430.88
357.307	422.88
357.534	415.88
357.761	435.88
357.988	449.88
358.215	408.88
358.441	414.88
358.668	429.88
358.895	429.88
359.122	423.88
359.349	429.88
359.576	439.88
359.802	462.88
360.029	482.88
360.256	497.88
360.483	476.88
360.709	453.88
360.936	442.88
361.163	460.88
361.39	438.88
361.616	450.88
361.843	453.88
362.07	455.88
362.296	449.88
362.523	456.88
362.749	457.88
362.976	421.88
363.203	453.88
363.429	436.88
363.656	453.88
363.882	413.88
364.109	427.88
364.335	443.88
364.562	440.88
364.788	434.88
365.015	451.88
365.241	434.88
365.468	424.88
365.694	428.88
365.92	450.88
366.147	426.88
366.373	429.88
366.599	430.88
366.826	440.88
367.052	442.88
367.278	419.88
367.505	440.88
367.731	412.88
367.957	432.88
368.184	438.88
368.41	425.88
368.636	473.88
368.862	449.88
369.089	450.88
369.315	434.88
369.541	438.88
369.767	453.88
369.993	447.88
370.219	463.88
370.445	420.88
370.672	434.88
370.898	417.88
371.124	436.88
371.35	430.88
371.576	440.88
371.802	440.88
372.028	423.88
372.254	440.88
372.48	432.88
372.706	430.88
372.932	450.88
373.158	449.88
373.384	441.88
373.61	436.88
373.835	437.88
374.061	452.88
374.287	444.88
374.513	456.88
374.739	455.88
374.965	464.88
375.191	479.88
375.416	489.88
375.642	479.88
375.868	460.88
376.094	446.88
376.319	457.88
376.545	434.88
376.771	446.88
376.997	439.88
377.222	442.88
377.448	449.88
377.674	453.88
377.899	450.88
378.125	434.88
378.35	432.88
378.576	462.88
378.802	439.88
379.027	453.88
379.253	451.88
379.478	444.88
379.704	440.88
379.929	475.88
380.155	443.88
380.38	438.88
380.606	457.88
380.831	436.88
381.057	457.88
381.282	453.88
381.507	455.88
381.733	452.88
381.958	445.88
382.184	461.88
382.409	473.88
382.634	476.88
382.86	462.88
383.085	479.88
383.31	484.88
383.535	473.88
383.761	472.88
383.986	457.88
384.211	465.88
384.436	455.88
384.662	479.88
384.887	495.88
385.112	494.88
385.337	476.88
385.562	500.88
385.787	488.88
386.013	508.88
386.238	518.88
386.463	515.88
386.688	513.88
386.913	515.88
387.138	513.88
387.363	504.88
387.588	488.88
387.813	501.88
388.038	495.88
388.263	513.88
388.488	497.88
388.713	486.88
388.938	500.88
389.163	512.88
389.387	510.88
389.612	492.88
389.837	499.88
390.062	520.88
390.287	500.88
390.512	506.88
390.736	514.88
390.961	512.88
391.186	494.88
391.411	522.88
391.636	500.88
391.86	514.88
392.085	534.88
392.31	537.88
392.534	532.88
392.759	532.88
392.984	525.88
393.208	508.88
393.433	518.88
393.658	511.88
393.882	509.88
394.107	508.88
394.331	499.88
394.556	514.88
394.78	543.88
395.005	536.88
395.229	518.88
395.454	550.88
395.678	536.88
395.903	564.88
396.127	562.88
396.352	577.88
396.576	543.88
396.801	523.88
397.025	543.88
397.249	527.88
397.474	560.88
397.698	549.88
397.922	547.88
398.147	531.88
398.371	577.88
398.595	587.88
398.82	586.88
399.044	605.88
399.268	644.88
399.492	684.88
399.717	716.88
399.941	724.88
400.165	742.88
400.389	719.88
400.613	679.88
400.837	634.88
401.062	608.88
401.286	609.88
401.51	592.88
401.734	592.88
401.958	582.88
402.182	594.88
402.406	601.88
402.63	612.88
402.854	615.88
403.078	601.88
403.302	624.88
403.526	620.88
403.75	631.88
403.974	630.88
404.198	593.88
404.422	600.88
404.645	606.88
404.869	643.88
405.093	685.88
405.317	686.88
405.541	728.88
405.765	686.88
405.988	649.88
406.212	648.88
406.436	685.88
406.66	670.88
406.883	666.88
407.107	677.88
407.331	721.88
407.555	824.88
407.778	803.88
408.002	737.88
408.226	695.88
408.449	675.88
408.673	671.88
408.896	712.88
409.12	726.88
409.344	705.88
409.567	636.88
409.791	648.88
410.014	633.88
410.238	600.88
410.461	620.88
410.685	627.88
410.908	652.88
411.132	692.88
411.355	715.88
411.578	688.88
411.802	605.88
412.025	610.88
412.249	625.88
412.472	661.88
412.695	676.88
412.919	670.88
413.142	620.88
413.365	586.88
413.589	580.88
413.812	574.88
414.035	568.88
414.258	597.88
414.482	578.88
414.705	602.88
414.928	582.88
415.151	594.88
415.374	582.88
415.597	559.88
415.821	569.88
416.044	585.88
416.267	586.88
416.49	582.88
416.713	566.88
416.936	573.88
417.159	569.88
417.382	593.88
417.605	586.88
417.828	616.88
418.051	613.88
418.274	607.88
418.497	575.88
418.72	599.88
418.943	586.88
419.166	597.88
419.389	645.88
419.611	648.88
419.834	621.88
420.057	631.88
420.28	606.88
420.503	614.88
420.726	616.88
420.948	621.88
421.171	660.88
421.394	693.88
421.617	633.88
421.839	599.88
422.062	592.88
422.285	613.88
422.507	664.88
422.73	724.88
422.953	741.88
423.175	631.88
423.398	636.88
423.621	616.88
423.843	658.88
424.066	654.88
424.288	641.88
424.511	661.88
424.733	706.88
424.956	786.88
425.178	777.88
425.401	767.88
425.623	768.88
425.846	687.88
426.068	632.88
426.291	634.88
426.513	633.88
426.735	645.88
426.958	694.88
427.18	737.88
427.402	885.88
427.625	987.88
427.847	842.88
428.069	764.88
428.292	663.88
428.514	626.88
428.736	598.88
428.958	574.88
429.181	576.88
429.403	598.88
429.625	601.88
429.847	628.88
430.069	672.88
430.292	708.88
430.514	611.88
430.736	591.88
430.958	566.88
431.18	570.88
431.402	591.88
431.624	538.88
431.846	558.88
432.068	530.88
432.29	582.88
432.512	558.88
432.734	560.88
432.956	569.88
433.178	587.88
433.4	605.88
433.622	570.88
433.844	581.88
434.066	564.88
434.287	554.88
434.509	572.88
434.731	579.88
434.953	593.88
435.175	610.88
435.397	629.88
435.618	634.88
435.84	661.88
436.062	766.88
436.284	863.88
436.505	702.88
436.727	626.88
436.949	600.88
437.17	614.88
437.392	575.88
437.614	605.88
437.835	622.88
438.057	711.88
438.278	817.88
438.5	816.88
438.721	884.88
438.943	850.88
439.165	722.88
439.386	651.88
439.608	630.88
439.829	616.88
440.05	670.88
440.272	688.88
440.493	645.88
440.715	613.88
440.936	634.88
441.158	605.88
441.379	608.88
441.6	610.88
441.822	627.88
442.043	665.88
442.264	770.88
442.486	817.88
442.707	712.88
442.928	669.88
443.149	651.88
443.371	685.88
443.592	701.88
443.813	847.88
444.034	884.88
444.255	754.88
444.476	664.88
444.698	671.88
444.919	648.88
445.14	773.88
445.361	698.88
445.582	688.88
445.803	729.88
446.024	823.88
446.245	824.88
446.466	764.88
446.687	699.88
446.908	636.88
447.129	610.88
447.35	592.88
447.571	587.88
447.792	556.88
448.013	565.88
448.234	599.88
448.455	640.88
448.675	768.88
448.896	866.88
449.117	758.88
449.338	698.88
449.559	824.88
449.779	934.88
450	738.88
450.221	634.88
450.442	589.88
450.662	560.88
450.883	556.88
451.104	573.88
451.324	543.88
451.545	533.88
451.766	539.88
451.986	515.88
452.207	518.88
452.428	517.88
452.648	525.88
452.869	504.88
453.089	517.88
453.31	552.88
453.53	518.88
453.751	526.88
453.971	518.88
454.192	542.88
454.412	505.88
454.633	524.88
454.853	516.88
455.073	522.88
455.294	553.88
455.514	617.88
455.734	570.88
455.955	531.88
456.175	492.88
456.395	472.88
456.616	464.88
456.836	494.88
457.056	471.88
457.276	481.88
457.497	480.88
457.717	496.88
457.937	508.88
458.157	508.88
458.377	513.88
458.598	501.88
458.818	579.88
459.038	656.88
459.258	692.88
459.478	596.88
459.698	583.88
459.918	584.88
460.138	563.88
460.358	578.88
460.578	581.88
460.798	601.88
461.018	584.88
461.238	580.88
461.458	592.88
461.678	590.88
461.898	602.88
462.118	606.88
462.338	617.88
462.558	619.88
462.777	624.88
462.997	635.88
463.217	660.88
463.437	677.88
463.657	643.88
463.876	623.88
464.096	641.88
464.316	634.88
464.536	629.88
464.755	656.88
464.975	626.88
465.195	650.88
465.414	703.88
465.634	636.88
465.854	573.88
466.073	577.88
466.293	568.88
466.512	568.88
466.732	564.88
466.951	543.88
467.171	521.88
467.391	550.88
467.61	541.88
467.829	546.88
468.049	550.88
468.268	558.88
468.488	556.88
468.707	534.88
468.927	528.88
469.146	508.88
469.365	523.88
469.585	527.88
469.804	547.88
470.023	548.88
470.243	549.88
470.462	536.88
470.681	537.88
470.901	545.88
471.12	537.88
471.339	559.88
471.558	542.88
471.777	572.88
471.997	567.88
472.216	561.88
472.435	562.88
472.654	566.88
472.873	530.88
473.092	532.88
473.311	533.88
473.53	535.88
473.749	565.88
473.968	597.88
474.187	696.88
474.406	706.88
474.625	587.88
474.844	579.88
475.063	552.88
475.282	561.88
475.501	560.88
475.72	574.88
475.939	579.88
476.158	575.88
476.377	558.88
476.596	539.88
476.814	574.88
477.033	571.88
477.252	580.88
477.471	592.88
477.69	566.88
477.908	597.88
478.127	610.88
478.346	620.88
478.564	630.88
478.783	623.88
479.002	615.88
479.22	651.88
479.439	676.88
479.658	660.88
479.876	663.88
480.095	675.88
480.313	689.88
480.532	696.88
480.751	672.88
480.969	698.88
481.188	732.88
481.406	744.88
481.624	690.88
481.843	650.88
482.061	677.88
482.28	634.88
482.498	644.88
482.717	631.88
482.935	633.88
483.153	618.88
483.372	654.88
483.59	620.88
483.808	634.88
484.027	649.88
484.245	642.88
484.463	665.88
484.681	654.88
484.9	655.88
485.118	651.88
485.336	661.88
485.554	657.88
485.772	660.88
485.99	655.88
486.209	655.88
486.427	672.88
486.645	669.88
486.863	705.88
487.081	701.88
487.299	674.88
487.517	696.88
487.735	696.88
487.953	671.88
488.171	684.88
488.389	673.88
488.607	686.88
488.825	692.88
489.043	699.88
489.261	704.88
489.479	680.88
489.696	704.88
489.914	701.88
490.132	693.88
490.35	724.88
490.568	722.88
490.786	725.88
491.003	744.88
491.221	776.88
491.439	768.88
491.657	804.88
491.874	781.88
492.092	792.88
492.31	777.88
492.527	802.88
492.745	788.88
492.963	784.88
493.18	798.88
493.398	794.88
493.615	788.88
493.833	819.88
494.05	840.88
494.268	841.88
494.485	821.88
494.703	817.88
494.92	827.88
495.138	819.88
495.355	825.88
495.573	805.88
495.79	838.88
496.008	826.88
496.225	826.88
496.442	813.88
496.66	825.88
496.877	823.88
497.094	831.88
497.312	851.88
497.529	843.88
497.746	866.88
497.963	897.88
498.181	894.88
498.398	892.88
498.615	924.88
498.832	958.88
499.049	995.88
499.267	1007.88
499.484	1048.88
499.701	1118.88
499.918	1157.88
500.135	1217.88
500.352	1267.88
500.569	1328.88
500.786	1326.88
501.003	1286.88
501.22	1233.88
501.437	1160.88
501.654	1110.88
501.871	1100.88
502.088	1045.88
502.305	1009.88
502.522	961.88
502.739	936.88
502.956	918.88
503.172	877.88
503.389	858.88
503.606	849.88
503.823	841.88
504.04	846.88
504.256	816.88
504.473	837.88
504.69	832.88
504.907	819.88
505.123	816.88
505.34	807.88
505.557	808.88
505.773	770.88
505.99	776.88
506.207	792.88
506.423	776.88
506.64	757.88
506.856	753.88
507.073	760.88
507.289	745.88
507.506	743.88
507.722	754.88
507.939	740.88
508.155	742.88
508.372	729.88
508.588	732.88
508.805	720.88
509.021	706.88
509.238	746.88
509.454	737.88
509.67	728.88
509.887	728.88
510.103	705.88
510.319	714.88
510.536	788.88
510.752	1097.88
510.968	988.88
511.184	735.88
511.401	694.88
511.617	681.88
511.833	694.88
512.049	660.88
512.265	686.88
512.481	681.88
512.698	681.88
512.914	669.88
513.13	664.88
513.346	672.88
513.562	668.88
513.778	661.88
513.994	665.88
514.21	665.88
514.426	706.88
514.642	725.88
514.858	750.88
515.074	757.88
515.29	835.88
515.506	1116.88
515.721	979.88
515.937	758.88
516.153	732.88
516.369	711.88
516.585	728.88
516.801	740.88
517.016	742.88
517.232	719.88
517.448	724.88
517.664	721.88
517.879	728.88
518.095	717.88
518.311	746.88
518.527	720.88
518.742	697.88
518.958	697.88
519.173	724.88
519.389	678.88
519.605	681.88
519.82	685.88
520.036	662.88
520.251	682.88
520.467	742.88
520.682	726.88
520.898	704.88
521.113	729.88
521.329	753.88
521.544	821.88
521.76	904.88
521.975	1377.88
522.19	1384.88
522.406	861.88
522.621	711.88
522.836	657.88
523.052	633.88
523.267	629.88
523.482	629.88
523.698	629.88
523.913	612.88
524.128	622.88
524.343	612.88
524.559	594.88
524.774	595.88
524.989	596.88
525.204	608.88
525.419	592.88
525.634	589.88
525.849	546.88
526.064	569.88
526.28	572.88
526.495	551.88
526.71	562.88
526.925	582.88
527.14	552.88
527.355	538.88
527.57	561.88
527.785	553.88
527.999	558.88
528.214	558.88
528.429	555.88
528.644	553.88
528.859	566.88
529.074	575.88
529.289	566.88
529.503	617.88
529.718	596.88
529.933	609.88
530.148	575.88
530.363	566.88
530.577	587.88
530.792	564.88
531.007	535.88
531.221	537.88
531.436	538.88
531.651	551.88
531.865	550.88
532.08	529.88
532.295	556.88
532.509	549.88
532.724	559.88
532.938	560.88
533.153	549.88
533.367	540.88
533.582	524.88
533.796	537.88
534.011	540.88
534.225	523.88
534.44	527.88
534.654	529.88
534.868	546.88
535.083	546.88
535.297	558.88
535.511	545.88
535.726	533.88
535.94	526.88
536.154	542.88
536.369	542.88
536.583	535.88
536.797	487.88
537.011	515.88
537.225	516.88
537.44	503.88
537.654	532.88
537.868	500.88
538.082	528.88
538.296	534.88
538.51	492.88
538.724	531.88
538.938	520.88
539.153	529.88
539.367	522.88
539.581	538.88
539.795	533.88
540.009	522.88
540.222	522.88
540.436	532.88
540.65	518.88
540.864	539.88
541.078	499.88
541.292	533.88
541.506	537.88
541.72	536.88
541.934	519.88
542.147	521.88
542.361	506.88
542.575	512.88
542.789	512.88
543.002	522.88
543.216	532.88
543.43	510.88
543.644	512.88
543.857	505.88
544.071	508.88
544.285	522.88
544.498	531.88
544.712	516.88
544.925	528.88
545.139	535.88
545.352	528.88
545.566	523.88
545.779	501.88
545.993	497.88
546.206	520.88
546.42	526.88
546.633	502.88
546.847	501.88
547.06	528.88
547.274	529.88
547.487	510.88
547.7	508.88
547.914	505.88
548.127	503.88
548.34	496.88
548.554	492.88
548.767	496.88
548.98	538.88
549.193	523.88
549.407	498.88
549.62	512.88
549.833	494.88
550.046	495.88
550.259	509.88
550.473	519.88
550.686	503.88
550.899	485.88
551.112	490.88
551.325	480.88
551.538	507.88
551.751	501.88
551.964	505.88
552.177	495.88
552.39	470.88
552.603	516.88
552.816	495.88
553.029	512.88
553.242	519.88
553.455	543.88
553.667	518.88
553.88	510.88
554.093	516.88
554.306	521.88
554.519	513.88
554.732	509.88
554.944	509.88
555.157	478.88
555.37	477.88
555.583	496.88
555.795	496.88
556.008	454.88
556.221	458.88
556.433	459.88
556.646	472.88
556.859	463.88
557.071	471.88
557.284	465.88
557.496	451.88
557.709	443.88
557.921	474.88
558.134	437.88
558.346	444.88
558.559	448.88
558.771	454.88
558.984	456.88
559.196	444.88
559.409	462.88
559.621	462.88
559.833	455.88
560.046	446.88
560.258	442.88
560.47	451.88
560.683	426.88
560.895	451.88
561.107	448.88
561.32	452.88
561.532	459.88
561.744	444.88
561.956	446.88
562.168	455.88
562.381	459.88
562.593	470.88
562.805	463.88
563.017	472.88
563.229	449.88
563.441	449.88
563.653	452.88
563.865	468.88
564.077	471.88
564.289	460.88
564.501	471.88
564.713	469.88
564.925	474.88
565.137	479.88
565.349	484.88
565.561	479.88
565.773	512.88
565.985	506.88
566.197	521.88
566.408	554.88
566.62	557.88
566.832	586.88
567.044	602.88
567.255	594.88
567.467	602.88
567.679	639.88
567.891	639.88
568.102	622.88
568.314	609.88
568.526	595.88
568.737	562.88
568.949	526.88
569.161	501.88
569.372	484.88
569.584	486.88
569.795	474.88
570.007	467.88
570.218	474.88
570.43	493.88
570.641	439.88
570.853	447.88
571.064	449.88
571.276	437.88
571.487	426.88
571.698	448.88
571.91	433.88
572.121	432.88
572.333	413.88
572.544	409.88
572.755	398.88
572.966	409.88
573.178	394.88
573.389	403.88
573.6	425.88
573.811	400.88
574.023	385.88
574.234	367.88
574.445	380.88
574.656	386.88
574.867	381.88
575.078	373.88
575.289	404.88
575.501	380.88
575.712	372.88
575.923	394.88
576.134	370.88
576.345	360.88
576.556	366.88
576.767	359.88
576.978	378.88
577.188	386.88
577.399	334.88
577.61	358.88
577.821	366.88
578.032	380.88
578.243	393.88
578.454	536.88
578.665	422.88
578.875	353.88
579.086	352.88
579.297	355.88
579.508	345.88
579.718	364.88
579.929	356.88
580.14	343.88
580.35	347.88
580.561	345.88
580.772	335.88
580.982	329.88
581.193	340.88
581.403	340.88
581.614	357.88
581.825	343.88
582.035	333.88
582.246	330.88
582.456	337.88
582.667	345.88
582.877	342.88
583.087	340.88
583.298	357.88
583.508	351.88
583.719	317.88
583.929	351.88
584.139	348.88
584.35	342.88
584.56	348.88
584.77	331.88
584.981	341.88
585.191	330.88
585.401	341.88
585.611	350.88
585.821	321.88
586.032	319.88
586.242	316.88
586.452	339.88
586.662	327.88
586.872	334.88
587.082	338.88
587.292	334.88
587.502	324.88
587.713	328.88
587.923	330.88
588.133	329.88
588.343	334.88
588.553	334.88
588.762	349.88
588.972	332.88
589.182	330.88
589.392	316.88
589.602	329.88
589.812	317.88
590.022	325.88
590.232	339.88
590.441	319.88
590.651	325.88
590.861	329.88
591.071	332.88
591.281	337.88
591.49	355.88
591.7	334.88
591.91	352.88
592.119	343.88
592.329	345.88
592.539	360.88
592.748	358.88
592.958	352.88
593.167	372.88
593.377	368.88
593.587	382.88
593.796	364.88
594.006	350.88
594.215	368.88
594.424	378.88
594.634	372.88
594.843	361.88
595.053	362.88
595.262	352.88
595.472	330.88
595.681	315.88
595.89	341.88
596.1	336.88
596.309	313.88
596.518	318.88
596.727	318.88
596.937	308.88
597.146	319.88
597.355	300.88
597.564	306.88
597.774	319.88
597.983	288.88
598.192	302.88
598.401	308.88
598.61	313.88
598.819	280.88
599.028	296.88
599.237	290.88
599.446	293.88
599.655	292.88
599.864	289.88
600.073	305.88
600.282	291.88
600.491	288.88
600.7	318.88
600.909	298.88
601.118	284.88
601.327	284.88
601.536	269.88
601.745	281.88
601.953	292.88
602.162	288.88
602.371	290.88
602.58	273.88
602.789	274.88
602.997	296.88
603.206	302.88
603.415	280.88
603.623	283.88
603.832	292.88
604.041	286.88
604.249	278.88
604.458	280.88
604.666	272.88
604.875	281.88
605.084	290.88
605.292	279.88
605.501	272.88
605.709	285.88
605.918	255.88
606.126	267.88
606.334	279.88
606.543	285.88
606.751	282.88
606.96	287.88
607.168	272.88
607.376	281.88
607.585	266.88
607.793	270.88
608.001	281.88
608.21	275.88
608.418	275.88
608.626	293.88
608.834	277.88
609.043	280.88
609.251	260.88
609.459	255.88
609.667	273.88
609.875	272.88
610.083	275.88
610.291	264.88
610.499	265.88
610.707	260.88
610.916	272.88
611.124	293.88
611.332	288.88
611.54	289.88
611.748	271.88
611.955	274.88
612.163	270.88
612.371	262.88
612.579	278.88
612.787	284.88
612.995	278.88
613.203	276.88
613.411	256.88
613.618	257.88
613.826	266.88
614.034	264.88
614.242	272.88
614.449	266.88
614.657	266.88
614.865	252.88
615.072	273.88
615.28	260.88
615.488	253.88
615.695	260.88
615.903	245.88
616.111	270.88
616.318	261.88
616.526	262.88
616.733	270.88
616.941	248.88
617.148	243.88
617.356	273.88
617.563	260.88
617.771	256.88
617.978	264.88
618.185	252.88
618.393	264.88
618.6	271.88
618.807	252.88
619.015	270.88
619.222	268.88
619.429	244.88
619.637	292.88
619.844	271.88
620.051	245.88
620.258	262.88
620.466	256.88
620.673	263.88
620.88	236.88
621.087	246.88
621.294	249.88
621.501	247.88
621.708	241.88
621.915	241.88
622.122	259.88
622.329	257.88
622.536	252.88
622.743	260.88
622.95	245.88
623.157	242.88
623.364	254.88
623.571	258.88
623.778	254.88
623.985	264.88
624.192	232.88
624.399	238.88
624.606	239.88
624.812	238.88
625.019	246.88
625.226	233.88
625.433	231.88
625.639	224.88
625.846	231.88
626.053	242.88
626.259	217.88
626.466	231.88
626.673	218.88
626.879	233.88
627.086	213.88
627.293	234.88
627.499	238.88
627.706	226.88
627.912	215.88
628.119	238.88
628.325	231.88
628.532	231.88
628.738	233.88
628.945	225.88
629.151	225.88
629.357	239.88
629.564	213.88
629.77	231.88
629.976	217.88
630.183	218.88
630.389	213.88
630.595	201.88
630.802	195.88
631.008	221.88
631.214	214.88
631.42	213.88
631.627	216.88
631.833	200.88
632.039	211.88
632.245	200.88
632.451	204.88
632.657	201.88
632.863	211.88
633.069	202.88
633.275	222.88
633.481	207.88
633.688	194.88
633.893	221.88
634.099	202.88
634.305	205.88
634.511	208.88
634.717	207.88
634.923	196.88
635.129	221.88
635.335	186.88
635.541	198.88
635.747	209.88
635.952	190.88
636.158	209.88
636.364	207.88
636.57	208.88
636.775	208.88
636.981	208.88
637.187	196.88
637.392	187.88
637.598	205.88
637.804	207.88
638.009	206.88
638.215	208.88
638.421	197.88
638.626	182.88
638.832	188.88
639.037	188.88
639.243	174.88
639.448	180.88
639.654	180.88
639.859	201.88
640.065	187.88
640.27	177.88
640.475	193.88
640.681	185.88
640.886	205.88
641.091	183.88
641.297	197.88
641.502	183.88
641.707	180.88
641.913	186.88
642.118	169.88
642.323	185.88
642.528	193.88
642.733	188.88
642.939	181.88
643.144	177.88
643.349	174.88
643.554	175.88
643.759	181.88
643.964	190.88
644.169	180.88
644.374	176.88
644.579	186.88
644.784	190.88
644.989	180.88
645.194	183.88
645.399	181.88
645.604	169.88
645.809	178.88
646.014	169.88
646.219	196.88
646.423	179.88
646.628	175.88
646.833	176.88
647.038	188.88
647.243	165.88
647.447	182.88
647.652	194.88
647.857	194.88
648.062	181.88
648.266	189.88
648.471	185.88
648.676	169.88
648.88	177.88
649.085	188.88
649.289	185.88
649.494	182.88
649.698	196.88
649.903	215.88
650.107	176.88
650.312	184.88
650.516	195.88
650.721	162.88
650.925	168.88
651.13	164.88
651.334	180.88
651.539	168.88
651.743	172.88
651.947	170.88
652.152	135.88
652.356	161.88
652.56	151.88
652.764	161.88
652.969	169.88
653.173	162.88
653.377	134.88
653.581	147.88
653.785	145.88
653.99	140.88
654.194	163.88
654.398	136.88
654.602	151.88
654.806	125.88
655.01	135.88
655.214	144.88
655.418	133.88
655.622	131.88
655.826	138.88
656.03	136.88
656.234	131.88
656.438	136.88
656.642	145.88
656.846	130.88
657.049	134.88
657.253	121.88
657.457	128.88
657.661	117.88
657.865	117.88
658.068	118.88
658.272	112.88
658.476	121.88
658.68	117.88
658.883	111.88
659.087	84.88
659.291	103.88
659.494	98.88
659.698	92.88
659.901	101.88
660.105	87.88
660.309	101.88
660.512	105.88
660.716	92.88
660.919	97.88
661.123	97.88
661.326	78.88
661.53	87.88
661.733	84.88
661.936	81.88
662.14	97.88
662.343	86.88
662.546	103.88
662.75	92.88
662.953	101.88
663.156	80.88
663.36	85.88
663.563	76.88
663.766	84.88
663.969	80.88
664.173	78.88
664.376	76.88
664.579	88.88
664.782	73.88
664.985	66.88
665.188	82.88
665.391	82.88
665.594	94.88
665.797	72.88
666	70.88
666.203	74.88
666.406	78.88
666.609	66.88
666.812	66.88
667.015	70.88
667.218	68.88
667.421	81.88
667.624	74.88
667.827	68.88
668.03	87.88
668.232	101.88
668.435	86.88
668.638	89.88
668.841	71.88
669.043	76.88
669.246	98.88
669.449	78.88
669.651	78.88
669.854	85.88
670.057	78.88
670.259	85.88
670.462	79.88
670.665	65.88
670.867	91.88
671.07	64.88
671.272	81.88
671.475	78.88
671.677	90.88
671.88	80.88
672.082	84.88
672.284	85.88
672.487	88.88
672.689	80.88
672.892	79.88
