Data from 1974.PennyLincolnUp.Lamp.En5.5.200Scan.071719.P1.Changed Mount._HRD10591_15-53-17-857.txt Node
Date: Thu Jul 18 15:53:17 EDT 2019
User: cochatt
Spectrometer: HR+D1059
Trigger mode: 1
Integration Time (sec): 1.000000E-1
Scans to average: 1
Electric dark correction enabled: true
Nonlinearity correction enabled: false
Boxcar width: 0
XAxis mode: Wavelengths
Number of Pixels in Spectrum: 2048
>>>>>Begin Spectral Data<<<<<
223.165	-18.94
223.4	-18.94
223.635	-18.94
223.869	-11.94
224.104	-13.94
224.338	-25.94
224.573	-17.94
224.808	1.06
225.042	-5.94
225.277	-16.94
225.511	6.06
225.746	-0.94
225.98	24.06
226.215	16.06
226.449	8.06
226.683	16.06
226.918	30.06
227.152	11.06
227.387	28.06
227.621	47.06
227.856	56.06
228.09	52.06
228.324	51.06
228.559	52.06
228.793	62.06
229.027	106.06
229.262	113.06
229.496	95.06
229.73	127.06
229.964	164.06
230.199	144.06
230.433	116.06
230.667	109.06
230.901	122.06
231.136	122.06
231.37	115.06
231.604	121.06
231.838	112.06
232.072	116.06
232.306	132.06
232.541	123.06
232.775	129.06
233.009	126.06
233.243	123.06
233.477	112.06
233.711	124.06
233.945	113.06
234.179	128.06
234.413	121.06
234.647	116.06
234.881	126.06
235.115	123.06
235.349	131.06
235.583	122.06
235.817	128.06
236.051	139.06
236.285	127.06
236.519	116.06
236.753	132.06
236.987	157.06
237.221	204.06
237.455	238.06
237.689	202.06
237.922	134.06
238.156	162.06
238.39	143.06
238.624	141.06
238.858	138.06
239.091	135.06
239.325	132.06
239.559	126.06
239.793	139.06
240.027	147.06
240.26	150.06
240.494	154.06
240.728	152.06
240.961	167.06
241.195	157.06
241.429	155.06
241.662	141.06
241.896	144.06
242.13	147.06
242.363	144.06
242.597	155.06
242.83	148.06
243.064	154.06
243.298	156.06
243.531	165.06
243.765	143.06
243.998	136.06
244.232	129.06
244.465	143.06
244.699	165.06
244.932	162.06
245.166	165.06
245.399	156.06
245.633	157.06
245.866	163.06
246.099	159.06
246.333	143.06
246.566	150.06
246.8	146.06
247.033	178.06
247.266	165.06
247.5	182.06
247.733	179.06
247.966	191.06
248.2	204.06
248.433	190.06
248.666	194.06
248.899	211.06
249.133	211.06
249.366	228.06
249.599	225.06
249.832	196.06
250.066	187.06
250.299	188.06
250.532	220.06
250.765	230.06
250.998	223.06
251.231	250.06
251.465	223.06
251.698	223.06
251.931	208.06
252.164	219.06
252.397	207.06
252.63	211.06
252.863	226.06
253.096	242.06
253.329	237.06
253.562	237.06
253.795	239.06
254.028	212.06
254.261	236.06
254.494	234.06
254.727	268.06
254.96	277.06
255.193	276.06
255.426	258.06
255.659	247.06
255.892	245.06
256.124	254.06
256.357	262.06
256.59	228.06
256.823	225.06
257.056	228.06
257.289	242.06
257.521	237.06
257.754	221.06
257.987	218.06
258.22	221.06
258.452	221.06
258.685	211.06
258.918	229.06
259.151	238.06
259.383	225.06
259.616	242.06
259.849	245.06
260.081	250.06
260.314	263.06
260.547	265.06
260.779	275.06
261.012	257.06
261.244	247.06
261.477	252.06
261.71	227.06
261.942	263.06
262.175	255.06
262.407	262.06
262.64	234.06
262.872	234.06
263.105	236.06
263.337	238.06
263.57	245.06
263.802	224.06
264.035	237.06
264.267	239.06
264.499	239.06
264.732	232.06
264.964	229.06
265.197	247.06
265.429	224.06
265.661	227.06
265.894	253.06
266.126	238.06
266.358	218.06
266.591	239.06
266.823	251.06
267.055	254.06
267.287	245.06
267.52	246.06
267.752	258.06
267.984	239.06
268.216	254.06
268.448	250.06
268.681	247.06
268.913	261.06
269.145	277.06
269.377	304.06
269.609	294.06
269.841	285.06
270.073	294.06
270.306	319.06
270.538	358.06
270.77	329.06
271.002	319.06
271.234	320.06
271.466	320.06
271.698	325.06
271.93	345.06
272.162	340.06
272.394	344.06
272.626	320.06
272.858	308.06
273.09	295.06
273.322	298.06
273.553	293.06
273.785	280.06
274.017	295.06
274.249	293.06
274.481	280.06
274.713	270.06
274.945	305.06
275.176	292.06
275.408	278.06
275.64	288.06
275.872	278.06
276.104	278.06
276.335	294.06
276.567	292.06
276.799	309.06
277.031	338.06
277.262	338.06
277.494	361.06
277.726	339.06
277.957	320.06
278.189	314.06
278.421	273.06
278.652	286.06
278.884	298.06
279.115	287.06
279.347	271.06
279.579	295.06
279.81	307.06
280.042	283.06
280.273	294.06
280.505	282.06
280.736	288.06
280.968	298.06
281.199	285.06
281.431	304.06
281.662	306.06
281.894	310.06
282.125	318.06
282.356	307.06
282.588	334.06
282.819	320.06
283.051	300.06
283.282	307.06
283.513	294.06
283.745	312.06
283.976	316.06
284.207	316.06
284.439	313.06
284.67	313.06
284.901	330.06
285.132	320.06
285.364	311.06
285.595	282.06
285.826	306.06
286.057	320.06
286.288	315.06
286.52	326.06
286.751	301.06
286.982	306.06
287.213	302.06
287.444	337.06
287.675	307.06
287.906	344.06
288.138	317.06
288.369	337.06
288.6	322.06
288.831	328.06
289.062	343.06
289.293	319.06
289.524	342.06
289.755	325.06
289.986	303.06
290.217	298.06
290.448	340.06
290.679	306.06
290.91	349.06
291.141	332.06
291.371	343.06
291.602	330.06
291.833	324.06
292.064	341.06
292.295	327.06
292.526	315.06
292.757	338.06
292.987	333.06
293.218	330.06
293.449	321.06
293.68	324.06
293.91	328.06
294.141	333.06
294.372	325.06
294.603	319.06
294.833	351.06
295.064	324.06
295.295	333.06
295.525	337.06
295.756	338.06
295.987	347.06
296.217	346.06
296.448	348.06
296.679	356.06
296.909	340.06
297.14	331.06
297.37	330.06
297.601	333.06
297.831	346.06
298.062	338.06
298.292	343.06
298.523	350.06
298.753	346.06
298.984	338.06
299.214	341.06
299.445	345.06
299.675	350.06
299.905	345.06
300.136	348.06
300.366	362.06
300.597	358.06
300.827	344.06
301.057	358.06
301.288	345.06
301.518	364.06
301.748	353.06
301.979	348.06
302.209	369.06
302.439	370.06
302.669	375.06
302.9	361.06
303.13	363.06
303.36	377.06
303.59	376.06
303.82	373.06
304.051	378.06
304.281	379.06
304.511	362.06
304.741	347.06
304.971	367.06
305.201	360.06
305.431	351.06
305.661	362.06
305.891	365.06
306.121	379.06
306.352	367.06
306.582	380.06
306.812	358.06
307.042	355.06
307.272	382.06
307.502	380.06
307.731	368.06
307.961	370.06
308.191	365.06
308.421	369.06
308.651	366.06
308.881	372.06
309.111	382.06
309.341	376.06
309.571	377.06
309.8	391.06
310.03	378.06
310.26	411.06
310.49	422.06
310.72	394.06
310.949	418.06
311.179	425.06
311.409	394.06
311.639	402.06
311.868	411.06
312.098	427.06
312.328	403.06
312.557	402.06
312.787	432.06
313.017	448.06
313.246	440.06
313.476	431.06
313.706	402.06
313.935	412.06
314.165	440.06
314.394	453.06
314.624	429.06
314.853	416.06
315.083	410.06
315.312	395.06
315.542	415.06
315.771	417.06
316.001	424.06
316.23	404.06
316.46	427.06
316.689	422.06
316.919	407.06
317.148	415.06
317.377	430.06
317.607	415.06
317.836	414.06
318.065	416.06
318.295	398.06
318.524	413.06
318.753	429.06
318.983	430.06
319.212	410.06
319.441	407.06
319.67	431.06
319.9	410.06
320.129	392.06
320.358	415.06
320.587	416.06
320.816	423.06
321.046	435.06
321.275	422.06
321.504	429.06
321.733	423.06
321.962	438.06
322.191	461.06
322.42	464.06
322.649	447.06
322.878	476.06
323.108	486.06
323.337	495.06
323.566	477.06
323.795	528.06
324.024	562.06
324.253	634.06
324.482	827.06
324.71	1300.06
324.939	1961.06
325.168	1702.06
325.397	895.06
325.626	637.06
325.855	530.06
326.084	538.06
326.313	511.06
326.542	499.06
326.77	528.06
326.999	622.06
327.228	792.06
327.457	1226.06
327.686	1518.06
327.914	980.06
328.143	678.06
328.372	612.06
328.6	572.06
328.829	570.06
329.058	569.06
329.287	555.06
329.515	566.06
329.744	522.06
329.972	520.06
330.201	544.06
330.43	580.06
330.658	582.06
330.887	613.06
331.115	614.06
331.344	555.06
331.572	540.06
331.801	520.06
332.03	535.06
332.258	530.06
332.486	488.06
332.715	479.06
332.943	483.06
333.172	495.06
333.4	517.06
333.629	539.06
333.857	542.06
334.085	554.06
334.314	572.06
334.542	592.06
334.771	590.06
334.999	546.06
335.227	526.06
335.455	549.06
335.684	524.06
335.912	521.06
336.14	483.06
336.369	470.06
336.597	494.06
336.825	516.06
337.053	492.06
337.281	514.06
337.51	504.06
337.738	504.06
337.966	464.06
338.194	523.06
338.422	485.06
338.65	458.06
338.878	486.06
339.106	485.06
339.334	489.06
339.562	486.06
339.79	480.06
340.018	462.06
340.246	477.06
340.474	460.06
340.702	478.06
340.93	498.06
341.158	454.06
341.386	469.06
341.614	487.06
341.842	476.06
342.07	461.06
342.298	466.06
342.526	484.06
342.754	460.06
342.981	468.06
343.209	466.06
343.437	471.06
343.665	482.06
343.893	486.06
344.12	492.06
344.348	486.06
344.576	504.06
344.804	524.06
345.031	502.06
345.259	488.06
345.487	502.06
345.714	502.06
345.942	478.06
346.17	460.06
346.397	459.06
346.625	472.06
346.853	473.06
347.08	471.06
347.308	465.06
347.535	479.06
347.763	473.06
347.99	472.06
348.218	456.06
348.445	477.06
348.673	477.06
348.9	467.06
349.128	455.06
349.355	439.06
349.583	439.06
349.81	457.06
350.037	443.06
350.265	446.06
350.492	453.06
350.72	463.06
350.947	476.06
351.174	462.06
351.402	468.06
351.629	467.06
351.856	477.06
352.083	459.06
352.311	464.06
352.538	479.06
352.765	486.06
352.992	463.06
353.22	444.06
353.447	451.06
353.674	463.06
353.901	450.06
354.128	443.06
354.355	448.06
354.583	438.06
354.81	455.06
355.037	464.06
355.264	431.06
355.491	441.06
355.718	444.06
355.945	440.06
356.172	452.06
356.399	431.06
356.626	456.06
356.853	444.06
357.08	444.06
357.307	438.06
357.534	425.06
357.761	437.06
357.988	442.06
358.215	424.06
358.441	450.06
358.668	442.06
358.895	464.06
359.122	438.06
359.349	457.06
359.576	452.06
359.802	471.06
360.029	519.06
360.256	516.06
360.483	507.06
360.709	471.06
360.936	472.06
361.163	476.06
361.39	443.06
361.616	465.06
361.843	472.06
362.07	463.06
362.296	455.06
362.523	440.06
362.749	460.06
362.976	475.06
363.203	446.06
363.429	431.06
363.656	439.06
363.882	464.06
364.109	450.06
364.335	420.06
364.562	447.06
364.788	442.06
365.015	442.06
365.241	449.06
365.468	462.06
365.694	462.06
365.92	461.06
366.147	454.06
366.373	443.06
366.599	437.06
366.826	439.06
367.052	464.06
367.278	452.06
367.505	448.06
367.731	444.06
367.957	456.06
368.184	471.06
368.41	462.06
368.636	465.06
368.862	472.06
369.089	464.06
369.315	460.06
369.541	451.06
369.767	446.06
369.993	463.06
370.219	463.06
370.445	462.06
370.672	469.06
370.898	461.06
371.124	446.06
371.35	455.06
371.576	458.06
371.802	453.06
372.028	458.06
372.254	460.06
372.48	471.06
372.706	463.06
372.932	485.06
373.158	453.06
373.384	494.06
373.61	481.06
373.835	460.06
374.061	467.06
374.287	458.06
374.513	477.06
374.739	478.06
374.965	468.06
375.191	464.06
375.416	467.06
375.642	491.06
375.868	480.06
376.094	479.06
376.319	466.06
376.545	463.06
376.771	452.06
376.997	437.06
377.222	479.06
377.448	470.06
377.674	442.06
377.899	470.06
378.125	442.06
378.35	435.06
378.576	454.06
378.802	458.06
379.027	439.06
379.253	466.06
379.478	448.06
379.704	468.06
379.929	466.06
380.155	457.06
380.38	477.06
380.606	488.06
380.831	477.06
381.057	472.06
381.282	463.06
381.507	469.06
381.733	483.06
381.958	461.06
382.184	449.06
382.409	481.06
382.634	511.06
382.86	461.06
383.085	481.06
383.31	496.06
383.535	472.06
383.761	498.06
383.986	483.06
384.211	495.06
384.436	505.06
384.662	508.06
384.887	518.06
385.112	502.06
385.337	501.06
385.562	496.06
385.787	516.06
386.013	528.06
386.238	525.06
386.463	554.06
386.688	499.06
386.913	520.06
387.138	521.06
387.363	532.06
387.588	502.06
387.813	519.06
388.038	507.06
388.263	513.06
388.488	524.06
388.713	525.06
388.938	511.06
389.163	526.06
389.387	528.06
389.612	519.06
389.837	526.06
390.062	517.06
390.287	523.06
390.512	507.06
390.736	543.06
390.961	510.06
391.186	547.06
391.411	532.06
391.636	538.06
391.86	534.06
392.085	564.06
392.31	538.06
392.534	543.06
392.759	541.06
392.984	527.06
393.208	533.06
393.433	541.06
393.658	519.06
393.882	540.06
394.107	533.06
394.331	546.06
394.556	532.06
394.78	528.06
395.005	531.06
395.229	548.06
395.454	559.06
395.678	570.06
395.903	574.06
396.127	559.06
396.352	570.06
396.576	562.06
396.801	572.06
397.025	527.06
397.249	538.06
397.474	549.06
397.698	567.06
397.922	575.06
398.147	579.06
398.371	601.06
398.595	602.06
398.82	615.06
399.044	626.06
399.268	619.06
399.492	684.06
399.717	731.06
399.941	764.06
400.165	780.06
400.389	759.06
400.613	706.06
400.837	648.06
401.062	645.06
401.286	606.06
401.51	600.06
401.734	607.06
401.958	607.06
402.182	614.06
402.406	626.06
402.63	621.06
402.854	630.06
403.078	623.06
403.302	642.06
403.526	618.06
403.75	640.06
403.974	627.06
404.198	650.06
404.422	635.06
404.645	645.06
404.869	647.06
405.093	671.06
405.317	731.06
405.541	742.06
405.765	716.06
405.988	667.06
406.212	662.06
406.436	676.06
406.66	706.06
406.883	677.06
407.107	716.06
407.331	788.06
407.555	856.06
407.778	828.06
408.002	750.06
408.226	712.06
408.449	709.06
408.673	704.06
408.896	731.06
409.12	757.06
409.344	751.06
409.567	660.06
409.791	642.06
410.014	651.06
410.238	645.06
410.461	640.06
410.685	629.06
410.908	663.06
411.132	696.06
411.355	719.06
411.578	684.06
411.802	652.06
412.025	638.06
412.249	662.06
412.472	653.06
412.695	703.06
412.919	678.06
413.142	652.06
413.365	616.06
413.589	617.06
413.812	625.06
414.035	622.06
414.258	613.06
414.482	595.06
414.705	606.06
414.928	613.06
415.151	603.06
415.374	603.06
415.597	583.06
415.821	570.06
416.044	602.06
416.267	624.06
416.49	589.06
416.713	558.06
416.936	599.06
417.159	571.06
417.382	614.06
417.605	596.06
417.828	612.06
418.051	627.06
418.274	618.06
418.497	632.06
418.72	615.06
418.943	601.06
419.166	612.06
419.389	682.06
419.611	656.06
419.834	630.06
420.057	640.06
420.28	639.06
420.503	656.06
420.726	663.06
420.948	645.06
421.171	706.06
421.394	735.06
421.617	636.06
421.839	615.06
422.062	626.06
422.285	618.06
422.507	693.06
422.73	767.06
422.953	758.06
423.175	673.06
423.398	662.06
423.621	663.06
423.843	693.06
424.066	671.06
424.288	672.06
424.511	676.06
424.733	737.06
424.956	856.06
425.178	792.06
425.401	782.06
425.623	808.06
425.846	704.06
426.068	654.06
426.291	663.06
426.513	642.06
426.735	666.06
426.958	706.06
427.18	810.06
427.402	944.06
427.625	1040.06
427.847	858.06
428.069	768.06
428.292	678.06
428.514	644.06
428.736	625.06
428.958	631.06
429.181	604.06
429.403	640.06
429.625	612.06
429.847	664.06
430.069	723.06
430.292	707.06
430.514	630.06
430.736	643.06
430.958	597.06
431.18	575.06
431.402	608.06
431.624	573.06
431.846	608.06
432.068	570.06
432.29	575.06
432.512	555.06
432.734	587.06
432.956	588.06
433.178	592.06
433.4	603.06
433.622	603.06
433.844	580.06
434.066	584.06
434.287	576.06
434.509	592.06
434.731	606.06
434.953	627.06
435.175	609.06
435.397	660.06
435.618	666.06
435.84	700.06
436.062	801.06
436.284	855.06
436.505	710.06
436.727	652.06
436.949	650.06
437.17	606.06
437.392	612.06
437.614	615.06
437.835	655.06
438.057	743.06
438.278	893.06
438.5	856.06
438.721	942.06
438.943	910.06
439.165	714.06
439.386	664.06
439.608	664.06
439.829	669.06
440.05	693.06
440.272	741.06
440.493	700.06
440.715	660.06
440.936	634.06
441.158	607.06
441.379	608.06
441.6	642.06
441.822	639.06
442.043	680.06
442.264	774.06
442.486	864.06
442.707	731.06
442.928	694.06
443.149	687.06
443.371	724.06
443.592	766.06
443.813	843.06
444.034	923.06
444.255	781.06
444.476	692.06
444.698	684.06
444.919	666.06
445.14	749.06
445.361	726.06
445.582	701.06
445.803	745.06
446.024	867.06
446.245	897.06
446.466	813.06
446.687	713.06
446.908	662.06
447.129	613.06
447.35	620.06
447.571	608.06
447.792	597.06
448.013	613.06
448.234	619.06
448.455	642.06
448.675	814.06
448.896	910.06
449.117	783.06
449.338	716.06
449.559	845.06
449.779	944.06
450	797.06
450.221	657.06
450.442	604.06
450.662	575.06
450.883	580.06
451.104	603.06
451.324	595.06
451.545	574.06
451.766	564.06
451.986	542.06
452.207	554.06
452.428	545.06
452.648	511.06
452.869	536.06
453.089	557.06
453.31	542.06
453.53	539.06
453.751	535.06
453.971	524.06
454.192	542.06
454.412	532.06
454.633	546.06
454.853	512.06
455.073	528.06
455.294	579.06
455.514	625.06
455.734	610.06
455.955	525.06
456.175	534.06
456.395	503.06
456.616	501.06
456.836	513.06
457.056	515.06
457.276	494.06
457.497	498.06
457.717	507.06
457.937	522.06
458.157	546.06
458.377	542.06
458.598	554.06
458.818	605.06
459.038	671.06
459.258	716.06
459.478	639.06
459.698	566.06
459.918	596.06
460.138	580.06
460.358	599.06
460.578	602.06
460.798	616.06
461.018	604.06
461.238	603.06
461.458	603.06
461.678	611.06
461.898	608.06
462.118	619.06
462.338	621.06
462.558	654.06
462.777	645.06
462.997	659.06
463.217	694.06
463.437	683.06
463.657	652.06
463.876	622.06
464.096	671.06
464.316	659.06
464.536	659.06
464.755	659.06
464.975	660.06
465.195	660.06
465.414	717.06
465.634	657.06
465.854	608.06
466.073	617.06
466.293	584.06
466.512	540.06
466.732	585.06
466.951	564.06
467.171	530.06
467.391	574.06
467.61	548.06
467.829	566.06
468.049	578.06
468.268	556.06
468.488	541.06
468.707	528.06
468.927	542.06
469.146	546.06
469.365	566.06
469.585	553.06
469.804	554.06
470.023	568.06
470.243	572.06
470.462	560.06
470.681	585.06
470.901	579.06
471.12	561.06
471.339	553.06
471.558	562.06
471.777	584.06
471.997	557.06
472.216	574.06
472.435	584.06
472.654	556.06
472.873	576.06
473.092	551.06
473.311	567.06
473.53	571.06
473.749	568.06
473.968	624.06
474.187	705.06
474.406	733.06
474.625	610.06
474.844	566.06
475.063	554.06
475.282	591.06
475.501	554.06
475.72	590.06
475.939	576.06
476.158	578.06
476.377	588.06
476.596	591.06
476.814	589.06
477.033	587.06
477.252	572.06
477.471	624.06
477.69	626.06
477.908	604.06
478.127	629.06
478.346	610.06
478.564	631.06
478.783	650.06
479.002	648.06
479.22	647.06
479.439	687.06
479.658	686.06
479.876	691.06
480.095	708.06
480.313	746.06
480.532	711.06
480.751	684.06
480.969	696.06
481.188	750.06
481.406	752.06
481.624	714.06
481.843	666.06
482.061	661.06
482.28	692.06
482.498	677.06
482.717	660.06
482.935	664.06
483.153	642.06
483.372	649.06
483.59	672.06
483.808	658.06
484.027	685.06
484.245	679.06
484.463	666.06
484.681	683.06
484.9	663.06
485.118	671.06
485.336	662.06
485.554	693.06
485.772	702.06
485.99	665.06
486.209	671.06
486.427	711.06
486.645	695.06
486.863	689.06
487.081	718.06
487.299	720.06
487.517	687.06
487.735	691.06
487.953	732.06
488.171	718.06
488.389	715.06
488.607	698.06
488.825	705.06
489.043	736.06
489.261	771.06
489.479	744.06
489.696	718.06
489.914	724.06
490.132	723.06
490.35	748.06
490.568	748.06
490.786	756.06
491.003	765.06
491.221	778.06
491.439	774.06
491.657	804.06
491.874	826.06
492.092	823.06
492.31	800.06
492.527	844.06
492.745	830.06
492.963	834.06
493.18	837.06
493.398	836.06
493.615	886.06
493.833	852.06
494.05	848.06
494.268	845.06
494.485	847.06
494.703	826.06
494.92	844.06
495.138	856.06
495.355	843.06
495.573	852.06
495.79	838.06
496.008	863.06
496.225	840.06
496.442	854.06
496.66	838.06
496.877	855.06
497.094	836.06
497.312	885.06
497.529	883.06
497.746	915.06
497.963	910.06
498.181	918.06
498.398	920.06
498.615	976.06
498.832	983.06
499.049	1027.06
499.267	1030.06
499.484	1099.06
499.701	1158.06
499.918	1219.06
500.135	1286.06
500.352	1354.06
500.569	1345.06
500.786	1316.06
501.003	1294.06
501.22	1276.06
501.437	1204.06
501.654	1188.06
501.871	1141.06
502.088	1101.06
502.305	1018.06
502.522	988.06
502.739	956.06
502.956	917.06
503.172	914.06
503.389	904.06
503.606	887.06
503.823	882.06
504.04	874.06
504.256	894.06
504.473	868.06
504.69	843.06
504.907	855.06
505.123	847.06
505.34	823.06
505.557	815.06
505.773	809.06
505.99	809.06
506.207	820.06
506.423	804.06
506.64	810.06
506.856	772.06
507.073	766.06
507.289	763.06
507.506	782.06
507.722	799.06
507.939	779.06
508.155	742.06
508.372	757.06
508.588	734.06
508.805	745.06
509.021	731.06
509.238	780.06
509.454	772.06
509.67	760.06
509.887	742.06
510.103	749.06
510.319	729.06
510.536	823.06
510.752	1194.06
510.968	1002.06
511.184	754.06
511.401	710.06
511.617	719.06
511.833	720.06
512.049	715.06
512.265	706.06
512.481	720.06
512.698	707.06
512.914	690.06
513.13	686.06
513.346	693.06
513.562	707.06
513.778	694.06
513.994	713.06
514.21	702.06
514.426	703.06
514.642	746.06
514.858	790.06
515.074	822.06
515.29	907.06
515.506	1206.06
515.721	1033.06
515.937	794.06
516.153	750.06
516.369	741.06
516.585	757.06
516.801	710.06
517.016	714.06
517.232	739.06
517.448	748.06
517.664	772.06
517.879	779.06
518.095	759.06
518.311	738.06
518.527	745.06
518.742	721.06
518.958	727.06
519.173	708.06
519.389	712.06
519.605	686.06
519.82	709.06
520.036	712.06
520.251	728.06
520.467	738.06
520.682	728.06
520.898	724.06
521.113	729.06
521.329	760.06
521.544	811.06
521.76	971.06
521.975	1434.06
522.19	1414.06
522.406	879.06
522.621	747.06
522.836	691.06
523.052	673.06
523.267	667.06
523.482	643.06
523.698	628.06
523.913	637.06
524.128	634.06
524.343	626.06
524.559	602.06
524.774	611.06
524.989	612.06
525.204	613.06
525.419	611.06
525.634	607.06
525.849	588.06
526.064	615.06
526.28	608.06
526.495	559.06
526.71	601.06
526.925	574.06
527.14	579.06
527.355	572.06
527.57	574.06
527.785	585.06
527.999	581.06
528.214	578.06
528.429	575.06
528.644	567.06
528.859	574.06
529.074	580.06
529.289	597.06
529.503	644.06
529.718	646.06
529.933	619.06
530.148	593.06
530.363	578.06
530.577	586.06
530.792	561.06
531.007	549.06
531.221	577.06
531.436	565.06
531.651	584.06
531.865	580.06
532.08	561.06
532.295	564.06
532.509	560.06
532.724	569.06
532.938	570.06
533.153	547.06
533.367	564.06
533.582	543.06
533.796	549.06
534.011	552.06
534.225	551.06
534.44	574.06
534.654	549.06
534.868	527.06
535.083	573.06
535.297	553.06
535.511	536.06
535.726	576.06
535.94	578.06
536.154	534.06
536.369	535.06
536.583	524.06
536.797	522.06
537.011	558.06
537.225	545.06
537.44	540.06
537.654	545.06
537.868	516.06
538.082	526.06
538.296	529.06
538.51	550.06
538.724	539.06
538.938	534.06
539.153	551.06
539.367	538.06
539.581	576.06
539.795	528.06
540.009	533.06
540.222	540.06
540.436	537.06
540.65	546.06
540.864	548.06
541.078	554.06
541.292	554.06
541.506	552.06
541.72	537.06
541.934	536.06
542.147	544.06
542.361	554.06
542.575	517.06
542.789	524.06
543.002	537.06
543.216	533.06
543.43	535.06
543.644	549.06
543.857	516.06
544.071	536.06
544.285	534.06
544.498	538.06
544.712	541.06
544.925	543.06
545.139	540.06
545.352	538.06
545.566	502.06
545.779	525.06
545.993	528.06
546.206	526.06
546.42	526.06
546.633	523.06
546.847	524.06
547.06	531.06
547.274	519.06
547.487	542.06
547.7	522.06
547.914	519.06
548.127	514.06
548.34	502.06
548.554	522.06
548.767	510.06
548.98	510.06
549.193	536.06
549.407	537.06
549.62	538.06
549.833	530.06
550.046	512.06
550.259	512.06
550.473	514.06
550.686	519.06
550.899	522.06
551.112	510.06
551.325	515.06
551.538	515.06
551.751	493.06
551.964	522.06
552.177	525.06
552.39	506.06
552.603	527.06
552.816	540.06
553.029	530.06
553.242	549.06
553.455	546.06
553.667	540.06
553.88	557.06
554.093	541.06
554.306	551.06
554.519	538.06
554.732	514.06
554.944	525.06
555.157	492.06
555.37	515.06
555.583	518.06
555.795	496.06
556.008	484.06
556.221	471.06
556.433	461.06
556.646	473.06
556.859	479.06
557.071	474.06
557.284	478.06
557.496	468.06
557.709	488.06
557.921	476.06
558.134	456.06
558.346	464.06
558.559	462.06
558.771	449.06
558.984	460.06
559.196	458.06
559.409	437.06
559.621	440.06
559.833	466.06
560.046	451.06
560.258	455.06
560.47	472.06
560.683	464.06
560.895	453.06
561.107	454.06
561.32	461.06
561.532	445.06
561.744	482.06
561.956	467.06
562.168	451.06
562.381	461.06
562.593	479.06
562.805	460.06
563.017	456.06
563.229	472.06
563.441	460.06
563.653	459.06
563.865	453.06
564.077	465.06
564.289	462.06
564.501	455.06
564.713	491.06
564.925	506.06
565.137	511.06
565.349	498.06
565.561	522.06
565.773	528.06
565.985	537.06
566.197	544.06
566.408	557.06
566.62	572.06
566.832	609.06
567.044	632.06
567.255	580.06
567.467	619.06
567.679	634.06
567.891	649.06
568.102	640.06
568.314	619.06
568.526	604.06
568.737	579.06
568.949	532.06
569.161	540.06
569.372	495.06
569.584	498.06
569.795	516.06
570.007	486.06
570.218	502.06
570.43	477.06
570.641	462.06
570.853	456.06
571.064	465.06
571.276	472.06
571.487	461.06
571.698	438.06
571.91	450.06
572.121	442.06
572.333	438.06
572.544	407.06
572.755	418.06
572.966	406.06
573.178	406.06
573.389	419.06
573.6	393.06
573.811	396.06
574.023	404.06
574.234	383.06
574.445	384.06
574.656	390.06
574.867	396.06
575.078	389.06
575.289	386.06
575.501	400.06
575.712	384.06
575.923	388.06
576.134	400.06
576.345	379.06
576.556	392.06
576.767	391.06
576.978	398.06
577.188	376.06
577.399	390.06
577.61	382.06
577.821	394.06
578.032	375.06
578.243	397.06
578.454	543.06
578.665	444.06
578.875	366.06
579.086	367.06
579.297	370.06
579.508	367.06
579.718	361.06
579.929	374.06
580.14	366.06
580.35	345.06
580.561	371.06
580.772	354.06
580.982	338.06
581.193	339.06
581.403	381.06
581.614	354.06
581.825	357.06
582.035	329.06
582.246	347.06
582.456	362.06
582.667	370.06
582.877	359.06
583.087	350.06
583.298	352.06
583.508	354.06
583.719	334.06
583.929	359.06
584.139	328.06
584.35	342.06
584.56	349.06
584.77	342.06
584.981	340.06
585.191	345.06
585.401	328.06
585.611	363.06
585.821	343.06
586.032	354.06
586.242	342.06
586.452	340.06
586.662	354.06
586.872	353.06
587.082	357.06
587.292	343.06
587.502	341.06
587.713	334.06
587.923	335.06
588.133	333.06
588.343	352.06
588.553	342.06
588.762	332.06
588.972	346.06
589.182	333.06
589.392	346.06
589.602	340.06
589.812	323.06
590.022	347.06
590.232	342.06
590.441	325.06
590.651	357.06
590.861	343.06
591.071	330.06
591.281	351.06
591.49	321.06
591.7	344.06
591.91	361.06
592.119	342.06
592.329	354.06
592.539	366.06
592.748	362.06
592.958	380.06
593.167	366.06
593.377	378.06
593.587	396.06
593.796	382.06
594.006	371.06
594.215	371.06
594.424	383.06
594.634	380.06
594.843	377.06
595.053	367.06
595.262	356.06
595.472	354.06
595.681	349.06
595.89	359.06
596.1	335.06
596.309	340.06
596.518	331.06
596.727	336.06
596.937	321.06
597.146	339.06
597.355	335.06
597.564	308.06
597.774	315.06
597.983	309.06
598.192	309.06
598.401	314.06
598.61	304.06
598.819	286.06
599.028	306.06
599.237	312.06
599.446	307.06
599.655	304.06
599.864	297.06
600.073	306.06
600.282	292.06
600.491	291.06
600.7	311.06
600.909	314.06
601.118	307.06
601.327	293.06
601.536	287.06
601.745	292.06
601.953	291.06
602.162	297.06
602.371	283.06
602.58	284.06
602.789	282.06
602.997	308.06
603.206	304.06
603.415	282.06
603.623	300.06
603.832	289.06
604.041	297.06
604.249	280.06
604.458	290.06
604.666	286.06
604.875	277.06
605.084	269.06
605.292	292.06
605.501	298.06
605.709	284.06
605.918	279.06
606.126	298.06
606.334	273.06
606.543	290.06
606.751	290.06
606.96	309.06
607.168	292.06
607.376	306.06
607.585	286.06
607.793	273.06
608.001	277.06
608.21	285.06
608.418	284.06
608.626	281.06
608.834	289.06
609.043	296.06
609.251	266.06
609.459	279.06
609.667	286.06
609.875	281.06
610.083	290.06
610.291	276.06
610.499	268.06
610.707	305.06
610.916	284.06
611.124	285.06
611.332	301.06
611.54	305.06
611.748	292.06
611.955	277.06
612.163	294.06
612.371	282.06
612.579	274.06
612.787	284.06
612.995	281.06
613.203	272.06
613.411	274.06
613.618	291.06
613.826	277.06
614.034	257.06
614.242	275.06
614.449	278.06
614.657	269.06
614.865	295.06
615.072	273.06
615.28	292.06
615.488	280.06
615.695	267.06
615.903	264.06
616.111	289.06
616.318	290.06
616.526	287.06
616.733	270.06
616.941	294.06
617.148	277.06
617.356	283.06
617.563	270.06
617.771	273.06
617.978	260.06
618.185	262.06
618.393	273.06
618.6	276.06
618.807	291.06
619.015	280.06
619.222	270.06
619.429	264.06
619.637	278.06
619.844	272.06
620.051	273.06
620.258	246.06
620.466	243.06
620.673	260.06
620.88	243.06
621.087	255.06
621.294	248.06
621.501	266.06
621.708	259.06
621.915	261.06
622.122	262.06
622.329	271.06
622.536	255.06
622.743	235.06
622.95	268.06
623.157	258.06
623.364	255.06
623.571	253.06
623.778	242.06
623.985	277.06
624.192	253.06
624.399	240.06
624.606	246.06
624.812	242.06
625.019	240.06
625.226	256.06
625.433	248.06
625.639	237.06
625.846	246.06
626.053	242.06
626.259	239.06
626.466	226.06
626.673	242.06
626.879	246.06
627.086	243.06
627.293	230.06
627.499	228.06
627.706	239.06
627.912	239.06
628.119	239.06
628.325	239.06
628.532	241.06
628.738	239.06
628.945	222.06
629.151	237.06
629.357	231.06
629.564	234.06
629.77	240.06
629.976	224.06
630.183	218.06
630.389	215.06
630.595	236.06
630.802	233.06
631.008	220.06
631.214	221.06
631.42	210.06
631.627	226.06
631.833	213.06
632.039	216.06
632.245	206.06
632.451	210.06
632.657	223.06
632.863	213.06
633.069	195.06
633.275	209.06
633.481	224.06
633.688	220.06
633.893	207.06
634.099	210.06
634.305	211.06
634.511	189.06
634.717	221.06
634.923	201.06
635.129	205.06
635.335	223.06
635.541	219.06
635.747	201.06
635.952	211.06
636.158	204.06
636.364	227.06
636.57	198.06
636.775	217.06
636.981	207.06
637.187	198.06
637.392	198.06
637.598	208.06
637.804	209.06
638.009	206.06
638.215	206.06
638.421	200.06
638.626	207.06
638.832	189.06
639.037	200.06
639.243	198.06
639.448	191.06
639.654	203.06
639.859	211.06
640.065	203.06
640.27	206.06
640.475	208.06
640.681	185.06
640.886	188.06
641.091	207.06
641.297	198.06
641.502	204.06
641.707	190.06
641.913	199.06
642.118	202.06
642.323	204.06
642.528	190.06
642.733	181.06
642.939	215.06
643.144	197.06
643.349	180.06
643.554	178.06
643.759	180.06
643.964	154.06
644.169	188.06
644.374	182.06
644.579	182.06
644.784	192.06
644.989	188.06
645.194	187.06
645.399	190.06
645.604	193.06
645.809	193.06
646.014	190.06
646.219	178.06
646.423	184.06
646.628	191.06
646.833	184.06
647.038	188.06
647.243	198.06
647.447	187.06
647.652	192.06
647.857	192.06
648.062	203.06
648.266	191.06
648.471	192.06
648.676	174.06
648.88	197.06
649.085	213.06
649.289	192.06
649.494	215.06
649.698	216.06
649.903	192.06
650.107	197.06
650.312	209.06
650.516	186.06
650.721	190.06
650.925	167.06
651.13	172.06
651.334	168.06
651.539	167.06
651.743	159.06
651.947	173.06
652.152	167.06
652.356	158.06
652.56	154.06
652.764	142.06
652.969	162.06
653.173	151.06
653.377	162.06
653.581	162.06
653.785	149.06
653.99	158.06
654.194	149.06
654.398	159.06
654.602	164.06
654.806	131.06
655.01	148.06
655.214	150.06
655.418	144.06
655.622	138.06
655.826	144.06
656.03	141.06
656.234	171.06
656.438	152.06
656.642	135.06
656.846	138.06
657.049	148.06
657.253	126.06
657.457	123.06
657.661	141.06
657.865	125.06
658.068	108.06
658.272	133.06
658.476	104.06
658.68	122.06
658.883	122.06
659.087	103.06
659.291	98.06
659.494	110.06
659.698	101.06
659.901	89.06
660.105	107.06
660.309	83.06
660.512	100.06
660.716	110.06
660.919	93.06
661.123	103.06
661.326	104.06
661.53	103.06
661.733	89.06
661.936	98.06
662.14	90.06
662.343	87.06
662.546	86.06
662.75	91.06
662.953	81.06
663.156	101.06
663.36	73.06
663.563	78.06
663.766	83.06
663.969	80.06
664.173	88.06
664.376	80.06
664.579	67.06
664.782	85.06
664.985	64.06
665.188	83.06
665.391	86.06
665.594	93.06
665.797	89.06
666	90.06
666.203	89.06
666.406	93.06
666.609	80.06
666.812	78.06
667.015	87.06
667.218	98.06
667.421	86.06
667.624	77.06
667.827	91.06
668.03	97.06
668.232	91.06
668.435	86.06
668.638	81.06
668.841	89.06
669.043	73.06
669.246	92.06
669.449	82.06
669.651	86.06
669.854	86.06
670.057	84.06
670.259	88.06
670.462	81.06
670.665	85.06
670.867	74.06
671.07	78.06
671.272	77.06
671.475	83.06
671.677	90.06
671.88	78.06
672.082	102.06
672.284	92.06
672.487	86.06
672.689	73.06
672.892	85.06
