Data from 1974.PennyLincolnUp.Lamp.En5.5.200Scan.071719.P1.Changed Mount._HRD10591_15-51-18-856.txt Node
Date: Thu Jul 18 15:51:18 EDT 2019
User: cochatt
Spectrometer: HR+D1059
Trigger mode: 1
Integration Time (sec): 1.000000E-1
Scans to average: 1
Electric dark correction enabled: true
Nonlinearity correction enabled: false
Boxcar width: 0
XAxis mode: Wavelengths
Number of Pixels in Spectrum: 2048
>>>>>Begin Spectral Data<<<<<
223.165	-8.31
223.4	-8.31
223.635	-8.31
223.869	-17.31
224.104	-20.31
224.338	-25.31
224.573	-5.31
224.808	4.69
225.042	-12.31
225.277	-12.31
225.511	-5.31
225.746	16.69
225.98	15.69
226.215	8.69
226.449	6.69
226.683	10.69
226.918	26.69
227.152	16.69
227.387	19.69
227.621	29.69
227.856	41.69
228.09	37.69
228.324	36.69
228.559	43.69
228.793	57.69
229.027	107.69
229.262	119.69
229.496	101.69
229.73	113.69
229.964	119.69
230.199	125.69
230.433	100.69
230.667	101.69
230.901	100.69
231.136	100.69
231.37	128.69
231.604	100.69
231.838	105.69
232.072	112.69
232.306	107.69
232.541	121.69
232.775	118.69
233.009	113.69
233.243	119.69
233.477	111.69
233.711	102.69
233.945	110.69
234.179	113.69
234.413	127.69
234.647	103.69
234.881	125.69
235.115	105.69
235.349	120.69
235.583	103.69
235.817	123.69
236.051	130.69
236.285	113.69
236.519	134.69
236.753	103.69
236.987	115.69
237.221	163.69
237.455	194.69
237.689	165.69
237.922	131.69
238.156	127.69
238.39	110.69
238.624	129.69
238.858	126.69
239.091	117.69
239.325	119.69
239.559	121.69
239.793	136.69
240.027	121.69
240.26	126.69
240.494	139.69
240.728	153.69
240.961	148.69
241.195	146.69
241.429	126.69
241.662	134.69
241.896	122.69
242.13	125.69
242.363	120.69
242.597	131.69
242.83	132.69
243.064	143.69
243.298	133.69
243.531	127.69
243.765	132.69
243.998	148.69
244.232	135.69
244.465	127.69
244.699	145.69
244.932	162.69
245.166	142.69
245.399	149.69
245.633	133.69
245.866	137.69
246.099	139.69
246.333	148.69
246.566	145.69
246.8	159.69
247.033	170.69
247.266	153.69
247.5	154.69
247.733	161.69
247.966	168.69
248.2	165.69
248.433	150.69
248.666	166.69
248.899	153.69
249.133	179.69
249.366	191.69
249.599	168.69
249.832	169.69
250.066	178.69
250.299	168.69
250.532	180.69
250.765	189.69
250.998	208.69
251.231	196.69
251.465	205.69
251.698	203.69
251.931	215.69
252.164	177.69
252.397	188.69
252.63	202.69
252.863	189.69
253.096	195.69
253.329	211.69
253.562	209.69
253.795	199.69
254.028	211.69
254.261	201.69
254.494	197.69
254.727	230.69
254.96	247.69
255.193	244.69
255.426	228.69
255.659	211.69
255.892	234.69
256.124	210.69
256.357	211.69
256.59	221.69
256.823	206.69
257.056	222.69
257.289	210.69
257.521	205.69
257.754	201.69
257.987	195.69
258.22	199.69
258.452	204.69
258.685	198.69
258.918	183.69
259.151	200.69
259.383	195.69
259.616	209.69
259.849	213.69
260.081	222.69
260.314	232.69
260.547	214.69
260.779	228.69
261.012	229.69
261.244	217.69
261.477	207.69
261.71	216.69
261.942	214.69
262.175	209.69
262.407	213.69
262.64	206.69
262.872	194.69
263.105	210.69
263.337	208.69
263.57	214.69
263.802	205.69
264.035	212.69
264.267	199.69
264.499	191.69
264.732	205.69
264.964	203.69
265.197	207.69
265.429	200.69
265.661	215.69
265.894	211.69
266.126	199.69
266.358	211.69
266.591	202.69
266.823	211.69
267.055	215.69
267.287	233.69
267.52	221.69
267.752	226.69
267.984	229.69
268.216	216.69
268.448	218.69
268.681	233.69
268.913	254.69
269.145	261.69
269.377	262.69
269.609	263.69
269.841	268.69
270.073	265.69
270.306	265.69
270.538	266.69
270.77	301.69
271.002	262.69
271.234	276.69
271.466	259.69
271.698	289.69
271.93	289.69
272.162	291.69
272.394	289.69
272.626	279.69
272.858	274.69
273.09	265.69
273.322	257.69
273.553	227.69
273.785	260.69
274.017	256.69
274.249	252.69
274.481	245.69
274.713	244.69
274.945	263.69
275.176	237.69
275.408	261.69
275.64	239.69
275.872	261.69
276.104	247.69
276.335	245.69
276.567	253.69
276.799	261.69
277.031	275.69
277.262	288.69
277.494	295.69
277.726	294.69
277.957	263.69
278.189	257.69
278.421	259.69
278.652	271.69
278.884	260.69
279.115	252.69
279.347	271.69
279.579	250.69
279.81	260.69
280.042	235.69
280.273	253.69
280.505	264.69
280.736	260.69
280.968	261.69
281.199	241.69
281.431	261.69
281.662	258.69
281.894	261.69
282.125	272.69
282.356	279.69
282.588	287.69
282.819	282.69
283.051	269.69
283.282	271.69
283.513	259.69
283.745	266.69
283.976	283.69
284.207	285.69
284.439	265.69
284.67	258.69
284.901	267.69
285.132	276.69
285.364	270.69
285.595	268.69
285.826	265.69
286.057	279.69
286.288	267.69
286.52	264.69
286.751	289.69
286.982	298.69
287.213	289.69
287.444	275.69
287.675	271.69
287.906	286.69
288.138	302.69
288.369	296.69
288.6	283.69
288.831	266.69
289.062	306.69
289.293	309.69
289.524	275.69
289.755	282.69
289.986	291.69
290.217	284.69
290.448	288.69
290.679	297.69
290.91	276.69
291.141	288.69
291.371	249.69
291.602	282.69
291.833	278.69
292.064	290.69
292.295	282.69
292.526	286.69
292.757	277.69
292.987	292.69
293.218	277.69
293.449	292.69
293.68	292.69
293.91	304.69
294.141	289.69
294.372	286.69
294.603	280.69
294.833	290.69
295.064	283.69
295.295	296.69
295.525	294.69
295.756	312.69
295.987	317.69
296.217	313.69
296.448	308.69
296.679	290.69
296.909	289.69
297.14	301.69
297.37	290.69
297.601	300.69
297.831	313.69
298.062	305.69
298.292	295.69
298.523	314.69
298.753	301.69
298.984	305.69
299.214	313.69
299.445	305.69
299.675	285.69
299.905	307.69
300.136	308.69
300.366	303.69
300.597	298.69
300.827	303.69
301.057	322.69
301.288	305.69
301.518	305.69
301.748	322.69
301.979	316.69
302.209	322.69
302.439	346.69
302.669	307.69
302.9	346.69
303.13	331.69
303.36	311.69
303.59	338.69
303.82	305.69
304.051	338.69
304.281	323.69
304.511	302.69
304.741	308.69
304.971	330.69
305.201	323.69
305.431	307.69
305.661	321.69
305.891	311.69
306.121	322.69
306.352	319.69
306.582	317.69
306.812	333.69
307.042	328.69
307.272	332.69
307.502	332.69
307.731	317.69
307.961	327.69
308.191	319.69
308.421	318.69
308.651	342.69
308.881	337.69
309.111	333.69
309.341	335.69
309.571	331.69
309.8	332.69
310.03	327.69
310.26	331.69
310.49	314.69
310.72	344.69
310.949	359.69
311.179	361.69
311.409	354.69
311.639	338.69
311.868	349.69
312.098	353.69
312.328	359.69
312.557	363.69
312.787	376.69
313.017	369.69
313.246	352.69
313.476	362.69
313.706	375.69
313.935	344.69
314.165	364.69
314.394	373.69
314.624	359.69
314.853	387.69
315.083	375.69
315.312	389.69
315.542	363.69
315.771	350.69
316.001	351.69
316.23	329.69
316.46	354.69
316.689	358.69
316.919	361.69
317.148	375.69
317.377	371.69
317.607	377.69
317.836	377.69
318.065	357.69
318.295	361.69
318.524	370.69
318.753	374.69
318.983	340.69
319.212	365.69
319.441	358.69
319.67	366.69
319.9	342.69
320.129	337.69
320.358	368.69
320.587	337.69
320.816	377.69
321.046	373.69
321.275	355.69
321.504	356.69
321.733	369.69
321.962	379.69
322.191	374.69
322.42	381.69
322.649	389.69
322.878	393.69
323.108	399.69
323.337	410.69
323.566	419.69
323.795	429.69
324.024	449.69
324.253	521.69
324.482	654.69
324.71	1018.69
324.939	1470.69
325.168	1284.69
325.397	689.69
325.626	483.69
325.855	447.69
326.084	432.69
326.313	409.69
326.542	437.69
326.77	451.69
326.999	500.69
327.228	637.69
327.457	911.69
327.686	1125.69
327.914	750.69
328.143	543.69
328.372	478.69
328.6	473.69
328.829	467.69
329.058	454.69
329.287	464.69
329.515	448.69
329.744	430.69
329.972	437.69
330.201	441.69
330.43	460.69
330.658	481.69
330.887	475.69
331.115	486.69
331.344	468.69
331.572	452.69
331.801	448.69
332.03	439.69
332.258	435.69
332.486	415.69
332.715	420.69
332.943	400.69
333.172	444.69
333.4	445.69
333.629	454.69
333.857	465.69
334.085	471.69
334.314	484.69
334.542	474.69
334.771	489.69
334.999	451.69
335.227	450.69
335.455	447.69
335.684	431.69
335.912	439.69
336.14	437.69
336.369	427.69
336.597	449.69
336.825	434.69
337.053	444.69
337.281	424.69
337.51	437.69
337.738	417.69
337.966	420.69
338.194	432.69
338.422	425.69
338.65	423.69
338.878	437.69
339.106	430.69
339.334	446.69
339.562	416.69
339.79	401.69
340.018	383.69
340.246	419.69
340.474	431.69
340.702	423.69
340.93	413.69
341.158	424.69
341.386	424.69
341.614	424.69
341.842	410.69
342.07	418.69
342.298	401.69
342.526	414.69
342.754	405.69
342.981	399.69
343.209	413.69
343.437	419.69
343.665	424.69
343.893	417.69
344.12	448.69
344.348	448.69
344.576	427.69
344.804	433.69
345.031	420.69
345.259	424.69
345.487	426.69
345.714	424.69
345.942	395.69
346.17	412.69
346.397	389.69
346.625	397.69
346.853	393.69
347.08	397.69
347.308	411.69
347.535	397.69
347.763	401.69
347.99	406.69
348.218	399.69
348.445	386.69
348.673	414.69
348.9	408.69
349.128	391.69
349.355	394.69
349.583	383.69
349.81	397.69
350.037	403.69
350.265	403.69
350.492	386.69
350.72	391.69
350.947	405.69
351.174	394.69
351.402	398.69
351.629	389.69
351.856	402.69
352.083	409.69
352.311	392.69
352.538	401.69
352.765	427.69
352.992	388.69
353.22	397.69
353.447	394.69
353.674	405.69
353.901	381.69
354.128	390.69
354.355	381.69
354.583	391.69
354.81	384.69
355.037	391.69
355.264	376.69
355.491	386.69
355.718	379.69
355.945	374.69
356.172	374.69
356.399	399.69
356.626	385.69
356.853	381.69
357.08	381.69
357.307	386.69
357.534	383.69
357.761	392.69
357.988	385.69
358.215	402.69
358.441	390.69
358.668	384.69
358.895	401.69
359.122	421.69
359.349	400.69
359.576	395.69
359.802	407.69
360.029	439.69
360.256	430.69
360.483	397.69
360.709	389.69
360.936	403.69
361.163	389.69
361.39	405.69
361.616	413.69
361.843	381.69
362.07	403.69
362.296	415.69
362.523	409.69
362.749	403.69
362.976	394.69
363.203	409.69
363.429	403.69
363.656	413.69
363.882	409.69
364.109	382.69
364.335	387.69
364.562	400.69
364.788	403.69
365.015	394.69
365.241	401.69
365.468	416.69
365.694	385.69
365.92	390.69
366.147	381.69
366.373	390.69
366.599	390.69
366.826	407.69
367.052	404.69
367.278	402.69
367.505	408.69
367.731	409.69
367.957	386.69
368.184	386.69
368.41	406.69
368.636	399.69
368.862	400.69
369.089	406.69
369.315	399.69
369.541	394.69
369.767	396.69
369.993	415.69
370.219	379.69
370.445	409.69
370.672	391.69
370.898	379.69
371.124	430.69
371.35	402.69
371.576	414.69
371.802	402.69
372.028	403.69
372.254	408.69
372.48	414.69
372.706	398.69
372.932	408.69
373.158	416.69
373.384	394.69
373.61	415.69
373.835	408.69
374.061	413.69
374.287	415.69
374.513	418.69
374.739	439.69
374.965	435.69
375.191	426.69
375.416	415.69
375.642	412.69
375.868	418.69
376.094	407.69
376.319	411.69
376.545	419.69
376.771	418.69
376.997	399.69
377.222	410.69
377.448	398.69
377.674	419.69
377.899	418.69
378.125	406.69
378.35	405.69
378.576	424.69
378.802	388.69
379.027	409.69
379.253	413.69
379.478	399.69
379.704	415.69
379.929	426.69
380.155	424.69
380.38	395.69
380.606	437.69
380.831	411.69
381.057	413.69
381.282	427.69
381.507	416.69
381.733	418.69
381.958	411.69
382.184	433.69
382.409	412.69
382.634	436.69
382.86	417.69
383.085	437.69
383.31	443.69
383.535	436.69
383.761	433.69
383.986	452.69
384.211	433.69
384.436	456.69
384.662	482.69
384.887	446.69
385.112	443.69
385.337	433.69
385.562	447.69
385.787	463.69
386.013	466.69
386.238	468.69
386.463	454.69
386.688	473.69
386.913	481.69
387.138	464.69
387.363	485.69
387.588	471.69
387.813	469.69
388.038	517.69
388.263	469.69
388.488	477.69
388.713	454.69
388.938	449.69
389.163	462.69
389.387	458.69
389.612	459.69
389.837	469.69
390.062	478.69
390.287	470.69
390.512	448.69
390.736	460.69
390.961	472.69
391.186	452.69
391.411	469.69
391.636	477.69
391.86	485.69
392.085	496.69
392.31	470.69
392.534	470.69
392.759	480.69
392.984	439.69
393.208	465.69
393.433	477.69
393.658	462.69
393.882	491.69
394.107	473.69
394.331	495.69
394.556	464.69
394.78	479.69
395.005	498.69
395.229	493.69
395.454	471.69
395.678	493.69
395.903	487.69
396.127	494.69
396.352	518.69
396.576	492.69
396.801	496.69
397.025	480.69
397.249	481.69
397.474	503.69
397.698	520.69
397.922	513.69
398.147	519.69
398.371	537.69
398.595	531.69
398.82	541.69
399.044	563.69
399.268	562.69
399.492	581.69
399.717	652.69
399.941	680.69
400.165	662.69
400.389	670.69
400.613	604.69
400.837	552.69
401.062	570.69
401.286	554.69
401.51	558.69
401.734	535.69
401.958	557.69
402.182	544.69
402.406	546.69
402.63	544.69
402.854	528.69
403.078	553.69
403.302	546.69
403.526	559.69
403.75	563.69
403.974	563.69
404.198	562.69
404.422	570.69
404.645	564.69
404.869	580.69
405.093	621.69
405.317	626.69
405.541	657.69
405.765	590.69
405.988	570.69
406.212	589.69
406.436	569.69
406.66	634.69
406.883	597.69
407.107	638.69
407.331	659.69
407.555	750.69
407.778	731.69
408.002	677.69
408.226	639.69
408.449	630.69
408.673	613.69
408.896	605.69
409.12	679.69
409.344	657.69
409.567	589.69
409.791	593.69
410.014	574.69
410.238	577.69
410.461	574.69
410.685	559.69
410.908	578.69
411.132	621.69
411.355	638.69
411.578	588.69
411.802	578.69
412.025	551.69
412.249	568.69
412.472	575.69
412.695	599.69
412.919	603.69
413.142	572.69
413.365	550.69
413.589	542.69
413.812	542.69
414.035	523.69
414.258	526.69
414.482	524.69
414.705	533.69
414.928	555.69
415.151	520.69
415.374	527.69
415.597	532.69
415.821	529.69
416.044	546.69
416.267	537.69
416.49	522.69
416.713	547.69
416.936	541.69
417.159	543.69
417.382	518.69
417.605	514.69
417.828	528.69
418.051	565.69
418.274	548.69
418.497	541.69
418.72	533.69
418.943	543.69
419.166	543.69
419.389	590.69
419.611	584.69
419.834	568.69
420.057	563.69
420.28	574.69
420.503	541.69
420.726	535.69
420.948	551.69
421.171	594.69
421.394	622.69
421.617	559.69
421.839	554.69
422.062	546.69
422.285	564.69
422.507	621.69
422.73	680.69
422.953	680.69
423.175	607.69
423.398	561.69
423.621	563.69
423.843	609.69
424.066	599.69
424.288	594.69
424.511	603.69
424.733	643.69
424.956	721.69
425.178	685.69
425.401	702.69
425.623	712.69
425.846	608.69
426.068	595.69
426.291	547.69
426.513	593.69
426.735	561.69
426.958	611.69
427.18	682.69
427.402	811.69
427.625	885.69
427.847	738.69
428.069	635.69
428.292	612.69
428.514	569.69
428.736	553.69
428.958	532.69
429.181	525.69
429.403	509.69
429.625	533.69
429.847	561.69
430.069	623.69
430.292	605.69
430.514	520.69
430.736	542.69
430.958	526.69
431.18	493.69
431.402	513.69
431.624	500.69
431.846	501.69
432.068	525.69
432.29	501.69
432.512	497.69
432.734	502.69
432.956	527.69
433.178	537.69
433.4	547.69
433.622	513.69
433.844	510.69
434.066	535.69
434.287	514.69
434.509	523.69
434.731	534.69
434.953	535.69
435.175	554.69
435.397	573.69
435.618	572.69
435.84	607.69
436.062	711.69
436.284	745.69
436.505	626.69
436.727	566.69
436.949	549.69
437.17	539.69
437.392	538.69
437.614	530.69
437.835	559.69
438.057	636.69
438.278	742.69
438.5	745.69
438.721	814.69
438.943	795.69
439.165	641.69
439.386	583.69
439.608	569.69
439.829	554.69
440.05	584.69
440.272	640.69
440.493	579.69
440.715	567.69
440.936	554.69
441.158	561.69
441.379	549.69
441.6	577.69
441.822	576.69
442.043	616.69
442.264	698.69
442.486	742.69
442.707	623.69
442.928	616.69
443.149	598.69
443.371	617.69
443.592	613.69
443.813	731.69
444.034	807.69
444.255	689.69
444.476	601.69
444.698	583.69
444.919	634.69
445.14	725.69
445.361	628.69
445.582	618.69
445.803	666.69
446.024	731.69
446.245	744.69
446.466	692.69
446.687	600.69
446.908	578.69
447.129	543.69
447.35	533.69
447.571	541.69
447.792	514.69
448.013	539.69
448.234	545.69
448.455	586.69
448.675	692.69
448.896	777.69
449.117	659.69
449.338	650.69
449.559	745.69
449.779	864.69
450	664.69
450.221	575.69
450.442	515.69
450.662	500.69
450.883	482.69
451.104	484.69
451.324	494.69
451.545	512.69
451.766	501.69
451.986	477.69
452.207	450.69
452.428	451.69
452.648	491.69
452.869	466.69
453.089	465.69
453.31	477.69
453.53	477.69
453.751	465.69
453.971	454.69
454.192	471.69
454.412	483.69
454.633	449.69
454.853	477.69
455.073	455.69
455.294	501.69
455.514	516.69
455.734	540.69
455.955	463.69
456.175	484.69
456.395	471.69
456.616	447.69
456.836	455.69
457.056	441.69
457.276	451.69
457.497	441.69
457.717	427.69
457.937	459.69
458.157	450.69
458.377	468.69
458.598	477.69
458.818	513.69
459.038	573.69
459.258	599.69
459.478	523.69
459.698	507.69
459.918	513.69
460.138	534.69
460.358	533.69
460.578	535.69
460.798	546.69
461.018	547.69
461.238	548.69
461.458	514.69
461.678	555.69
461.898	537.69
462.118	538.69
462.338	561.69
462.558	561.69
462.777	565.69
462.997	594.69
463.217	616.69
463.437	628.69
463.657	611.69
463.876	591.69
464.096	607.69
464.316	594.69
464.536	577.69
464.755	576.69
464.975	579.69
465.195	586.69
465.414	598.69
465.634	557.69
465.854	550.69
466.073	520.69
466.293	519.69
466.512	512.69
466.732	502.69
466.951	498.69
467.171	480.69
467.391	485.69
467.61	506.69
467.829	519.69
468.049	513.69
468.268	488.69
468.488	496.69
468.707	482.69
468.927	481.69
469.146	491.69
469.365	473.69
469.585	488.69
469.804	493.69
470.023	509.69
470.243	515.69
470.462	513.69
470.681	504.69
470.901	499.69
471.12	506.69
471.339	494.69
471.558	489.69
471.777	505.69
471.997	474.69
472.216	482.69
472.435	506.69
472.654	506.69
472.873	524.69
473.092	487.69
473.311	517.69
473.53	484.69
473.749	513.69
473.968	565.69
474.187	606.69
474.406	630.69
474.625	541.69
474.844	514.69
475.063	507.69
475.282	502.69
475.501	514.69
475.72	503.69
475.939	489.69
476.158	531.69
476.377	489.69
476.596	515.69
476.814	522.69
477.033	550.69
477.252	544.69
477.471	528.69
477.69	542.69
477.908	546.69
478.127	566.69
478.346	559.69
478.564	575.69
478.783	572.69
479.002	576.69
479.22	582.69
479.439	592.69
479.658	605.69
479.876	594.69
480.095	596.69
480.313	633.69
480.532	616.69
480.751	611.69
480.969	627.69
481.188	623.69
481.406	645.69
481.624	623.69
481.843	596.69
482.061	590.69
482.28	597.69
482.498	585.69
482.717	569.69
482.935	579.69
483.153	597.69
483.372	586.69
483.59	592.69
483.808	589.69
484.027	588.69
484.245	606.69
484.463	582.69
484.681	639.69
484.9	603.69
485.118	609.69
485.336	602.69
485.554	604.69
485.772	594.69
485.99	599.69
486.209	613.69
486.427	624.69
486.645	625.69
486.863	615.69
487.081	646.69
487.299	610.69
487.517	623.69
487.735	621.69
487.953	635.69
488.171	623.69
488.389	615.69
488.607	629.69
488.825	627.69
489.043	637.69
489.261	642.69
489.479	640.69
489.696	641.69
489.914	663.69
490.132	681.69
490.35	649.69
490.568	664.69
490.786	673.69
491.003	667.69
491.221	685.69
491.439	688.69
491.657	689.69
491.874	711.69
492.092	722.69
492.31	719.69
492.527	711.69
492.745	731.69
492.963	738.69
493.18	719.69
493.398	739.69
493.615	719.69
493.833	717.69
494.05	725.69
494.268	738.69
494.485	711.69
494.703	732.69
494.92	733.69
495.138	728.69
495.355	737.69
495.573	735.69
495.79	738.69
496.008	746.69
496.225	744.69
496.442	744.69
496.66	740.69
496.877	768.69
497.094	769.69
497.312	782.69
497.529	807.69
497.746	776.69
497.963	790.69
498.181	823.69
498.398	853.69
498.615	818.69
498.832	874.69
499.049	871.69
499.267	936.69
499.484	984.69
499.701	1018.69
499.918	1035.69
500.135	1117.69
500.352	1201.69
500.569	1213.69
500.786	1224.69
501.003	1183.69
501.22	1130.69
501.437	1114.69
501.654	1025.69
501.871	998.69
502.088	973.69
502.305	902.69
502.522	861.69
502.739	873.69
502.956	864.69
503.172	809.69
503.389	771.69
503.606	798.69
503.823	768.69
504.04	766.69
504.256	760.69
504.473	741.69
504.69	757.69
504.907	747.69
505.123	743.69
505.34	717.69
505.557	710.69
505.773	687.69
505.99	726.69
506.207	706.69
506.423	683.69
506.64	703.69
506.856	693.69
507.073	683.69
507.289	647.69
507.506	660.69
507.722	685.69
507.939	700.69
508.155	654.69
508.372	632.69
508.588	638.69
508.805	635.69
509.021	657.69
509.238	627.69
509.454	652.69
509.67	648.69
509.887	638.69
510.103	636.69
510.319	646.69
510.536	673.69
510.752	893.69
510.968	772.69
511.184	627.69
511.401	614.69
511.617	611.69
511.833	612.69
512.049	600.69
512.265	617.69
512.481	631.69
512.698	601.69
512.914	611.69
513.13	596.69
513.346	588.69
513.562	590.69
513.778	605.69
513.994	588.69
514.21	605.69
514.426	611.69
514.642	643.69
514.858	653.69
515.074	633.69
515.29	722.69
515.506	867.69
515.721	785.69
515.937	655.69
516.153	637.69
516.369	614.69
516.585	625.69
516.801	619.69
517.016	645.69
517.232	654.69
517.448	676.69
517.664	681.69
517.879	681.69
518.095	661.69
518.311	665.69
518.527	651.69
518.742	657.69
518.958	647.69
519.173	625.69
519.389	611.69
519.605	621.69
519.82	598.69
520.036	607.69
520.251	612.69
520.467	631.69
520.682	641.69
520.898	633.69
521.113	619.69
521.329	646.69
521.544	681.69
521.76	749.69
521.975	963.69
522.19	997.69
522.406	715.69
522.621	627.69
522.836	590.69
523.052	573.69
523.267	576.69
523.482	573.69
523.698	531.69
523.913	542.69
524.128	541.69
524.343	553.69
524.559	538.69
524.774	531.69
524.989	521.69
525.204	533.69
525.419	547.69
525.634	527.69
525.849	531.69
526.064	517.69
526.28	516.69
526.495	488.69
526.71	540.69
526.925	541.69
527.14	515.69
527.355	530.69
527.57	507.69
527.785	506.69
527.999	486.69
528.214	509.69
528.429	520.69
528.644	535.69
528.859	535.69
529.074	527.69
529.289	532.69
529.503	561.69
529.718	552.69
529.933	525.69
530.148	530.69
530.363	502.69
530.577	494.69
530.792	514.69
531.007	525.69
531.221	522.69
531.436	521.69
531.651	523.69
531.865	519.69
532.08	481.69
532.295	511.69
532.509	491.69
532.724	507.69
532.938	515.69
533.153	495.69
533.367	510.69
533.582	503.69
533.796	515.69
534.011	494.69
534.225	486.69
534.44	501.69
534.654	489.69
534.868	503.69
535.083	497.69
535.297	484.69
535.511	476.69
535.726	503.69
535.94	488.69
536.154	470.69
536.369	478.69
536.583	477.69
536.797	472.69
537.011	489.69
537.225	447.69
537.44	465.69
537.654	486.69
537.868	477.69
538.082	457.69
538.296	471.69
538.51	481.69
538.724	465.69
538.938	474.69
539.153	471.69
539.367	486.69
539.581	464.69
539.795	469.69
540.009	480.69
540.222	479.69
540.436	476.69
540.65	493.69
540.864	464.69
541.078	476.69
541.292	501.69
541.506	473.69
541.72	457.69
541.934	471.69
542.147	493.69
542.361	493.69
542.575	476.69
542.789	484.69
543.002	466.69
543.216	473.69
543.43	458.69
543.644	472.69
543.857	467.69
544.071	471.69
544.285	486.69
544.498	481.69
544.712	475.69
544.925	485.69
545.139	465.69
545.352	466.69
545.566	472.69
545.779	476.69
545.993	468.69
546.206	481.69
546.42	494.69
546.633	493.69
546.847	489.69
547.06	453.69
547.274	475.69
547.487	468.69
547.7	475.69
547.914	481.69
548.127	470.69
548.34	491.69
548.554	450.69
548.767	471.69
548.98	471.69
549.193	465.69
549.407	470.69
549.62	458.69
549.833	489.69
550.046	454.69
550.259	459.69
550.473	453.69
550.686	472.69
550.899	470.69
551.112	470.69
551.325	465.69
551.538	449.69
551.751	459.69
551.964	450.69
552.177	457.69
552.39	466.69
552.603	490.69
552.816	463.69
553.029	488.69
553.242	484.69
553.455	504.69
553.667	493.69
553.88	493.69
554.093	483.69
554.306	486.69
554.519	480.69
554.732	481.69
554.944	484.69
555.157	456.69
555.37	443.69
555.583	440.69
555.795	440.69
556.008	442.69
556.221	433.69
556.433	448.69
556.646	439.69
556.859	423.69
557.071	423.69
557.284	411.69
557.496	429.69
557.709	441.69
557.921	423.69
558.134	432.69
558.346	426.69
558.559	423.69
558.771	401.69
558.984	410.69
559.196	409.69
559.409	411.69
559.621	421.69
559.833	399.69
560.046	424.69
560.258	419.69
560.47	397.69
560.683	403.69
560.895	425.69
561.107	406.69
561.32	422.69
561.532	412.69
561.744	403.69
561.956	421.69
562.168	405.69
562.381	425.69
562.593	406.69
562.805	411.69
563.017	425.69
563.229	418.69
563.441	420.69
563.653	435.69
563.865	421.69
564.077	425.69
564.289	424.69
564.501	419.69
564.713	434.69
564.925	414.69
565.137	459.69
565.349	450.69
565.561	473.69
565.773	472.69
565.985	491.69
566.197	510.69
566.408	484.69
566.62	543.69
566.832	563.69
567.044	562.69
567.255	561.69
567.467	566.69
567.679	571.69
567.891	571.69
568.102	582.69
568.314	562.69
568.526	548.69
568.737	529.69
568.949	504.69
569.161	453.69
569.372	440.69
569.584	445.69
569.795	468.69
570.007	447.69
570.218	454.69
570.43	437.69
570.641	407.69
570.853	416.69
571.064	437.69
571.276	418.69
571.487	405.69
571.698	410.69
571.91	399.69
572.121	388.69
572.333	386.69
572.544	369.69
572.755	381.69
572.966	378.69
573.178	365.69
573.389	373.69
573.6	373.69
573.811	367.69
574.023	376.69
574.234	361.69
574.445	360.69
574.656	381.69
574.867	375.69
575.078	374.69
575.289	365.69
575.501	370.69
575.712	359.69
575.923	349.69
576.134	349.69
576.345	363.69
576.556	359.69
576.767	338.69
576.978	347.69
577.188	361.69
577.399	334.69
577.61	335.69
577.821	345.69
578.032	341.69
578.243	349.69
578.454	434.69
578.665	386.69
578.875	354.69
579.086	340.69
579.297	334.69
579.508	333.69
579.718	354.69
579.929	334.69
580.14	343.69
580.35	328.69
580.561	343.69
580.772	324.69
580.982	309.69
581.193	334.69
581.403	330.69
581.614	318.69
581.825	322.69
582.035	327.69
582.246	335.69
582.456	333.69
582.667	322.69
582.877	314.69
583.087	327.69
583.298	347.69
583.508	334.69
583.719	329.69
583.929	333.69
584.139	317.69
584.35	315.69
584.56	318.69
584.77	296.69
584.981	327.69
585.191	321.69
585.401	314.69
585.611	309.69
585.821	337.69
586.032	319.69
586.242	326.69
586.452	298.69
586.662	308.69
586.872	315.69
587.082	321.69
587.292	302.69
587.502	316.69
587.713	308.69
587.923	317.69
588.133	329.69
588.343	313.69
588.553	330.69
588.762	298.69
588.972	309.69
589.182	296.69
589.392	309.69
589.602	307.69
589.812	325.69
590.022	311.69
590.232	318.69
590.441	312.69
590.651	323.69
590.861	323.69
591.071	336.69
591.281	306.69
591.49	317.69
591.7	325.69
591.91	318.69
592.119	325.69
592.329	333.69
592.539	331.69
592.748	339.69
592.958	352.69
593.167	354.69
593.377	369.69
593.587	356.69
593.796	365.69
594.006	358.69
594.215	336.69
594.424	349.69
594.634	363.69
594.843	339.69
595.053	357.69
595.262	342.69
595.472	330.69
595.681	320.69
595.89	305.69
596.1	319.69
596.309	306.69
596.518	317.69
596.727	313.69
596.937	291.69
597.146	296.69
597.355	281.69
597.564	306.69
597.774	294.69
597.983	296.69
598.192	289.69
598.401	283.69
598.61	292.69
598.819	264.69
599.028	273.69
599.237	274.69
599.446	288.69
599.655	273.69
599.864	275.69
600.073	268.69
600.282	276.69
600.491	274.69
600.7	281.69
600.909	287.69
601.118	268.69
601.327	286.69
601.536	258.69
601.745	283.69
601.953	281.69
602.162	283.69
602.371	282.69
602.58	275.69
602.789	279.69
602.997	261.69
603.206	270.69
603.415	271.69
603.623	267.69
603.832	274.69
604.041	274.69
604.249	266.69
604.458	270.69
604.666	257.69
604.875	279.69
605.084	266.69
605.292	272.69
605.501	274.69
605.709	266.69
605.918	264.69
606.126	266.69
606.334	274.69
606.543	283.69
606.751	276.69
606.96	264.69
607.168	259.69
607.376	264.69
607.585	276.69
607.793	261.69
608.001	264.69
608.21	270.69
608.418	258.69
608.626	268.69
608.834	255.69
609.043	264.69
609.251	251.69
609.459	264.69
609.667	261.69
609.875	258.69
610.083	267.69
610.291	268.69
610.499	256.69
610.707	249.69
610.916	280.69
611.124	253.69
611.332	245.69
611.54	275.69
611.748	266.69
611.955	258.69
612.163	256.69
612.371	264.69
612.579	251.69
612.787	255.69
612.995	281.69
613.203	263.69
613.411	263.69
613.618	237.69
613.826	247.69
614.034	262.69
614.242	241.69
614.449	257.69
614.657	253.69
614.865	243.69
615.072	260.69
615.28	241.69
615.488	260.69
615.695	265.69
615.903	259.69
616.111	250.69
616.318	274.69
616.526	272.69
616.733	253.69
616.941	260.69
617.148	267.69
617.356	244.69
617.563	255.69
617.771	254.69
617.978	245.69
618.185	264.69
618.393	241.69
618.6	266.69
618.807	262.69
619.015	242.69
619.222	242.69
619.429	246.69
619.637	255.69
619.844	247.69
620.051	230.69
620.258	245.69
620.466	223.69
620.673	245.69
620.88	244.69
621.087	241.69
621.294	225.69
621.501	252.69
621.708	257.69
621.915	247.69
622.122	244.69
622.329	237.69
622.536	242.69
622.743	229.69
622.95	224.69
623.157	215.69
623.364	253.69
623.571	241.69
623.778	237.69
623.985	238.69
624.192	246.69
624.399	230.69
624.606	243.69
624.812	224.69
625.019	209.69
625.226	201.69
625.433	233.69
625.639	240.69
625.846	221.69
626.053	222.69
626.259	225.69
626.466	212.69
626.673	213.69
626.879	211.69
627.086	201.69
627.293	227.69
627.499	226.69
627.706	210.69
627.912	207.69
628.119	213.69
628.325	210.69
628.532	213.69
628.738	239.69
628.945	229.69
629.151	214.69
629.357	213.69
629.564	218.69
629.77	199.69
629.976	210.69
630.183	208.69
630.389	199.69
630.595	202.69
630.802	217.69
631.008	217.69
631.214	211.69
631.42	224.69
631.627	218.69
631.833	202.69
632.039	210.69
632.245	204.69
632.451	202.69
632.657	206.69
632.863	196.69
633.069	194.69
633.275	203.69
633.481	193.69
633.688	202.69
633.893	194.69
634.099	209.69
634.305	209.69
634.511	203.69
634.717	201.69
634.923	178.69
635.129	179.69
635.335	203.69
635.541	190.69
635.747	218.69
635.952	194.69
636.158	199.69
636.364	200.69
636.57	191.69
636.775	196.69
636.981	194.69
637.187	188.69
637.392	193.69
637.598	188.69
637.804	195.69
638.009	185.69
638.215	184.69
638.421	183.69
638.626	182.69
638.832	192.69
639.037	175.69
639.243	184.69
639.448	185.69
639.654	189.69
639.859	194.69
640.065	190.69
640.27	202.69
640.475	192.69
640.681	173.69
640.886	181.69
641.091	194.69
641.297	178.69
641.502	177.69
641.707	177.69
641.913	200.69
642.118	169.69
642.323	180.69
642.528	172.69
642.733	189.69
642.939	179.69
643.144	163.69
643.349	192.69
643.554	188.69
643.759	183.69
643.964	178.69
644.169	180.69
644.374	159.69
644.579	173.69
644.784	187.69
644.989	185.69
645.194	185.69
645.399	171.69
645.604	182.69
645.809	159.69
646.014	175.69
646.219	172.69
646.423	168.69
646.628	161.69
646.833	169.69
647.038	186.69
647.243	178.69
647.447	185.69
647.652	173.69
647.857	192.69
648.062	173.69
648.266	192.69
648.471	165.69
648.676	176.69
648.88	187.69
649.085	162.69
649.289	172.69
649.494	179.69
649.698	179.69
649.903	200.69
650.107	185.69
650.312	176.69
650.516	175.69
650.721	161.69
650.925	160.69
651.13	175.69
651.334	155.69
651.539	166.69
651.743	166.69
651.947	170.69
652.152	144.69
652.356	148.69
652.56	168.69
652.764	159.69
652.969	153.69
653.173	152.69
653.377	149.69
653.581	146.69
653.785	149.69
653.99	151.69
654.194	136.69
654.398	159.69
654.602	149.69
654.806	151.69
655.01	154.69
655.214	146.69
655.418	143.69
655.622	149.69
655.826	145.69
656.03	131.69
656.234	152.69
656.438	150.69
656.642	141.69
656.846	151.69
657.049	151.69
657.253	131.69
657.457	130.69
657.661	135.69
657.865	129.69
658.068	109.69
658.272	109.69
658.476	118.69
658.68	98.69
658.883	107.69
659.087	117.69
659.291	99.69
659.494	115.69
659.698	99.69
659.901	113.69
660.105	85.69
660.309	90.69
660.512	83.69
660.716	101.69
660.919	107.69
661.123	95.69
661.326	87.69
661.53	85.69
661.733	86.69
661.936	78.69
662.14	102.69
662.343	84.69
662.546	77.69
662.75	80.69
662.953	80.69
663.156	87.69
663.36	91.69
663.563	85.69
663.766	83.69
663.969	76.69
664.173	76.69
664.376	81.69
664.579	89.69
664.782	73.69
664.985	79.69
665.188	71.69
665.391	85.69
665.594	71.69
665.797	85.69
666	87.69
666.203	85.69
666.406	85.69
666.609	89.69
666.812	84.69
667.015	74.69
667.218	86.69
667.421	90.69
667.624	78.69
667.827	85.69
668.03	82.69
668.232	78.69
668.435	75.69
668.638	83.69
668.841	78.69
669.043	73.69
669.246	76.69
669.449	69.69
669.651	79.69
669.854	93.69
670.057	85.69
670.259	74.69
670.462	85.69
670.665	76.69
670.867	91.69
671.07	83.69
671.272	95.69
671.475	87.69
671.677	80.69
671.88	66.69
672.082	89.69
672.284	81.69
672.487	81.69
672.689	88.69
672.892	71.69
