Data from 1974.PennyLincolnUp.Lamp.En5.5.200Scan.071719.P1.Changed Mount._HRD10591_15-53-19-857.txt Node
Date: Thu Jul 18 15:53:19 EDT 2019
User: cochatt
Spectrometer: HR+D1059
Trigger mode: 1
Integration Time (sec): 1.000000E-1
Scans to average: 1
Electric dark correction enabled: true
Nonlinearity correction enabled: false
Boxcar width: 0
XAxis mode: Wavelengths
Number of Pixels in Spectrum: 2048
>>>>>Begin Spectral Data<<<<<
223.165	-28.94
223.4	-28.94
223.635	-28.94
223.869	-13.94
224.104	-11.94
224.338	-8.94
224.573	-8.94
224.808	-3.94
225.042	-14.94
225.277	-14.94
225.511	9.06
225.746	0.06
225.98	9.06
226.215	12.06
226.449	18.06
226.683	13.06
226.918	20.06
227.152	25.06
227.387	22.06
227.621	33.06
227.856	38.06
228.09	41.06
228.324	52.06
228.559	44.06
228.793	68.06
229.027	85.06
229.262	115.06
229.496	122.06
229.73	132.06
229.964	158.06
230.199	130.06
230.433	123.06
230.667	107.06
230.901	121.06
231.136	112.06
231.37	118.06
231.604	115.06
231.838	110.06
232.072	117.06
232.306	113.06
232.541	112.06
232.775	100.06
233.009	106.06
233.243	116.06
233.477	114.06
233.711	117.06
233.945	128.06
234.179	116.06
234.413	94.06
234.647	118.06
234.881	112.06
235.115	128.06
235.349	131.06
235.583	131.06
235.817	127.06
236.051	120.06
236.285	123.06
236.519	136.06
236.753	140.06
236.987	148.06
237.221	178.06
237.455	228.06
237.689	194.06
237.922	138.06
238.156	143.06
238.39	127.06
238.624	135.06
238.858	124.06
239.091	139.06
239.325	126.06
239.559	115.06
239.793	119.06
240.027	139.06
240.26	142.06
240.494	148.06
240.728	166.06
240.961	165.06
241.195	153.06
241.429	144.06
241.662	141.06
241.896	146.06
242.13	134.06
242.363	151.06
242.597	135.06
242.83	131.06
243.064	134.06
243.298	137.06
243.531	150.06
243.765	138.06
243.998	139.06
244.232	161.06
244.465	158.06
244.699	147.06
244.932	134.06
245.166	157.06
245.399	143.06
245.633	153.06
245.866	173.06
246.099	141.06
246.333	154.06
246.566	143.06
246.8	164.06
247.033	177.06
247.266	158.06
247.5	167.06
247.733	165.06
247.966	188.06
248.2	172.06
248.433	173.06
248.666	170.06
248.899	187.06
249.133	204.06
249.366	205.06
249.599	194.06
249.832	194.06
250.066	183.06
250.299	200.06
250.532	201.06
250.765	213.06
250.998	240.06
251.231	251.06
251.465	226.06
251.698	218.06
251.931	211.06
252.164	210.06
252.397	203.06
252.63	199.06
252.863	203.06
253.096	220.06
253.329	246.06
253.562	254.06
253.795	222.06
254.028	223.06
254.261	224.06
254.494	235.06
254.727	268.06
254.96	286.06
255.193	277.06
255.426	266.06
255.659	236.06
255.892	230.06
256.124	245.06
256.357	234.06
256.59	256.06
256.823	231.06
257.056	228.06
257.289	220.06
257.521	213.06
257.754	208.06
257.987	218.06
258.22	220.06
258.452	211.06
258.685	228.06
258.918	218.06
259.151	215.06
259.383	231.06
259.616	220.06
259.849	231.06
260.081	264.06
260.314	276.06
260.547	270.06
260.779	270.06
261.012	240.06
261.244	249.06
261.477	235.06
261.71	230.06
261.942	258.06
262.175	237.06
262.407	248.06
262.64	219.06
262.872	219.06
263.105	220.06
263.337	224.06
263.57	233.06
263.802	212.06
264.035	227.06
264.267	228.06
264.499	221.06
264.732	223.06
264.964	225.06
265.197	228.06
265.429	223.06
265.661	239.06
265.894	233.06
266.126	245.06
266.358	232.06
266.591	214.06
266.823	245.06
267.055	232.06
267.287	255.06
267.52	255.06
267.752	241.06
267.984	231.06
268.216	249.06
268.448	267.06
268.681	237.06
268.913	245.06
269.145	279.06
269.377	296.06
269.609	298.06
269.841	284.06
270.073	285.06
270.306	300.06
270.538	326.06
270.77	306.06
271.002	311.06
271.234	320.06
271.466	314.06
271.698	322.06
271.93	328.06
272.162	317.06
272.394	326.06
272.626	320.06
272.858	292.06
273.09	290.06
273.322	296.06
273.553	279.06
273.785	276.06
274.017	267.06
274.249	267.06
274.481	273.06
274.713	293.06
274.945	292.06
275.176	274.06
275.408	297.06
275.64	276.06
275.872	277.06
276.104	289.06
276.335	279.06
276.567	275.06
276.799	311.06
277.031	326.06
277.262	327.06
277.494	326.06
277.726	304.06
277.957	306.06
278.189	303.06
278.421	293.06
278.652	296.06
278.884	276.06
279.115	293.06
279.347	288.06
279.579	288.06
279.81	291.06
280.042	285.06
280.273	271.06
280.505	296.06
280.736	280.06
280.968	289.06
281.199	268.06
281.431	290.06
281.662	295.06
281.894	292.06
282.125	299.06
282.356	305.06
282.588	338.06
282.819	320.06
283.051	309.06
283.282	294.06
283.513	283.06
283.745	308.06
283.976	301.06
284.207	280.06
284.439	304.06
284.67	318.06
284.901	295.06
285.132	296.06
285.364	307.06
285.595	302.06
285.826	306.06
286.057	310.06
286.288	296.06
286.52	300.06
286.751	308.06
286.982	298.06
287.213	296.06
287.444	314.06
287.675	299.06
287.906	308.06
288.138	321.06
288.369	325.06
288.6	343.06
288.831	325.06
289.062	333.06
289.293	310.06
289.524	295.06
289.755	293.06
289.986	315.06
290.217	316.06
290.448	325.06
290.679	316.06
290.91	323.06
291.141	308.06
291.371	295.06
291.602	297.06
291.833	326.06
292.064	308.06
292.295	295.06
292.526	318.06
292.757	315.06
292.987	317.06
293.218	314.06
293.449	317.06
293.68	316.06
293.91	321.06
294.141	317.06
294.372	304.06
294.603	309.06
294.833	315.06
295.064	312.06
295.295	321.06
295.525	319.06
295.756	337.06
295.987	328.06
296.217	334.06
296.448	346.06
296.679	327.06
296.909	334.06
297.14	328.06
297.37	323.06
297.601	331.06
297.831	332.06
298.062	335.06
298.292	317.06
298.523	344.06
298.753	314.06
298.984	322.06
299.214	330.06
299.445	340.06
299.675	327.06
299.905	349.06
300.136	339.06
300.366	332.06
300.597	332.06
300.827	342.06
301.057	329.06
301.288	351.06
301.518	352.06
301.748	341.06
301.979	350.06
302.209	358.06
302.439	376.06
302.669	373.06
302.9	354.06
303.13	363.06
303.36	346.06
303.59	371.06
303.82	365.06
304.051	361.06
304.281	356.06
304.511	361.06
304.741	364.06
304.971	352.06
305.201	350.06
305.431	361.06
305.661	358.06
305.891	357.06
306.121	357.06
306.352	355.06
306.582	342.06
306.812	369.06
307.042	362.06
307.272	361.06
307.502	332.06
307.731	369.06
307.961	362.06
308.191	382.06
308.421	365.06
308.651	372.06
308.881	356.06
309.111	365.06
309.341	357.06
309.571	357.06
309.8	372.06
310.03	388.06
310.26	389.06
310.49	384.06
310.72	390.06
310.949	397.06
311.179	385.06
311.409	397.06
311.639	393.06
311.868	398.06
312.098	392.06
312.328	416.06
312.557	417.06
312.787	424.06
313.017	416.06
313.246	400.06
313.476	389.06
313.706	409.06
313.935	398.06
314.165	424.06
314.394	439.06
314.624	381.06
314.853	386.06
315.083	409.06
315.312	403.06
315.542	391.06
315.771	389.06
316.001	384.06
316.23	388.06
316.46	388.06
316.689	394.06
316.919	409.06
317.148	418.06
317.377	393.06
317.607	387.06
317.836	390.06
318.065	414.06
318.295	384.06
318.524	386.06
318.753	376.06
318.983	411.06
319.212	404.06
319.441	376.06
319.67	438.06
319.9	384.06
320.129	391.06
320.358	415.06
320.587	410.06
320.816	400.06
321.046	404.06
321.275	424.06
321.504	421.06
321.733	405.06
321.962	404.06
322.191	424.06
322.42	425.06
322.649	453.06
322.878	469.06
323.108	461.06
323.337	458.06
323.566	511.06
323.795	518.06
324.024	559.06
324.253	634.06
324.482	842.06
324.71	1281.06
324.939	1906.06
325.168	1648.06
325.397	858.06
325.626	596.06
325.855	537.06
326.084	509.06
326.313	496.06
326.542	493.06
326.77	527.06
326.999	599.06
327.228	777.06
327.457	1156.06
327.686	1436.06
327.914	980.06
328.143	665.06
328.372	593.06
328.6	553.06
328.829	546.06
329.058	554.06
329.287	563.06
329.515	532.06
329.744	509.06
329.972	496.06
330.201	550.06
330.43	549.06
330.658	569.06
330.887	573.06
331.115	582.06
331.344	515.06
331.572	496.06
331.801	500.06
332.03	513.06
332.258	496.06
332.486	493.06
332.715	457.06
332.943	488.06
333.172	485.06
333.4	494.06
333.629	504.06
333.857	513.06
334.085	536.06
334.314	533.06
334.542	541.06
334.771	554.06
334.999	521.06
335.227	513.06
335.455	506.06
335.684	484.06
335.912	474.06
336.14	491.06
336.369	473.06
336.597	486.06
336.825	504.06
337.053	477.06
337.281	469.06
337.51	487.06
337.738	495.06
337.966	461.06
338.194	472.06
338.422	470.06
338.65	466.06
338.878	454.06
339.106	429.06
339.334	452.06
339.562	471.06
339.79	444.06
340.018	444.06
340.246	463.06
340.474	459.06
340.702	455.06
340.93	471.06
341.158	439.06
341.386	451.06
341.614	466.06
341.842	470.06
342.07	465.06
342.298	456.06
342.526	442.06
342.754	441.06
342.981	456.06
343.209	455.06
343.437	448.06
343.665	461.06
343.893	468.06
344.12	485.06
344.348	474.06
344.576	485.06
344.804	496.06
345.031	508.06
345.259	481.06
345.487	483.06
345.714	482.06
345.942	462.06
346.17	443.06
346.397	460.06
346.625	449.06
346.853	455.06
347.08	450.06
347.308	457.06
347.535	436.06
347.763	442.06
347.99	460.06
348.218	446.06
348.445	461.06
348.673	474.06
348.9	447.06
349.128	468.06
349.355	434.06
349.583	423.06
349.81	439.06
350.037	432.06
350.265	423.06
350.492	420.06
350.72	429.06
350.947	447.06
351.174	436.06
351.402	436.06
351.629	445.06
351.856	465.06
352.083	454.06
352.311	476.06
352.538	455.06
352.765	457.06
352.992	459.06
353.22	436.06
353.447	460.06
353.674	445.06
353.901	448.06
354.128	442.06
354.355	442.06
354.583	432.06
354.81	416.06
355.037	418.06
355.264	435.06
355.491	405.06
355.718	441.06
355.945	440.06
356.172	408.06
356.399	439.06
356.626	414.06
356.853	423.06
357.08	422.06
357.307	424.06
357.534	409.06
357.761	415.06
357.988	431.06
358.215	428.06
358.441	452.06
358.668	417.06
358.895	437.06
359.122	441.06
359.349	415.06
359.576	444.06
359.802	453.06
360.029	481.06
360.256	504.06
360.483	477.06
360.709	456.06
360.936	458.06
361.163	469.06
361.39	462.06
361.616	460.06
361.843	463.06
362.07	455.06
362.296	449.06
362.523	461.06
362.749	437.06
362.976	438.06
363.203	446.06
363.429	452.06
363.656	448.06
363.882	439.06
364.109	435.06
364.335	455.06
364.562	433.06
364.788	453.06
365.015	429.06
365.241	422.06
365.468	442.06
365.694	430.06
365.92	438.06
366.147	434.06
366.373	445.06
366.599	434.06
366.826	428.06
367.052	396.06
367.278	433.06
367.505	439.06
367.731	430.06
367.957	425.06
368.184	437.06
368.41	425.06
368.636	440.06
368.862	451.06
369.089	467.06
369.315	435.06
369.541	439.06
369.767	460.06
369.993	434.06
370.219	440.06
370.445	446.06
370.672	457.06
370.898	452.06
371.124	446.06
371.35	455.06
371.576	436.06
371.802	456.06
372.028	447.06
372.254	465.06
372.48	459.06
372.706	455.06
372.932	443.06
373.158	451.06
373.384	447.06
373.61	449.06
373.835	464.06
374.061	436.06
374.287	452.06
374.513	472.06
374.739	483.06
374.965	473.06
375.191	458.06
375.416	452.06
375.642	460.06
375.868	453.06
376.094	454.06
376.319	458.06
376.545	438.06
376.771	445.06
376.997	462.06
377.222	454.06
377.448	440.06
377.674	454.06
377.899	447.06
378.125	448.06
378.35	434.06
378.576	438.06
378.802	440.06
379.027	443.06
379.253	449.06
379.478	442.06
379.704	440.06
379.929	434.06
380.155	446.06
380.38	445.06
380.606	436.06
380.831	427.06
381.057	464.06
381.282	466.06
381.507	486.06
381.733	469.06
381.958	438.06
382.184	457.06
382.409	466.06
382.634	459.06
382.86	456.06
383.085	439.06
383.31	469.06
383.535	477.06
383.761	449.06
383.986	472.06
384.211	481.06
384.436	476.06
384.662	479.06
384.887	485.06
385.112	489.06
385.337	492.06
385.562	492.06
385.787	505.06
386.013	530.06
386.238	509.06
386.463	488.06
386.688	500.06
386.913	505.06
387.138	499.06
387.363	505.06
387.588	518.06
387.813	506.06
388.038	505.06
388.263	529.06
388.488	480.06
388.713	498.06
388.938	495.06
389.163	521.06
389.387	508.06
389.612	484.06
389.837	491.06
390.062	489.06
390.287	498.06
390.512	484.06
390.736	487.06
390.961	510.06
391.186	514.06
391.411	523.06
391.636	522.06
391.86	522.06
392.085	525.06
392.31	502.06
392.534	512.06
392.759	522.06
392.984	503.06
393.208	489.06
393.433	522.06
393.658	498.06
393.882	529.06
394.107	482.06
394.331	512.06
394.556	503.06
394.78	523.06
395.005	528.06
395.229	528.06
395.454	534.06
395.678	554.06
395.903	534.06
396.127	551.06
396.352	589.06
396.576	556.06
396.801	536.06
397.025	522.06
397.249	524.06
397.474	550.06
397.698	545.06
397.922	555.06
398.147	584.06
398.371	581.06
398.595	575.06
398.82	570.06
399.044	569.06
399.268	621.06
399.492	653.06
399.717	702.06
399.941	752.06
400.165	733.06
400.389	737.06
400.613	648.06
400.837	627.06
401.062	609.06
401.286	583.06
401.51	594.06
401.734	566.06
401.958	613.06
402.182	590.06
402.406	599.06
402.63	605.06
402.854	594.06
403.078	613.06
403.302	635.06
403.526	632.06
403.75	646.06
403.974	633.06
404.198	604.06
404.422	614.06
404.645	640.06
404.869	654.06
405.093	661.06
405.317	683.06
405.541	725.06
405.765	674.06
405.988	659.06
406.212	657.06
406.436	639.06
406.66	651.06
406.883	669.06
407.107	705.06
407.331	728.06
407.555	798.06
407.778	837.06
408.002	746.06
408.226	709.06
408.449	705.06
408.673	661.06
408.896	706.06
409.12	768.06
409.344	704.06
409.567	651.06
409.791	615.06
410.014	617.06
410.238	598.06
410.461	599.06
410.685	618.06
410.908	635.06
411.132	634.06
411.355	701.06
411.578	690.06
411.802	631.06
412.025	606.06
412.249	632.06
412.472	644.06
412.695	669.06
412.919	665.06
413.142	637.06
413.365	594.06
413.589	600.06
413.812	595.06
414.035	588.06
414.258	589.06
414.482	578.06
414.705	569.06
414.928	601.06
415.151	596.06
415.374	615.06
415.597	570.06
415.821	568.06
416.044	595.06
416.267	579.06
416.49	568.06
416.713	570.06
416.936	585.06
417.159	577.06
417.382	574.06
417.605	557.06
417.828	588.06
418.051	619.06
418.274	602.06
418.497	574.06
418.72	574.06
418.943	577.06
419.166	617.06
419.389	632.06
419.611	639.06
419.834	605.06
420.057	635.06
420.28	596.06
420.503	609.06
420.726	605.06
420.948	632.06
421.171	678.06
421.394	685.06
421.617	625.06
421.839	604.06
422.062	568.06
422.285	630.06
422.507	674.06
422.73	762.06
422.953	737.06
423.175	654.06
423.398	639.06
423.621	631.06
423.843	652.06
424.066	658.06
424.288	665.06
424.511	694.06
424.733	724.06
424.956	820.06
425.178	758.06
425.401	782.06
425.623	771.06
425.846	700.06
426.068	659.06
426.291	625.06
426.513	620.06
426.735	644.06
426.958	689.06
427.18	742.06
427.402	921.06
427.625	978.06
427.847	863.06
428.069	754.06
428.292	673.06
428.514	614.06
428.736	593.06
428.958	599.06
429.181	591.06
429.403	568.06
429.625	571.06
429.847	652.06
430.069	700.06
430.292	696.06
430.514	602.06
430.736	591.06
430.958	597.06
431.18	572.06
431.402	578.06
431.624	557.06
431.846	524.06
432.068	571.06
432.29	556.06
432.512	557.06
432.734	585.06
432.956	583.06
433.178	576.06
433.4	572.06
433.622	563.06
433.844	572.06
434.066	584.06
434.287	566.06
434.509	571.06
434.731	597.06
434.953	582.06
435.175	614.06
435.397	619.06
435.618	631.06
435.84	667.06
436.062	753.06
436.284	837.06
436.505	706.06
436.727	617.06
436.949	603.06
437.17	566.06
437.392	610.06
437.614	594.06
437.835	605.06
438.057	730.06
438.278	826.06
438.5	822.06
438.721	923.06
438.943	876.06
439.165	711.06
439.386	645.06
439.608	645.06
439.829	619.06
440.05	664.06
440.272	696.06
440.493	670.06
440.715	618.06
440.936	589.06
441.158	572.06
441.379	600.06
441.6	625.06
441.822	624.06
442.043	688.06
442.264	760.06
442.486	805.06
442.707	686.06
442.928	669.06
443.149	674.06
443.371	677.06
443.592	721.06
443.813	824.06
444.034	916.06
444.255	746.06
444.476	708.06
444.698	676.06
444.919	697.06
445.14	789.06
445.361	706.06
445.582	680.06
445.803	714.06
446.024	821.06
446.245	822.06
446.466	779.06
446.687	677.06
446.908	628.06
447.129	608.06
447.35	587.06
447.571	578.06
447.792	557.06
448.013	573.06
448.234	592.06
448.455	632.06
448.675	760.06
448.896	862.06
449.117	737.06
449.338	714.06
449.559	838.06
449.779	974.06
450	742.06
450.221	645.06
450.442	578.06
450.662	590.06
450.883	558.06
451.104	578.06
451.324	572.06
451.545	544.06
451.766	542.06
451.986	533.06
452.207	521.06
452.428	511.06
452.648	525.06
452.869	535.06
453.089	526.06
453.31	522.06
453.53	527.06
453.751	526.06
453.971	520.06
454.192	562.06
454.412	528.06
454.633	513.06
454.853	522.06
455.073	507.06
455.294	537.06
455.514	601.06
455.734	582.06
455.955	507.06
456.175	506.06
456.395	513.06
456.616	481.06
456.836	498.06
457.056	498.06
457.276	497.06
457.497	506.06
457.717	505.06
457.937	508.06
458.157	515.06
458.377	516.06
458.598	528.06
458.818	564.06
459.038	629.06
459.258	689.06
459.478	633.06
459.698	565.06
459.918	578.06
460.138	568.06
460.358	580.06
460.578	589.06
460.798	592.06
461.018	627.06
461.238	588.06
461.458	582.06
461.678	582.06
461.898	578.06
462.118	597.06
462.338	591.06
462.558	632.06
462.777	636.06
462.997	648.06
463.217	649.06
463.437	684.06
463.657	640.06
463.876	650.06
464.096	643.06
464.316	653.06
464.536	656.06
464.755	652.06
464.975	640.06
465.195	660.06
465.414	697.06
465.634	646.06
465.854	605.06
466.073	551.06
466.293	576.06
466.512	537.06
466.732	544.06
466.951	553.06
467.171	539.06
467.391	542.06
467.61	562.06
467.829	529.06
468.049	545.06
468.268	538.06
468.488	526.06
468.707	534.06
468.927	540.06
469.146	526.06
469.365	531.06
469.585	537.06
469.804	557.06
470.023	580.06
470.243	539.06
470.462	569.06
470.681	568.06
470.901	570.06
471.12	567.06
471.339	564.06
471.558	562.06
471.777	555.06
471.997	546.06
472.216	572.06
472.435	562.06
472.654	570.06
472.873	570.06
473.092	553.06
473.311	536.06
473.53	537.06
473.749	554.06
473.968	609.06
474.187	695.06
474.406	706.06
474.625	618.06
474.844	556.06
475.063	552.06
475.282	545.06
475.501	562.06
475.72	565.06
475.939	572.06
476.158	580.06
476.377	558.06
476.596	556.06
476.814	584.06
477.033	574.06
477.252	547.06
477.471	585.06
477.69	603.06
477.908	601.06
478.127	621.06
478.346	594.06
478.564	617.06
478.783	620.06
479.002	651.06
479.22	636.06
479.439	673.06
479.658	678.06
479.876	677.06
480.095	648.06
480.313	694.06
480.532	692.06
480.751	701.06
480.969	684.06
481.188	723.06
481.406	732.06
481.624	700.06
481.843	673.06
482.061	661.06
482.28	665.06
482.498	657.06
482.717	651.06
482.935	632.06
483.153	630.06
483.372	660.06
483.59	666.06
483.808	632.06
484.027	644.06
484.245	654.06
484.463	630.06
484.681	658.06
484.9	636.06
485.118	640.06
485.336	661.06
485.554	646.06
485.772	646.06
485.99	673.06
486.209	670.06
486.427	674.06
486.645	692.06
486.863	690.06
487.081	685.06
487.299	684.06
487.517	698.06
487.735	666.06
487.953	671.06
488.171	700.06
488.389	695.06
488.607	702.06
488.825	691.06
489.043	698.06
489.261	677.06
489.479	691.06
489.696	716.06
489.914	696.06
490.132	720.06
490.35	723.06
490.568	746.06
490.786	730.06
491.003	750.06
491.221	771.06
491.439	757.06
491.657	775.06
491.874	772.06
492.092	779.06
492.31	806.06
492.527	780.06
492.745	818.06
492.963	806.06
493.18	809.06
493.398	790.06
493.615	795.06
493.833	822.06
494.05	819.06
494.268	812.06
494.485	809.06
494.703	826.06
494.92	827.06
495.138	818.06
495.355	826.06
495.573	813.06
495.79	817.06
496.008	807.06
496.225	840.06
496.442	827.06
496.66	828.06
496.877	846.06
497.094	812.06
497.312	854.06
497.529	853.06
497.746	874.06
497.963	883.06
498.181	890.06
498.398	917.06
498.615	920.06
498.832	944.06
499.049	987.06
499.267	1008.06
499.484	1061.06
499.701	1121.06
499.918	1138.06
500.135	1165.06
500.352	1305.06
500.569	1321.06
500.786	1301.06
501.003	1298.06
501.22	1206.06
501.437	1170.06
501.654	1138.06
501.871	1091.06
502.088	1028.06
502.305	997.06
502.522	927.06
502.739	955.06
502.956	912.06
503.172	907.06
503.389	886.06
503.606	877.06
503.823	842.06
504.04	863.06
504.256	811.06
504.473	849.06
504.69	845.06
504.907	827.06
505.123	800.06
505.34	790.06
505.557	797.06
505.773	781.06
505.99	785.06
506.207	760.06
506.423	769.06
506.64	769.06
506.856	783.06
507.073	740.06
507.289	744.06
507.506	735.06
507.722	744.06
507.939	766.06
508.155	761.06
508.372	696.06
508.588	716.06
508.805	728.06
509.021	727.06
509.238	739.06
509.454	734.06
509.67	747.06
509.887	707.06
510.103	714.06
510.319	721.06
510.536	782.06
510.752	1184.06
510.968	989.06
511.184	717.06
511.401	690.06
511.617	683.06
511.833	692.06
512.049	679.06
512.265	708.06
512.481	685.06
512.698	678.06
512.914	671.06
513.13	681.06
513.346	678.06
513.562	695.06
513.778	661.06
513.994	680.06
514.21	678.06
514.426	709.06
514.642	714.06
514.858	762.06
515.074	781.06
515.29	866.06
515.506	1124.06
515.721	1012.06
515.937	774.06
516.153	745.06
516.369	716.06
516.585	713.06
516.801	710.06
517.016	710.06
517.232	712.06
517.448	701.06
517.664	734.06
517.879	733.06
518.095	700.06
518.311	736.06
518.527	717.06
518.742	694.06
518.958	691.06
519.173	696.06
519.389	679.06
519.605	688.06
519.82	680.06
520.036	658.06
520.251	722.06
520.467	721.06
520.682	732.06
520.898	698.06
521.113	713.06
521.329	757.06
521.544	796.06
521.76	938.06
521.975	1417.06
522.19	1412.06
522.406	894.06
522.621	717.06
522.836	666.06
523.052	638.06
523.267	669.06
523.482	627.06
523.698	612.06
523.913	626.06
524.128	596.06
524.343	601.06
524.559	603.06
524.774	562.06
524.989	582.06
525.204	580.06
525.419	600.06
525.634	587.06
525.849	588.06
526.064	580.06
526.28	589.06
526.495	580.06
526.71	544.06
526.925	575.06
527.14	557.06
527.355	573.06
527.57	558.06
527.785	563.06
527.999	537.06
528.214	541.06
528.429	571.06
528.644	569.06
528.859	554.06
529.074	581.06
529.289	585.06
529.503	630.06
529.718	627.06
529.933	599.06
530.148	576.06
530.363	551.06
530.577	555.06
530.792	549.06
531.007	547.06
531.221	554.06
531.436	551.06
531.651	542.06
531.865	545.06
532.08	542.06
532.295	552.06
532.509	554.06
532.724	545.06
532.938	530.06
533.153	554.06
533.367	561.06
533.582	540.06
533.796	537.06
534.011	561.06
534.225	554.06
534.44	541.06
534.654	537.06
534.868	536.06
535.083	554.06
535.297	522.06
535.511	546.06
535.726	540.06
535.94	544.06
536.154	566.06
536.369	525.06
536.583	513.06
536.797	510.06
537.011	529.06
537.225	498.06
537.44	515.06
537.654	516.06
537.868	520.06
538.082	521.06
538.296	513.06
538.51	519.06
538.724	514.06
538.938	489.06
539.153	517.06
539.367	538.06
539.581	519.06
539.795	518.06
540.009	503.06
540.222	511.06
540.436	530.06
540.65	534.06
540.864	521.06
541.078	568.06
541.292	540.06
541.506	538.06
541.72	529.06
541.934	521.06
542.147	538.06
542.361	505.06
542.575	510.06
542.789	501.06
543.002	531.06
543.216	520.06
543.43	521.06
543.644	535.06
543.857	531.06
544.071	516.06
544.285	552.06
544.498	515.06
544.712	531.06
544.925	526.06
545.139	520.06
545.352	486.06
545.566	514.06
545.779	500.06
545.993	519.06
546.206	530.06
546.42	526.06
546.633	531.06
546.847	493.06
547.06	506.06
547.274	520.06
547.487	497.06
547.7	521.06
547.914	520.06
548.127	516.06
548.34	527.06
548.554	491.06
548.767	514.06
548.98	504.06
549.193	508.06
549.407	499.06
549.62	516.06
549.833	514.06
550.046	524.06
550.259	532.06
550.473	506.06
550.686	517.06
550.899	502.06
551.112	498.06
551.325	506.06
551.538	515.06
551.751	494.06
551.964	497.06
552.177	497.06
552.39	509.06
552.603	526.06
552.816	489.06
553.029	516.06
553.242	516.06
553.455	546.06
553.667	513.06
553.88	540.06
554.093	529.06
554.306	502.06
554.519	507.06
554.732	508.06
554.944	480.06
555.157	474.06
555.37	477.06
555.583	472.06
555.795	485.06
556.008	463.06
556.221	467.06
556.433	465.06
556.646	484.06
556.859	467.06
557.071	482.06
557.284	457.06
557.496	468.06
557.709	458.06
557.921	451.06
558.134	452.06
558.346	437.06
558.559	449.06
558.771	449.06
558.984	460.06
559.196	443.06
559.409	456.06
559.621	453.06
559.833	440.06
560.046	435.06
560.258	429.06
560.47	452.06
560.683	453.06
560.895	453.06
561.107	439.06
561.32	453.06
561.532	450.06
561.744	440.06
561.956	434.06
562.168	443.06
562.381	466.06
562.593	449.06
562.805	446.06
563.017	457.06
563.229	462.06
563.441	458.06
563.653	455.06
563.865	439.06
564.077	449.06
564.289	438.06
564.501	481.06
564.713	457.06
564.925	486.06
565.137	505.06
565.349	496.06
565.561	490.06
565.773	503.06
565.985	505.06
566.197	549.06
566.408	536.06
566.62	568.06
566.832	576.06
567.044	591.06
567.255	598.06
567.467	596.06
567.679	602.06
567.891	640.06
568.102	613.06
568.314	636.06
568.526	588.06
568.737	564.06
568.949	534.06
569.161	522.06
569.372	504.06
569.584	469.06
569.795	466.06
570.007	462.06
570.218	483.06
570.43	482.06
570.641	444.06
570.853	445.06
571.064	450.06
571.276	427.06
571.487	442.06
571.698	435.06
571.91	420.06
572.121	427.06
572.333	424.06
572.544	393.06
572.755	383.06
572.966	392.06
573.178	401.06
573.389	393.06
573.6	400.06
573.811	376.06
574.023	385.06
574.234	394.06
574.445	384.06
574.656	354.06
574.867	381.06
575.078	384.06
575.289	370.06
575.501	387.06
575.712	375.06
575.923	364.06
576.134	381.06
576.345	362.06
576.556	386.06
576.767	357.06
576.978	363.06
577.188	360.06
577.399	368.06
577.61	358.06
577.821	358.06
578.032	378.06
578.243	406.06
578.454	540.06
578.665	461.06
578.875	368.06
579.086	354.06
579.297	349.06
579.508	361.06
579.718	349.06
579.929	354.06
580.14	344.06
580.35	338.06
580.561	353.06
580.772	331.06
580.982	347.06
581.193	359.06
581.403	356.06
581.614	354.06
581.825	329.06
582.035	332.06
582.246	370.06
582.456	332.06
582.667	346.06
582.877	344.06
583.087	332.06
583.298	339.06
583.508	324.06
583.719	333.06
583.929	328.06
584.139	340.06
584.35	328.06
584.56	357.06
584.77	318.06
584.981	333.06
585.191	331.06
585.401	334.06
585.611	331.06
585.821	332.06
586.032	348.06
586.242	336.06
586.452	338.06
586.662	321.06
586.872	331.06
587.082	324.06
587.292	326.06
587.502	339.06
587.713	318.06
587.923	339.06
588.133	334.06
588.343	326.06
588.553	339.06
588.762	318.06
588.972	328.06
589.182	335.06
589.392	317.06
589.602	327.06
589.812	345.06
590.022	314.06
590.232	324.06
590.441	330.06
590.651	338.06
590.861	318.06
591.071	322.06
591.281	339.06
591.49	343.06
591.7	339.06
591.91	368.06
592.119	336.06
592.329	340.06
592.539	362.06
592.748	340.06
592.958	371.06
593.167	348.06
593.377	365.06
593.587	362.06
593.796	375.06
594.006	379.06
594.215	350.06
594.424	360.06
594.634	353.06
594.843	348.06
595.053	355.06
595.262	364.06
595.472	352.06
595.681	348.06
595.89	313.06
596.1	309.06
596.309	324.06
596.518	326.06
596.727	313.06
596.937	314.06
597.146	306.06
597.355	287.06
597.564	304.06
597.774	305.06
597.983	317.06
598.192	284.06
598.401	302.06
598.61	296.06
598.819	323.06
599.028	306.06
599.237	288.06
599.446	284.06
599.655	293.06
599.864	280.06
600.073	297.06
600.282	288.06
600.491	292.06
600.7	294.06
600.909	293.06
601.118	307.06
601.327	288.06
601.536	293.06
601.745	293.06
601.953	281.06
602.162	301.06
602.371	282.06
602.58	281.06
602.789	277.06
602.997	299.06
603.206	308.06
603.415	272.06
603.623	279.06
603.832	264.06
604.041	283.06
604.249	283.06
604.458	269.06
604.666	261.06
604.875	280.06
605.084	274.06
605.292	271.06
605.501	271.06
605.709	282.06
605.918	278.06
606.126	280.06
606.334	253.06
606.543	266.06
606.751	276.06
606.96	284.06
607.168	261.06
607.376	260.06
607.585	262.06
607.793	282.06
608.001	264.06
608.21	286.06
608.418	269.06
608.626	255.06
608.834	265.06
609.043	270.06
609.251	289.06
609.459	290.06
609.667	267.06
609.875	257.06
610.083	269.06
610.291	261.06
610.499	279.06
610.707	272.06
610.916	284.06
611.124	274.06
611.332	294.06
611.54	278.06
611.748	267.06
611.955	295.06
612.163	284.06
612.371	268.06
612.579	277.06
612.787	278.06
612.995	253.06
613.203	282.06
613.411	272.06
613.618	286.06
613.826	265.06
614.034	261.06
614.242	274.06
614.449	262.06
614.657	280.06
614.865	257.06
615.072	272.06
615.28	269.06
615.488	270.06
615.695	263.06
615.903	277.06
616.111	256.06
616.318	288.06
616.526	263.06
616.733	264.06
616.941	254.06
617.148	260.06
617.356	275.06
617.563	272.06
617.771	266.06
617.978	272.06
618.185	261.06
618.393	251.06
618.6	289.06
618.807	262.06
619.015	272.06
619.222	244.06
619.429	257.06
619.637	267.06
619.844	261.06
620.051	235.06
620.258	270.06
620.466	268.06
620.673	241.06
620.88	241.06
621.087	257.06
621.294	237.06
621.501	263.06
621.708	234.06
621.915	230.06
622.122	248.06
622.329	268.06
622.536	263.06
622.743	234.06
622.95	242.06
623.157	236.06
623.364	260.06
623.571	243.06
623.778	252.06
623.985	232.06
624.192	237.06
624.399	226.06
624.606	230.06
624.812	233.06
625.019	264.06
625.226	256.06
625.433	253.06
625.639	243.06
625.846	229.06
626.053	226.06
626.259	215.06
626.466	234.06
626.673	217.06
626.879	224.06
627.086	226.06
627.293	221.06
627.499	236.06
627.706	236.06
627.912	221.06
628.119	230.06
628.325	243.06
628.532	220.06
628.738	218.06
628.945	218.06
629.151	214.06
629.357	229.06
629.564	228.06
629.77	228.06
629.976	217.06
630.183	202.06
630.389	214.06
630.595	226.06
630.802	215.06
631.008	216.06
631.214	216.06
631.42	220.06
631.627	199.06
631.833	209.06
632.039	210.06
632.245	213.06
632.451	225.06
632.657	217.06
632.863	208.06
633.069	220.06
633.275	221.06
633.481	204.06
633.688	200.06
633.893	212.06
634.099	203.06
634.305	199.06
634.511	197.06
634.717	213.06
634.923	207.06
635.129	208.06
635.335	202.06
635.541	200.06
635.747	203.06
635.952	207.06
636.158	189.06
636.364	197.06
636.57	204.06
636.775	217.06
636.981	208.06
637.187	208.06
637.392	179.06
637.598	193.06
637.804	203.06
638.009	187.06
638.215	205.06
638.421	199.06
638.626	198.06
638.832	192.06
639.037	190.06
639.243	205.06
639.448	183.06
639.654	192.06
639.859	186.06
640.065	186.06
640.27	198.06
640.475	200.06
640.681	206.06
640.886	203.06
641.091	203.06
641.297	204.06
641.502	203.06
641.707	186.06
641.913	201.06
642.118	188.06
642.323	202.06
642.528	210.06
642.733	188.06
642.939	190.06
643.144	187.06
643.349	179.06
643.554	176.06
643.759	182.06
643.964	202.06
644.169	168.06
644.374	180.06
644.579	176.06
644.784	179.06
644.989	177.06
645.194	184.06
645.399	184.06
645.604	170.06
645.809	197.06
646.014	188.06
646.219	178.06
646.423	172.06
646.628	180.06
646.833	184.06
647.038	185.06
647.243	181.06
647.447	170.06
647.652	194.06
647.857	178.06
648.062	169.06
648.266	197.06
648.471	200.06
648.676	201.06
648.88	188.06
649.085	173.06
649.289	192.06
649.494	197.06
649.698	217.06
649.903	216.06
650.107	183.06
650.312	186.06
650.516	174.06
650.721	160.06
650.925	168.06
651.13	184.06
651.334	168.06
651.539	172.06
651.743	173.06
651.947	164.06
652.152	161.06
652.356	168.06
652.56	162.06
652.764	161.06
652.969	158.06
653.173	159.06
653.377	158.06
653.581	150.06
653.785	139.06
653.99	148.06
654.194	161.06
654.398	149.06
654.602	148.06
654.806	148.06
655.01	136.06
655.214	145.06
655.418	146.06
655.622	142.06
655.826	142.06
656.03	154.06
656.234	137.06
656.438	145.06
656.642	163.06
656.846	123.06
657.049	132.06
657.253	126.06
657.457	121.06
657.661	132.06
657.865	130.06
658.068	129.06
658.272	125.06
658.476	109.06
658.68	110.06
658.883	88.06
659.087	104.06
659.291	102.06
659.494	97.06
659.698	105.06
659.901	104.06
660.105	93.06
660.309	109.06
660.512	91.06
660.716	90.06
660.919	100.06
661.123	85.06
661.326	96.06
661.53	104.06
661.733	83.06
661.936	82.06
662.14	83.06
662.343	84.06
662.546	83.06
662.75	85.06
662.953	84.06
663.156	92.06
663.36	85.06
663.563	84.06
663.766	81.06
663.969	99.06
664.173	83.06
664.376	80.06
664.579	85.06
664.782	80.06
664.985	76.06
665.188	82.06
665.391	88.06
665.594	86.06
665.797	88.06
666	84.06
666.203	96.06
666.406	90.06
666.609	72.06
666.812	75.06
667.015	82.06
667.218	84.06
667.421	85.06
667.624	77.06
667.827	91.06
668.03	75.06
668.232	83.06
668.435	79.06
668.638	84.06
668.841	91.06
669.043	80.06
669.246	76.06
669.449	85.06
669.651	89.06
669.854	78.06
670.057	93.06
670.259	78.06
670.462	88.06
670.665	75.06
670.867	81.06
671.07	76.06
671.272	89.06
671.475	82.06
671.677	85.06
671.88	74.06
672.082	81.06
672.284	72.06
672.487	61.06
672.689	77.06
672.892	70.06
