Data from 1974.PennyLincolnUp.Lamp.En5.5.200Scan.071719.P1.Changed Mount._HRD10591_15-51-17-856.txt Node
Date: Thu Jul 18 15:51:17 EDT 2019
User: cochatt
Spectrometer: HR+D1059
Trigger mode: 1
Integration Time (sec): 1.000000E-1
Scans to average: 1
Electric dark correction enabled: true
Nonlinearity correction enabled: false
Boxcar width: 0
XAxis mode: Wavelengths
Number of Pixels in Spectrum: 2048
>>>>>Begin Spectral Data<<<<<
223.165	-19.31
223.4	-19.31
223.635	-19.31
223.869	-17.31
224.104	-14.31
224.338	-21.31
224.573	-28.31
224.808	-12.31
225.042	-2.31
225.277	-8.31
225.511	-1.31
225.746	12.69
225.98	8.69
226.215	4.69
226.449	19.69
226.683	26.69
226.918	25.69
227.152	26.69
227.387	31.69
227.621	46.69
227.856	39.69
228.09	36.69
228.324	35.69
228.559	33.69
228.793	64.69
229.027	72.69
229.262	106.69
229.496	92.69
229.73	128.69
229.964	133.69
230.199	100.69
230.433	118.69
230.667	100.69
230.901	111.69
231.136	91.69
231.37	109.69
231.604	122.69
231.838	116.69
232.072	114.69
232.306	104.69
232.541	122.69
232.775	115.69
233.009	113.69
233.243	135.69
233.477	103.69
233.711	116.69
233.945	112.69
234.179	107.69
234.413	113.69
234.647	126.69
234.881	114.69
235.115	121.69
235.349	115.69
235.583	128.69
235.817	132.69
236.051	127.69
236.285	114.69
236.519	122.69
236.753	122.69
236.987	138.69
237.221	172.69
237.455	194.69
237.689	168.69
237.922	134.69
238.156	141.69
238.39	131.69
238.624	136.69
238.858	134.69
239.091	131.69
239.325	124.69
239.559	126.69
239.793	131.69
240.027	138.69
240.26	119.69
240.494	154.69
240.728	147.69
240.961	145.69
241.195	141.69
241.429	138.69
241.662	137.69
241.896	141.69
242.13	133.69
242.363	128.69
242.597	141.69
242.83	142.69
243.064	132.69
243.298	132.69
243.531	132.69
243.765	139.69
243.998	150.69
244.232	138.69
244.465	127.69
244.699	128.69
244.932	156.69
245.166	142.69
245.399	155.69
245.633	138.69
245.866	162.69
246.099	143.69
246.333	141.69
246.566	158.69
246.8	155.69
247.033	158.69
247.266	155.69
247.5	167.69
247.733	172.69
247.966	183.69
248.2	173.69
248.433	180.69
248.666	171.69
248.899	186.69
249.133	203.69
249.366	197.69
249.599	197.69
249.832	186.69
250.066	160.69
250.299	177.69
250.532	190.69
250.765	188.69
250.998	205.69
251.231	207.69
251.465	211.69
251.698	182.69
251.931	194.69
252.164	179.69
252.397	184.69
252.63	195.69
252.863	198.69
253.096	202.69
253.329	206.69
253.562	206.69
253.795	199.69
254.028	213.69
254.261	216.69
254.494	197.69
254.727	232.69
254.96	237.69
255.193	238.69
255.426	228.69
255.659	223.69
255.892	229.69
256.124	218.69
256.357	219.69
256.59	208.69
256.823	203.69
257.056	219.69
257.289	212.69
257.521	217.69
257.754	224.69
257.987	197.69
258.22	212.69
258.452	179.69
258.685	202.69
258.918	203.69
259.151	211.69
259.383	197.69
259.616	214.69
259.849	218.69
260.081	211.69
260.314	242.69
260.547	229.69
260.779	226.69
261.012	222.69
261.244	222.69
261.477	213.69
261.71	220.69
261.942	203.69
262.175	207.69
262.407	202.69
262.64	211.69
262.872	205.69
263.105	203.69
263.337	203.69
263.57	216.69
263.802	192.69
264.035	212.69
264.267	218.69
264.499	205.69
264.732	210.69
264.964	208.69
265.197	202.69
265.429	213.69
265.661	220.69
265.894	220.69
266.126	214.69
266.358	229.69
266.591	233.69
266.823	233.69
267.055	220.69
267.287	206.69
267.52	222.69
267.752	214.69
267.984	225.69
268.216	234.69
268.448	224.69
268.681	215.69
268.913	241.69
269.145	247.69
269.377	256.69
269.609	245.69
269.841	251.69
270.073	261.69
270.306	278.69
270.538	290.69
270.77	286.69
271.002	286.69
271.234	259.69
271.466	269.69
271.698	290.69
271.93	274.69
272.162	279.69
272.394	291.69
272.626	288.69
272.858	261.69
273.09	246.69
273.322	249.69
273.553	278.69
273.785	247.69
274.017	247.69
274.249	238.69
274.481	247.69
274.713	234.69
274.945	263.69
275.176	248.69
275.408	266.69
275.64	247.69
275.872	251.69
276.104	258.69
276.335	256.69
276.567	242.69
276.799	274.69
277.031	282.69
277.262	293.69
277.494	297.69
277.726	292.69
277.957	272.69
278.189	271.69
278.421	277.69
278.652	257.69
278.884	252.69
279.115	231.69
279.347	268.69
279.579	278.69
279.81	264.69
280.042	242.69
280.273	260.69
280.505	266.69
280.736	251.69
280.968	258.69
281.199	271.69
281.431	272.69
281.662	272.69
281.894	259.69
282.125	274.69
282.356	285.69
282.588	298.69
282.819	276.69
283.051	293.69
283.282	250.69
283.513	243.69
283.745	277.69
283.976	269.69
284.207	270.69
284.439	264.69
284.67	286.69
284.901	264.69
285.132	289.69
285.364	269.69
285.595	286.69
285.826	266.69
286.057	271.69
286.288	273.69
286.52	271.69
286.751	272.69
286.982	298.69
287.213	271.69
287.444	282.69
287.675	270.69
287.906	276.69
288.138	309.69
288.369	296.69
288.6	299.69
288.831	301.69
289.062	282.69
289.293	276.69
289.524	280.69
289.755	285.69
289.986	300.69
290.217	286.69
290.448	280.69
290.679	293.69
290.91	287.69
291.141	286.69
291.371	283.69
291.602	289.69
291.833	294.69
292.064	295.69
292.295	316.69
292.526	284.69
292.757	282.69
292.987	281.69
293.218	269.69
293.449	308.69
293.68	277.69
293.91	277.69
294.141	274.69
294.372	284.69
294.603	285.69
294.833	290.69
295.064	280.69
295.295	294.69
295.525	282.69
295.756	286.69
295.987	283.69
296.217	301.69
296.448	325.69
296.679	306.69
296.909	280.69
297.14	297.69
297.37	297.69
297.601	310.69
297.831	291.69
298.062	283.69
298.292	314.69
298.523	298.69
298.753	290.69
298.984	306.69
299.214	311.69
299.445	306.69
299.675	310.69
299.905	293.69
300.136	320.69
300.366	304.69
300.597	290.69
300.827	318.69
301.057	330.69
301.288	319.69
301.518	327.69
301.748	318.69
301.979	318.69
302.209	308.69
302.439	314.69
302.669	317.69
302.9	310.69
303.13	322.69
303.36	319.69
303.59	324.69
303.82	324.69
304.051	325.69
304.281	308.69
304.511	316.69
304.741	332.69
304.971	340.69
305.201	319.69
305.431	338.69
305.661	322.69
305.891	326.69
306.121	308.69
306.352	341.69
306.582	335.69
306.812	315.69
307.042	334.69
307.272	329.69
307.502	320.69
307.731	331.69
307.961	339.69
308.191	333.69
308.421	329.69
308.651	341.69
308.881	318.69
309.111	330.69
309.341	339.69
309.571	326.69
309.8	349.69
310.03	320.69
310.26	334.69
310.49	346.69
310.72	355.69
310.949	348.69
311.179	357.69
311.409	362.69
311.639	340.69
311.868	360.69
312.098	362.69
312.328	356.69
312.557	342.69
312.787	375.69
313.017	397.69
313.246	354.69
313.476	354.69
313.706	374.69
313.935	351.69
314.165	368.69
314.394	356.69
314.624	371.69
314.853	365.69
315.083	354.69
315.312	361.69
315.542	371.69
315.771	368.69
316.001	353.69
316.23	359.69
316.46	371.69
316.689	359.69
316.919	338.69
317.148	380.69
317.377	367.69
317.607	370.69
317.836	367.69
318.065	370.69
318.295	347.69
318.524	360.69
318.753	360.69
318.983	366.69
319.212	367.69
319.441	380.69
319.67	355.69
319.9	342.69
320.129	366.69
320.358	363.69
320.587	364.69
320.816	377.69
321.046	378.69
321.275	364.69
321.504	349.69
321.733	374.69
321.962	380.69
322.191	388.69
322.42	377.69
322.649	398.69
322.878	406.69
323.108	406.69
323.337	407.69
323.566	415.69
323.795	436.69
324.024	459.69
324.253	504.69
324.482	662.69
324.71	990.69
324.939	1472.69
325.168	1272.69
325.397	661.69
325.626	491.69
325.855	440.69
326.084	424.69
326.313	401.69
326.542	408.69
326.77	448.69
326.999	529.69
327.228	606.69
327.457	908.69
327.686	1102.69
327.914	763.69
328.143	544.69
328.372	477.69
328.6	483.69
328.829	456.69
329.058	470.69
329.287	454.69
329.515	460.69
329.744	457.69
329.972	420.69
330.201	444.69
330.43	447.69
330.658	474.69
330.887	500.69
331.115	487.69
331.344	442.69
331.572	418.69
331.801	448.69
332.03	451.69
332.258	430.69
332.486	434.69
332.715	419.69
332.943	434.69
333.172	436.69
333.4	457.69
333.629	455.69
333.857	454.69
334.085	457.69
334.314	451.69
334.542	476.69
334.771	479.69
334.999	481.69
335.227	465.69
335.455	458.69
335.684	437.69
335.912	430.69
336.14	441.69
336.369	437.69
336.597	436.69
336.825	443.69
337.053	434.69
337.281	410.69
337.51	408.69
337.738	428.69
337.966	430.69
338.194	451.69
338.422	414.69
338.65	415.69
338.878	419.69
339.106	402.69
339.334	414.69
339.562	421.69
339.79	424.69
340.018	424.69
340.246	420.69
340.474	406.69
340.702	393.69
340.93	411.69
341.158	402.69
341.386	432.69
341.614	427.69
341.842	424.69
342.07	390.69
342.298	387.69
342.526	395.69
342.754	410.69
342.981	398.69
343.209	405.69
343.437	415.69
343.665	417.69
343.893	444.69
344.12	440.69
344.348	426.69
344.576	414.69
344.804	421.69
345.031	438.69
345.259	415.69
345.487	420.69
345.714	408.69
345.942	406.69
346.17	424.69
346.397	412.69
346.625	400.69
346.853	405.69
347.08	392.69
347.308	406.69
347.535	394.69
347.763	408.69
347.99	416.69
348.218	413.69
348.445	424.69
348.673	414.69
348.9	407.69
349.128	393.69
349.355	395.69
349.583	381.69
349.81	387.69
350.037	396.69
350.265	391.69
350.492	391.69
350.72	386.69
350.947	395.69
351.174	418.69
351.402	376.69
351.629	376.69
351.856	398.69
352.083	400.69
352.311	421.69
352.538	412.69
352.765	415.69
352.992	425.69
353.22	396.69
353.447	379.69
353.674	397.69
353.901	392.69
354.128	389.69
354.355	391.69
354.583	406.69
354.81	386.69
355.037	407.69
355.264	382.69
355.491	380.69
355.718	396.69
355.945	386.69
356.172	391.69
356.399	389.69
356.626	379.69
356.853	396.69
357.08	389.69
357.307	392.69
357.534	388.69
357.761	395.69
357.988	405.69
358.215	398.69
358.441	400.69
358.668	401.69
358.895	401.69
359.122	411.69
359.349	382.69
359.576	407.69
359.802	421.69
360.029	411.69
360.256	430.69
360.483	421.69
360.709	379.69
360.936	400.69
361.163	407.69
361.39	404.69
361.616	403.69
361.843	411.69
362.07	395.69
362.296	414.69
362.523	408.69
362.749	388.69
362.976	391.69
363.203	411.69
363.429	411.69
363.656	400.69
363.882	395.69
364.109	393.69
364.335	418.69
364.562	397.69
364.788	400.69
365.015	395.69
365.241	409.69
365.468	383.69
365.694	383.69
365.92	411.69
366.147	401.69
366.373	386.69
366.599	391.69
366.826	397.69
367.052	429.69
367.278	389.69
367.505	405.69
367.731	390.69
367.957	404.69
368.184	397.69
368.41	379.69
368.636	408.69
368.862	425.69
369.089	381.69
369.315	396.69
369.541	429.69
369.767	398.69
369.993	403.69
370.219	396.69
370.445	391.69
370.672	400.69
370.898	413.69
371.124	384.69
371.35	406.69
371.576	426.69
371.802	420.69
372.028	394.69
372.254	429.69
372.48	415.69
372.706	440.69
372.932	425.69
373.158	412.69
373.384	405.69
373.61	400.69
373.835	428.69
374.061	415.69
374.287	425.69
374.513	427.69
374.739	413.69
374.965	423.69
375.191	410.69
375.416	428.69
375.642	429.69
375.868	415.69
376.094	412.69
376.319	414.69
376.545	408.69
376.771	405.69
376.997	412.69
377.222	423.69
377.448	400.69
377.674	392.69
377.899	416.69
378.125	413.69
378.35	418.69
378.576	419.69
378.802	431.69
379.027	426.69
379.253	411.69
379.478	410.69
379.704	414.69
379.929	404.69
380.155	416.69
380.38	410.69
380.606	423.69
380.831	428.69
381.057	420.69
381.282	414.69
381.507	435.69
381.733	434.69
381.958	421.69
382.184	430.69
382.409	415.69
382.634	415.69
382.86	442.69
383.085	425.69
383.31	419.69
383.535	420.69
383.761	441.69
383.986	431.69
384.211	446.69
384.436	443.69
384.662	451.69
384.887	454.69
385.112	468.69
385.337	463.69
385.562	456.69
385.787	473.69
386.013	480.69
386.238	465.69
386.463	468.69
386.688	490.69
386.913	456.69
387.138	463.69
387.363	475.69
387.588	456.69
387.813	464.69
388.038	474.69
388.263	472.69
388.488	475.69
388.713	468.69
388.938	462.69
389.163	457.69
389.387	458.69
389.612	468.69
389.837	472.69
390.062	466.69
390.287	474.69
390.512	446.69
390.736	445.69
390.961	471.69
391.186	460.69
391.411	453.69
391.636	470.69
391.86	476.69
392.085	458.69
392.31	470.69
392.534	468.69
392.759	488.69
392.984	465.69
393.208	472.69
393.433	472.69
393.658	488.69
393.882	458.69
394.107	478.69
394.331	491.69
394.556	494.69
394.78	482.69
395.005	483.69
395.229	476.69
395.454	500.69
395.678	483.69
395.903	474.69
396.127	517.69
396.352	482.69
396.576	494.69
396.801	485.69
397.025	468.69
397.249	493.69
397.474	486.69
397.698	490.69
397.922	522.69
398.147	515.69
398.371	524.69
398.595	532.69
398.82	521.69
399.044	543.69
399.268	574.69
399.492	591.69
399.717	636.69
399.941	680.69
400.165	670.69
400.389	653.69
400.613	620.69
400.837	561.69
401.062	536.69
401.286	536.69
401.51	537.69
401.734	555.69
401.958	535.69
402.182	535.69
402.406	533.69
402.63	543.69
402.854	546.69
403.078	549.69
403.302	546.69
403.526	567.69
403.75	566.69
403.974	568.69
404.198	547.69
404.422	578.69
404.645	580.69
404.869	585.69
405.093	586.69
405.317	644.69
405.541	662.69
405.765	603.69
405.988	590.69
406.212	587.69
406.436	604.69
406.66	596.69
406.883	601.69
407.107	630.69
407.331	660.69
407.555	718.69
407.778	737.69
408.002	680.69
408.226	650.69
408.449	621.69
408.673	619.69
408.896	643.69
409.12	672.69
409.344	661.69
409.567	576.69
409.791	575.69
410.014	584.69
410.238	567.69
410.461	554.69
410.685	548.69
410.908	577.69
411.132	625.69
411.355	638.69
411.578	631.69
411.802	571.69
412.025	568.69
412.249	562.69
412.472	567.69
412.695	623.69
412.919	591.69
413.142	550.69
413.365	567.69
413.589	554.69
413.812	532.69
414.035	541.69
414.258	530.69
414.482	538.69
414.705	527.69
414.928	534.69
415.151	522.69
415.374	522.69
415.597	524.69
415.821	517.69
416.044	534.69
416.267	516.69
416.49	509.69
416.713	518.69
416.936	528.69
417.159	528.69
417.382	531.69
417.605	527.69
417.828	540.69
418.051	560.69
418.274	568.69
418.497	554.69
418.72	559.69
418.943	535.69
419.166	538.69
419.389	587.69
419.611	586.69
419.834	611.69
420.057	546.69
420.28	558.69
420.503	559.69
420.726	554.69
420.948	571.69
421.171	612.69
421.394	615.69
421.617	542.69
421.839	536.69
422.062	528.69
422.285	576.69
422.507	620.69
422.73	674.69
422.953	653.69
423.175	578.69
423.398	569.69
423.621	575.69
423.843	574.69
424.066	583.69
424.288	586.69
424.511	595.69
424.733	664.69
424.956	728.69
425.178	679.69
425.401	678.69
425.623	696.69
425.846	607.69
426.068	579.69
426.291	571.69
426.513	564.69
426.735	562.69
426.958	591.69
427.18	712.69
427.402	784.69
427.625	886.69
427.847	717.69
428.069	646.69
428.292	594.69
428.514	568.69
428.736	564.69
428.958	529.69
429.181	542.69
429.403	522.69
429.625	530.69
429.847	566.69
430.069	638.69
430.292	602.69
430.514	566.69
430.736	539.69
430.958	520.69
431.18	506.69
431.402	508.69
431.624	494.69
431.846	495.69
432.068	492.69
432.29	499.69
432.512	504.69
432.734	506.69
432.956	503.69
433.178	526.69
433.4	530.69
433.622	525.69
433.844	522.69
434.066	494.69
434.287	512.69
434.509	523.69
434.731	535.69
434.953	524.69
435.175	555.69
435.397	562.69
435.618	570.69
435.84	583.69
436.062	696.69
436.284	764.69
436.505	606.69
436.727	581.69
436.949	543.69
437.17	532.69
437.392	538.69
437.614	547.69
437.835	536.69
438.057	644.69
438.278	715.69
438.5	700.69
438.721	830.69
438.943	767.69
439.165	622.69
439.386	570.69
439.608	539.69
439.829	561.69
440.05	584.69
440.272	612.69
440.493	594.69
440.715	543.69
440.936	559.69
441.158	543.69
441.379	529.69
441.6	564.69
441.822	557.69
442.043	597.69
442.264	683.69
442.486	700.69
442.707	618.69
442.928	570.69
443.149	606.69
443.371	604.69
443.592	635.69
443.813	716.69
444.034	811.69
444.255	656.69
444.476	607.69
444.698	611.69
444.919	596.69
445.14	719.69
445.361	664.69
445.582	611.69
445.803	658.69
446.024	757.69
446.245	748.69
446.466	699.69
446.687	583.69
446.908	555.69
447.129	568.69
447.35	547.69
447.571	564.69
447.792	519.69
448.013	544.69
448.234	565.69
448.455	574.69
448.675	684.69
448.896	788.69
449.117	686.69
449.338	606.69
449.559	718.69
449.779	877.69
450	660.69
450.221	559.69
450.442	512.69
450.662	519.69
450.883	515.69
451.104	491.69
451.324	503.69
451.545	502.69
451.766	471.69
451.986	484.69
452.207	467.69
452.428	488.69
452.648	494.69
452.869	462.69
453.089	469.69
453.31	494.69
453.53	459.69
453.751	467.69
453.971	448.69
454.192	468.69
454.412	473.69
454.633	473.69
454.853	471.69
455.073	474.69
455.294	494.69
455.514	551.69
455.734	528.69
455.955	467.69
456.175	428.69
456.395	440.69
456.616	460.69
456.836	421.69
457.056	429.69
457.276	455.69
457.497	452.69
457.717	443.69
457.937	440.69
458.157	472.69
458.377	451.69
458.598	462.69
458.818	516.69
459.038	569.69
459.258	606.69
459.478	528.69
459.698	523.69
459.918	513.69
460.138	524.69
460.358	520.69
460.578	532.69
460.798	557.69
461.018	570.69
461.238	536.69
461.458	560.69
461.678	524.69
461.898	548.69
462.118	541.69
462.338	549.69
462.558	563.69
462.777	552.69
462.997	582.69
463.217	601.69
463.437	618.69
463.657	591.69
463.876	575.69
464.096	583.69
464.316	577.69
464.536	595.69
464.755	569.69
464.975	593.69
465.195	593.69
465.414	590.69
465.634	563.69
465.854	524.69
466.073	535.69
466.293	504.69
466.512	515.69
466.732	493.69
466.951	506.69
467.171	506.69
467.391	499.69
467.61	485.69
467.829	499.69
468.049	492.69
468.268	480.69
468.488	480.69
468.707	474.69
468.927	470.69
469.146	473.69
469.365	440.69
469.585	464.69
469.804	484.69
470.023	513.69
470.243	507.69
470.462	516.69
470.681	520.69
470.901	513.69
471.12	484.69
471.339	504.69
471.558	495.69
471.777	523.69
471.997	503.69
472.216	501.69
472.435	499.69
472.654	502.69
472.873	486.69
473.092	484.69
473.311	456.69
473.53	508.69
473.749	486.69
473.968	534.69
474.187	602.69
474.406	630.69
474.625	548.69
474.844	505.69
475.063	477.69
475.282	497.69
475.501	489.69
475.72	506.69
475.939	514.69
476.158	527.69
476.377	539.69
476.596	532.69
476.814	511.69
477.033	509.69
477.252	507.69
477.471	524.69
477.69	529.69
477.908	538.69
478.127	566.69
478.346	564.69
478.564	578.69
478.783	548.69
479.002	590.69
479.22	563.69
479.439	596.69
479.658	592.69
479.876	619.69
480.095	624.69
480.313	656.69
480.532	637.69
480.751	603.69
480.969	636.69
481.188	614.69
481.406	631.69
481.624	605.69
481.843	590.69
482.061	567.69
482.28	571.69
482.498	568.69
482.717	565.69
482.935	579.69
483.153	608.69
483.372	584.69
483.59	603.69
483.808	573.69
484.027	569.69
484.245	601.69
484.463	596.69
484.681	599.69
484.9	610.69
485.118	590.69
485.336	590.69
485.554	587.69
485.772	603.69
485.99	610.69
486.209	604.69
486.427	621.69
486.645	620.69
486.863	626.69
487.081	616.69
487.299	616.69
487.517	614.69
487.735	634.69
487.953	626.69
488.171	627.69
488.389	615.69
488.607	633.69
488.825	616.69
489.043	607.69
489.261	647.69
489.479	628.69
489.696	646.69
489.914	652.69
490.132	656.69
490.35	651.69
490.568	663.69
490.786	680.69
491.003	676.69
491.221	652.69
491.439	681.69
491.657	706.69
491.874	692.69
492.092	734.69
492.31	710.69
492.527	714.69
492.745	708.69
492.963	697.69
493.18	739.69
493.398	739.69
493.615	720.69
493.833	700.69
494.05	731.69
494.268	717.69
494.485	725.69
494.703	727.69
494.92	719.69
495.138	737.69
495.355	739.69
495.573	727.69
495.79	747.69
496.008	743.69
496.225	746.69
496.442	739.69
496.66	750.69
496.877	759.69
497.094	742.69
497.312	716.69
497.529	756.69
497.746	769.69
497.963	788.69
498.181	811.69
498.398	822.69
498.615	832.69
498.832	850.69
499.049	900.69
499.267	934.69
499.484	960.69
499.701	980.69
499.918	1044.69
500.135	1119.69
500.352	1186.69
500.569	1198.69
500.786	1205.69
501.003	1176.69
501.22	1127.69
501.437	1046.69
501.654	1032.69
501.871	988.69
502.088	936.69
502.305	932.69
502.522	892.69
502.739	862.69
502.956	822.69
503.172	820.69
503.389	788.69
503.606	786.69
503.823	791.69
504.04	765.69
504.256	759.69
504.473	737.69
504.69	740.69
504.907	767.69
505.123	712.69
505.34	710.69
505.557	688.69
505.773	688.69
505.99	698.69
506.207	681.69
506.423	690.69
506.64	706.69
506.856	707.69
507.073	674.69
507.289	668.69
507.506	681.69
507.722	667.69
507.939	667.69
508.155	662.69
508.372	652.69
508.588	655.69
508.805	643.69
509.021	654.69
509.238	662.69
509.454	667.69
509.67	646.69
509.887	662.69
510.103	619.69
510.319	623.69
510.536	659.69
510.752	875.69
510.968	797.69
511.184	643.69
511.401	626.69
511.617	614.69
511.833	594.69
512.049	584.69
512.265	612.69
512.481	599.69
512.698	592.69
512.914	592.69
513.13	609.69
513.346	595.69
513.562	584.69
513.778	608.69
513.994	607.69
514.21	607.69
514.426	635.69
514.642	624.69
514.858	650.69
515.074	688.69
515.29	717.69
515.506	873.69
515.721	790.69
515.937	668.69
516.153	636.69
516.369	627.69
516.585	648.69
516.801	631.69
517.016	640.69
517.232	671.69
517.448	671.69
517.664	659.69
517.879	656.69
518.095	646.69
518.311	663.69
518.527	627.69
518.742	613.69
518.958	635.69
519.173	609.69
519.389	613.69
519.605	616.69
519.82	589.69
520.036	615.69
520.251	619.69
520.467	639.69
520.682	611.69
520.898	592.69
521.113	620.69
521.329	639.69
521.544	674.69
521.76	774.69
521.975	1014.69
522.19	1032.69
522.406	699.69
522.621	586.69
522.836	554.69
523.052	575.69
523.267	555.69
523.482	546.69
523.698	568.69
523.913	568.69
524.128	561.69
524.343	533.69
524.559	535.69
524.774	541.69
524.989	531.69
525.204	525.69
525.419	514.69
525.634	568.69
525.849	516.69
526.064	501.69
526.28	498.69
526.495	530.69
526.71	502.69
526.925	499.69
527.14	524.69
527.355	503.69
527.57	511.69
527.785	522.69
527.999	503.69
528.214	490.69
528.429	507.69
528.644	532.69
528.859	492.69
529.074	511.69
529.289	515.69
529.503	533.69
529.718	551.69
529.933	515.69
530.148	510.69
530.363	515.69
530.577	502.69
530.792	508.69
531.007	481.69
531.221	482.69
531.436	500.69
531.651	514.69
531.865	506.69
532.08	497.69
532.295	481.69
532.509	512.69
532.724	499.69
532.938	466.69
533.153	508.69
533.367	485.69
533.582	482.69
533.796	467.69
534.011	503.69
534.225	488.69
534.44	489.69
534.654	509.69
534.868	496.69
535.083	489.69
535.297	479.69
535.511	491.69
535.726	472.69
535.94	494.69
536.154	491.69
536.369	503.69
536.583	484.69
536.797	490.69
537.011	462.69
537.225	469.69
537.44	465.69
537.654	492.69
537.868	470.69
538.082	482.69
538.296	487.69
538.51	487.69
538.724	481.69
538.938	478.69
539.153	462.69
539.367	483.69
539.581	500.69
539.795	479.69
540.009	488.69
540.222	466.69
540.436	471.69
540.65	474.69
540.864	472.69
541.078	475.69
541.292	486.69
541.506	482.69
541.72	488.69
541.934	482.69
542.147	477.69
542.361	482.69
542.575	491.69
542.789	476.69
543.002	450.69
543.216	477.69
543.43	461.69
543.644	487.69
543.857	483.69
544.071	476.69
544.285	488.69
544.498	476.69
544.712	494.69
544.925	485.69
545.139	477.69
545.352	488.69
545.566	474.69
545.779	490.69
545.993	488.69
546.206	500.69
546.42	496.69
546.633	457.69
546.847	476.69
547.06	466.69
547.274	472.69
547.487	483.69
547.7	472.69
547.914	469.69
548.127	478.69
548.34	478.69
548.554	468.69
548.767	437.69
548.98	464.69
549.193	456.69
549.407	494.69
549.62	487.69
549.833	498.69
550.046	473.69
550.259	456.69
550.473	473.69
550.686	467.69
550.899	459.69
551.112	456.69
551.325	467.69
551.538	472.69
551.751	468.69
551.964	452.69
552.177	473.69
552.39	478.69
552.603	463.69
552.816	481.69
553.029	490.69
553.242	511.69
553.455	488.69
553.667	506.69
553.88	482.69
554.093	458.69
554.306	495.69
554.519	469.69
554.732	468.69
554.944	473.69
555.157	458.69
555.37	453.69
555.583	453.69
555.795	463.69
556.008	439.69
556.221	440.69
556.433	435.69
556.646	419.69
556.859	445.69
557.071	430.69
557.284	428.69
557.496	400.69
557.709	443.69
557.921	428.69
558.134	420.69
558.346	441.69
558.559	400.69
558.771	412.69
558.984	435.69
559.196	410.69
559.409	414.69
559.621	416.69
559.833	424.69
560.046	412.69
560.258	412.69
560.47	431.69
560.683	429.69
560.895	415.69
561.107	410.69
561.32	422.69
561.532	411.69
561.744	427.69
561.956	409.69
562.168	423.69
562.381	405.69
562.593	413.69
562.805	422.69
563.017	423.69
563.229	399.69
563.441	431.69
563.653	419.69
563.865	434.69
564.077	449.69
564.289	438.69
564.501	445.69
564.713	437.69
564.925	446.69
565.137	434.69
565.349	478.69
565.561	470.69
565.773	475.69
565.985	490.69
566.197	504.69
566.408	514.69
566.62	538.69
566.832	535.69
567.044	564.69
567.255	548.69
567.467	573.69
567.679	587.69
567.891	604.69
568.102	603.69
568.314	565.69
568.526	543.69
568.737	551.69
568.949	507.69
569.161	479.69
569.372	465.69
569.584	474.69
569.795	445.69
570.007	438.69
570.218	433.69
570.43	447.69
570.641	438.69
570.853	405.69
571.064	419.69
571.276	416.69
571.487	405.69
571.698	399.69
571.91	407.69
572.121	409.69
572.333	386.69
572.544	400.69
572.755	388.69
572.966	398.69
573.178	367.69
573.389	364.69
573.6	379.69
573.811	362.69
574.023	375.69
574.234	367.69
574.445	350.69
574.656	377.69
574.867	370.69
575.078	366.69
575.289	363.69
575.501	360.69
575.712	362.69
575.923	360.69
576.134	347.69
576.345	346.69
576.556	356.69
576.767	346.69
576.978	349.69
577.188	351.69
577.399	348.69
577.61	328.69
577.821	350.69
578.032	348.69
578.243	354.69
578.454	418.69
578.665	375.69
578.875	341.69
579.086	331.69
579.297	330.69
579.508	347.69
579.718	330.69
579.929	356.69
580.14	334.69
580.35	337.69
580.561	323.69
580.772	336.69
580.982	323.69
581.193	326.69
581.403	323.69
581.614	346.69
581.825	336.69
582.035	322.69
582.246	329.69
582.456	317.69
582.667	323.69
582.877	327.69
583.087	318.69
583.298	335.69
583.508	318.69
583.719	331.69
583.929	327.69
584.139	327.69
584.35	326.69
584.56	326.69
584.77	309.69
584.981	321.69
585.191	343.69
585.401	323.69
585.611	326.69
585.821	314.69
586.032	348.69
586.242	334.69
586.452	316.69
586.662	318.69
586.872	329.69
587.082	304.69
587.292	328.69
587.502	318.69
587.713	320.69
587.923	310.69
588.133	320.69
588.343	317.69
588.553	326.69
588.762	306.69
588.972	319.69
589.182	310.69
589.392	313.69
589.602	343.69
589.812	315.69
590.022	315.69
590.232	291.69
590.441	322.69
590.651	332.69
590.861	321.69
591.071	308.69
591.281	307.69
591.49	315.69
591.7	320.69
591.91	325.69
592.119	341.69
592.329	332.69
592.539	323.69
592.748	331.69
592.958	342.69
593.167	366.69
593.377	354.69
593.587	366.69
593.796	356.69
594.006	364.69
594.215	342.69
594.424	359.69
594.634	326.69
594.843	344.69
595.053	351.69
595.262	344.69
595.472	322.69
595.681	319.69
595.89	329.69
596.1	312.69
596.309	322.69
596.518	311.69
596.727	320.69
596.937	298.69
597.146	317.69
597.355	314.69
597.564	284.69
597.774	293.69
597.983	295.69
598.192	276.69
598.401	279.69
598.61	286.69
598.819	295.69
599.028	291.69
599.237	299.69
599.446	309.69
599.655	303.69
599.864	287.69
600.073	269.69
600.282	284.69
600.491	302.69
600.7	289.69
600.909	287.69
601.118	270.69
601.327	270.69
601.536	286.69
601.745	277.69
601.953	264.69
602.162	279.69
602.371	285.69
602.58	283.69
602.789	282.69
602.997	277.69
603.206	284.69
603.415	283.69
603.623	282.69
603.832	263.69
604.041	277.69
604.249	271.69
604.458	280.69
604.666	261.69
604.875	268.69
605.084	263.69
605.292	267.69
605.501	269.69
605.709	266.69
605.918	276.69
606.126	252.69
606.334	275.69
606.543	278.69
606.751	287.69
606.96	283.69
607.168	265.69
607.376	269.69
607.585	271.69
607.793	256.69
608.001	265.69
608.21	270.69
608.418	262.69
608.626	274.69
608.834	272.69
609.043	256.69
609.251	277.69
609.459	264.69
609.667	306.69
609.875	283.69
610.083	270.69
610.291	259.69
610.499	243.69
610.707	242.69
610.916	262.69
611.124	272.69
611.332	283.69
611.54	267.69
611.748	255.69
611.955	262.69
612.163	280.69
612.371	262.69
612.579	258.69
612.787	274.69
612.995	266.69
613.203	269.69
613.411	273.69
613.618	280.69
613.826	254.69
614.034	259.69
614.242	250.69
614.449	259.69
614.657	252.69
614.865	253.69
615.072	249.69
615.28	270.69
615.488	248.69
615.695	255.69
615.903	261.69
616.111	270.69
616.318	264.69
616.526	264.69
616.733	270.69
616.941	261.69
617.148	253.69
617.356	252.69
617.563	274.69
617.771	245.69
617.978	251.69
618.185	239.69
618.393	279.69
618.6	258.69
618.807	256.69
619.015	254.69
619.222	235.69
619.429	253.69
619.637	261.69
619.844	271.69
620.051	246.69
620.258	251.69
620.466	254.69
620.673	229.69
620.88	235.69
621.087	253.69
621.294	226.69
621.501	248.69
621.708	250.69
621.915	243.69
622.122	243.69
622.329	233.69
622.536	229.69
622.743	242.69
622.95	239.69
623.157	229.69
623.364	240.69
623.571	247.69
623.778	243.69
623.985	226.69
624.192	227.69
624.399	253.69
624.606	243.69
624.812	228.69
625.019	242.69
625.226	234.69
625.433	242.69
625.639	218.69
625.846	218.69
626.053	228.69
626.259	228.69
626.466	240.69
626.673	219.69
626.879	222.69
627.086	210.69
627.293	225.69
627.499	227.69
627.706	226.69
627.912	228.69
628.119	219.69
628.325	225.69
628.532	221.69
628.738	222.69
628.945	206.69
629.151	198.69
629.357	222.69
629.564	216.69
629.77	220.69
629.976	227.69
630.183	212.69
630.389	217.69
630.595	216.69
630.802	202.69
631.008	217.69
631.214	239.69
631.42	202.69
631.627	199.69
631.833	213.69
632.039	229.69
632.245	194.69
632.451	213.69
632.657	215.69
632.863	218.69
633.069	205.69
633.275	210.69
633.481	216.69
633.688	208.69
633.893	174.69
634.099	199.69
634.305	204.69
634.511	202.69
634.717	198.69
634.923	207.69
635.129	199.69
635.335	195.69
635.541	175.69
635.747	197.69
635.952	190.69
636.158	205.69
636.364	205.69
636.57	216.69
636.775	203.69
636.981	218.69
637.187	206.69
637.392	203.69
637.598	206.69
637.804	203.69
638.009	201.69
638.215	196.69
638.421	183.69
638.626	191.69
638.832	190.69
639.037	191.69
639.243	181.69
639.448	198.69
639.654	189.69
639.859	206.69
640.065	191.69
640.27	189.69
640.475	197.69
640.681	191.69
640.886	197.69
641.091	181.69
641.297	205.69
641.502	194.69
641.707	190.69
641.913	182.69
642.118	191.69
642.323	185.69
642.528	189.69
642.733	199.69
642.939	181.69
643.144	193.69
643.349	190.69
643.554	189.69
643.759	186.69
643.964	180.69
644.169	175.69
644.374	163.69
644.579	175.69
644.784	188.69
644.989	201.69
645.194	191.69
645.399	184.69
645.604	191.69
645.809	193.69
646.014	194.69
646.219	174.69
646.423	181.69
646.628	192.69
646.833	199.69
647.038	167.69
647.243	206.69
647.447	172.69
647.652	196.69
647.857	195.69
648.062	195.69
648.266	184.69
648.471	190.69
648.676	184.69
648.88	181.69
649.085	184.69
649.289	184.69
649.494	185.69
649.698	194.69
649.903	195.69
650.107	203.69
650.312	174.69
650.516	186.69
650.721	175.69
650.925	174.69
651.13	163.69
651.334	164.69
651.539	170.69
651.743	170.69
651.947	154.69
652.152	164.69
652.356	162.69
652.56	155.69
652.764	167.69
652.969	150.69
653.173	160.69
653.377	145.69
653.581	148.69
653.785	134.69
653.99	160.69
654.194	164.69
654.398	141.69
654.602	152.69
654.806	145.69
655.01	139.69
655.214	158.69
655.418	138.69
655.622	143.69
655.826	150.69
656.03	152.69
656.234	148.69
656.438	147.69
656.642	150.69
656.846	162.69
657.049	153.69
657.253	143.69
657.457	145.69
657.661	137.69
657.865	122.69
658.068	141.69
658.272	135.69
658.476	116.69
658.68	107.69
658.883	102.69
659.087	113.69
659.291	108.69
659.494	110.69
659.698	110.69
659.901	100.69
660.105	92.69
660.309	96.69
660.512	97.69
660.716	84.69
660.919	92.69
661.123	103.69
661.326	100.69
661.53	95.69
661.733	93.69
661.936	91.69
662.14	84.69
662.343	88.69
662.546	87.69
662.75	103.69
662.953	91.69
663.156	90.69
663.36	87.69
663.563	80.69
663.766	55.69
663.969	89.69
664.173	84.69
664.376	87.69
664.579	79.69
664.782	86.69
664.985	81.69
665.188	88.69
665.391	92.69
665.594	87.69
665.797	85.69
666	91.69
666.203	93.69
666.406	91.69
666.609	86.69
666.812	79.69
667.015	88.69
667.218	84.69
667.421	87.69
667.624	82.69
667.827	81.69
668.03	80.69
668.232	91.69
668.435	83.69
668.638	84.69
668.841	109.69
669.043	86.69
669.246	76.69
669.449	71.69
669.651	84.69
669.854	89.69
670.057	88.69
670.259	91.69
670.462	99.69
670.665	90.69
670.867	76.69
671.07	82.69
671.272	99.69
671.475	74.69
671.677	83.69
671.88	83.69
672.082	77.69
672.284	74.69
672.487	81.69
672.689	82.69
672.892	54.69
