Data from 1975.PennyLincolnUp.Lamp.En5.5.200Scan.071719.P1.Changed Mount._HRD10591_15-58-39-860.txt Node
Date: Thu Jul 18 15:58:39 EDT 2019
User: cochatt
Spectrometer: HR+D1059
Trigger mode: 1
Integration Time (sec): 1.000000E-1
Scans to average: 1
Electric dark correction enabled: true
Nonlinearity correction enabled: false
Boxcar width: 0
XAxis mode: Wavelengths
Number of Pixels in Spectrum: 2048
>>>>>Begin Spectral Data<<<<<
223.165	-13.06
223.4	-13.06
223.635	-13.06
223.869	-1.06
224.104	-7.06
224.338	-14.06
224.573	-30.06
224.808	-22.06
225.042	3.94
225.277	-20.06
225.511	-11.06
225.746	2.94
225.98	1.94
226.215	1.94
226.449	12.94
226.683	28.94
226.918	26.94
227.152	38.94
227.387	31.94
227.621	44.94
227.856	39.94
228.09	42.94
228.324	57.94
228.559	77.94
228.793	68.94
229.027	90.94
229.262	108.94
229.496	125.94
229.73	125.94
229.964	168.94
230.199	120.94
230.433	119.94
230.667	114.94
230.901	120.94
231.136	112.94
231.37	113.94
231.604	120.94
231.838	126.94
232.072	117.94
232.306	119.94
232.541	135.94
232.775	139.94
233.009	127.94
233.243	122.94
233.477	124.94
233.711	114.94
233.945	107.94
234.179	126.94
234.413	120.94
234.647	121.94
234.881	114.94
235.115	130.94
235.349	130.94
235.583	130.94
235.817	129.94
236.051	117.94
236.285	128.94
236.519	128.94
236.753	142.94
236.987	157.94
237.221	187.94
237.455	221.94
237.689	188.94
237.922	148.94
238.156	147.94
238.39	128.94
238.624	137.94
238.858	121.94
239.091	133.94
239.325	136.94
239.559	144.94
239.793	128.94
240.027	122.94
240.26	142.94
240.494	165.94
240.728	165.94
240.961	157.94
241.195	151.94
241.429	138.94
241.662	145.94
241.896	151.94
242.13	141.94
242.363	139.94
242.597	136.94
242.83	149.94
243.064	136.94
243.298	145.94
243.531	150.94
243.765	154.94
243.998	132.94
244.232	148.94
244.465	153.94
244.699	143.94
244.932	154.94
245.166	146.94
245.399	150.94
245.633	143.94
245.866	154.94
246.099	158.94
246.333	151.94
246.566	160.94
246.8	147.94
247.033	151.94
247.266	174.94
247.5	172.94
247.733	183.94
247.966	178.94
248.2	159.94
248.433	170.94
248.666	197.94
248.899	174.94
249.133	199.94
249.366	205.94
249.599	224.94
249.832	190.94
250.066	196.94
250.299	186.94
250.532	199.94
250.765	197.94
250.998	207.94
251.231	235.94
251.465	230.94
251.698	201.94
251.931	214.94
252.164	210.94
252.397	187.94
252.63	202.94
252.863	207.94
253.096	228.94
253.329	236.94
253.562	224.94
253.795	232.94
254.028	219.94
254.261	223.94
254.494	215.94
254.727	267.94
254.96	282.94
255.193	277.94
255.426	273.94
255.659	257.94
255.892	233.94
256.124	233.94
256.357	236.94
256.59	234.94
256.823	224.94
257.056	237.94
257.289	197.94
257.521	225.94
257.754	208.94
257.987	231.94
258.22	205.94
258.452	206.94
258.685	219.94
258.918	233.94
259.151	234.94
259.383	221.94
259.616	231.94
259.849	241.94
260.081	233.94
260.314	276.94
260.547	264.94
260.779	264.94
261.012	242.94
261.244	222.94
261.477	235.94
261.71	230.94
261.942	245.94
262.175	244.94
262.407	242.94
262.64	214.94
262.872	204.94
263.105	229.94
263.337	227.94
263.57	228.94
263.802	219.94
264.035	227.94
264.267	235.94
264.499	232.94
264.732	237.94
264.964	218.94
265.197	230.94
265.429	214.94
265.661	238.94
265.894	221.94
266.126	235.94
266.358	221.94
266.591	238.94
266.823	250.94
267.055	239.94
267.287	240.94
267.52	245.94
267.752	254.94
267.984	218.94
268.216	243.94
268.448	263.94
268.681	249.94
268.913	254.94
269.145	274.94
269.377	290.94
269.609	288.94
269.841	268.94
270.073	291.94
270.306	314.94
270.538	328.94
270.77	322.94
271.002	322.94
271.234	302.94
271.466	302.94
271.698	336.94
271.93	335.94
272.162	318.94
272.394	327.94
272.626	315.94
272.858	306.94
273.09	279.94
273.322	316.94
273.553	272.94
273.785	287.94
274.017	285.94
274.249	279.94
274.481	249.94
274.713	294.94
274.945	283.94
275.176	276.94
275.408	285.94
275.64	252.94
275.872	264.94
276.104	286.94
276.335	281.94
276.567	314.94
276.799	299.94
277.031	315.94
277.262	335.94
277.494	339.94
277.726	324.94
277.957	320.94
278.189	289.94
278.421	274.94
278.652	272.94
278.884	283.94
279.115	288.94
279.347	283.94
279.579	286.94
279.81	279.94
280.042	279.94
280.273	278.94
280.505	277.94
280.736	287.94
280.968	301.94
281.199	301.94
281.431	293.94
281.662	289.94
281.894	307.94
282.125	308.94
282.356	292.94
282.588	323.94
282.819	334.94
283.051	307.94
283.282	301.94
283.513	310.94
283.745	296.94
283.976	298.94
284.207	299.94
284.439	302.94
284.67	311.94
284.901	309.94
285.132	298.94
285.364	286.94
285.595	307.94
285.826	290.94
286.057	297.94
286.288	302.94
286.52	292.94
286.751	293.94
286.982	307.94
287.213	287.94
287.444	330.94
287.675	308.94
287.906	329.94
288.138	320.94
288.369	319.94
288.6	323.94
288.831	325.94
289.062	327.94
289.293	327.94
289.524	312.94
289.755	326.94
289.986	310.94
290.217	330.94
290.448	324.94
290.679	314.94
290.91	326.94
291.141	310.94
291.371	302.94
291.602	282.94
291.833	322.94
292.064	324.94
292.295	305.94
292.526	312.94
292.757	306.94
292.987	339.94
293.218	303.94
293.449	302.94
293.68	331.94
293.91	324.94
294.141	326.94
294.372	303.94
294.603	313.94
294.833	305.94
295.064	340.94
295.295	308.94
295.525	299.94
295.756	316.94
295.987	321.94
296.217	341.94
296.448	354.94
296.679	339.94
296.909	311.94
297.14	322.94
297.37	330.94
297.601	330.94
297.831	315.94
298.062	322.94
298.292	316.94
298.523	341.94
298.753	330.94
298.984	329.94
299.214	341.94
299.445	344.94
299.675	346.94
299.905	338.94
300.136	356.94
300.366	355.94
300.597	350.94
300.827	351.94
301.057	365.94
301.288	366.94
301.518	360.94
301.748	346.94
301.979	354.94
302.209	357.94
302.439	378.94
302.669	342.94
302.9	334.94
303.13	345.94
303.36	334.94
303.59	361.94
303.82	361.94
304.051	361.94
304.281	343.94
304.511	347.94
304.741	359.94
304.971	345.94
305.201	340.94
305.431	357.94
305.661	339.94
305.891	367.94
306.121	378.94
306.352	360.94
306.582	347.94
306.812	367.94
307.042	351.94
307.272	354.94
307.502	358.94
307.731	361.94
307.961	354.94
308.191	359.94
308.421	371.94
308.651	364.94
308.881	331.94
309.111	373.94
309.341	371.94
309.571	387.94
309.8	383.94
310.03	371.94
310.26	392.94
310.49	392.94
310.72	393.94
310.949	403.94
311.179	424.94
311.409	392.94
311.639	380.94
311.868	388.94
312.098	407.94
312.328	406.94
312.557	398.94
312.787	404.94
313.017	429.94
313.246	434.94
313.476	406.94
313.706	397.94
313.935	400.94
314.165	415.94
314.394	398.94
314.624	391.94
314.853	417.94
315.083	421.94
315.312	404.94
315.542	395.94
315.771	398.94
316.001	392.94
316.23	399.94
316.46	392.94
316.689	404.94
316.919	424.94
317.148	392.94
317.377	396.94
317.607	402.94
317.836	404.94
318.065	382.94
318.295	381.94
318.524	375.94
318.753	382.94
318.983	411.94
319.212	383.94
319.441	415.94
319.67	387.94
319.9	387.94
320.129	384.94
320.358	414.94
320.587	385.94
320.816	391.94
321.046	425.94
321.275	416.94
321.504	408.94
321.733	400.94
321.962	418.94
322.191	427.94
322.42	446.94
322.649	460.94
322.878	430.94
323.108	452.94
323.337	479.94
323.566	504.94
323.795	499.94
324.024	524.94
324.253	643.94
324.482	875.94
324.71	1342.94
324.939	1995.94
325.168	1744.94
325.397	898.94
325.626	619.94
325.855	546.94
326.084	483.94
326.313	480.94
326.542	482.94
326.77	542.94
326.999	605.94
327.228	830.94
327.457	1260.94
327.686	1540.94
327.914	988.94
328.143	678.94
328.372	596.94
328.6	557.94
328.829	552.94
329.058	556.94
329.287	564.94
329.515	520.94
329.744	511.94
329.972	496.94
330.201	546.94
330.43	550.94
330.658	571.94
330.887	613.94
331.115	594.94
331.344	525.94
331.572	503.94
331.801	518.94
332.03	505.94
332.258	484.94
332.486	469.94
332.715	470.94
332.943	482.94
333.172	503.94
333.4	503.94
333.629	517.94
333.857	488.94
334.085	534.94
334.314	536.94
334.542	574.94
334.771	591.94
334.999	538.94
335.227	501.94
335.455	500.94
335.684	491.94
335.912	502.94
336.14	484.94
336.369	487.94
336.597	486.94
336.825	488.94
337.053	477.94
337.281	474.94
337.51	487.94
337.738	454.94
337.966	462.94
338.194	482.94
338.422	468.94
338.65	486.94
338.878	487.94
339.106	471.94
339.334	474.94
339.562	460.94
339.79	446.94
340.018	451.94
340.246	444.94
340.474	480.94
340.702	451.94
340.93	456.94
341.158	452.94
341.386	452.94
341.614	451.94
341.842	463.94
342.07	466.94
342.298	451.94
342.526	456.94
342.754	460.94
342.981	440.94
343.209	455.94
343.437	430.94
343.665	485.94
343.893	486.94
344.12	493.94
344.348	482.94
344.576	478.94
344.804	473.94
345.031	489.94
345.259	478.94
345.487	454.94
345.714	470.94
345.942	449.94
346.17	450.94
346.397	438.94
346.625	436.94
346.853	435.94
347.08	474.94
347.308	456.94
347.535	443.94
347.763	447.94
347.99	447.94
348.218	452.94
348.445	448.94
348.673	457.94
348.9	426.94
349.128	442.94
349.355	431.94
349.583	428.94
349.81	421.94
350.037	426.94
350.265	422.94
350.492	428.94
350.72	438.94
350.947	426.94
351.174	438.94
351.402	419.94
351.629	426.94
351.856	429.94
352.083	470.94
352.311	453.94
352.538	451.94
352.765	459.94
352.992	441.94
353.22	432.94
353.447	426.94
353.674	424.94
353.901	422.94
354.128	423.94
354.355	422.94
354.583	416.94
354.81	410.94
355.037	425.94
355.264	429.94
355.491	421.94
355.718	428.94
355.945	407.94
356.172	423.94
356.399	397.94
356.626	404.94
356.853	408.94
357.08	410.94
357.307	423.94
357.534	427.94
357.761	434.94
357.988	440.94
358.215	421.94
358.441	432.94
358.668	414.94
358.895	424.94
359.122	424.94
359.349	426.94
359.576	442.94
359.802	459.94
360.029	467.94
360.256	494.94
360.483	456.94
360.709	458.94
360.936	486.94
361.163	438.94
361.39	445.94
361.616	454.94
361.843	439.94
362.07	434.94
362.296	447.94
362.523	428.94
362.749	448.94
362.976	470.94
363.203	441.94
363.429	418.94
363.656	430.94
363.882	427.94
364.109	422.94
364.335	441.94
364.562	435.94
364.788	429.94
365.015	431.94
365.241	442.94
365.468	431.94
365.694	426.94
365.92	445.94
366.147	428.94
366.373	434.94
366.599	404.94
366.826	457.94
367.052	450.94
367.278	447.94
367.505	431.94
367.731	430.94
367.957	432.94
368.184	453.94
368.41	443.94
368.636	434.94
368.862	440.94
369.089	431.94
369.315	436.94
369.541	450.94
369.767	447.94
369.993	435.94
370.219	436.94
370.445	442.94
370.672	428.94
370.898	439.94
371.124	434.94
371.35	438.94
371.576	443.94
371.802	423.94
372.028	452.94
372.254	420.94
372.48	446.94
372.706	427.94
372.932	443.94
373.158	455.94
373.384	436.94
373.61	461.94
373.835	440.94
374.061	440.94
374.287	428.94
374.513	452.94
374.739	457.94
374.965	455.94
375.191	439.94
375.416	440.94
375.642	434.94
375.868	445.94
376.094	442.94
376.319	437.94
376.545	460.94
376.771	436.94
376.997	430.94
377.222	427.94
377.448	440.94
377.674	451.94
377.899	438.94
378.125	438.94
378.35	448.94
378.576	444.94
378.802	441.94
379.027	437.94
379.253	429.94
379.478	435.94
379.704	440.94
379.929	445.94
380.155	424.94
380.38	437.94
380.606	454.94
380.831	423.94
381.057	448.94
381.282	417.94
381.507	455.94
381.733	436.94
381.958	439.94
382.184	441.94
382.409	438.94
382.634	460.94
382.86	453.94
383.085	435.94
383.31	451.94
383.535	454.94
383.761	439.94
383.986	451.94
384.211	491.94
384.436	463.94
384.662	451.94
384.887	492.94
385.112	493.94
385.337	463.94
385.562	491.94
385.787	493.94
386.013	504.94
386.238	483.94
386.463	470.94
386.688	510.94
386.913	494.94
387.138	499.94
387.363	481.94
387.588	479.94
387.813	490.94
388.038	476.94
388.263	500.94
388.488	483.94
388.713	493.94
388.938	486.94
389.163	496.94
389.387	480.94
389.612	494.94
389.837	488.94
390.062	464.94
390.287	501.94
390.512	497.94
390.736	491.94
390.961	488.94
391.186	493.94
391.411	506.94
391.636	486.94
391.86	503.94
392.085	512.94
392.31	521.94
392.534	503.94
392.759	521.94
392.984	499.94
393.208	486.94
393.433	498.94
393.658	516.94
393.882	496.94
394.107	504.94
394.331	494.94
394.556	506.94
394.78	503.94
395.005	505.94
395.229	507.94
395.454	536.94
395.678	518.94
395.903	536.94
396.127	549.94
396.352	542.94
396.576	509.94
396.801	524.94
397.025	511.94
397.249	510.94
397.474	534.94
397.698	557.94
397.922	551.94
398.147	558.94
398.371	568.94
398.595	552.94
398.82	566.94
399.044	580.94
399.268	605.94
399.492	660.94
399.717	674.94
399.941	712.94
400.165	713.94
400.389	719.94
400.613	648.94
400.837	612.94
401.062	598.94
401.286	590.94
401.51	579.94
401.734	569.94
401.958	568.94
402.182	587.94
402.406	593.94
402.63	574.94
402.854	596.94
403.078	592.94
403.302	599.94
403.526	620.94
403.75	589.94
403.974	584.94
404.198	592.94
404.422	621.94
404.645	614.94
404.869	620.94
405.093	656.94
405.317	685.94
405.541	718.94
405.765	662.94
405.988	637.94
406.212	636.94
406.436	638.94
406.66	666.94
406.883	635.94
407.107	670.94
407.331	700.94
407.555	791.94
407.778	811.94
408.002	722.94
408.226	691.94
408.449	666.94
408.673	678.94
408.896	715.94
409.12	716.94
409.344	687.94
409.567	625.94
409.791	602.94
410.014	616.94
410.238	608.94
410.461	618.94
410.685	604.94
410.908	617.94
411.132	656.94
411.355	696.94
411.578	642.94
411.802	633.94
412.025	586.94
412.249	615.94
412.472	634.94
412.695	671.94
412.919	680.94
413.142	619.94
413.365	598.94
413.589	591.94
413.812	557.94
414.035	571.94
414.258	560.94
414.482	560.94
414.705	547.94
414.928	560.94
415.151	542.94
415.374	544.94
415.597	564.94
415.821	538.94
416.044	572.94
416.267	595.94
416.49	571.94
416.713	566.94
416.936	550.94
417.159	530.94
417.382	563.94
417.605	583.94
417.828	578.94
418.051	597.94
418.274	601.94
418.497	561.94
418.72	582.94
418.943	569.94
419.166	590.94
419.389	616.94
419.611	624.94
419.834	606.94
420.057	604.94
420.28	615.94
420.503	582.94
420.726	590.94
420.948	587.94
421.171	651.94
421.394	655.94
421.617	620.94
421.839	596.94
422.062	589.94
422.285	603.94
422.507	669.94
422.73	751.94
422.953	692.94
423.175	643.94
423.398	632.94
423.621	611.94
423.843	640.94
424.066	641.94
424.288	637.94
424.511	676.94
424.733	712.94
424.956	811.94
425.178	761.94
425.401	727.94
425.623	775.94
425.846	668.94
426.068	632.94
426.291	623.94
426.513	617.94
426.735	645.94
426.958	681.94
427.18	757.94
427.402	926.94
427.625	976.94
427.847	842.94
428.069	742.94
428.292	666.94
428.514	618.94
428.736	606.94
428.958	587.94
429.181	579.94
429.403	571.94
429.625	580.94
429.847	591.94
430.069	673.94
430.292	644.94
430.514	612.94
430.736	590.94
430.958	545.94
431.18	552.94
431.402	563.94
431.624	557.94
431.846	553.94
432.068	541.94
432.29	533.94
432.512	568.94
432.734	561.94
432.956	561.94
433.178	561.94
433.4	549.94
433.622	558.94
433.844	570.94
434.066	530.94
434.287	557.94
434.509	557.94
434.731	566.94
434.953	576.94
435.175	608.94
435.397	632.94
435.618	602.94
435.84	628.94
436.062	746.94
436.284	840.94
436.505	699.94
436.727	634.94
436.949	586.94
437.17	584.94
437.392	565.94
437.614	586.94
437.835	591.94
438.057	690.94
438.278	803.94
438.5	826.94
438.721	898.94
438.943	882.94
439.165	675.94
439.386	653.94
439.608	609.94
439.829	600.94
440.05	651.94
440.272	686.94
440.493	666.94
440.715	614.94
440.936	572.94
441.158	591.94
441.379	583.94
441.6	608.94
441.822	612.94
442.043	649.94
442.264	768.94
442.486	809.94
442.707	666.94
442.928	640.94
443.149	640.94
443.371	675.94
443.592	694.94
443.813	824.94
444.034	901.94
444.255	736.94
444.476	676.94
444.698	663.94
444.919	632.94
445.14	766.94
445.361	703.94
445.582	676.94
445.803	730.94
446.024	838.94
446.245	829.94
446.466	784.94
446.687	667.94
446.908	615.94
447.129	580.94
447.35	582.94
447.571	572.94
447.792	572.94
448.013	562.94
448.234	591.94
448.455	635.94
448.675	739.94
448.896	870.94
449.117	731.94
449.338	711.94
449.559	810.94
449.779	954.94
450	749.94
450.221	608.94
450.442	587.94
450.662	547.94
450.883	557.94
451.104	546.94
451.324	547.94
451.545	537.94
451.766	517.94
451.986	529.94
452.207	506.94
452.428	502.94
452.648	501.94
452.869	533.94
453.089	518.94
453.31	523.94
453.53	534.94
453.751	491.94
453.971	502.94
454.192	528.94
454.412	521.94
454.633	496.94
454.853	486.94
455.073	501.94
455.294	526.94
455.514	582.94
455.734	571.94
455.955	503.94
456.175	490.94
456.395	484.94
456.616	459.94
456.836	473.94
457.056	472.94
457.276	479.94
457.497	474.94
457.717	471.94
457.937	468.94
458.157	491.94
458.377	481.94
458.598	519.94
458.818	568.94
459.038	636.94
459.258	678.94
459.478	601.94
459.698	560.94
459.918	545.94
460.138	542.94
460.358	589.94
460.578	581.94
460.798	571.94
461.018	578.94
461.238	574.94
461.458	567.94
461.678	563.94
461.898	549.94
462.118	577.94
462.338	586.94
462.558	590.94
462.777	595.94
462.997	605.94
463.217	655.94
463.437	640.94
463.657	630.94
463.876	629.94
464.096	612.94
464.316	602.94
464.536	607.94
464.755	611.94
464.975	623.94
465.195	613.94
465.414	683.94
465.634	594.94
465.854	586.94
466.073	559.94
466.293	540.94
466.512	512.94
466.732	506.94
466.951	532.94
467.171	526.94
467.391	528.94
467.61	556.94
467.829	544.94
468.049	544.94
468.268	517.94
468.488	516.94
468.707	504.94
468.927	493.94
469.146	522.94
469.365	528.94
469.585	517.94
469.804	511.94
470.023	521.94
470.243	528.94
470.462	534.94
470.681	538.94
470.901	555.94
471.12	540.94
471.339	526.94
471.558	538.94
471.777	519.94
471.997	528.94
472.216	511.94
472.435	561.94
472.654	555.94
472.873	538.94
473.092	502.94
473.311	495.94
473.53	546.94
473.749	520.94
473.968	566.94
474.187	678.94
474.406	702.94
474.625	564.94
474.844	530.94
475.063	514.94
475.282	522.94
475.501	523.94
475.72	535.94
475.939	529.94
476.158	552.94
476.377	549.94
476.596	549.94
476.814	565.94
477.033	563.94
477.252	563.94
477.471	565.94
477.69	560.94
477.908	603.94
478.127	585.94
478.346	586.94
478.564	586.94
478.783	612.94
479.002	601.94
479.22	596.94
479.439	614.94
479.658	637.94
479.876	642.94
480.095	647.94
480.313	666.94
480.532	687.94
480.751	649.94
480.969	685.94
481.188	706.94
481.406	753.94
481.624	669.94
481.843	640.94
482.061	619.94
482.28	621.94
482.498	603.94
482.717	605.94
482.935	634.94
483.153	614.94
483.372	638.94
483.59	608.94
483.808	612.94
484.027	602.94
484.245	613.94
484.463	617.94
484.681	661.94
484.9	640.94
485.118	610.94
485.336	628.94
485.554	672.94
485.772	657.94
485.99	638.94
486.209	662.94
486.427	616.94
486.645	637.94
486.863	678.94
487.081	679.94
487.299	673.94
487.517	635.94
487.735	661.94
487.953	680.94
488.171	656.94
488.389	675.94
488.607	670.94
488.825	670.94
489.043	657.94
489.261	657.94
489.479	657.94
489.696	662.94
489.914	687.94
490.132	708.94
490.35	690.94
490.568	694.94
490.786	724.94
491.003	710.94
491.221	736.94
491.439	740.94
491.657	738.94
491.874	763.94
492.092	783.94
492.31	787.94
492.527	766.94
492.745	769.94
492.963	742.94
493.18	799.94
493.398	776.94
493.615	783.94
493.833	793.94
494.05	814.94
494.268	798.94
494.485	754.94
494.703	799.94
494.92	806.94
495.138	808.94
495.355	759.94
495.573	798.94
495.79	800.94
496.008	797.94
496.225	789.94
496.442	812.94
496.66	779.94
496.877	800.94
497.094	802.94
497.312	774.94
497.529	820.94
497.746	813.94
497.963	852.94
498.181	874.94
498.398	907.94
498.615	906.94
498.832	905.94
499.049	949.94
499.267	979.94
499.484	1014.94
499.701	1068.94
499.918	1099.94
500.135	1184.94
500.352	1257.94
500.569	1292.94
500.786	1306.94
501.003	1244.94
501.22	1180.94
501.437	1160.94
501.654	1076.94
501.871	1058.94
502.088	1025.94
502.305	941.94
502.522	899.94
502.739	914.94
502.956	888.94
503.172	859.94
503.389	830.94
503.606	834.94
503.823	844.94
504.04	822.94
504.256	818.94
504.473	812.94
504.69	823.94
504.907	798.94
505.123	810.94
505.34	773.94
505.557	742.94
505.773	755.94
505.99	764.94
506.207	768.94
506.423	732.94
506.64	739.94
506.856	742.94
507.073	723.94
507.289	723.94
507.506	702.94
507.722	716.94
507.939	750.94
508.155	711.94
508.372	721.94
508.588	690.94
508.805	698.94
509.021	687.94
509.238	726.94
509.454	722.94
509.67	686.94
509.887	693.94
510.103	694.94
510.319	696.94
510.536	741.94
510.752	1118.94
510.968	943.94
511.184	692.94
511.401	656.94
511.617	667.94
511.833	684.94
512.049	665.94
512.265	660.94
512.481	667.94
512.698	650.94
512.914	647.94
513.13	637.94
513.346	656.94
513.562	656.94
513.778	656.94
513.994	643.94
514.21	676.94
514.426	670.94
514.642	700.94
514.858	726.94
515.074	755.94
515.29	852.94
515.506	1117.94
515.721	953.94
515.937	754.94
516.153	721.94
516.369	677.94
516.585	671.94
516.801	676.94
517.016	701.94
517.232	691.94
517.448	708.94
517.664	716.94
517.879	717.94
518.095	696.94
518.311	683.94
518.527	673.94
518.742	688.94
518.958	694.94
519.173	682.94
519.389	662.94
519.605	655.94
519.82	630.94
520.036	670.94
520.251	665.94
520.467	680.94
520.682	689.94
520.898	673.94
521.113	698.94
521.329	727.94
521.544	790.94
521.76	922.94
521.975	1382.94
522.19	1376.94
522.406	847.94
522.621	668.94
522.836	639.94
523.052	632.94
523.267	602.94
523.482	594.94
523.698	593.94
523.913	577.94
524.128	580.94
524.343	569.94
524.559	584.94
524.774	581.94
524.989	581.94
525.204	571.94
525.419	562.94
525.634	562.94
525.849	539.94
526.064	562.94
526.28	546.94
526.495	536.94
526.71	562.94
526.925	528.94
527.14	549.94
527.355	531.94
527.57	528.94
527.785	556.94
527.999	520.94
528.214	540.94
528.429	535.94
528.644	533.94
528.859	550.94
529.074	546.94
529.289	549.94
529.503	608.94
529.718	580.94
529.933	564.94
530.148	545.94
530.363	550.94
530.577	537.94
530.792	542.94
531.007	525.94
531.221	525.94
531.436	532.94
531.651	522.94
531.865	518.94
532.08	553.94
532.295	535.94
532.509	518.94
532.724	515.94
532.938	516.94
533.153	519.94
533.367	496.94
533.582	523.94
533.796	527.94
534.011	507.94
534.225	514.94
534.44	540.94
534.654	501.94
534.868	516.94
535.083	527.94
535.297	512.94
535.511	511.94
535.726	517.94
535.94	524.94
536.154	504.94
536.369	514.94
536.583	509.94
536.797	512.94
537.011	508.94
537.225	518.94
537.44	509.94
537.654	491.94
537.868	514.94
538.082	505.94
538.296	514.94
538.51	492.94
538.724	503.94
538.938	500.94
539.153	500.94
539.367	509.94
539.581	501.94
539.795	474.94
540.009	496.94
540.222	491.94
540.436	498.94
540.65	507.94
540.864	519.94
541.078	516.94
541.292	522.94
541.506	498.94
541.72	510.94
541.934	493.94
542.147	504.94
542.361	518.94
542.575	472.94
542.789	506.94
543.002	496.94
543.216	486.94
543.43	482.94
543.644	492.94
543.857	501.94
544.071	502.94
544.285	474.94
544.498	487.94
544.712	478.94
544.925	496.94
545.139	483.94
545.352	489.94
545.566	505.94
545.779	456.94
545.993	491.94
546.206	490.94
546.42	485.94
546.633	455.94
546.847	476.94
547.06	506.94
547.274	504.94
547.487	483.94
547.7	486.94
547.914	503.94
548.127	489.94
548.34	476.94
548.554	491.94
548.767	501.94
548.98	495.94
549.193	488.94
549.407	488.94
549.62	498.94
549.833	478.94
550.046	481.94
550.259	482.94
550.473	481.94
550.686	473.94
550.899	501.94
551.112	486.94
551.325	478.94
551.538	503.94
551.751	472.94
551.964	456.94
552.177	466.94
552.39	486.94
552.603	507.94
552.816	500.94
553.029	496.94
553.242	503.94
553.455	507.94
553.667	499.94
553.88	517.94
554.093	521.94
554.306	488.94
554.519	479.94
554.732	494.94
554.944	482.94
555.157	484.94
555.37	474.94
555.583	466.94
555.795	455.94
556.008	454.94
556.221	451.94
556.433	443.94
556.646	427.94
556.859	459.94
557.071	431.94
557.284	420.94
557.496	422.94
557.709	435.94
557.921	451.94
558.134	415.94
558.346	415.94
558.559	432.94
558.771	431.94
558.984	442.94
559.196	428.94
559.409	420.94
559.621	416.94
559.833	430.94
560.046	416.94
560.258	444.94
560.47	419.94
560.683	427.94
560.895	423.94
561.107	411.94
561.32	421.94
561.532	412.94
561.744	422.94
561.956	428.94
562.168	426.94
562.381	451.94
562.593	434.94
562.805	420.94
563.017	440.94
563.229	428.94
563.441	436.94
563.653	415.94
563.865	434.94
564.077	430.94
564.289	430.94
564.501	440.94
564.713	461.94
564.925	446.94
565.137	459.94
565.349	472.94
565.561	482.94
565.773	488.94
565.985	495.94
566.197	510.94
566.408	511.94
566.62	525.94
566.832	563.94
567.044	573.94
567.255	564.94
567.467	594.94
567.679	603.94
567.891	606.94
568.102	621.94
568.314	582.94
568.526	564.94
568.737	553.94
568.949	527.94
569.161	475.94
569.372	461.94
569.584	463.94
569.795	457.94
570.007	450.94
570.218	471.94
570.43	458.94
570.641	426.94
570.853	428.94
571.064	424.94
571.276	423.94
571.487	417.94
571.698	419.94
571.91	409.94
572.121	404.94
572.333	391.94
572.544	391.94
572.755	409.94
572.966	397.94
573.178	388.94
573.389	376.94
573.6	388.94
573.811	362.94
574.023	380.94
574.234	382.94
574.445	360.94
574.656	376.94
574.867	367.94
575.078	338.94
575.289	372.94
575.501	367.94
575.712	370.94
575.923	340.94
576.134	346.94
576.345	366.94
576.556	363.94
576.767	341.94
576.978	361.94
577.188	350.94
577.399	349.94
577.61	374.94
577.821	351.94
578.032	351.94
578.243	394.94
578.454	525.94
578.665	417.94
578.875	377.94
579.086	365.94
579.297	353.94
579.508	323.94
579.718	340.94
579.929	352.94
580.14	339.94
580.35	344.94
580.561	323.94
580.772	333.94
580.982	336.94
581.193	316.94
581.403	324.94
581.614	308.94
581.825	330.94
582.035	319.94
582.246	329.94
582.456	325.94
582.667	330.94
582.877	330.94
583.087	333.94
583.298	312.94
583.508	320.94
583.719	332.94
583.929	333.94
584.139	328.94
584.35	330.94
584.56	323.94
584.77	327.94
584.981	338.94
585.191	324.94
585.401	318.94
585.611	327.94
585.821	330.94
586.032	332.94
586.242	319.94
586.452	334.94
586.662	324.94
586.872	323.94
587.082	315.94
587.292	320.94
587.502	333.94
587.713	330.94
587.923	330.94
588.133	328.94
588.343	312.94
588.553	323.94
588.762	311.94
588.972	319.94
589.182	336.94
589.392	333.94
589.602	332.94
589.812	337.94
590.022	313.94
590.232	332.94
590.441	325.94
590.651	316.94
590.861	326.94
591.071	318.94
591.281	327.94
591.49	322.94
591.7	315.94
591.91	319.94
592.119	332.94
592.329	336.94
592.539	346.94
592.748	350.94
592.958	375.94
593.167	362.94
593.377	367.94
593.587	353.94
593.796	356.94
594.006	358.94
594.215	342.94
594.424	360.94
594.634	343.94
594.843	353.94
595.053	342.94
595.262	346.94
595.472	335.94
595.681	326.94
595.89	313.94
596.1	316.94
596.309	334.94
596.518	336.94
596.727	319.94
596.937	313.94
597.146	295.94
597.355	311.94
597.564	311.94
597.774	315.94
597.983	300.94
598.192	294.94
598.401	312.94
598.61	306.94
598.819	307.94
599.028	278.94
599.237	267.94
599.446	298.94
599.655	285.94
599.864	289.94
600.073	283.94
600.282	283.94
600.491	284.94
600.7	287.94
600.909	285.94
601.118	280.94
601.327	286.94
601.536	282.94
601.745	278.94
601.953	279.94
602.162	273.94
602.371	291.94
602.58	283.94
602.789	278.94
602.997	271.94
603.206	280.94
603.415	278.94
603.623	283.94
603.832	276.94
604.041	271.94
604.249	270.94
604.458	259.94
604.666	270.94
604.875	277.94
605.084	267.94
605.292	283.94
605.501	275.94
605.709	270.94
605.918	276.94
606.126	287.94
606.334	261.94
606.543	261.94
606.751	267.94
606.96	260.94
607.168	268.94
607.376	274.94
607.585	258.94
607.793	263.94
608.001	274.94
608.21	272.94
608.418	264.94
608.626	269.94
608.834	262.94
609.043	263.94
609.251	259.94
609.459	261.94
609.667	268.94
609.875	256.94
610.083	276.94
610.291	265.94
610.499	267.94
610.707	259.94
610.916	279.94
611.124	256.94
611.332	271.94
611.54	268.94
611.748	290.94
611.955	285.94
612.163	278.94
612.371	262.94
612.579	268.94
612.787	253.94
612.995	273.94
613.203	272.94
613.411	251.94
613.618	260.94
613.826	261.94
614.034	270.94
614.242	262.94
614.449	251.94
614.657	257.94
614.865	253.94
615.072	259.94
615.28	261.94
615.488	260.94
615.695	248.94
615.903	252.94
616.111	257.94
616.318	272.94
616.526	266.94
616.733	260.94
616.941	244.94
617.148	258.94
617.356	250.94
617.563	238.94
617.771	267.94
617.978	267.94
618.185	266.94
618.393	248.94
618.6	239.94
618.807	249.94
619.015	253.94
619.222	246.94
619.429	243.94
619.637	249.94
619.844	247.94
620.051	263.94
620.258	254.94
620.466	234.94
620.673	229.94
620.88	247.94
621.087	262.94
621.294	232.94
621.501	239.94
621.708	249.94
621.915	246.94
622.122	239.94
622.329	254.94
622.536	236.94
622.743	231.94
622.95	223.94
623.157	225.94
623.364	232.94
623.571	252.94
623.778	243.94
623.985	229.94
624.192	234.94
624.399	240.94
624.606	221.94
624.812	229.94
625.019	238.94
625.226	247.94
625.433	226.94
625.639	244.94
625.846	226.94
626.053	201.94
626.259	238.94
626.466	236.94
626.673	231.94
626.879	234.94
627.086	219.94
627.293	200.94
627.499	218.94
627.706	220.94
627.912	226.94
628.119	216.94
628.325	216.94
628.532	238.94
628.738	234.94
628.945	230.94
629.151	208.94
629.357	206.94
629.564	224.94
629.77	218.94
629.976	213.94
630.183	206.94
630.389	203.94
630.595	227.94
630.802	217.94
631.008	205.94
631.214	195.94
631.42	222.94
631.627	230.94
631.833	191.94
632.039	199.94
632.245	194.94
632.451	204.94
632.657	212.94
632.863	203.94
633.069	182.94
633.275	201.94
633.481	203.94
633.688	199.94
633.893	217.94
634.099	224.94
634.305	204.94
634.511	210.94
634.717	192.94
634.923	188.94
635.129	196.94
635.335	205.94
635.541	196.94
635.747	199.94
635.952	203.94
636.158	202.94
636.364	206.94
636.57	187.94
636.775	207.94
636.981	194.94
637.187	199.94
637.392	194.94
637.598	188.94
637.804	183.94
638.009	201.94
638.215	208.94
638.421	170.94
638.626	182.94
638.832	198.94
639.037	193.94
639.243	194.94
639.448	186.94
639.654	182.94
639.859	179.94
640.065	163.94
640.27	184.94
640.475	194.94
640.681	181.94
640.886	188.94
641.091	202.94
641.297	194.94
641.502	175.94
641.707	182.94
641.913	170.94
642.118	193.94
642.323	192.94
642.528	172.94
642.733	194.94
642.939	166.94
643.144	171.94
643.349	172.94
643.554	175.94
643.759	176.94
643.964	170.94
644.169	172.94
644.374	176.94
644.579	210.94
644.784	172.94
644.989	179.94
645.194	172.94
645.399	157.94
645.604	186.94
645.809	181.94
646.014	183.94
646.219	178.94
646.423	179.94
646.628	182.94
646.833	171.94
647.038	182.94
647.243	178.94
647.447	179.94
647.652	171.94
647.857	187.94
648.062	182.94
648.266	167.94
648.471	194.94
648.676	178.94
648.88	182.94
649.085	188.94
649.289	182.94
649.494	190.94
649.698	208.94
649.903	207.94
650.107	173.94
650.312	190.94
650.516	170.94
650.721	170.94
650.925	168.94
651.13	159.94
651.334	162.94
651.539	170.94
651.743	163.94
651.947	150.94
652.152	164.94
652.356	155.94
652.56	170.94
652.764	159.94
652.969	157.94
653.173	148.94
653.377	148.94
653.581	160.94
653.785	157.94
653.99	156.94
654.194	140.94
654.398	134.94
654.602	144.94
654.806	143.94
655.01	155.94
655.214	143.94
655.418	132.94
655.622	154.94
655.826	145.94
656.03	135.94
656.234	148.94
656.438	157.94
656.642	158.94
656.846	154.94
657.049	130.94
657.253	134.94
657.457	136.94
657.661	110.94
657.865	127.94
658.068	114.94
658.272	127.94
658.476	125.94
658.68	108.94
658.883	110.94
659.087	111.94
659.291	114.94
659.494	111.94
659.698	102.94
659.901	90.94
660.105	107.94
660.309	90.94
660.512	108.94
660.716	121.94
660.919	104.94
661.123	92.94
661.326	86.94
661.53	95.94
661.733	96.94
661.936	99.94
662.14	93.94
662.343	92.94
662.546	102.94
662.75	90.94
662.953	83.94
663.156	85.94
663.36	93.94
663.563	90.94
663.766	88.94
663.969	85.94
664.173	89.94
664.376	91.94
664.579	84.94
664.782	89.94
664.985	89.94
665.188	77.94
665.391	88.94
665.594	87.94
665.797	85.94
666	81.94
666.203	91.94
666.406	89.94
666.609	79.94
666.812	71.94
667.015	79.94
667.218	76.94
667.421	83.94
667.624	74.94
667.827	89.94
668.03	78.94
668.232	87.94
668.435	86.94
668.638	93.94
668.841	93.94
669.043	80.94
669.246	86.94
669.449	75.94
669.651	72.94
669.854	72.94
670.057	104.94
670.259	79.94
670.462	92.94
670.665	94.94
670.867	91.94
671.07	75.94
671.272	99.94
671.475	80.94
671.677	81.94
671.88	92.94
672.082	89.94
672.284	87.94
672.487	86.94
672.689	87.94
672.892	75.94
