Data from 1975.PennyLincolnUp.Lamp.En5.5.200Scan.071719.P1.Changed Mount._HRD10591_15-58-09-859.txt Node
Date: Thu Jul 18 15:58:09 EDT 2019
User: cochatt
Spectrometer: HR+D1059
Trigger mode: 1
Integration Time (sec): 1.000000E-1
Scans to average: 1
Electric dark correction enabled: true
Nonlinearity correction enabled: false
Boxcar width: 0
XAxis mode: Wavelengths
Number of Pixels in Spectrum: 2048
>>>>>Begin Spectral Data<<<<<
223.165	-17.44
223.4	-17.44
223.635	-17.44
223.869	-19.44
224.104	-18.44
224.338	-8.44
224.573	-11.44
224.808	-5.44
225.042	-8.44
225.277	1.56
225.511	-12.44
225.746	0.56
225.98	1.56
226.215	9.56
226.449	13.56
226.683	17.56
226.918	25.56
227.152	31.56
227.387	48.56
227.621	31.56
227.856	52.56
228.09	52.56
228.324	47.56
228.559	52.56
228.793	71.56
229.027	105.56
229.262	104.56
229.496	111.56
229.73	126.56
229.964	168.56
230.199	132.56
230.433	105.56
230.667	110.56
230.901	114.56
231.136	122.56
231.37	111.56
231.604	123.56
231.838	130.56
232.072	106.56
232.306	119.56
232.541	110.56
232.775	112.56
233.009	122.56
233.243	108.56
233.477	118.56
233.711	113.56
233.945	122.56
234.179	119.56
234.413	124.56
234.647	130.56
234.881	126.56
235.115	129.56
235.349	117.56
235.583	121.56
235.817	139.56
236.051	136.56
236.285	136.56
236.519	135.56
236.753	123.56
236.987	130.56
237.221	183.56
237.455	232.56
237.689	180.56
237.922	157.56
238.156	131.56
238.39	144.56
238.624	132.56
238.858	135.56
239.091	133.56
239.325	138.56
239.559	117.56
239.793	152.56
240.027	150.56
240.26	116.56
240.494	155.56
240.728	151.56
240.961	158.56
241.195	144.56
241.429	160.56
241.662	144.56
241.896	138.56
242.13	166.56
242.363	139.56
242.597	148.56
242.83	144.56
243.064	147.56
243.298	151.56
243.531	163.56
243.765	144.56
243.998	147.56
244.232	150.56
244.465	159.56
244.699	146.56
244.932	160.56
245.166	161.56
245.399	142.56
245.633	150.56
245.866	157.56
246.099	151.56
246.333	147.56
246.566	138.56
246.8	158.56
247.033	163.56
247.266	166.56
247.5	180.56
247.733	175.56
247.966	189.56
248.2	183.56
248.433	169.56
248.666	179.56
248.899	186.56
249.133	203.56
249.366	208.56
249.599	188.56
249.832	205.56
250.066	188.56
250.299	189.56
250.532	206.56
250.765	209.56
250.998	230.56
251.231	228.56
251.465	217.56
251.698	207.56
251.931	189.56
252.164	208.56
252.397	190.56
252.63	206.56
252.863	206.56
253.096	220.56
253.329	232.56
253.562	235.56
253.795	236.56
254.028	211.56
254.261	215.56
254.494	234.56
254.727	232.56
254.96	285.56
255.193	279.56
255.426	262.56
255.659	239.56
255.892	236.56
256.124	243.56
256.357	235.56
256.59	234.56
256.823	228.56
257.056	222.56
257.289	220.56
257.521	204.56
257.754	220.56
257.987	216.56
258.22	236.56
258.452	240.56
258.685	222.56
258.918	203.56
259.151	217.56
259.383	208.56
259.616	213.56
259.849	214.56
260.081	244.56
260.314	263.56
260.547	270.56
260.779	243.56
261.012	255.56
261.244	244.56
261.477	246.56
261.71	223.56
261.942	226.56
262.175	231.56
262.407	235.56
262.64	230.56
262.872	222.56
263.105	237.56
263.337	237.56
263.57	234.56
263.802	204.56
264.035	231.56
264.267	228.56
264.499	223.56
264.732	229.56
264.964	236.56
265.197	211.56
265.429	226.56
265.661	210.56
265.894	220.56
266.126	211.56
266.358	235.56
266.591	216.56
266.823	254.56
267.055	222.56
267.287	234.56
267.52	231.56
267.752	240.56
267.984	239.56
268.216	250.56
268.448	258.56
268.681	265.56
268.913	254.56
269.145	258.56
269.377	281.56
269.609	282.56
269.841	263.56
270.073	310.56
270.306	292.56
270.538	320.56
270.77	325.56
271.002	303.56
271.234	294.56
271.466	324.56
271.698	325.56
271.93	329.56
272.162	317.56
272.394	316.56
272.626	311.56
272.858	294.56
273.09	290.56
273.322	283.56
273.553	258.56
273.785	272.56
274.017	281.56
274.249	272.56
274.481	271.56
274.713	283.56
274.945	264.56
275.176	278.56
275.408	287.56
275.64	284.56
275.872	270.56
276.104	280.56
276.335	284.56
276.567	283.56
276.799	292.56
277.031	314.56
277.262	324.56
277.494	333.56
277.726	324.56
277.957	295.56
278.189	290.56
278.421	286.56
278.652	293.56
278.884	279.56
279.115	286.56
279.347	267.56
279.579	284.56
279.81	291.56
280.042	269.56
280.273	275.56
280.505	286.56
280.736	279.56
280.968	284.56
281.199	278.56
281.431	295.56
281.662	285.56
281.894	286.56
282.125	289.56
282.356	302.56
282.588	329.56
282.819	303.56
283.051	288.56
283.282	311.56
283.513	287.56
283.745	309.56
283.976	316.56
284.207	299.56
284.439	306.56
284.67	296.56
284.901	289.56
285.132	308.56
285.364	310.56
285.595	293.56
285.826	281.56
286.057	287.56
286.288	316.56
286.52	299.56
286.751	305.56
286.982	290.56
287.213	328.56
287.444	314.56
287.675	317.56
287.906	304.56
288.138	313.56
288.369	310.56
288.6	322.56
288.831	320.56
289.062	321.56
289.293	322.56
289.524	318.56
289.755	311.56
289.986	310.56
290.217	295.56
290.448	303.56
290.679	300.56
290.91	314.56
291.141	306.56
291.371	309.56
291.602	303.56
291.833	306.56
292.064	308.56
292.295	311.56
292.526	298.56
292.757	319.56
292.987	311.56
293.218	320.56
293.449	320.56
293.68	314.56
293.91	305.56
294.141	311.56
294.372	312.56
294.603	335.56
294.833	314.56
295.064	325.56
295.295	333.56
295.525	320.56
295.756	331.56
295.987	299.56
296.217	338.56
296.448	341.56
296.679	350.56
296.909	320.56
297.14	326.56
297.37	328.56
297.601	312.56
297.831	331.56
298.062	311.56
298.292	320.56
298.523	330.56
298.753	333.56
298.984	334.56
299.214	328.56
299.445	339.56
299.675	338.56
299.905	327.56
300.136	339.56
300.366	338.56
300.597	336.56
300.827	331.56
301.057	342.56
301.288	327.56
301.518	342.56
301.748	351.56
301.979	359.56
302.209	333.56
302.439	349.56
302.669	361.56
302.9	346.56
303.13	320.56
303.36	346.56
303.59	342.56
303.82	343.56
304.051	351.56
304.281	355.56
304.511	335.56
304.741	347.56
304.971	373.56
305.201	348.56
305.431	358.56
305.661	350.56
305.891	349.56
306.121	358.56
306.352	342.56
306.582	325.56
306.812	339.56
307.042	344.56
307.272	352.56
307.502	348.56
307.731	360.56
307.961	337.56
308.191	340.56
308.421	341.56
308.651	340.56
308.881	347.56
309.111	358.56
309.341	346.56
309.571	360.56
309.8	352.56
310.03	367.56
310.26	372.56
310.49	380.56
310.72	396.56
310.949	393.56
311.179	403.56
311.409	401.56
311.639	382.56
311.868	394.56
312.098	394.56
312.328	378.56
312.557	375.56
312.787	414.56
313.017	436.56
313.246	384.56
313.476	401.56
313.706	380.56
313.935	394.56
314.165	401.56
314.394	391.56
314.624	405.56
314.853	425.56
315.083	396.56
315.312	377.56
315.542	390.56
315.771	381.56
316.001	387.56
316.23	380.56
316.46	406.56
316.689	395.56
316.919	386.56
317.148	416.56
317.377	404.56
317.607	387.56
317.836	403.56
318.065	379.56
318.295	385.56
318.524	395.56
318.753	387.56
318.983	399.56
319.212	387.56
319.441	390.56
319.67	398.56
319.9	389.56
320.129	363.56
320.358	419.56
320.587	399.56
320.816	419.56
321.046	418.56
321.275	400.56
321.504	413.56
321.733	394.56
321.962	400.56
322.191	415.56
322.42	438.56
322.649	431.56
322.878	464.56
323.108	458.56
323.337	462.56
323.566	489.56
323.795	515.56
324.024	533.56
324.253	628.56
324.482	866.56
324.71	1298.56
324.939	1967.56
325.168	1693.56
325.397	859.56
325.626	599.56
325.855	534.56
326.084	488.56
326.313	485.56
326.542	470.56
326.77	503.56
326.999	598.56
327.228	797.56
327.457	1177.56
327.686	1484.56
327.914	979.56
328.143	674.56
328.372	587.56
328.6	542.56
328.829	534.56
329.058	536.56
329.287	540.56
329.515	533.56
329.744	499.56
329.972	501.56
330.201	520.56
330.43	557.56
330.658	574.56
330.887	584.56
331.115	573.56
331.344	531.56
331.572	496.56
331.801	492.56
332.03	483.56
332.258	508.56
332.486	474.56
332.715	477.56
332.943	464.56
333.172	484.56
333.4	482.56
333.629	503.56
333.857	525.56
334.085	544.56
334.314	535.56
334.542	564.56
334.771	562.56
334.999	508.56
335.227	515.56
335.455	495.56
335.684	486.56
335.912	465.56
336.14	478.56
336.369	459.56
336.597	478.56
336.825	474.56
337.053	480.56
337.281	464.56
337.51	463.56
337.738	450.56
337.966	459.56
338.194	455.56
338.422	457.56
338.65	454.56
338.878	439.56
339.106	457.56
339.334	461.56
339.562	439.56
339.79	457.56
340.018	455.56
340.246	448.56
340.474	454.56
340.702	441.56
340.93	450.56
341.158	446.56
341.386	448.56
341.614	456.56
341.842	450.56
342.07	448.56
342.298	427.56
342.526	435.56
342.754	426.56
342.981	422.56
343.209	437.56
343.437	455.56
343.665	479.56
343.893	474.56
344.12	476.56
344.348	484.56
344.576	483.56
344.804	459.56
345.031	462.56
345.259	450.56
345.487	442.56
345.714	462.56
345.942	432.56
346.17	460.56
346.397	449.56
346.625	428.56
346.853	437.56
347.08	434.56
347.308	436.56
347.535	426.56
347.763	430.56
347.99	459.56
348.218	450.56
348.445	451.56
348.673	455.56
348.9	433.56
349.128	436.56
349.355	423.56
349.583	416.56
349.81	427.56
350.037	436.56
350.265	427.56
350.492	432.56
350.72	429.56
350.947	421.56
351.174	441.56
351.402	430.56
351.629	463.56
351.856	455.56
352.083	440.56
352.311	448.56
352.538	461.56
352.765	451.56
352.992	427.56
353.22	429.56
353.447	438.56
353.674	438.56
353.901	429.56
354.128	406.56
354.355	432.56
354.583	409.56
354.81	400.56
355.037	402.56
355.264	407.56
355.491	412.56
355.718	418.56
355.945	416.56
356.172	396.56
356.399	422.56
356.626	399.56
356.853	404.56
357.08	391.56
357.307	414.56
357.534	419.56
357.761	401.56
357.988	425.56
358.215	414.56
358.441	398.56
358.668	406.56
358.895	422.56
359.122	435.56
359.349	411.56
359.576	441.56
359.802	467.56
360.029	475.56
360.256	479.56
360.483	467.56
360.709	426.56
360.936	452.56
361.163	431.56
361.39	450.56
361.616	450.56
361.843	443.56
362.07	459.56
362.296	438.56
362.523	435.56
362.749	439.56
362.976	436.56
363.203	400.56
363.429	423.56
363.656	420.56
363.882	424.56
364.109	440.56
364.335	424.56
364.562	410.56
364.788	423.56
365.015	408.56
365.241	437.56
365.468	443.56
365.694	443.56
365.92	437.56
366.147	445.56
366.373	403.56
366.599	430.56
366.826	434.56
367.052	441.56
367.278	410.56
367.505	405.56
367.731	450.56
367.957	428.56
368.184	446.56
368.41	427.56
368.636	437.56
368.862	451.56
369.089	437.56
369.315	431.56
369.541	432.56
369.767	430.56
369.993	434.56
370.219	420.56
370.445	443.56
370.672	468.56
370.898	426.56
371.124	438.56
371.35	424.56
371.576	415.56
371.802	443.56
372.028	423.56
372.254	429.56
372.48	427.56
372.706	431.56
372.932	413.56
373.158	445.56
373.384	444.56
373.61	438.56
373.835	446.56
374.061	426.56
374.287	431.56
374.513	434.56
374.739	460.56
374.965	456.56
375.191	448.56
375.416	452.56
375.642	463.56
375.868	445.56
376.094	411.56
376.319	422.56
376.545	439.56
376.771	430.56
376.997	437.56
377.222	426.56
377.448	392.56
377.674	423.56
377.899	414.56
378.125	421.56
378.35	437.56
378.576	443.56
378.802	406.56
379.027	428.56
379.253	436.56
379.478	413.56
379.704	428.56
379.929	461.56
380.155	435.56
380.38	422.56
380.606	433.56
380.831	438.56
381.057	439.56
381.282	425.56
381.507	443.56
381.733	439.56
381.958	450.56
382.184	429.56
382.409	435.56
382.634	434.56
382.86	435.56
383.085	451.56
383.31	471.56
383.535	445.56
383.761	450.56
383.986	456.56
384.211	467.56
384.436	454.56
384.662	463.56
384.887	510.56
385.112	476.56
385.337	468.56
385.562	486.56
385.787	483.56
386.013	508.56
386.238	474.56
386.463	480.56
386.688	482.56
386.913	459.56
387.138	481.56
387.363	498.56
387.588	491.56
387.813	477.56
388.038	475.56
388.263	477.56
388.488	479.56
388.713	491.56
388.938	480.56
389.163	493.56
389.387	479.56
389.612	465.56
389.837	466.56
390.062	463.56
390.287	458.56
390.512	461.56
390.736	494.56
390.961	492.56
391.186	502.56
391.411	490.56
391.636	494.56
391.86	513.56
392.085	495.56
392.31	508.56
392.534	537.56
392.759	492.56
392.984	499.56
393.208	492.56
393.433	510.56
393.658	502.56
393.882	494.56
394.107	490.56
394.331	486.56
394.556	508.56
394.78	501.56
395.005	494.56
395.229	492.56
395.454	511.56
395.678	498.56
395.903	518.56
396.127	559.56
396.352	534.56
396.576	511.56
396.801	501.56
397.025	511.56
397.249	527.56
397.474	497.56
397.698	496.56
397.922	532.56
398.147	545.56
398.371	545.56
398.595	555.56
398.82	558.56
399.044	597.56
399.268	589.56
399.492	645.56
399.717	697.56
399.941	714.56
400.165	718.56
400.389	715.56
400.613	650.56
400.837	599.56
401.062	582.56
401.286	558.56
401.51	576.56
401.734	552.56
401.958	564.56
402.182	543.56
402.406	556.56
402.63	560.56
402.854	592.56
403.078	570.56
403.302	582.56
403.526	588.56
403.75	604.56
403.974	588.56
404.198	585.56
404.422	586.56
404.645	615.56
404.869	610.56
405.093	644.56
405.317	668.56
405.541	722.56
405.765	662.56
405.988	629.56
406.212	622.56
406.436	642.56
406.66	631.56
406.883	639.56
407.107	678.56
407.331	704.56
407.555	771.56
407.778	782.56
408.002	674.56
408.226	675.56
408.449	655.56
408.673	647.56
408.896	670.56
409.12	733.56
409.344	697.56
409.567	618.56
409.791	622.56
410.014	589.56
410.238	583.56
410.461	578.56
410.685	606.56
410.908	596.56
411.132	635.56
411.355	675.56
411.578	631.56
411.802	602.56
412.025	591.56
412.249	584.56
412.472	607.56
412.695	686.56
412.919	664.56
413.142	598.56
413.365	592.56
413.589	573.56
413.812	583.56
414.035	542.56
414.258	552.56
414.482	578.56
414.705	562.56
414.928	573.56
415.151	552.56
415.374	570.56
415.597	572.56
415.821	552.56
416.044	566.56
416.267	565.56
416.49	556.56
416.713	536.56
416.936	547.56
417.159	509.56
417.382	552.56
417.605	554.56
417.828	570.56
418.051	575.56
418.274	564.56
418.497	566.56
418.72	578.56
418.943	552.56
419.166	587.56
419.389	636.56
419.611	586.56
419.834	597.56
420.057	587.56
420.28	584.56
420.503	576.56
420.726	591.56
420.948	588.56
421.171	627.56
421.394	643.56
421.617	600.56
421.839	559.56
422.062	580.56
422.285	588.56
422.507	630.56
422.73	734.56
422.953	719.56
423.175	645.56
423.398	601.56
423.621	626.56
423.843	638.56
424.066	630.56
424.288	610.56
424.511	622.56
424.733	703.56
424.956	767.56
425.178	723.56
425.401	734.56
425.623	796.56
425.846	650.56
426.068	613.56
426.291	606.56
426.513	617.56
426.735	621.56
426.958	677.56
427.18	752.56
427.402	853.56
427.625	936.56
427.847	824.56
428.069	690.56
428.292	645.56
428.514	611.56
428.736	568.56
428.958	578.56
429.181	552.56
429.403	561.56
429.625	571.56
429.847	604.56
430.069	671.56
430.292	663.56
430.514	587.56
430.736	563.56
430.958	554.56
431.18	532.56
431.402	542.56
431.624	531.56
431.846	513.56
432.068	518.56
432.29	529.56
432.512	524.56
432.734	556.56
432.956	539.56
433.178	528.56
433.4	573.56
433.622	539.56
433.844	526.56
434.066	534.56
434.287	541.56
434.509	571.56
434.731	546.56
434.953	568.56
435.175	568.56
435.397	623.56
435.618	622.56
435.84	648.56
436.062	731.56
436.284	844.56
436.505	670.56
436.727	630.56
436.949	580.56
437.17	573.56
437.392	554.56
437.614	578.56
437.835	621.56
438.057	705.56
438.278	816.56
438.5	799.56
438.721	863.56
438.943	851.56
439.165	666.56
439.386	616.56
439.608	623.56
439.829	609.56
440.05	655.56
440.272	664.56
440.493	632.56
440.715	593.56
440.936	570.56
441.158	545.56
441.379	556.56
441.6	578.56
441.822	620.56
442.043	664.56
442.264	727.56
442.486	774.56
442.707	660.56
442.928	648.56
443.149	648.56
443.371	638.56
443.592	688.56
443.813	789.56
444.034	882.56
444.255	737.56
444.476	655.56
444.698	644.56
444.919	646.56
445.14	746.56
445.361	694.56
445.582	644.56
445.803	735.56
446.024	826.56
446.245	828.56
446.466	771.56
446.687	661.56
446.908	612.56
447.129	570.56
447.35	586.56
447.571	563.56
447.792	538.56
448.013	544.56
448.234	570.56
448.455	626.56
448.675	720.56
448.896	849.56
449.117	723.56
449.338	694.56
449.559	788.56
449.779	891.56
450	703.56
450.221	600.56
450.442	564.56
450.662	545.56
450.883	531.56
451.104	547.56
451.324	550.56
451.545	528.56
451.766	517.56
451.986	485.56
452.207	482.56
452.428	479.56
452.648	493.56
452.869	516.56
453.089	518.56
453.31	515.56
453.53	480.56
453.751	477.56
453.971	501.56
454.192	518.56
454.412	509.56
454.633	482.56
454.853	492.56
455.073	494.56
455.294	532.56
455.514	610.56
455.734	583.56
455.955	493.56
456.175	468.56
456.395	456.56
456.616	463.56
456.836	489.56
457.056	448.56
457.276	448.56
457.497	485.56
457.717	489.56
457.937	476.56
458.157	469.56
458.377	503.56
458.598	516.56
458.818	564.56
459.038	659.56
459.258	643.56
459.478	565.56
459.698	529.56
459.918	535.56
460.138	534.56
460.358	559.56
460.578	564.56
460.798	557.56
461.018	564.56
461.238	550.56
461.458	569.56
461.678	562.56
461.898	567.56
462.118	550.56
462.338	598.56
462.558	591.56
462.777	599.56
462.997	601.56
463.217	626.56
463.437	661.56
463.657	631.56
463.876	605.56
464.096	622.56
464.316	599.56
464.536	611.56
464.755	591.56
464.975	602.56
465.195	632.56
465.414	640.56
465.634	590.56
465.854	557.56
466.073	556.56
466.293	547.56
466.512	516.56
466.732	502.56
466.951	492.56
467.171	514.56
467.391	530.56
467.61	547.56
467.829	545.56
468.049	551.56
468.268	533.56
468.488	492.56
468.707	508.56
468.927	498.56
469.146	495.56
469.365	514.56
469.585	484.56
469.804	498.56
470.023	520.56
470.243	510.56
470.462	517.56
470.681	536.56
470.901	543.56
471.12	518.56
471.339	539.56
471.558	558.56
471.777	535.56
471.997	531.56
472.216	516.56
472.435	530.56
472.654	539.56
472.873	539.56
473.092	520.56
473.311	521.56
473.53	519.56
473.749	518.56
473.968	541.56
474.187	669.56
474.406	683.56
474.625	577.56
474.844	540.56
475.063	539.56
475.282	504.56
475.501	523.56
475.72	516.56
475.939	541.56
476.158	506.56
476.377	547.56
476.596	546.56
476.814	536.56
477.033	538.56
477.252	551.56
477.471	554.56
477.69	539.56
477.908	567.56
478.127	576.56
478.346	574.56
478.564	600.56
478.783	610.56
479.002	589.56
479.22	616.56
479.439	625.56
479.658	598.56
479.876	614.56
480.095	642.56
480.313	644.56
480.532	650.56
480.751	650.56
480.969	669.56
481.188	695.56
481.406	725.56
481.624	655.56
481.843	626.56
482.061	617.56
482.28	623.56
482.498	613.56
482.717	627.56
482.935	589.56
483.153	624.56
483.372	603.56
483.59	607.56
483.808	613.56
484.027	615.56
484.245	623.56
484.463	602.56
484.681	621.56
484.9	630.56
485.118	628.56
485.336	639.56
485.554	614.56
485.772	632.56
485.99	633.56
486.209	645.56
486.427	636.56
486.645	652.56
486.863	660.56
487.081	670.56
487.299	643.56
487.517	650.56
487.735	663.56
487.953	664.56
488.171	652.56
488.389	630.56
488.607	645.56
488.825	654.56
489.043	648.56
489.261	656.56
489.479	675.56
489.696	685.56
489.914	670.56
490.132	676.56
490.35	689.56
490.568	662.56
490.786	671.56
491.003	705.56
491.221	710.56
491.439	719.56
491.657	725.56
491.874	726.56
492.092	741.56
492.31	759.56
492.527	775.56
492.745	751.56
492.963	770.56
493.18	770.56
493.398	778.56
493.615	750.56
493.833	770.56
494.05	779.56
494.268	772.56
494.485	761.56
494.703	774.56
494.92	793.56
495.138	796.56
495.355	762.56
495.573	777.56
495.79	789.56
496.008	781.56
496.225	808.56
496.442	784.56
496.66	775.56
496.877	800.56
497.094	814.56
497.312	799.56
497.529	790.56
497.746	814.56
497.963	857.56
498.181	839.56
498.398	866.56
498.615	870.56
498.832	892.56
499.049	925.56
499.267	979.56
499.484	992.56
499.701	1053.56
499.918	1081.56
500.135	1146.56
500.352	1232.56
500.569	1261.56
500.786	1232.56
501.003	1260.56
501.22	1179.56
501.437	1143.56
501.654	1088.56
501.871	1029.56
502.088	988.56
502.305	938.56
502.522	898.56
502.739	903.56
502.956	872.56
503.172	838.56
503.389	801.56
503.606	805.56
503.823	812.56
504.04	774.56
504.256	792.56
504.473	805.56
504.69	798.56
504.907	805.56
505.123	775.56
505.34	735.56
505.557	750.56
505.773	741.56
505.99	739.56
506.207	730.56
506.423	755.56
506.64	728.56
506.856	714.56
507.073	713.56
507.289	724.56
507.506	692.56
507.722	672.56
507.939	728.56
508.155	714.56
508.372	719.56
508.588	705.56
508.805	682.56
509.021	686.56
509.238	673.56
509.454	682.56
509.67	710.56
509.887	658.56
510.103	652.56
510.319	682.56
510.536	756.56
510.752	1098.56
510.968	940.56
511.184	683.56
511.401	639.56
511.617	629.56
511.833	643.56
512.049	636.56
512.265	632.56
512.481	651.56
512.698	636.56
512.914	663.56
513.13	647.56
513.346	629.56
513.562	644.56
513.778	627.56
513.994	655.56
514.21	644.56
514.426	676.56
514.642	656.56
514.858	722.56
515.074	716.56
515.29	828.56
515.506	1125.56
515.721	956.56
515.937	732.56
516.153	685.56
516.369	685.56
516.585	678.56
516.801	696.56
517.016	668.56
517.232	664.56
517.448	684.56
517.664	718.56
517.879	690.56
518.095	701.56
518.311	697.56
518.527	669.56
518.742	688.56
518.958	671.56
519.173	638.56
519.389	655.56
519.605	659.56
519.82	630.56
520.036	657.56
520.251	661.56
520.467	662.56
520.682	667.56
520.898	686.56
521.113	702.56
521.329	704.56
521.544	761.56
521.76	910.56
521.975	1348.56
522.19	1310.56
522.406	839.56
522.621	677.56
522.836	622.56
523.052	620.56
523.267	580.56
523.482	575.56
523.698	594.56
523.913	596.56
524.128	586.56
524.343	583.56
524.559	570.56
524.774	567.56
524.989	571.56
525.204	562.56
525.419	567.56
525.634	543.56
525.849	543.56
526.064	536.56
526.28	542.56
526.495	551.56
526.71	542.56
526.925	522.56
527.14	525.56
527.355	531.56
527.57	535.56
527.785	528.56
527.999	534.56
528.214	533.56
528.429	518.56
528.644	548.56
528.859	530.56
529.074	527.56
529.289	549.56
529.503	590.56
529.718	580.56
529.933	555.56
530.148	534.56
530.363	530.56
530.577	542.56
530.792	512.56
531.007	539.56
531.221	534.56
531.436	522.56
531.651	503.56
531.865	525.56
532.08	533.56
532.295	510.56
532.509	517.56
532.724	504.56
532.938	529.56
533.153	523.56
533.367	524.56
533.582	508.56
533.796	519.56
534.011	514.56
534.225	514.56
534.44	505.56
534.654	516.56
534.868	527.56
535.083	500.56
535.297	499.56
535.511	505.56
535.726	503.56
535.94	518.56
536.154	511.56
536.369	519.56
536.583	462.56
536.797	492.56
537.011	523.56
537.225	490.56
537.44	493.56
537.654	485.56
537.868	466.56
538.082	485.56
538.296	478.56
538.51	484.56
538.724	485.56
538.938	488.56
539.153	487.56
539.367	515.56
539.581	523.56
539.795	478.56
540.009	492.56
540.222	493.56
540.436	494.56
540.65	503.56
540.864	506.56
541.078	500.56
541.292	511.56
541.506	500.56
541.72	494.56
541.934	493.56
542.147	487.56
542.361	492.56
542.575	501.56
542.789	471.56
543.002	466.56
543.216	498.56
543.43	479.56
543.644	481.56
543.857	493.56
544.071	498.56
544.285	486.56
544.498	480.56
544.712	501.56
544.925	504.56
545.139	510.56
545.352	460.56
545.566	492.56
545.779	482.56
545.993	501.56
546.206	494.56
546.42	472.56
546.633	490.56
546.847	476.56
547.06	480.56
547.274	485.56
547.487	473.56
547.7	492.56
547.914	483.56
548.127	485.56
548.34	505.56
548.554	495.56
548.767	484.56
548.98	468.56
549.193	490.56
549.407	482.56
549.62	473.56
549.833	491.56
550.046	482.56
550.259	461.56
550.473	464.56
550.686	491.56
550.899	473.56
551.112	451.56
551.325	460.56
551.538	464.56
551.751	466.56
551.964	474.56
552.177	471.56
552.39	482.56
552.603	479.56
552.816	485.56
553.029	486.56
553.242	494.56
553.455	534.56
553.667	512.56
553.88	514.56
554.093	490.56
554.306	494.56
554.519	487.56
554.732	474.56
554.944	468.56
555.157	475.56
555.37	463.56
555.583	460.56
555.795	470.56
556.008	471.56
556.221	452.56
556.433	445.56
556.646	443.56
556.859	431.56
557.071	419.56
557.284	460.56
557.496	425.56
557.709	422.56
557.921	419.56
558.134	442.56
558.346	437.56
558.559	407.56
558.771	400.56
558.984	442.56
559.196	440.56
559.409	397.56
559.621	418.56
559.833	412.56
560.046	410.56
560.258	412.56
560.47	421.56
560.683	426.56
560.895	416.56
561.107	407.56
561.32	452.56
561.532	425.56
561.744	402.56
561.956	432.56
562.168	429.56
562.381	413.56
562.593	410.56
562.805	434.56
563.017	439.56
563.229	444.56
563.441	418.56
563.653	408.56
563.865	410.56
564.077	436.56
564.289	447.56
564.501	443.56
564.713	458.56
564.925	462.56
565.137	461.56
565.349	467.56
565.561	472.56
565.773	468.56
565.985	487.56
566.197	522.56
566.408	524.56
566.62	504.56
566.832	546.56
567.044	540.56
567.255	557.56
567.467	570.56
567.679	586.56
567.891	605.56
568.102	590.56
568.314	570.56
568.526	570.56
568.737	562.56
568.949	489.56
569.161	470.56
569.372	458.56
569.584	438.56
569.795	440.56
570.007	440.56
570.218	461.56
570.43	478.56
570.641	424.56
570.853	430.56
571.064	435.56
571.276	420.56
571.487	406.56
571.698	436.56
571.91	396.56
572.121	390.56
572.333	387.56
572.544	382.56
572.755	390.56
572.966	373.56
573.178	401.56
573.389	376.56
573.6	375.56
573.811	369.56
574.023	374.56
574.234	384.56
574.445	377.56
574.656	367.56
574.867	378.56
575.078	364.56
575.289	355.56
575.501	366.56
575.712	350.56
575.923	358.56
576.134	368.56
576.345	363.56
576.556	362.56
576.767	352.56
576.978	359.56
577.188	357.56
577.399	362.56
577.61	325.56
577.821	348.56
578.032	362.56
578.243	371.56
578.454	540.56
578.665	412.56
578.875	366.56
579.086	331.56
579.297	343.56
579.508	344.56
579.718	329.56
579.929	324.56
580.14	336.56
580.35	320.56
580.561	358.56
580.772	307.56
580.982	330.56
581.193	338.56
581.403	333.56
581.614	322.56
581.825	320.56
582.035	332.56
582.246	335.56
582.456	327.56
582.667	336.56
582.877	323.56
583.087	340.56
583.298	305.56
583.508	302.56
583.719	324.56
583.929	333.56
584.139	337.56
584.35	320.56
584.56	319.56
584.77	303.56
584.981	304.56
585.191	319.56
585.401	309.56
585.611	320.56
585.821	310.56
586.032	316.56
586.242	297.56
586.452	314.56
586.662	326.56
586.872	320.56
587.082	333.56
587.292	336.56
587.502	310.56
587.713	321.56
587.923	322.56
588.133	316.56
588.343	304.56
588.553	312.56
588.762	318.56
588.972	313.56
589.182	301.56
589.392	348.56
589.602	336.56
589.812	315.56
590.022	329.56
590.232	320.56
590.441	327.56
590.651	324.56
590.861	313.56
591.071	335.56
591.281	320.56
591.49	326.56
591.7	325.56
591.91	336.56
592.119	338.56
592.329	344.56
592.539	355.56
592.748	326.56
592.958	350.56
593.167	354.56
593.377	349.56
593.587	365.56
593.796	349.56
594.006	351.56
594.215	367.56
594.424	328.56
594.634	327.56
594.843	332.56
595.053	348.56
595.262	361.56
595.472	350.56
595.681	355.56
595.89	331.56
596.1	317.56
596.309	299.56
596.518	318.56
596.727	311.56
596.937	302.56
597.146	294.56
597.355	296.56
597.564	292.56
597.774	299.56
597.983	277.56
598.192	277.56
598.401	292.56
598.61	287.56
598.819	271.56
599.028	293.56
599.237	289.56
599.446	299.56
599.655	288.56
599.864	274.56
600.073	292.56
600.282	266.56
600.491	283.56
600.7	285.56
600.909	275.56
601.118	270.56
601.327	281.56
601.536	264.56
601.745	289.56
601.953	268.56
602.162	274.56
602.371	270.56
602.58	282.56
602.789	282.56
602.997	272.56
603.206	264.56
603.415	277.56
603.623	263.56
603.832	274.56
604.041	259.56
604.249	273.56
604.458	278.56
604.666	258.56
604.875	255.56
605.084	260.56
605.292	283.56
605.501	258.56
605.709	272.56
605.918	273.56
606.126	266.56
606.334	268.56
606.543	276.56
606.751	271.56
606.96	255.56
607.168	276.56
607.376	278.56
607.585	266.56
607.793	262.56
608.001	278.56
608.21	248.56
608.418	262.56
608.626	260.56
608.834	271.56
609.043	259.56
609.251	276.56
609.459	252.56
609.667	265.56
609.875	245.56
610.083	266.56
610.291	246.56
610.499	255.56
610.707	248.56
610.916	263.56
611.124	269.56
611.332	260.56
611.54	275.56
611.748	252.56
611.955	258.56
612.163	267.56
612.371	252.56
612.579	260.56
612.787	253.56
612.995	261.56
613.203	246.56
613.411	262.56
613.618	260.56
613.826	257.56
614.034	266.56
614.242	266.56
614.449	251.56
614.657	258.56
614.865	239.56
615.072	269.56
615.28	256.56
615.488	252.56
615.695	248.56
615.903	262.56
616.111	264.56
616.318	267.56
616.526	247.56
616.733	265.56
616.941	240.56
617.148	274.56
617.356	244.56
617.563	264.56
617.771	239.56
617.978	251.56
618.185	246.56
618.393	246.56
618.6	254.56
618.807	259.56
619.015	265.56
619.222	259.56
619.429	246.56
619.637	247.56
619.844	252.56
620.051	250.56
620.258	244.56
620.466	234.56
620.673	237.56
620.88	261.56
621.087	245.56
621.294	246.56
621.501	245.56
621.708	264.56
621.915	247.56
622.122	243.56
622.329	244.56
622.536	247.56
622.743	213.56
622.95	246.56
623.157	216.56
623.364	240.56
623.571	227.56
623.778	241.56
623.985	235.56
624.192	229.56
624.399	247.56
624.606	228.56
624.812	229.56
625.019	239.56
625.226	224.56
625.433	228.56
625.639	214.56
625.846	213.56
626.053	217.56
626.259	232.56
626.466	219.56
626.673	226.56
626.879	221.56
627.086	212.56
627.293	207.56
627.499	226.56
627.706	213.56
627.912	218.56
628.119	236.56
628.325	250.56
628.532	224.56
628.738	234.56
628.945	203.56
629.151	217.56
629.357	222.56
629.564	208.56
629.77	197.56
629.976	199.56
630.183	216.56
630.389	211.56
630.595	205.56
630.802	207.56
631.008	199.56
631.214	206.56
631.42	184.56
631.627	197.56
631.833	198.56
632.039	203.56
632.245	182.56
632.451	214.56
632.657	214.56
632.863	211.56
633.069	203.56
633.275	207.56
633.481	196.56
633.688	190.56
633.893	213.56
634.099	206.56
634.305	202.56
634.511	185.56
634.717	213.56
634.923	188.56
635.129	190.56
635.335	188.56
635.541	202.56
635.747	201.56
635.952	188.56
636.158	204.56
636.364	206.56
636.57	188.56
636.775	192.56
636.981	194.56
637.187	194.56
637.392	185.56
637.598	194.56
637.804	195.56
638.009	195.56
638.215	167.56
638.421	212.56
638.626	163.56
638.832	192.56
639.037	184.56
639.243	188.56
639.448	180.56
639.654	179.56
639.859	171.56
640.065	172.56
640.27	187.56
640.475	179.56
640.681	178.56
640.886	195.56
641.091	179.56
641.297	193.56
641.502	196.56
641.707	189.56
641.913	193.56
642.118	185.56
642.323	181.56
642.528	192.56
642.733	168.56
642.939	192.56
643.144	190.56
643.349	183.56
643.554	192.56
643.759	179.56
643.964	169.56
644.169	194.56
644.374	167.56
644.579	188.56
644.784	195.56
644.989	181.56
645.194	192.56
645.399	175.56
645.604	172.56
645.809	174.56
646.014	195.56
646.219	173.56
646.423	185.56
646.628	164.56
646.833	180.56
647.038	181.56
647.243	174.56
647.447	165.56
647.652	175.56
647.857	174.56
648.062	180.56
648.266	189.56
648.471	186.56
648.676	174.56
648.88	196.56
649.085	186.56
649.289	170.56
649.494	180.56
649.698	208.56
649.903	201.56
650.107	190.56
650.312	200.56
650.516	174.56
650.721	177.56
650.925	175.56
651.13	167.56
651.334	147.56
651.539	156.56
651.743	163.56
651.947	159.56
652.152	160.56
652.356	179.56
652.56	158.56
652.764	153.56
652.969	155.56
653.173	151.56
653.377	157.56
653.581	154.56
653.785	144.56
653.99	154.56
654.194	140.56
654.398	149.56
654.602	147.56
654.806	139.56
655.01	143.56
655.214	140.56
655.418	141.56
655.622	136.56
655.826	131.56
656.03	143.56
656.234	147.56
656.438	147.56
656.642	152.56
656.846	153.56
657.049	140.56
657.253	135.56
657.457	128.56
657.661	134.56
657.865	126.56
658.068	119.56
658.272	120.56
658.476	115.56
658.68	111.56
658.883	116.56
659.087	117.56
659.291	87.56
659.494	86.56
659.698	95.56
659.901	114.56
660.105	104.56
660.309	80.56
660.512	97.56
660.716	105.56
660.919	95.56
661.123	104.56
661.326	103.56
661.53	93.56
661.733	86.56
661.936	72.56
662.14	86.56
662.343	96.56
662.546	82.56
662.75	80.56
662.953	89.56
663.156	91.56
663.36	90.56
663.563	90.56
663.766	95.56
663.969	91.56
664.173	91.56
664.376	74.56
664.579	74.56
664.782	78.56
664.985	70.56
665.188	102.56
665.391	86.56
665.594	85.56
665.797	86.56
666	88.56
666.203	86.56
666.406	84.56
666.609	93.56
666.812	77.56
667.015	85.56
667.218	85.56
667.421	100.56
667.624	95.56
667.827	87.56
668.03	85.56
668.232	82.56
668.435	81.56
668.638	87.56
668.841	86.56
669.043	91.56
669.246	90.56
669.449	95.56
669.651	82.56
669.854	81.56
670.057	85.56
670.259	86.56
670.462	85.56
670.665	68.56
670.867	92.56
671.07	88.56
671.272	85.56
671.475	78.56
671.677	91.56
671.88	91.56
672.082	75.56
672.284	96.56
672.487	88.56
672.689	77.56
672.892	77.56
