Data from 1975.PennyLincolnUp.Lamp.En5.5.200Scan.071719.P1.Changed Mount._HRD10591_15-56-59-860.txt Node
Date: Thu Jul 18 15:56:59 EDT 2019
User: cochatt
Spectrometer: HR+D1059
Trigger mode: 1
Integration Time (sec): 1.000000E-1
Scans to average: 1
Electric dark correction enabled: true
Nonlinearity correction enabled: false
Boxcar width: 0
XAxis mode: Wavelengths
Number of Pixels in Spectrum: 2048
>>>>>Begin Spectral Data<<<<<
223.165	-9.06
223.4	-9.06
223.635	-9.06
223.869	-28.06
224.104	-15.06
224.338	-15.06
224.573	-3.06
224.808	-20.06
225.042	-12.06
225.277	-2.06
225.511	-5.06
225.746	3.94
225.98	5.94
226.215	15.94
226.449	18.94
226.683	17.94
226.918	28.94
227.152	17.94
227.387	44.94
227.621	28.94
227.856	43.94
228.09	51.94
228.324	55.94
228.559	57.94
228.793	71.94
229.027	107.94
229.262	108.94
229.496	114.94
229.73	139.94
229.964	155.94
230.199	122.94
230.433	99.94
230.667	121.94
230.901	125.94
231.136	114.94
231.37	121.94
231.604	107.94
231.838	110.94
232.072	113.94
232.306	120.94
232.541	122.94
232.775	124.94
233.009	127.94
233.243	114.94
233.477	125.94
233.711	116.94
233.945	102.94
234.179	115.94
234.413	114.94
234.647	114.94
234.881	118.94
235.115	123.94
235.349	117.94
235.583	117.94
235.817	125.94
236.051	133.94
236.285	127.94
236.519	117.94
236.753	122.94
236.987	142.94
237.221	173.94
237.455	233.94
237.689	183.94
237.922	155.94
238.156	143.94
238.39	134.94
238.624	117.94
238.858	124.94
239.091	116.94
239.325	121.94
239.559	121.94
239.793	127.94
240.027	134.94
240.26	146.94
240.494	148.94
240.728	150.94
240.961	145.94
241.195	147.94
241.429	147.94
241.662	132.94
241.896	137.94
242.13	136.94
242.363	133.94
242.597	118.94
242.83	156.94
243.064	135.94
243.298	142.94
243.531	154.94
243.765	146.94
243.998	146.94
244.232	133.94
244.465	144.94
244.699	147.94
244.932	153.94
245.166	130.94
245.399	130.94
245.633	157.94
245.866	160.94
246.099	150.94
246.333	158.94
246.566	172.94
246.8	159.94
247.033	167.94
247.266	168.94
247.5	165.94
247.733	166.94
247.966	179.94
248.2	194.94
248.433	163.94
248.666	159.94
248.899	188.94
249.133	202.94
249.366	215.94
249.599	213.94
249.832	181.94
250.066	176.94
250.299	191.94
250.532	203.94
250.765	215.94
250.998	219.94
251.231	225.94
251.465	215.94
251.698	201.94
251.931	213.94
252.164	207.94
252.397	195.94
252.63	186.94
252.863	205.94
253.096	225.94
253.329	202.94
253.562	227.94
253.795	232.94
254.028	219.94
254.261	220.94
254.494	221.94
254.727	234.94
254.96	283.94
255.193	247.94
255.426	250.94
255.659	226.94
255.892	234.94
256.124	238.94
256.357	259.94
256.59	243.94
256.823	235.94
257.056	234.94
257.289	223.94
257.521	208.94
257.754	230.94
257.987	226.94
258.22	211.94
258.452	223.94
258.685	223.94
258.918	216.94
259.151	227.94
259.383	225.94
259.616	224.94
259.849	233.94
260.081	237.94
260.314	245.94
260.547	243.94
260.779	258.94
261.012	240.94
261.244	238.94
261.477	237.94
261.71	241.94
261.942	222.94
262.175	246.94
262.407	249.94
262.64	213.94
262.872	207.94
263.105	215.94
263.337	202.94
263.57	215.94
263.802	219.94
264.035	212.94
264.267	221.94
264.499	216.94
264.732	206.94
264.964	211.94
265.197	216.94
265.429	225.94
265.661	224.94
265.894	229.94
266.126	241.94
266.358	227.94
266.591	219.94
266.823	233.94
267.055	246.94
267.287	227.94
267.52	212.94
267.752	238.94
267.984	237.94
268.216	237.94
268.448	246.94
268.681	226.94
268.913	260.94
269.145	256.94
269.377	286.94
269.609	281.94
269.841	271.94
270.073	277.94
270.306	307.94
270.538	329.94
270.77	308.94
271.002	290.94
271.234	273.94
271.466	299.94
271.698	327.94
271.93	315.94
272.162	317.94
272.394	329.94
272.626	295.94
272.858	299.94
273.09	271.94
273.322	285.94
273.553	267.94
273.785	275.94
274.017	269.94
274.249	274.94
274.481	262.94
274.713	269.94
274.945	273.94
275.176	293.94
275.408	280.94
275.64	262.94
275.872	269.94
276.104	279.94
276.335	283.94
276.567	265.94
276.799	302.94
277.031	307.94
277.262	290.94
277.494	331.94
277.726	312.94
277.957	289.94
278.189	286.94
278.421	281.94
278.652	287.94
278.884	276.94
279.115	277.94
279.347	263.94
279.579	276.94
279.81	284.94
280.042	270.94
280.273	279.94
280.505	278.94
280.736	288.94
280.968	281.94
281.199	272.94
281.431	282.94
281.662	275.94
281.894	277.94
282.125	306.94
282.356	300.94
282.588	318.94
282.819	321.94
283.051	306.94
283.282	287.94
283.513	292.94
283.745	299.94
283.976	300.94
284.207	293.94
284.439	290.94
284.67	282.94
284.901	296.94
285.132	284.94
285.364	292.94
285.595	312.94
285.826	284.94
286.057	290.94
286.288	297.94
286.52	301.94
286.751	310.94
286.982	301.94
287.213	284.94
287.444	300.94
287.675	293.94
287.906	309.94
288.138	317.94
288.369	317.94
288.6	314.94
288.831	321.94
289.062	308.94
289.293	309.94
289.524	313.94
289.755	299.94
289.986	309.94
290.217	305.94
290.448	295.94
290.679	287.94
290.91	309.94
291.141	321.94
291.371	297.94
291.602	299.94
291.833	307.94
292.064	322.94
292.295	294.94
292.526	308.94
292.757	309.94
292.987	313.94
293.218	300.94
293.449	309.94
293.68	314.94
293.91	271.94
294.141	294.94
294.372	307.94
294.603	321.94
294.833	301.94
295.064	316.94
295.295	305.94
295.525	313.94
295.756	313.94
295.987	325.94
296.217	333.94
296.448	325.94
296.679	338.94
296.909	326.94
297.14	298.94
297.37	332.94
297.601	340.94
297.831	326.94
298.062	338.94
298.292	317.94
298.523	343.94
298.753	305.94
298.984	338.94
299.214	339.94
299.445	319.94
299.675	331.94
299.905	338.94
300.136	321.94
300.366	328.94
300.597	331.94
300.827	334.94
301.057	326.94
301.288	365.94
301.518	343.94
301.748	343.94
301.979	352.94
302.209	355.94
302.439	345.94
302.669	342.94
302.9	347.94
303.13	333.94
303.36	325.94
303.59	363.94
303.82	345.94
304.051	363.94
304.281	353.94
304.511	332.94
304.741	333.94
304.971	341.94
305.201	350.94
305.431	346.94
305.661	349.94
305.891	353.94
306.121	333.94
306.352	359.94
306.582	356.94
306.812	344.94
307.042	336.94
307.272	356.94
307.502	345.94
307.731	353.94
307.961	369.94
308.191	356.94
308.421	356.94
308.651	344.94
308.881	340.94
309.111	331.94
309.341	364.94
309.571	359.94
309.8	369.94
310.03	363.94
310.26	371.94
310.49	379.94
310.72	393.94
310.949	398.94
311.179	404.94
311.409	381.94
311.639	384.94
311.868	375.94
312.098	391.94
312.328	389.94
312.557	397.94
312.787	395.94
313.017	410.94
313.246	376.94
313.476	379.94
313.706	388.94
313.935	400.94
314.165	400.94
314.394	409.94
314.624	413.94
314.853	413.94
315.083	400.94
315.312	384.94
315.542	393.94
315.771	373.94
316.001	383.94
316.23	382.94
316.46	385.94
316.689	387.94
316.919	394.94
317.148	390.94
317.377	408.94
317.607	397.94
317.836	387.94
318.065	385.94
318.295	392.94
318.524	370.94
318.753	391.94
318.983	369.94
319.212	363.94
319.441	395.94
319.67	394.94
319.9	404.94
320.129	398.94
320.358	375.94
320.587	400.94
320.816	397.94
321.046	397.94
321.275	413.94
321.504	403.94
321.733	406.94
321.962	413.94
322.191	422.94
322.42	413.94
322.649	428.94
322.878	444.94
323.108	437.94
323.337	460.94
323.566	443.94
323.795	488.94
324.024	524.94
324.253	595.94
324.482	830.94
324.71	1235.94
324.939	1828.94
325.168	1607.94
325.397	819.94
325.626	598.94
325.855	534.94
326.084	466.94
326.313	487.94
326.542	500.94
326.77	511.94
326.999	572.94
327.228	752.94
327.457	1135.94
327.686	1446.94
327.914	955.94
328.143	635.94
328.372	579.94
328.6	547.94
328.829	543.94
329.058	541.94
329.287	538.94
329.515	539.94
329.744	511.94
329.972	495.94
330.201	510.94
330.43	557.94
330.658	547.94
330.887	567.94
331.115	544.94
331.344	471.94
331.572	486.94
331.801	474.94
332.03	491.94
332.258	492.94
332.486	486.94
332.715	478.94
332.943	475.94
333.172	486.94
333.4	503.94
333.629	501.94
333.857	500.94
334.085	496.94
334.314	538.94
334.542	551.94
334.771	541.94
334.999	517.94
335.227	490.94
335.455	494.94
335.684	476.94
335.912	492.94
336.14	481.94
336.369	447.94
336.597	492.94
336.825	469.94
337.053	461.94
337.281	457.94
337.51	461.94
337.738	461.94
337.966	463.94
338.194	453.94
338.422	466.94
338.65	456.94
338.878	453.94
339.106	451.94
339.334	451.94
339.562	439.94
339.79	454.94
340.018	441.94
340.246	445.94
340.474	457.94
340.702	454.94
340.93	438.94
341.158	444.94
341.386	430.94
341.614	454.94
341.842	455.94
342.07	434.94
342.298	455.94
342.526	439.94
342.754	427.94
342.981	443.94
343.209	439.94
343.437	441.94
343.665	455.94
343.893	446.94
344.12	477.94
344.348	474.94
344.576	448.94
344.804	459.94
345.031	458.94
345.259	475.94
345.487	455.94
345.714	469.94
345.942	447.94
346.17	447.94
346.397	429.94
346.625	403.94
346.853	427.94
347.08	417.94
347.308	424.94
347.535	436.94
347.763	452.94
347.99	437.94
348.218	446.94
348.445	452.94
348.673	433.94
348.9	431.94
349.128	433.94
349.355	422.94
349.583	429.94
349.81	425.94
350.037	394.94
350.265	407.94
350.492	422.94
350.72	406.94
350.947	420.94
351.174	449.94
351.402	440.94
351.629	433.94
351.856	418.94
352.083	433.94
352.311	435.94
352.538	435.94
352.765	455.94
352.992	443.94
353.22	439.94
353.447	431.94
353.674	420.94
353.901	409.94
354.128	412.94
354.355	429.94
354.583	420.94
354.81	407.94
355.037	418.94
355.264	410.94
355.491	425.94
355.718	417.94
355.945	408.94
356.172	414.94
356.399	432.94
356.626	404.94
356.853	406.94
357.08	405.94
357.307	405.94
357.534	390.94
357.761	392.94
357.988	430.94
358.215	411.94
358.441	399.94
358.668	397.94
358.895	435.94
359.122	423.94
359.349	430.94
359.576	435.94
359.802	440.94
360.029	464.94
360.256	480.94
360.483	470.94
360.709	448.94
360.936	472.94
361.163	448.94
361.39	425.94
361.616	437.94
361.843	399.94
362.07	422.94
362.296	425.94
362.523	403.94
362.749	429.94
362.976	410.94
363.203	443.94
363.429	429.94
363.656	422.94
363.882	405.94
364.109	425.94
364.335	417.94
364.562	425.94
364.788	416.94
365.015	431.94
365.241	438.94
365.468	413.94
365.694	419.94
365.92	430.94
366.147	414.94
366.373	428.94
366.599	402.94
366.826	403.94
367.052	431.94
367.278	417.94
367.505	441.94
367.731	427.94
367.957	421.94
368.184	411.94
368.41	412.94
368.636	423.94
368.862	433.94
369.089	434.94
369.315	406.94
369.541	416.94
369.767	417.94
369.993	418.94
370.219	434.94
370.445	415.94
370.672	423.94
370.898	417.94
371.124	414.94
371.35	421.94
371.576	434.94
371.802	422.94
372.028	418.94
372.254	418.94
372.48	426.94
372.706	428.94
372.932	428.94
373.158	440.94
373.384	438.94
373.61	439.94
373.835	416.94
374.061	411.94
374.287	438.94
374.513	445.94
374.739	444.94
374.965	441.94
375.191	448.94
375.416	456.94
375.642	439.94
375.868	460.94
376.094	433.94
376.319	433.94
376.545	440.94
376.771	435.94
376.997	451.94
377.222	409.94
377.448	439.94
377.674	433.94
377.899	430.94
378.125	428.94
378.35	424.94
378.576	428.94
378.802	415.94
379.027	433.94
379.253	439.94
379.478	414.94
379.704	418.94
379.929	431.94
380.155	425.94
380.38	408.94
380.606	423.94
380.831	437.94
381.057	436.94
381.282	438.94
381.507	456.94
381.733	428.94
381.958	426.94
382.184	454.94
382.409	447.94
382.634	456.94
382.86	430.94
383.085	463.94
383.31	423.94
383.535	464.94
383.761	458.94
383.986	441.94
384.211	473.94
384.436	469.94
384.662	477.94
384.887	461.94
385.112	464.94
385.337	468.94
385.562	470.94
385.787	472.94
386.013	492.94
386.238	491.94
386.463	493.94
386.688	479.94
386.913	461.94
387.138	484.94
387.363	486.94
387.588	468.94
387.813	489.94
388.038	466.94
388.263	483.94
388.488	484.94
388.713	502.94
388.938	453.94
389.163	478.94
389.387	459.94
389.612	481.94
389.837	481.94
390.062	493.94
390.287	476.94
390.512	475.94
390.736	470.94
390.961	469.94
391.186	492.94
391.411	489.94
391.636	490.94
391.86	479.94
392.085	475.94
392.31	523.94
392.534	497.94
392.759	498.94
392.984	507.94
393.208	468.94
393.433	479.94
393.658	488.94
393.882	513.94
394.107	500.94
394.331	490.94
394.556	483.94
394.78	493.94
395.005	485.94
395.229	490.94
395.454	490.94
395.678	515.94
395.903	520.94
396.127	525.94
396.352	556.94
396.576	514.94
396.801	483.94
397.025	505.94
397.249	508.94
397.474	513.94
397.698	495.94
397.922	531.94
398.147	552.94
398.371	537.94
398.595	565.94
398.82	573.94
399.044	569.94
399.268	604.94
399.492	635.94
399.717	691.94
399.941	709.94
400.165	729.94
400.389	730.94
400.613	652.94
400.837	615.94
401.062	588.94
401.286	565.94
401.51	563.94
401.734	549.94
401.958	572.94
402.182	545.94
402.406	554.94
402.63	567.94
402.854	587.94
403.078	582.94
403.302	585.94
403.526	600.94
403.75	615.94
403.974	599.94
404.198	606.94
404.422	591.94
404.645	606.94
404.869	589.94
405.093	645.94
405.317	663.94
405.541	715.94
405.765	663.94
405.988	613.94
406.212	629.94
406.436	610.94
406.66	665.94
406.883	637.94
407.107	675.94
407.331	706.94
407.555	764.94
407.778	767.94
408.002	700.94
408.226	666.94
408.449	654.94
408.673	641.94
408.896	629.94
409.12	709.94
409.344	678.94
409.567	651.94
409.791	602.94
410.014	583.94
410.238	564.94
410.461	583.94
410.685	585.94
410.908	594.94
411.132	627.94
411.355	682.94
411.578	647.94
411.802	597.94
412.025	577.94
412.249	601.94
412.472	611.94
412.695	669.94
412.919	669.94
413.142	621.94
413.365	570.94
413.589	585.94
413.812	563.94
414.035	570.94
414.258	578.94
414.482	568.94
414.705	545.94
414.928	543.94
415.151	565.94
415.374	588.94
415.597	544.94
415.821	543.94
416.044	558.94
416.267	568.94
416.49	557.94
416.713	536.94
416.936	552.94
417.159	537.94
417.382	571.94
417.605	566.94
417.828	554.94
418.051	589.94
418.274	539.94
418.497	550.94
418.72	581.94
418.943	535.94
419.166	571.94
419.389	616.94
419.611	610.94
419.834	578.94
420.057	604.94
420.28	581.94
420.503	574.94
420.726	561.94
420.948	570.94
421.171	657.94
421.394	681.94
421.617	612.94
421.839	593.94
422.062	592.94
422.285	581.94
422.507	645.94
422.73	721.94
422.953	686.94
423.175	604.94
423.398	615.94
423.621	601.94
423.843	614.94
424.066	622.94
424.288	612.94
424.511	633.94
424.733	684.94
424.956	749.94
425.178	731.94
425.401	713.94
425.623	771.94
425.846	645.94
426.068	619.94
426.291	611.94
426.513	601.94
426.735	611.94
426.958	647.94
427.18	707.94
427.402	861.94
427.625	945.94
427.847	811.94
428.069	710.94
428.292	641.94
428.514	615.94
428.736	571.94
428.958	554.94
429.181	553.94
429.403	573.94
429.625	571.94
429.847	615.94
430.069	661.94
430.292	667.94
430.514	559.94
430.736	558.94
430.958	557.94
431.18	531.94
431.402	542.94
431.624	535.94
431.846	525.94
432.068	534.94
432.29	543.94
432.512	532.94
432.734	547.94
432.956	518.94
433.178	563.94
433.4	549.94
433.622	550.94
433.844	526.94
434.066	528.94
434.287	533.94
434.509	552.94
434.731	561.94
434.953	574.94
435.175	577.94
435.397	603.94
435.618	603.94
435.84	639.94
436.062	732.94
436.284	791.94
436.505	675.94
436.727	622.94
436.949	571.94
437.17	551.94
437.392	576.94
437.614	554.94
437.835	600.94
438.057	694.94
438.278	785.94
438.5	774.94
438.721	880.94
438.943	836.94
439.165	649.94
439.386	638.94
439.608	630.94
439.829	594.94
440.05	614.94
440.272	681.94
440.493	617.94
440.715	577.94
440.936	585.94
441.158	561.94
441.379	570.94
441.6	560.94
441.822	598.94
442.043	662.94
442.264	728.94
442.486	755.94
442.707	669.94
442.928	616.94
443.149	609.94
443.371	641.94
443.592	677.94
443.813	778.94
444.034	850.94
444.255	690.94
444.476	618.94
444.698	643.94
444.919	649.94
445.14	776.94
445.361	680.94
445.582	661.94
445.803	686.94
446.024	803.94
446.245	825.94
446.466	772.94
446.687	652.94
446.908	586.94
447.129	569.94
447.35	556.94
447.571	565.94
447.792	547.94
448.013	559.94
448.234	561.94
448.455	627.94
448.675	728.94
448.896	847.94
449.117	701.94
449.338	693.94
449.559	786.94
449.779	893.94
450	708.94
450.221	633.94
450.442	569.94
450.662	535.94
450.883	525.94
451.104	527.94
451.324	542.94
451.545	532.94
451.766	515.94
451.986	509.94
452.207	503.94
452.428	491.94
452.648	472.94
452.869	496.94
453.089	508.94
453.31	534.94
453.53	503.94
453.751	488.94
453.971	486.94
454.192	496.94
454.412	491.94
454.633	475.94
454.853	474.94
455.073	488.94
455.294	514.94
455.514	601.94
455.734	571.94
455.955	494.94
456.175	484.94
456.395	466.94
456.616	462.94
456.836	463.94
457.056	459.94
457.276	470.94
457.497	467.94
457.717	462.94
457.937	497.94
458.157	509.94
458.377	506.94
458.598	492.94
458.818	546.94
459.038	627.94
459.258	648.94
459.478	582.94
459.698	545.94
459.918	535.94
460.138	556.94
460.358	544.94
460.578	550.94
460.798	570.94
461.018	571.94
461.238	566.94
461.458	547.94
461.678	572.94
461.898	554.94
462.118	567.94
462.338	594.94
462.558	601.94
462.777	580.94
462.997	611.94
463.217	641.94
463.437	645.94
463.657	622.94
463.876	633.94
464.096	612.94
464.316	589.94
464.536	607.94
464.755	605.94
464.975	605.94
465.195	596.94
465.414	631.94
465.634	597.94
465.854	540.94
466.073	553.94
466.293	556.94
466.512	531.94
466.732	523.94
466.951	510.94
467.171	527.94
467.391	513.94
467.61	524.94
467.829	523.94
468.049	506.94
468.268	547.94
468.488	494.94
468.707	497.94
468.927	497.94
469.146	505.94
469.365	519.94
469.585	527.94
469.804	505.94
470.023	536.94
470.243	515.94
470.462	547.94
470.681	546.94
470.901	543.94
471.12	521.94
471.339	507.94
471.558	515.94
471.777	525.94
471.997	499.94
472.216	526.94
472.435	544.94
472.654	534.94
472.873	530.94
473.092	508.94
473.311	527.94
473.53	513.94
473.749	545.94
473.968	544.94
474.187	652.94
474.406	691.94
474.625	580.94
474.844	528.94
475.063	518.94
475.282	533.94
475.501	528.94
475.72	543.94
475.939	525.94
476.158	551.94
476.377	549.94
476.596	502.94
476.814	540.94
477.033	551.94
477.252	540.94
477.471	538.94
477.69	575.94
477.908	542.94
478.127	585.94
478.346	555.94
478.564	607.94
478.783	586.94
479.002	612.94
479.22	613.94
479.439	623.94
479.658	637.94
479.876	625.94
480.095	641.94
480.313	687.94
480.532	641.94
480.751	638.94
480.969	663.94
481.188	671.94
481.406	703.94
481.624	670.94
481.843	640.94
482.061	620.94
482.28	603.94
482.498	582.94
482.717	605.94
482.935	595.94
483.153	603.94
483.372	591.94
483.59	604.94
483.808	633.94
484.027	602.94
484.245	623.94
484.463	628.94
484.681	630.94
484.9	620.94
485.118	598.94
485.336	628.94
485.554	651.94
485.772	637.94
485.99	616.94
486.209	645.94
486.427	641.94
486.645	638.94
486.863	668.94
487.081	643.94
487.299	632.94
487.517	639.94
487.735	660.94
487.953	654.94
488.171	681.94
488.389	656.94
488.607	644.94
488.825	641.94
489.043	644.94
489.261	646.94
489.479	665.94
489.696	643.94
489.914	640.94
490.132	680.94
490.35	663.94
490.568	683.94
490.786	677.94
491.003	692.94
491.221	723.94
491.439	739.94
491.657	729.94
491.874	764.94
492.092	745.94
492.31	743.94
492.527	750.94
492.745	760.94
492.963	757.94
493.18	754.94
493.398	764.94
493.615	765.94
493.833	768.94
494.05	787.94
494.268	783.94
494.485	763.94
494.703	771.94
494.92	783.94
495.138	766.94
495.355	762.94
495.573	782.94
495.79	779.94
496.008	767.94
496.225	772.94
496.442	782.94
496.66	799.94
496.877	757.94
497.094	798.94
497.312	818.94
497.529	801.94
497.746	813.94
497.963	834.94
498.181	823.94
498.398	870.94
498.615	875.94
498.832	884.94
499.049	921.94
499.267	964.94
499.484	989.94
499.701	1036.94
499.918	1102.94
500.135	1173.94
500.352	1228.94
500.569	1251.94
500.786	1274.94
501.003	1196.94
501.22	1148.94
501.437	1113.94
501.654	1066.94
501.871	1032.94
502.088	998.94
502.305	934.94
502.522	940.94
502.739	898.94
502.956	852.94
503.172	836.94
503.389	800.94
503.606	805.94
503.823	829.94
504.04	811.94
504.256	776.94
504.473	801.94
504.69	806.94
504.907	798.94
505.123	775.94
505.34	751.94
505.557	770.94
505.773	747.94
505.99	738.94
506.207	719.94
506.423	747.94
506.64	728.94
506.856	723.94
507.073	683.94
507.289	717.94
507.506	707.94
507.722	718.94
507.939	709.94
508.155	715.94
508.372	686.94
508.588	683.94
508.805	662.94
509.021	681.94
509.238	706.94
509.454	681.94
509.67	665.94
509.887	672.94
510.103	705.94
510.319	673.94
510.536	717.94
510.752	1097.94
510.968	904.94
511.184	682.94
511.401	646.94
511.617	641.94
511.833	651.94
512.049	640.94
512.265	634.94
512.481	635.94
512.698	663.94
512.914	642.94
513.13	612.94
513.346	617.94
513.562	638.94
513.778	625.94
513.994	641.94
514.21	645.94
514.426	673.94
514.642	680.94
514.858	710.94
515.074	717.94
515.29	855.94
515.506	1086.94
515.721	979.94
515.937	736.94
516.153	693.94
516.369	675.94
516.585	674.94
516.801	692.94
517.016	664.94
517.232	657.94
517.448	677.94
517.664	669.94
517.879	715.94
518.095	691.94
518.311	680.94
518.527	679.94
518.742	654.94
518.958	667.94
519.173	647.94
519.389	658.94
519.605	654.94
519.82	659.94
520.036	649.94
520.251	654.94
520.467	692.94
520.682	691.94
520.898	669.94
521.113	671.94
521.329	705.94
521.544	769.94
521.76	925.94
521.975	1359.94
522.19	1294.94
522.406	814.94
522.621	685.94
522.836	638.94
523.052	626.94
523.267	594.94
523.482	591.94
523.698	604.94
523.913	589.94
524.128	589.94
524.343	571.94
524.559	529.94
524.774	561.94
524.989	555.94
525.204	552.94
525.419	558.94
525.634	558.94
525.849	571.94
526.064	552.94
526.28	539.94
526.495	530.94
526.71	538.94
526.925	504.94
527.14	548.94
527.355	518.94
527.57	546.94
527.785	540.94
527.999	502.94
528.214	529.94
528.429	542.94
528.644	552.94
528.859	539.94
529.074	518.94
529.289	542.94
529.503	599.94
529.718	585.94
529.933	552.94
530.148	533.94
530.363	540.94
530.577	533.94
530.792	535.94
531.007	535.94
531.221	533.94
531.436	529.94
531.651	533.94
531.865	528.94
532.08	521.94
532.295	530.94
532.509	524.94
532.724	494.94
532.938	493.94
533.153	512.94
533.367	509.94
533.582	526.94
533.796	508.94
534.011	508.94
534.225	508.94
534.44	495.94
534.654	494.94
534.868	488.94
535.083	525.94
535.297	523.94
535.511	530.94
535.726	527.94
535.94	518.94
536.154	511.94
536.369	502.94
536.583	507.94
536.797	511.94
537.011	500.94
537.225	506.94
537.44	497.94
537.654	495.94
537.868	493.94
538.082	507.94
538.296	494.94
538.51	491.94
538.724	513.94
538.938	488.94
539.153	511.94
539.367	475.94
539.581	523.94
539.795	504.94
540.009	509.94
540.222	492.94
540.436	481.94
540.65	485.94
540.864	485.94
541.078	475.94
541.292	519.94
541.506	501.94
541.72	501.94
541.934	502.94
542.147	514.94
542.361	495.94
542.575	472.94
542.789	477.94
543.002	484.94
543.216	486.94
543.43	499.94
543.644	478.94
543.857	478.94
544.071	501.94
544.285	487.94
544.498	515.94
544.712	502.94
544.925	469.94
545.139	469.94
545.352	487.94
545.566	487.94
545.779	502.94
545.993	478.94
546.206	472.94
546.42	494.94
546.633	476.94
546.847	484.94
547.06	474.94
547.274	477.94
547.487	477.94
547.7	492.94
547.914	493.94
548.127	489.94
548.34	471.94
548.554	468.94
548.767	488.94
548.98	475.94
549.193	466.94
549.407	496.94
549.62	478.94
549.833	486.94
550.046	471.94
550.259	465.94
550.473	460.94
550.686	490.94
550.899	476.94
551.112	487.94
551.325	474.94
551.538	471.94
551.751	474.94
551.964	474.94
552.177	477.94
552.39	476.94
552.603	519.94
552.816	474.94
553.029	490.94
553.242	514.94
553.455	503.94
553.667	508.94
553.88	501.94
554.093	481.94
554.306	494.94
554.519	488.94
554.732	483.94
554.944	473.94
555.157	471.94
555.37	447.94
555.583	448.94
555.795	456.94
556.008	440.94
556.221	443.94
556.433	436.94
556.646	438.94
556.859	439.94
557.071	427.94
557.284	430.94
557.496	443.94
557.709	443.94
557.921	413.94
558.134	424.94
558.346	428.94
558.559	458.94
558.771	415.94
558.984	423.94
559.196	411.94
559.409	416.94
559.621	408.94
559.833	439.94
560.046	409.94
560.258	419.94
560.47	437.94
560.683	421.94
560.895	437.94
561.107	424.94
561.32	415.94
561.532	417.94
561.744	427.94
561.956	423.94
562.168	439.94
562.381	428.94
562.593	428.94
562.805	431.94
563.017	435.94
563.229	451.94
563.441	421.94
563.653	432.94
563.865	438.94
564.077	435.94
564.289	429.94
564.501	441.94
564.713	447.94
564.925	460.94
565.137	467.94
565.349	467.94
565.561	464.94
565.773	487.94
565.985	503.94
566.197	489.94
566.408	511.94
566.62	557.94
566.832	561.94
567.044	568.94
567.255	574.94
567.467	566.94
567.679	580.94
567.891	593.94
568.102	597.94
568.314	559.94
568.526	539.94
568.737	527.94
568.949	524.94
569.161	511.94
569.372	497.94
569.584	465.94
569.795	415.94
570.007	439.94
570.218	463.94
570.43	467.94
570.641	430.94
570.853	427.94
571.064	411.94
571.276	424.94
571.487	421.94
571.698	429.94
571.91	428.94
572.121	399.94
572.333	367.94
572.544	389.94
572.755	406.94
572.966	397.94
573.178	397.94
573.389	388.94
573.6	357.94
573.811	371.94
574.023	373.94
574.234	358.94
574.445	368.94
574.656	379.94
574.867	372.94
575.078	361.94
575.289	365.94
575.501	362.94
575.712	345.94
575.923	343.94
576.134	344.94
576.345	358.94
576.556	366.94
576.767	362.94
576.978	361.94
577.188	352.94
577.399	354.94
577.61	349.94
577.821	343.94
578.032	352.94
578.243	363.94
578.454	527.94
578.665	419.94
578.875	366.94
579.086	345.94
579.297	361.94
579.508	346.94
579.718	326.94
579.929	360.94
580.14	340.94
580.35	330.94
580.561	337.94
580.772	340.94
580.982	336.94
581.193	327.94
581.403	332.94
581.614	340.94
581.825	340.94
582.035	327.94
582.246	329.94
582.456	324.94
582.667	328.94
582.877	312.94
583.087	320.94
583.298	338.94
583.508	298.94
583.719	318.94
583.929	330.94
584.139	321.94
584.35	333.94
584.56	332.94
584.77	317.94
584.981	317.94
585.191	339.94
585.401	344.94
585.611	330.94
585.821	316.94
586.032	340.94
586.242	333.94
586.452	316.94
586.662	318.94
586.872	318.94
587.082	315.94
587.292	324.94
587.502	317.94
587.713	325.94
587.923	325.94
588.133	313.94
588.343	302.94
588.553	307.94
588.762	321.94
588.972	301.94
589.182	302.94
589.392	325.94
589.602	314.94
589.812	328.94
590.022	336.94
590.232	317.94
590.441	332.94
590.651	298.94
590.861	308.94
591.071	317.94
591.281	331.94
591.49	316.94
591.7	329.94
591.91	333.94
592.119	341.94
592.329	329.94
592.539	355.94
592.748	355.94
592.958	343.94
593.167	360.94
593.377	359.94
593.587	382.94
593.796	379.94
594.006	341.94
594.215	359.94
594.424	347.94
594.634	345.94
594.843	343.94
595.053	347.94
595.262	329.94
595.472	335.94
595.681	329.94
595.89	327.94
596.1	315.94
596.309	323.94
596.518	318.94
596.727	301.94
596.937	324.94
597.146	314.94
597.355	298.94
597.564	299.94
597.774	293.94
597.983	286.94
598.192	284.94
598.401	307.94
598.61	291.94
598.819	293.94
599.028	293.94
599.237	299.94
599.446	290.94
599.655	291.94
599.864	285.94
600.073	288.94
600.282	283.94
600.491	269.94
600.7	275.94
600.909	264.94
601.118	281.94
601.327	275.94
601.536	282.94
601.745	265.94
601.953	285.94
602.162	292.94
602.371	284.94
602.58	283.94
602.789	270.94
602.997	280.94
603.206	292.94
603.415	278.94
603.623	281.94
603.832	281.94
604.041	265.94
604.249	268.94
604.458	275.94
604.666	261.94
604.875	264.94
605.084	260.94
605.292	257.94
605.501	282.94
605.709	272.94
605.918	264.94
606.126	258.94
606.334	274.94
606.543	268.94
606.751	254.94
606.96	269.94
607.168	257.94
607.376	266.94
607.585	254.94
607.793	265.94
608.001	269.94
608.21	269.94
608.418	254.94
608.626	264.94
608.834	269.94
609.043	260.94
609.251	262.94
609.459	257.94
609.667	268.94
609.875	286.94
610.083	273.94
610.291	247.94
610.499	265.94
610.707	265.94
610.916	262.94
611.124	262.94
611.332	264.94
611.54	265.94
611.748	266.94
611.955	255.94
612.163	255.94
612.371	254.94
612.579	255.94
612.787	256.94
612.995	246.94
613.203	273.94
613.411	221.94
613.618	249.94
613.826	247.94
614.034	264.94
614.242	258.94
614.449	260.94
614.657	246.94
614.865	237.94
615.072	243.94
615.28	236.94
615.488	243.94
615.695	245.94
615.903	241.94
616.111	253.94
616.318	246.94
616.526	254.94
616.733	250.94
616.941	264.94
617.148	246.94
617.356	267.94
617.563	260.94
617.771	245.94
617.978	233.94
618.185	257.94
618.393	234.94
618.6	253.94
618.807	259.94
619.015	268.94
619.222	257.94
619.429	262.94
619.637	263.94
619.844	229.94
620.051	253.94
620.258	255.94
620.466	219.94
620.673	233.94
620.88	256.94
621.087	230.94
621.294	253.94
621.501	256.94
621.708	225.94
621.915	245.94
622.122	243.94
622.329	241.94
622.536	245.94
622.743	223.94
622.95	239.94
623.157	247.94
623.364	241.94
623.571	238.94
623.778	230.94
623.985	243.94
624.192	225.94
624.399	220.94
624.606	210.94
624.812	225.94
625.019	227.94
625.226	235.94
625.433	234.94
625.639	218.94
625.846	205.94
626.053	213.94
626.259	220.94
626.466	230.94
626.673	218.94
626.879	224.94
627.086	221.94
627.293	220.94
627.499	224.94
627.706	230.94
627.912	207.94
628.119	211.94
628.325	237.94
628.532	218.94
628.738	219.94
628.945	240.94
629.151	221.94
629.357	212.94
629.564	225.94
629.77	215.94
629.976	226.94
630.183	214.94
630.389	213.94
630.595	217.94
630.802	200.94
631.008	220.94
631.214	209.94
631.42	228.94
631.627	210.94
631.833	202.94
632.039	204.94
632.245	194.94
632.451	214.94
632.657	213.94
632.863	210.94
633.069	197.94
633.275	202.94
633.481	210.94
633.688	200.94
633.893	207.94
634.099	212.94
634.305	201.94
634.511	215.94
634.717	194.94
634.923	209.94
635.129	181.94
635.335	201.94
635.541	200.94
635.747	192.94
635.952	202.94
636.158	210.94
636.364	203.94
636.57	204.94
636.775	200.94
636.981	188.94
637.187	209.94
637.392	209.94
637.598	196.94
637.804	187.94
638.009	207.94
638.215	188.94
638.421	199.94
638.626	188.94
638.832	183.94
639.037	180.94
639.243	174.94
639.448	182.94
639.654	195.94
639.859	175.94
640.065	192.94
640.27	183.94
640.475	172.94
640.681	179.94
640.886	182.94
641.091	177.94
641.297	191.94
641.502	181.94
641.707	161.94
641.913	175.94
642.118	185.94
642.323	174.94
642.528	178.94
642.733	183.94
642.939	175.94
643.144	161.94
643.349	168.94
643.554	171.94
643.759	187.94
643.964	174.94
644.169	193.94
644.374	172.94
644.579	172.94
644.784	182.94
644.989	172.94
645.194	181.94
645.399	167.94
645.604	174.94
645.809	181.94
646.014	189.94
646.219	177.94
646.423	182.94
646.628	183.94
646.833	185.94
647.038	159.94
647.243	191.94
647.447	170.94
647.652	163.94
647.857	177.94
648.062	181.94
648.266	180.94
648.471	193.94
648.676	181.94
648.88	180.94
649.085	178.94
649.289	179.94
649.494	196.94
649.698	201.94
649.903	192.94
650.107	170.94
650.312	199.94
650.516	157.94
650.721	166.94
650.925	166.94
651.13	162.94
651.334	177.94
651.539	161.94
651.743	149.94
651.947	144.94
652.152	150.94
652.356	159.94
652.56	149.94
652.764	150.94
652.969	143.94
653.173	155.94
653.377	144.94
653.581	133.94
653.785	161.94
653.99	140.94
654.194	126.94
654.398	151.94
654.602	138.94
654.806	149.94
655.01	161.94
655.214	171.94
655.418	167.94
655.622	141.94
655.826	149.94
656.03	141.94
656.234	133.94
656.438	152.94
656.642	148.94
656.846	147.94
657.049	145.94
657.253	128.94
657.457	143.94
657.661	119.94
657.865	124.94
658.068	130.94
658.272	122.94
658.476	100.94
658.68	118.94
658.883	104.94
659.087	102.94
659.291	106.94
659.494	107.94
659.698	102.94
659.901	101.94
660.105	89.94
660.309	108.94
660.512	89.94
660.716	101.94
660.919	97.94
661.123	71.94
661.326	80.94
661.53	81.94
661.733	86.94
661.936	86.94
662.14	89.94
662.343	97.94
662.546	98.94
662.75	90.94
662.953	92.94
663.156	80.94
663.36	81.94
663.563	96.94
663.766	76.94
663.969	89.94
664.173	94.94
664.376	80.94
664.579	86.94
664.782	98.94
664.985	77.94
665.188	77.94
665.391	89.94
665.594	84.94
665.797	92.94
666	92.94
666.203	81.94
666.406	74.94
666.609	87.94
666.812	77.94
667.015	94.94
667.218	86.94
667.421	89.94
667.624	76.94
667.827	83.94
668.03	77.94
668.232	77.94
668.435	86.94
668.638	74.94
668.841	77.94
669.043	86.94
669.246	87.94
669.449	85.94
669.651	68.94
669.854	77.94
670.057	81.94
670.259	85.94
670.462	85.94
670.665	72.94
670.867	80.94
671.07	83.94
671.272	83.94
671.475	79.94
671.677	87.94
671.88	82.94
672.082	99.94
672.284	79.94
672.487	74.94
672.689	72.94
672.892	92.94
