Data from 1975.PennyLincolnUp.Lamp.En5.5.200Scan.071719.P1.Changed Mount._HRD10591_15-58-31-860.txt Node
Date: Thu Jul 18 15:58:31 EDT 2019
User: cochatt
Spectrometer: HR+D1059
Trigger mode: 1
Integration Time (sec): 1.000000E-1
Scans to average: 1
Electric dark correction enabled: true
Nonlinearity correction enabled: false
Boxcar width: 0
XAxis mode: Wavelengths
Number of Pixels in Spectrum: 2048
>>>>>Begin Spectral Data<<<<<
223.165	-22.75
223.4	-22.75
223.635	-22.75
223.869	-14.75
224.104	-13.75
224.338	-1.75
224.573	-7.75
224.808	-29.75
225.042	-1.75
225.277	-2.75
225.511	2.25
225.746	0.25
225.98	7.25
226.215	7.25
226.449	19.25
226.683	18.25
226.918	22.25
227.152	18.25
227.387	31.25
227.621	26.25
227.856	46.25
228.09	48.25
228.324	39.25
228.559	48.25
228.793	66.25
229.027	94.25
229.262	103.25
229.496	114.25
229.73	116.25
229.964	138.25
230.199	109.25
230.433	104.25
230.667	111.25
230.901	121.25
231.136	108.25
231.37	95.25
231.604	115.25
231.838	110.25
232.072	112.25
232.306	111.25
232.541	114.25
232.775	101.25
233.009	120.25
233.243	106.25
233.477	116.25
233.711	112.25
233.945	114.25
234.179	107.25
234.413	120.25
234.647	104.25
234.881	114.25
235.115	110.25
235.349	120.25
235.583	121.25
235.817	135.25
236.051	130.25
236.285	126.25
236.519	128.25
236.753	137.25
236.987	144.25
237.221	178.25
237.455	217.25
237.689	197.25
237.922	152.25
238.156	131.25
238.39	152.25
238.624	115.25
238.858	120.25
239.091	132.25
239.325	127.25
239.559	107.25
239.793	139.25
240.027	123.25
240.26	138.25
240.494	155.25
240.728	144.25
240.961	153.25
241.195	126.25
241.429	138.25
241.662	129.25
241.896	146.25
242.13	120.25
242.363	136.25
242.597	138.25
242.83	143.25
243.064	147.25
243.298	135.25
243.531	131.25
243.765	139.25
243.998	156.25
244.232	151.25
244.465	149.25
244.699	153.25
244.932	162.25
245.166	153.25
245.399	142.25
245.633	146.25
245.866	147.25
246.099	135.25
246.333	153.25
246.566	144.25
246.8	156.25
247.033	152.25
247.266	177.25
247.5	145.25
247.733	170.25
247.966	167.25
248.2	169.25
248.433	169.25
248.666	163.25
248.899	174.25
249.133	194.25
249.366	206.25
249.599	218.25
249.832	182.25
250.066	186.25
250.299	185.25
250.532	187.25
250.765	200.25
250.998	218.25
251.231	229.25
251.465	242.25
251.698	204.25
251.931	214.25
252.164	185.25
252.397	195.25
252.63	187.25
252.863	194.25
253.096	201.25
253.329	229.25
253.562	217.25
253.795	217.25
254.028	224.25
254.261	226.25
254.494	229.25
254.727	258.25
254.96	259.25
255.193	246.25
255.426	246.25
255.659	233.25
255.892	243.25
256.124	239.25
256.357	241.25
256.59	223.25
256.823	222.25
257.056	224.25
257.289	208.25
257.521	199.25
257.754	190.25
257.987	208.25
258.22	218.25
258.452	222.25
258.685	226.25
258.918	206.25
259.151	214.25
259.383	217.25
259.616	221.25
259.849	231.25
260.081	231.25
260.314	249.25
260.547	256.25
260.779	259.25
261.012	234.25
261.244	233.25
261.477	235.25
261.71	227.25
261.942	232.25
262.175	243.25
262.407	228.25
262.64	210.25
262.872	222.25
263.105	216.25
263.337	231.25
263.57	220.25
263.802	205.25
264.035	222.25
264.267	215.25
264.499	212.25
264.732	217.25
264.964	228.25
265.197	238.25
265.429	222.25
265.661	228.25
265.894	224.25
266.126	239.25
266.358	242.25
266.591	219.25
266.823	226.25
267.055	227.25
267.287	245.25
267.52	227.25
267.752	234.25
267.984	227.25
268.216	231.25
268.448	230.25
268.681	210.25
268.913	239.25
269.145	254.25
269.377	276.25
269.609	293.25
269.841	271.25
270.073	288.25
270.306	294.25
270.538	323.25
270.77	325.25
271.002	315.25
271.234	298.25
271.466	287.25
271.698	315.25
271.93	309.25
272.162	309.25
272.394	332.25
272.626	308.25
272.858	288.25
273.09	287.25
273.322	283.25
273.553	265.25
273.785	266.25
274.017	258.25
274.249	282.25
274.481	273.25
274.713	272.25
274.945	275.25
275.176	268.25
275.408	266.25
275.64	263.25
275.872	266.25
276.104	265.25
276.335	271.25
276.567	288.25
276.799	282.25
277.031	289.25
277.262	324.25
277.494	338.25
277.726	328.25
277.957	278.25
278.189	267.25
278.421	285.25
278.652	281.25
278.884	290.25
279.115	263.25
279.347	268.25
279.579	268.25
279.81	271.25
280.042	257.25
280.273	258.25
280.505	267.25
280.736	244.25
280.968	270.25
281.199	291.25
281.431	281.25
281.662	283.25
281.894	276.25
282.125	271.25
282.356	303.25
282.588	304.25
282.819	304.25
283.051	287.25
283.282	290.25
283.513	301.25
283.745	304.25
283.976	297.25
284.207	288.25
284.439	308.25
284.67	286.25
284.901	289.25
285.132	293.25
285.364	299.25
285.595	295.25
285.826	286.25
286.057	293.25
286.288	285.25
286.52	307.25
286.751	287.25
286.982	289.25
287.213	295.25
287.444	284.25
287.675	303.25
287.906	312.25
288.138	303.25
288.369	317.25
288.6	314.25
288.831	308.25
289.062	321.25
289.293	297.25
289.524	329.25
289.755	302.25
289.986	315.25
290.217	293.25
290.448	295.25
290.679	265.25
290.91	283.25
291.141	312.25
291.371	292.25
291.602	294.25
291.833	307.25
292.064	296.25
292.295	297.25
292.526	319.25
292.757	318.25
292.987	304.25
293.218	298.25
293.449	299.25
293.68	311.25
293.91	308.25
294.141	299.25
294.372	308.25
294.603	327.25
294.833	294.25
295.064	320.25
295.295	320.25
295.525	314.25
295.756	327.25
295.987	336.25
296.217	322.25
296.448	346.25
296.679	341.25
296.909	317.25
297.14	326.25
297.37	320.25
297.601	313.25
297.831	305.25
298.062	309.25
298.292	292.25
298.523	317.25
298.753	312.25
298.984	331.25
299.214	296.25
299.445	325.25
299.675	308.25
299.905	325.25
300.136	320.25
300.366	344.25
300.597	313.25
300.827	329.25
301.057	339.25
301.288	340.25
301.518	325.25
301.748	330.25
301.979	349.25
302.209	336.25
302.439	362.25
302.669	354.25
302.9	347.25
303.13	353.25
303.36	337.25
303.59	343.25
303.82	352.25
304.051	365.25
304.281	338.25
304.511	346.25
304.741	324.25
304.971	358.25
305.201	347.25
305.431	351.25
305.661	339.25
305.891	331.25
306.121	338.25
306.352	351.25
306.582	344.25
306.812	351.25
307.042	330.25
307.272	339.25
307.502	327.25
307.731	347.25
307.961	351.25
308.191	362.25
308.421	351.25
308.651	363.25
308.881	338.25
309.111	342.25
309.341	352.25
309.571	363.25
309.8	360.25
310.03	375.25
310.26	382.25
310.49	371.25
310.72	384.25
310.949	387.25
311.179	406.25
311.409	414.25
311.639	363.25
311.868	388.25
312.098	367.25
312.328	375.25
312.557	375.25
312.787	395.25
313.017	378.25
313.246	402.25
313.476	377.25
313.706	375.25
313.935	396.25
314.165	411.25
314.394	408.25
314.624	417.25
314.853	396.25
315.083	389.25
315.312	392.25
315.542	397.25
315.771	404.25
316.001	376.25
316.23	379.25
316.46	385.25
316.689	403.25
316.919	409.25
317.148	400.25
317.377	396.25
317.607	406.25
317.836	400.25
318.065	389.25
318.295	395.25
318.524	403.25
318.753	384.25
318.983	375.25
319.212	382.25
319.441	379.25
319.67	408.25
319.9	393.25
320.129	391.25
320.358	381.25
320.587	395.25
320.816	388.25
321.046	403.25
321.275	411.25
321.504	383.25
321.733	406.25
321.962	421.25
322.191	408.25
322.42	415.25
322.649	454.25
322.878	426.25
323.108	447.25
323.337	480.25
323.566	475.25
323.795	482.25
324.024	522.25
324.253	627.25
324.482	846.25
324.71	1264.25
324.939	1925.25
325.168	1722.25
325.397	840.25
325.626	586.25
325.855	528.25
326.084	498.25
326.313	468.25
326.542	482.25
326.77	514.25
326.999	590.25
327.228	764.25
327.457	1193.25
327.686	1458.25
327.914	979.25
328.143	663.25
328.372	579.25
328.6	565.25
328.829	542.25
329.058	568.25
329.287	580.25
329.515	516.25
329.744	501.25
329.972	511.25
330.201	545.25
330.43	556.25
330.658	556.25
330.887	568.25
331.115	559.25
331.344	504.25
331.572	492.25
331.801	510.25
332.03	478.25
332.258	498.25
332.486	468.25
332.715	468.25
332.943	481.25
333.172	497.25
333.4	476.25
333.629	502.25
333.857	517.25
334.085	521.25
334.314	544.25
334.542	561.25
334.771	561.25
334.999	526.25
335.227	511.25
335.455	494.25
335.684	490.25
335.912	475.25
336.14	460.25
336.369	498.25
336.597	469.25
336.825	490.25
337.053	473.25
337.281	449.25
337.51	434.25
337.738	464.25
337.966	440.25
338.194	464.25
338.422	470.25
338.65	466.25
338.878	455.25
339.106	456.25
339.334	460.25
339.562	455.25
339.79	432.25
340.018	438.25
340.246	437.25
340.474	459.25
340.702	437.25
340.93	451.25
341.158	436.25
341.386	446.25
341.614	466.25
341.842	442.25
342.07	442.25
342.298	441.25
342.526	455.25
342.754	440.25
342.981	431.25
343.209	437.25
343.437	433.25
343.665	451.25
343.893	458.25
344.12	480.25
344.348	467.25
344.576	461.25
344.804	454.25
345.031	454.25
345.259	474.25
345.487	458.25
345.714	453.25
345.942	449.25
346.17	414.25
346.397	446.25
346.625	437.25
346.853	436.25
347.08	409.25
347.308	433.25
347.535	438.25
347.763	443.25
347.99	450.25
348.218	464.25
348.445	430.25
348.673	442.25
348.9	441.25
349.128	423.25
349.355	402.25
349.583	423.25
349.81	426.25
350.037	415.25
350.265	408.25
350.492	447.25
350.72	408.25
350.947	415.25
351.174	449.25
351.402	435.25
351.629	421.25
351.856	427.25
352.083	447.25
352.311	443.25
352.538	436.25
352.765	421.25
352.992	427.25
353.22	411.25
353.447	425.25
353.674	416.25
353.901	421.25
354.128	394.25
354.355	429.25
354.583	420.25
354.81	421.25
355.037	416.25
355.264	411.25
355.491	405.25
355.718	409.25
355.945	409.25
356.172	396.25
356.399	409.25
356.626	399.25
356.853	414.25
357.08	410.25
357.307	411.25
357.534	418.25
357.761	408.25
357.988	419.25
358.215	406.25
358.441	404.25
358.668	401.25
358.895	416.25
359.122	421.25
359.349	422.25
359.576	443.25
359.802	453.25
360.029	466.25
360.256	481.25
360.483	452.25
360.709	456.25
360.936	439.25
361.163	439.25
361.39	442.25
361.616	427.25
361.843	448.25
362.07	420.25
362.296	405.25
362.523	432.25
362.749	428.25
362.976	440.25
363.203	426.25
363.429	413.25
363.656	416.25
363.882	407.25
364.109	426.25
364.335	409.25
364.562	426.25
364.788	425.25
365.015	419.25
365.241	407.25
365.468	430.25
365.694	432.25
365.92	404.25
366.147	405.25
366.373	401.25
366.599	432.25
366.826	414.25
367.052	405.25
367.278	418.25
367.505	396.25
367.731	413.25
367.957	423.25
368.184	415.25
368.41	422.25
368.636	423.25
368.862	440.25
369.089	426.25
369.315	416.25
369.541	418.25
369.767	414.25
369.993	409.25
370.219	442.25
370.445	440.25
370.672	435.25
370.898	426.25
371.124	435.25
371.35	404.25
371.576	424.25
371.802	421.25
372.028	403.25
372.254	430.25
372.48	425.25
372.706	420.25
372.932	414.25
373.158	427.25
373.384	446.25
373.61	421.25
373.835	392.25
374.061	402.25
374.287	428.25
374.513	435.25
374.739	448.25
374.965	431.25
375.191	453.25
375.416	439.25
375.642	417.25
375.868	434.25
376.094	451.25
376.319	432.25
376.545	425.25
376.771	422.25
376.997	417.25
377.222	435.25
377.448	407.25
377.674	431.25
377.899	427.25
378.125	407.25
378.35	432.25
378.576	406.25
378.802	406.25
379.027	407.25
379.253	428.25
379.478	414.25
379.704	400.25
379.929	440.25
380.155	418.25
380.38	430.25
380.606	423.25
380.831	430.25
381.057	458.25
381.282	417.25
381.507	428.25
381.733	435.25
381.958	419.25
382.184	423.25
382.409	420.25
382.634	439.25
382.86	446.25
383.085	453.25
383.31	466.25
383.535	441.25
383.761	441.25
383.986	450.25
384.211	444.25
384.436	443.25
384.662	450.25
384.887	480.25
385.112	463.25
385.337	453.25
385.562	466.25
385.787	460.25
386.013	483.25
386.238	485.25
386.463	480.25
386.688	481.25
386.913	459.25
387.138	494.25
387.363	480.25
387.588	483.25
387.813	472.25
388.038	451.25
388.263	483.25
388.488	470.25
388.713	480.25
388.938	463.25
389.163	480.25
389.387	484.25
389.612	485.25
389.837	473.25
390.062	470.25
390.287	484.25
390.512	472.25
390.736	462.25
390.961	472.25
391.186	480.25
391.411	495.25
391.636	502.25
391.86	486.25
392.085	494.25
392.31	508.25
392.534	513.25
392.759	486.25
392.984	506.25
393.208	492.25
393.433	474.25
393.658	492.25
393.882	492.25
394.107	473.25
394.331	494.25
394.556	483.25
394.78	491.25
395.005	502.25
395.229	490.25
395.454	512.25
395.678	532.25
395.903	492.25
396.127	544.25
396.352	531.25
396.576	516.25
396.801	501.25
397.025	496.25
397.249	495.25
397.474	530.25
397.698	521.25
397.922	532.25
398.147	522.25
398.371	533.25
398.595	558.25
398.82	576.25
399.044	575.25
399.268	588.25
399.492	635.25
399.717	669.25
399.941	692.25
400.165	707.25
400.389	693.25
400.613	644.25
400.837	602.25
401.062	560.25
401.286	562.25
401.51	550.25
401.734	567.25
401.958	554.25
402.182	580.25
402.406	578.25
402.63	588.25
402.854	566.25
403.078	566.25
403.302	599.25
403.526	594.25
403.75	598.25
403.974	579.25
404.198	567.25
404.422	589.25
404.645	616.25
404.869	595.25
405.093	629.25
405.317	675.25
405.541	708.25
405.765	640.25
405.988	615.25
406.212	596.25
406.436	629.25
406.66	659.25
406.883	612.25
407.107	664.25
407.331	715.25
407.555	786.25
407.778	759.25
408.002	696.25
408.226	624.25
408.449	608.25
408.673	636.25
408.896	668.25
409.12	706.25
409.344	658.25
409.567	620.25
409.791	596.25
410.014	576.25
410.238	608.25
410.461	571.25
410.685	589.25
410.908	608.25
411.132	650.25
411.355	639.25
411.578	645.25
411.802	599.25
412.025	569.25
412.249	581.25
412.472	615.25
412.695	634.25
412.919	635.25
413.142	581.25
413.365	576.25
413.589	582.25
413.812	580.25
414.035	560.25
414.258	551.25
414.482	547.25
414.705	545.25
414.928	566.25
415.151	546.25
415.374	540.25
415.597	558.25
415.821	545.25
416.044	529.25
416.267	538.25
416.49	555.25
416.713	582.25
416.936	541.25
417.159	544.25
417.382	545.25
417.605	566.25
417.828	586.25
418.051	589.25
418.274	594.25
418.497	562.25
418.72	567.25
418.943	547.25
419.166	578.25
419.389	612.25
419.611	615.25
419.834	594.25
420.057	583.25
420.28	589.25
420.503	567.25
420.726	569.25
420.948	598.25
421.171	600.25
421.394	643.25
421.617	608.25
421.839	604.25
422.062	562.25
422.285	584.25
422.507	638.25
422.73	712.25
422.953	719.25
423.175	650.25
423.398	604.25
423.621	608.25
423.843	598.25
424.066	640.25
424.288	611.25
424.511	654.25
424.733	688.25
424.956	761.25
425.178	722.25
425.401	721.25
425.623	747.25
425.846	668.25
426.068	598.25
426.291	600.25
426.513	599.25
426.735	584.25
426.958	623.25
427.18	725.25
427.402	858.25
427.625	927.25
427.847	804.25
428.069	696.25
428.292	647.25
428.514	613.25
428.736	587.25
428.958	566.25
429.181	549.25
429.403	577.25
429.625	583.25
429.847	596.25
430.069	646.25
430.292	658.25
430.514	542.25
430.736	589.25
430.958	542.25
431.18	528.25
431.402	539.25
431.624	523.25
431.846	542.25
432.068	514.25
432.29	537.25
432.512	521.25
432.734	549.25
432.956	531.25
433.178	568.25
433.4	561.25
433.622	523.25
433.844	544.25
434.066	543.25
434.287	534.25
434.509	540.25
434.731	545.25
434.953	550.25
435.175	568.25
435.397	593.25
435.618	605.25
435.84	635.25
436.062	723.25
436.284	816.25
436.505	670.25
436.727	615.25
436.949	552.25
437.17	558.25
437.392	572.25
437.614	573.25
437.835	606.25
438.057	682.25
438.278	797.25
438.5	796.25
438.721	887.25
438.943	838.25
439.165	664.25
439.386	599.25
439.608	600.25
439.829	602.25
440.05	623.25
440.272	673.25
440.493	619.25
440.715	598.25
440.936	562.25
441.158	578.25
441.379	553.25
441.6	584.25
441.822	613.25
442.043	642.25
442.264	727.25
442.486	770.25
442.707	660.25
442.928	622.25
443.149	641.25
443.371	638.25
443.592	689.25
443.813	789.25
444.034	874.25
444.255	709.25
444.476	649.25
444.698	638.25
444.919	633.25
445.14	766.25
445.361	721.25
445.582	675.25
445.803	720.25
446.024	830.25
446.245	826.25
446.466	715.25
446.687	648.25
446.908	628.25
447.129	570.25
447.35	548.25
447.571	566.25
447.792	536.25
448.013	573.25
448.234	572.25
448.455	626.25
448.675	730.25
448.896	867.25
449.117	727.25
449.338	668.25
449.559	766.25
449.779	919.25
450	721.25
450.221	617.25
450.442	566.25
450.662	514.25
450.883	501.25
451.104	547.25
451.324	532.25
451.545	518.25
451.766	494.25
451.986	498.25
452.207	472.25
452.428	485.25
452.648	496.25
452.869	494.25
453.089	495.25
453.31	494.25
453.53	491.25
453.751	488.25
453.971	480.25
454.192	499.25
454.412	508.25
454.633	472.25
454.853	480.25
455.073	499.25
455.294	522.25
455.514	573.25
455.734	581.25
455.955	495.25
456.175	491.25
456.395	473.25
456.616	458.25
456.836	474.25
457.056	483.25
457.276	469.25
457.497	474.25
457.717	466.25
457.937	481.25
458.157	486.25
458.377	488.25
458.598	501.25
458.818	514.25
459.038	636.25
459.258	647.25
459.478	592.25
459.698	538.25
459.918	550.25
460.138	558.25
460.358	557.25
460.578	564.25
460.798	568.25
461.018	543.25
461.238	579.25
461.458	579.25
461.678	542.25
461.898	562.25
462.118	529.25
462.338	572.25
462.558	594.25
462.777	592.25
462.997	623.25
463.217	616.25
463.437	632.25
463.657	614.25
463.876	599.25
464.096	599.25
464.316	597.25
464.536	594.25
464.755	596.25
464.975	591.25
465.195	614.25
465.414	660.25
465.634	604.25
465.854	555.25
466.073	539.25
466.293	530.25
466.512	528.25
466.732	513.25
466.951	508.25
467.171	488.25
467.391	526.25
467.61	531.25
467.829	538.25
468.049	523.25
468.268	505.25
468.488	512.25
468.707	502.25
468.927	500.25
469.146	506.25
469.365	487.25
469.585	511.25
469.804	497.25
470.023	519.25
470.243	500.25
470.462	526.25
470.681	563.25
470.901	551.25
471.12	525.25
471.339	519.25
471.558	534.25
471.777	521.25
471.997	517.25
472.216	527.25
472.435	555.25
472.654	553.25
472.873	498.25
473.092	502.25
473.311	508.25
473.53	512.25
473.749	517.25
473.968	540.25
474.187	659.25
474.406	672.25
474.625	594.25
474.844	542.25
475.063	527.25
475.282	515.25
475.501	506.25
475.72	526.25
475.939	538.25
476.158	526.25
476.377	560.25
476.596	522.25
476.814	546.25
477.033	549.25
477.252	546.25
477.471	553.25
477.69	574.25
477.908	567.25
478.127	582.25
478.346	582.25
478.564	587.25
478.783	577.25
479.002	599.25
479.22	601.25
479.439	613.25
479.658	613.25
479.876	634.25
480.095	639.25
480.313	641.25
480.532	655.25
480.751	657.25
480.969	646.25
481.188	696.25
481.406	728.25
481.624	677.25
481.843	619.25
482.061	595.25
482.28	607.25
482.498	610.25
482.717	598.25
482.935	596.25
483.153	598.25
483.372	606.25
483.59	607.25
483.808	602.25
484.027	585.25
484.245	592.25
484.463	615.25
484.681	617.25
484.9	638.25
485.118	627.25
485.336	614.25
485.554	638.25
485.772	631.25
485.99	612.25
486.209	620.25
486.427	640.25
486.645	628.25
486.863	649.25
487.081	660.25
487.299	664.25
487.517	634.25
487.735	645.25
487.953	679.25
488.171	631.25
488.389	658.25
488.607	664.25
488.825	644.25
489.043	646.25
489.261	645.25
489.479	657.25
489.696	639.25
489.914	666.25
490.132	689.25
490.35	663.25
490.568	690.25
490.786	698.25
491.003	719.25
491.221	712.25
491.439	740.25
491.657	723.25
491.874	734.25
492.092	738.25
492.31	757.25
492.527	778.25
492.745	771.25
492.963	749.25
493.18	750.25
493.398	759.25
493.615	762.25
493.833	770.25
494.05	783.25
494.268	755.25
494.485	788.25
494.703	794.25
494.92	765.25
495.138	736.25
495.355	762.25
495.573	768.25
495.79	770.25
496.008	766.25
496.225	745.25
496.442	775.25
496.66	785.25
496.877	771.25
497.094	795.25
497.312	797.25
497.529	820.25
497.746	830.25
497.963	807.25
498.181	821.25
498.398	853.25
498.615	879.25
498.832	905.25
499.049	909.25
499.267	933.25
499.484	992.25
499.701	1050.25
499.918	1096.25
500.135	1151.25
500.352	1243.25
500.569	1276.25
500.786	1243.25
501.003	1225.25
501.22	1149.25
501.437	1144.25
501.654	1060.25
501.871	1049.25
502.088	983.25
502.305	954.25
502.522	893.25
502.739	888.25
502.956	833.25
503.172	858.25
503.389	834.25
503.606	822.25
503.823	804.25
504.04	826.25
504.256	799.25
504.473	780.25
504.69	801.25
504.907	782.25
505.123	743.25
505.34	751.25
505.557	732.25
505.773	752.25
505.99	748.25
506.207	745.25
506.423	713.25
506.64	703.25
506.856	702.25
507.073	695.25
507.289	720.25
507.506	686.25
507.722	693.25
507.939	696.25
508.155	714.25
508.372	686.25
508.588	689.25
508.805	692.25
509.021	674.25
509.238	704.25
509.454	667.25
509.67	692.25
509.887	667.25
510.103	680.25
510.319	692.25
510.536	771.25
510.752	1106.25
510.968	911.25
511.184	662.25
511.401	653.25
511.617	642.25
511.833	630.25
512.049	656.25
512.265	638.25
512.481	643.25
512.698	600.25
512.914	645.25
513.13	638.25
513.346	633.25
513.562	630.25
513.778	642.25
513.994	610.25
514.21	646.25
514.426	646.25
514.642	674.25
514.858	720.25
515.074	726.25
515.29	811.25
515.506	1098.25
515.721	936.25
515.937	734.25
516.153	681.25
516.369	688.25
516.585	656.25
516.801	661.25
517.016	698.25
517.232	692.25
517.448	679.25
517.664	692.25
517.879	691.25
518.095	676.25
518.311	672.25
518.527	690.25
518.742	663.25
518.958	672.25
519.173	664.25
519.389	642.25
519.605	647.25
519.82	626.25
520.036	659.25
520.251	640.25
520.467	687.25
520.682	676.25
520.898	650.25
521.113	688.25
521.329	703.25
521.544	764.25
521.76	895.25
521.975	1356.25
522.19	1342.25
522.406	818.25
522.621	654.25
522.836	634.25
523.052	585.25
523.267	601.25
523.482	586.25
523.698	578.25
523.913	577.25
524.128	569.25
524.343	571.25
524.559	543.25
524.774	584.25
524.989	560.25
525.204	574.25
525.419	580.25
525.634	552.25
525.849	553.25
526.064	550.25
526.28	553.25
526.495	533.25
526.71	536.25
526.925	532.25
527.14	541.25
527.355	543.25
527.57	511.25
527.785	518.25
527.999	521.25
528.214	517.25
528.429	532.25
528.644	518.25
528.859	528.25
529.074	516.25
529.289	552.25
529.503	584.25
529.718	598.25
529.933	572.25
530.148	551.25
530.363	527.25
530.577	541.25
530.792	519.25
531.007	503.25
531.221	536.25
531.436	515.25
531.651	511.25
531.865	519.25
532.08	515.25
532.295	516.25
532.509	508.25
532.724	509.25
532.938	505.25
533.153	540.25
533.367	491.25
533.582	532.25
533.796	507.25
534.011	510.25
534.225	508.25
534.44	503.25
534.654	496.25
534.868	495.25
535.083	499.25
535.297	516.25
535.511	491.25
535.726	495.25
535.94	525.25
536.154	500.25
536.369	484.25
536.583	478.25
536.797	496.25
537.011	487.25
537.225	480.25
537.44	481.25
537.654	486.25
537.868	464.25
538.082	487.25
538.296	470.25
538.51	479.25
538.724	490.25
538.938	482.25
539.153	507.25
539.367	512.25
539.581	513.25
539.795	486.25
540.009	483.25
540.222	474.25
540.436	482.25
540.65	495.25
540.864	501.25
541.078	496.25
541.292	500.25
541.506	491.25
541.72	494.25
541.934	490.25
542.147	485.25
542.361	473.25
542.575	468.25
542.789	488.25
543.002	480.25
543.216	481.25
543.43	475.25
543.644	497.25
543.857	512.25
544.071	481.25
544.285	499.25
544.498	499.25
544.712	480.25
544.925	483.25
545.139	483.25
545.352	480.25
545.566	476.25
545.779	464.25
545.993	483.25
546.206	499.25
546.42	470.25
546.633	479.25
546.847	482.25
547.06	488.25
547.274	467.25
547.487	468.25
547.7	463.25
547.914	468.25
548.127	463.25
548.34	456.25
548.554	487.25
548.767	488.25
548.98	482.25
549.193	453.25
549.407	470.25
549.62	485.25
549.833	466.25
550.046	483.25
550.259	473.25
550.473	464.25
550.686	470.25
550.899	463.25
551.112	456.25
551.325	465.25
551.538	476.25
551.751	475.25
551.964	466.25
552.177	480.25
552.39	465.25
552.603	486.25
552.816	494.25
553.029	482.25
553.242	482.25
553.455	483.25
553.667	484.25
553.88	492.25
554.093	490.25
554.306	484.25
554.519	473.25
554.732	487.25
554.944	490.25
555.157	457.25
555.37	454.25
555.583	454.25
555.795	453.25
556.008	432.25
556.221	450.25
556.433	444.25
556.646	458.25
556.859	442.25
557.071	427.25
557.284	426.25
557.496	431.25
557.709	422.25
557.921	429.25
558.134	423.25
558.346	395.25
558.559	424.25
558.771	427.25
558.984	437.25
559.196	430.25
559.409	412.25
559.621	436.25
559.833	422.25
560.046	419.25
560.258	418.25
560.47	414.25
560.683	430.25
560.895	427.25
561.107	409.25
561.32	422.25
561.532	397.25
561.744	436.25
561.956	425.25
562.168	419.25
562.381	421.25
562.593	398.25
562.805	409.25
563.017	433.25
563.229	405.25
563.441	430.25
563.653	422.25
563.865	430.25
564.077	423.25
564.289	411.25
564.501	434.25
564.713	443.25
564.925	473.25
565.137	442.25
565.349	458.25
565.561	472.25
565.773	455.25
565.985	492.25
566.197	490.25
566.408	501.25
566.62	531.25
566.832	554.25
567.044	555.25
567.255	543.25
567.467	564.25
567.679	548.25
567.891	586.25
568.102	586.25
568.314	569.25
568.526	539.25
568.737	513.25
568.949	527.25
569.161	469.25
569.372	475.25
569.584	471.25
569.795	432.25
570.007	434.25
570.218	456.25
570.43	441.25
570.641	399.25
570.853	411.25
571.064	430.25
571.276	420.25
571.487	418.25
571.698	412.25
571.91	423.25
572.121	402.25
572.333	401.25
572.544	384.25
572.755	382.25
572.966	379.25
573.178	371.25
573.389	360.25
573.6	386.25
573.811	358.25
574.023	372.25
574.234	364.25
574.445	371.25
574.656	382.25
574.867	351.25
575.078	366.25
575.289	368.25
575.501	339.25
575.712	340.25
575.923	362.25
576.134	374.25
576.345	370.25
576.556	362.25
576.767	341.25
576.978	340.25
577.188	354.25
577.399	351.25
577.61	368.25
577.821	354.25
578.032	336.25
578.243	369.25
578.454	496.25
578.665	402.25
578.875	358.25
579.086	348.25
579.297	346.25
579.508	333.25
579.718	326.25
579.929	336.25
580.14	321.25
580.35	326.25
580.561	322.25
580.772	311.25
580.982	337.25
581.193	327.25
581.403	339.25
581.614	348.25
581.825	329.25
582.035	331.25
582.246	317.25
582.456	335.25
582.667	324.25
582.877	327.25
583.087	318.25
583.298	318.25
583.508	318.25
583.719	337.25
583.929	323.25
584.139	316.25
584.35	317.25
584.56	306.25
584.77	336.25
584.981	329.25
585.191	324.25
585.401	322.25
585.611	322.25
585.821	315.25
586.032	306.25
586.242	315.25
586.452	319.25
586.662	321.25
586.872	304.25
587.082	314.25
587.292	308.25
587.502	311.25
587.713	306.25
587.923	305.25
588.133	307.25
588.343	324.25
588.553	315.25
588.762	317.25
588.972	314.25
589.182	316.25
589.392	314.25
589.602	312.25
589.812	315.25
590.022	324.25
590.232	318.25
590.441	303.25
590.651	299.25
590.861	320.25
591.071	322.25
591.281	323.25
591.49	338.25
591.7	323.25
591.91	327.25
592.119	319.25
592.329	336.25
592.539	332.25
592.748	337.25
592.958	345.25
593.167	344.25
593.377	347.25
593.587	359.25
593.796	339.25
594.006	355.25
594.215	343.25
594.424	342.25
594.634	346.25
594.843	348.25
595.053	348.25
595.262	315.25
595.472	307.25
595.681	295.25
595.89	331.25
596.1	323.25
596.309	323.25
596.518	311.25
596.727	306.25
596.937	303.25
597.146	296.25
597.355	307.25
597.564	290.25
597.774	280.25
597.983	296.25
598.192	296.25
598.401	292.25
598.61	281.25
598.819	293.25
599.028	283.25
599.237	279.25
599.446	290.25
599.655	276.25
599.864	269.25
600.073	275.25
600.282	284.25
600.491	288.25
600.7	280.25
600.909	278.25
601.118	268.25
601.327	288.25
601.536	286.25
601.745	286.25
601.953	278.25
602.162	271.25
602.371	291.25
602.58	266.25
602.789	273.25
602.997	267.25
603.206	256.25
603.415	271.25
603.623	271.25
603.832	247.25
604.041	265.25
604.249	254.25
604.458	284.25
604.666	272.25
604.875	255.25
605.084	258.25
605.292	260.25
605.501	254.25
605.709	269.25
605.918	266.25
606.126	272.25
606.334	238.25
606.543	265.25
606.751	274.25
606.96	286.25
607.168	263.25
607.376	256.25
607.585	269.25
607.793	280.25
608.001	249.25
608.21	262.25
608.418	256.25
608.626	260.25
608.834	241.25
609.043	255.25
609.251	244.25
609.459	263.25
609.667	250.25
609.875	251.25
610.083	254.25
610.291	243.25
610.499	271.25
610.707	269.25
610.916	261.25
611.124	281.25
611.332	255.25
611.54	268.25
611.748	254.25
611.955	254.25
612.163	233.25
612.371	259.25
612.579	261.25
612.787	247.25
612.995	254.25
613.203	263.25
613.411	246.25
613.618	244.25
613.826	278.25
614.034	251.25
614.242	257.25
614.449	242.25
614.657	256.25
614.865	238.25
615.072	254.25
615.28	256.25
615.488	236.25
615.695	254.25
615.903	254.25
616.111	241.25
616.318	269.25
616.526	241.25
616.733	257.25
616.941	253.25
617.148	231.25
617.356	236.25
617.563	242.25
617.771	238.25
617.978	252.25
618.185	235.25
618.393	229.25
618.6	247.25
618.807	247.25
619.015	258.25
619.222	248.25
619.429	244.25
619.637	252.25
619.844	245.25
620.051	234.25
620.258	242.25
620.466	244.25
620.673	220.25
620.88	236.25
621.087	228.25
621.294	223.25
621.501	239.25
621.708	243.25
621.915	235.25
622.122	242.25
622.329	229.25
622.536	249.25
622.743	227.25
622.95	230.25
623.157	245.25
623.364	233.25
623.571	238.25
623.778	239.25
623.985	219.25
624.192	223.25
624.399	228.25
624.606	225.25
624.812	215.25
625.019	209.25
625.226	232.25
625.433	221.25
625.639	214.25
625.846	213.25
626.053	195.25
626.259	204.25
626.466	223.25
626.673	217.25
626.879	221.25
627.086	217.25
627.293	204.25
627.499	218.25
627.706	226.25
627.912	208.25
628.119	198.25
628.325	227.25
628.532	205.25
628.738	211.25
628.945	216.25
629.151	217.25
629.357	216.25
629.564	201.25
629.77	209.25
629.976	210.25
630.183	208.25
630.389	200.25
630.595	197.25
630.802	195.25
631.008	200.25
631.214	202.25
631.42	212.25
631.627	223.25
631.833	191.25
632.039	209.25
632.245	191.25
632.451	201.25
632.657	195.25
632.863	198.25
633.069	194.25
633.275	199.25
633.481	188.25
633.688	188.25
633.893	197.25
634.099	197.25
634.305	201.25
634.511	199.25
634.717	191.25
634.923	179.25
635.129	192.25
635.335	191.25
635.541	200.25
635.747	197.25
635.952	191.25
636.158	178.25
636.364	203.25
636.57	181.25
636.775	190.25
636.981	207.25
637.187	182.25
637.392	184.25
637.598	197.25
637.804	190.25
638.009	186.25
638.215	204.25
638.421	176.25
638.626	184.25
638.832	190.25
639.037	183.25
639.243	204.25
639.448	169.25
639.654	187.25
639.859	194.25
640.065	193.25
640.27	191.25
640.475	188.25
640.681	189.25
640.886	197.25
641.091	172.25
641.297	190.25
641.502	185.25
641.707	156.25
641.913	175.25
642.118	172.25
642.323	187.25
642.528	175.25
642.733	173.25
642.939	168.25
643.144	162.25
643.349	172.25
643.554	179.25
643.759	166.25
643.964	164.25
644.169	168.25
644.374	178.25
644.579	163.25
644.784	181.25
644.989	163.25
645.194	183.25
645.399	182.25
645.604	184.25
645.809	180.25
646.014	174.25
646.219	190.25
646.423	182.25
646.628	164.25
646.833	174.25
647.038	184.25
647.243	179.25
647.447	186.25
647.652	174.25
647.857	184.25
648.062	192.25
648.266	176.25
648.471	168.25
648.676	182.25
648.88	178.25
649.085	181.25
649.289	176.25
649.494	179.25
649.698	187.25
649.903	201.25
650.107	177.25
650.312	168.25
650.516	168.25
650.721	153.25
650.925	163.25
651.13	158.25
651.334	153.25
651.539	153.25
651.743	154.25
651.947	158.25
652.152	160.25
652.356	159.25
652.56	143.25
652.764	145.25
652.969	142.25
653.173	134.25
653.377	146.25
653.581	152.25
653.785	147.25
653.99	136.25
654.194	150.25
654.398	135.25
654.602	146.25
654.806	138.25
655.01	149.25
655.214	165.25
655.418	140.25
655.622	138.25
655.826	135.25
656.03	130.25
656.234	140.25
656.438	150.25
656.642	158.25
656.846	130.25
657.049	133.25
657.253	136.25
657.457	126.25
657.661	122.25
657.865	114.25
658.068	115.25
658.272	116.25
658.476	95.25
658.68	102.25
658.883	93.25
659.087	87.25
659.291	103.25
659.494	98.25
659.698	100.25
659.901	97.25
660.105	104.25
660.309	106.25
660.512	97.25
660.716	91.25
660.919	97.25
661.123	105.25
661.326	92.25
661.53	99.25
661.733	82.25
661.936	90.25
662.14	78.25
662.343	78.25
662.546	82.25
662.75	87.25
662.953	75.25
663.156	81.25
663.36	74.25
663.563	77.25
663.766	74.25
663.969	92.25
664.173	87.25
664.376	82.25
664.579	81.25
664.782	70.25
664.985	83.25
665.188	68.25
665.391	73.25
665.594	72.25
665.797	87.25
666	87.25
666.203	81.25
666.406	70.25
666.609	79.25
666.812	62.25
667.015	78.25
667.218	83.25
667.421	74.25
667.624	81.25
667.827	71.25
668.03	73.25
668.232	82.25
668.435	81.25
668.638	74.25
668.841	81.25
669.043	78.25
669.246	63.25
669.449	89.25
669.651	75.25
669.854	83.25
670.057	71.25
670.259	74.25
670.462	88.25
670.665	84.25
670.867	76.25
671.07	72.25
671.272	80.25
671.475	88.25
671.677	97.25
671.88	85.25
672.082	86.25
672.284	71.25
672.487	71.25
672.689	87.25
672.892	67.25
