Data from 1975.PennyLincolnUp.Lamp.En5.5.200Scan.071719.P1.Changed Mount._HRD10591_15-58-47-860.txt Node
Date: Thu Jul 18 15:58:47 EDT 2019
User: cochatt
Spectrometer: HR+D1059
Trigger mode: 1
Integration Time (sec): 1.000000E-1
Scans to average: 1
Electric dark correction enabled: true
Nonlinearity correction enabled: false
Boxcar width: 0
XAxis mode: Wavelengths
Number of Pixels in Spectrum: 2048
>>>>>Begin Spectral Data<<<<<
223.165	-9.12
223.4	-9.12
223.635	-9.12
223.869	-19.12
224.104	-17.12
224.338	-27.12
224.573	-1.12
224.808	-5.12
225.042	-9.12
225.277	-1.12
225.511	-7.12
225.746	6.88
225.98	8.88
226.215	-2.12
226.449	23.88
226.683	11.88
226.918	16.88
227.152	29.88
227.387	52.88
227.621	50.88
227.856	43.88
228.09	34.88
228.324	47.88
228.559	49.88
228.793	61.88
229.027	90.88
229.262	121.88
229.496	120.88
229.73	134.88
229.964	147.88
230.199	137.88
230.433	118.88
230.667	125.88
230.901	122.88
231.136	98.88
231.37	109.88
231.604	108.88
231.838	122.88
232.072	113.88
232.306	108.88
232.541	115.88
232.775	113.88
233.009	108.88
233.243	111.88
233.477	121.88
233.711	127.88
233.945	123.88
234.179	117.88
234.413	131.88
234.647	123.88
234.881	108.88
235.115	117.88
235.349	119.88
235.583	116.88
235.817	118.88
236.051	119.88
236.285	121.88
236.519	117.88
236.753	141.88
236.987	155.88
237.221	165.88
237.455	241.88
237.689	177.88
237.922	140.88
238.156	151.88
238.39	133.88
238.624	118.88
238.858	129.88
239.091	125.88
239.325	138.88
239.559	114.88
239.793	142.88
240.027	151.88
240.26	150.88
240.494	164.88
240.728	164.88
240.961	156.88
241.195	152.88
241.429	147.88
241.662	132.88
241.896	126.88
242.13	140.88
242.363	142.88
242.597	137.88
242.83	151.88
243.064	142.88
243.298	134.88
243.531	155.88
243.765	153.88
243.998	148.88
244.232	144.88
244.465	157.88
244.699	143.88
244.932	143.88
245.166	140.88
245.399	149.88
245.633	169.88
245.866	143.88
246.099	141.88
246.333	149.88
246.566	171.88
246.8	157.88
247.033	162.88
247.266	174.88
247.5	158.88
247.733	177.88
247.966	193.88
248.2	172.88
248.433	170.88
248.666	178.88
248.899	202.88
249.133	198.88
249.366	210.88
249.599	185.88
249.832	194.88
250.066	194.88
250.299	213.88
250.532	220.88
250.765	221.88
250.998	225.88
251.231	249.88
251.465	219.88
251.698	233.88
251.931	233.88
252.164	209.88
252.397	206.88
252.63	201.88
252.863	218.88
253.096	231.88
253.329	230.88
253.562	242.88
253.795	218.88
254.028	222.88
254.261	227.88
254.494	245.88
254.727	270.88
254.96	295.88
255.193	298.88
255.426	265.88
255.659	245.88
255.892	243.88
256.124	257.88
256.357	247.88
256.59	244.88
256.823	220.88
257.056	218.88
257.289	225.88
257.521	219.88
257.754	220.88
257.987	192.88
258.22	217.88
258.452	224.88
258.685	222.88
258.918	219.88
259.151	230.88
259.383	234.88
259.616	239.88
259.849	235.88
260.081	258.88
260.314	265.88
260.547	273.88
260.779	261.88
261.012	257.88
261.244	245.88
261.477	249.88
261.71	241.88
261.942	241.88
262.175	244.88
262.407	227.88
262.64	230.88
262.872	239.88
263.105	228.88
263.337	235.88
263.57	226.88
263.802	246.88
264.035	235.88
264.267	232.88
264.499	237.88
264.732	245.88
264.964	216.88
265.197	216.88
265.429	229.88
265.661	241.88
265.894	246.88
266.126	235.88
266.358	234.88
266.591	245.88
266.823	248.88
267.055	234.88
267.287	250.88
267.52	246.88
267.752	245.88
267.984	245.88
268.216	252.88
268.448	274.88
268.681	269.88
268.913	273.88
269.145	286.88
269.377	304.88
269.609	311.88
269.841	278.88
270.073	305.88
270.306	311.88
270.538	355.88
270.77	327.88
271.002	321.88
271.234	310.88
271.466	322.88
271.698	325.88
271.93	327.88
272.162	341.88
272.394	334.88
272.626	326.88
272.858	321.88
273.09	293.88
273.322	305.88
273.553	289.88
273.785	269.88
274.017	284.88
274.249	279.88
274.481	273.88
274.713	297.88
274.945	292.88
275.176	291.88
275.408	287.88
275.64	287.88
275.872	282.88
276.104	298.88
276.335	286.88
276.567	287.88
276.799	298.88
277.031	333.88
277.262	333.88
277.494	343.88
277.726	326.88
277.957	310.88
278.189	313.88
278.421	292.88
278.652	295.88
278.884	292.88
279.115	285.88
279.347	314.88
279.579	281.88
279.81	273.88
280.042	292.88
280.273	292.88
280.505	306.88
280.736	280.88
280.968	289.88
281.199	284.88
281.431	294.88
281.662	281.88
281.894	305.88
282.125	330.88
282.356	316.88
282.588	330.88
282.819	341.88
283.051	300.88
283.282	289.88
283.513	310.88
283.745	310.88
283.976	288.88
284.207	294.88
284.439	327.88
284.67	296.88
284.901	326.88
285.132	323.88
285.364	308.88
285.595	329.88
285.826	316.88
286.057	315.88
286.288	297.88
286.52	313.88
286.751	298.88
286.982	321.88
287.213	302.88
287.444	313.88
287.675	318.88
287.906	315.88
288.138	352.88
288.369	307.88
288.6	341.88
288.831	338.88
289.062	320.88
289.293	319.88
289.524	334.88
289.755	327.88
289.986	308.88
290.217	324.88
290.448	310.88
290.679	323.88
290.91	333.88
291.141	309.88
291.371	324.88
291.602	322.88
291.833	321.88
292.064	317.88
292.295	325.88
292.526	323.88
292.757	323.88
292.987	317.88
293.218	318.88
293.449	309.88
293.68	326.88
293.91	317.88
294.141	303.88
294.372	317.88
294.603	334.88
294.833	336.88
295.064	333.88
295.295	333.88
295.525	310.88
295.756	339.88
295.987	327.88
296.217	352.88
296.448	363.88
296.679	340.88
296.909	325.88
297.14	317.88
297.37	336.88
297.601	327.88
297.831	324.88
298.062	334.88
298.292	340.88
298.523	335.88
298.753	349.88
298.984	336.88
299.214	355.88
299.445	347.88
299.675	339.88
299.905	361.88
300.136	353.88
300.366	339.88
300.597	355.88
300.827	360.88
301.057	357.88
301.288	357.88
301.518	348.88
301.748	348.88
301.979	351.88
302.209	381.88
302.439	354.88
302.669	371.88
302.9	361.88
303.13	371.88
303.36	373.88
303.59	364.88
303.82	378.88
304.051	371.88
304.281	388.88
304.511	369.88
304.741	350.88
304.971	334.88
305.201	360.88
305.431	364.88
305.661	367.88
305.891	363.88
306.121	351.88
306.352	351.88
306.582	351.88
306.812	362.88
307.042	357.88
307.272	376.88
307.502	377.88
307.731	350.88
307.961	376.88
308.191	347.88
308.421	348.88
308.651	352.88
308.881	371.88
309.111	361.88
309.341	378.88
309.571	397.88
309.8	387.88
310.03	392.88
310.26	380.88
310.49	399.88
310.72	405.88
310.949	401.88
311.179	419.88
311.409	418.88
311.639	396.88
311.868	414.88
312.098	395.88
312.328	415.88
312.557	417.88
312.787	439.88
313.017	396.88
313.246	411.88
313.476	385.88
313.706	401.88
313.935	405.88
314.165	397.88
314.394	408.88
314.624	412.88
314.853	452.88
315.083	407.88
315.312	415.88
315.542	405.88
315.771	393.88
316.001	393.88
316.23	414.88
316.46	389.88
316.689	407.88
316.919	410.88
317.148	419.88
317.377	407.88
317.607	427.88
317.836	415.88
318.065	393.88
318.295	413.88
318.524	420.88
318.753	389.88
318.983	398.88
319.212	421.88
319.441	418.88
319.67	413.88
319.9	400.88
320.129	413.88
320.358	395.88
320.587	404.88
320.816	417.88
321.046	451.88
321.275	423.88
321.504	422.88
321.733	424.88
321.962	439.88
322.191	435.88
322.42	437.88
322.649	437.88
322.878	456.88
323.108	471.88
323.337	478.88
323.566	499.88
323.795	548.88
324.024	549.88
324.253	649.88
324.482	893.88
324.71	1370.88
324.939	2056.88
325.168	1783.88
325.397	942.88
325.626	633.88
325.855	545.88
326.084	523.88
326.313	499.88
326.542	515.88
326.77	528.88
326.999	636.88
327.228	850.88
327.457	1257.88
327.686	1595.88
327.914	1043.88
328.143	678.88
328.372	615.88
328.6	581.88
328.829	549.88
329.058	587.88
329.287	582.88
329.515	544.88
329.744	530.88
329.972	519.88
330.201	540.88
330.43	571.88
330.658	593.88
330.887	620.88
331.115	602.88
331.344	557.88
331.572	517.88
331.801	501.88
332.03	492.88
332.258	490.88
332.486	487.88
332.715	492.88
332.943	512.88
333.172	511.88
333.4	516.88
333.629	519.88
333.857	535.88
334.085	555.88
334.314	558.88
334.542	591.88
334.771	617.88
334.999	552.88
335.227	517.88
335.455	518.88
335.684	498.88
335.912	488.88
336.14	478.88
336.369	469.88
336.597	512.88
336.825	477.88
337.053	486.88
337.281	492.88
337.51	474.88
337.738	505.88
337.966	493.88
338.194	485.88
338.422	480.88
338.65	475.88
338.878	477.88
339.106	473.88
339.334	484.88
339.562	473.88
339.79	450.88
340.018	458.88
340.246	453.88
340.474	456.88
340.702	478.88
340.93	469.88
341.158	462.88
341.386	469.88
341.614	460.88
341.842	480.88
342.07	460.88
342.298	458.88
342.526	444.88
342.754	473.88
342.981	442.88
343.209	445.88
343.437	439.88
343.665	478.88
343.893	491.88
344.12	504.88
344.348	488.88
344.576	467.88
344.804	469.88
345.031	469.88
345.259	484.88
345.487	461.88
345.714	485.88
345.942	474.88
346.17	461.88
346.397	435.88
346.625	444.88
346.853	452.88
347.08	414.88
347.308	474.88
347.535	452.88
347.763	465.88
347.99	469.88
348.218	451.88
348.445	467.88
348.673	462.88
348.9	460.88
349.128	451.88
349.355	438.88
349.583	446.88
349.81	436.88
350.037	439.88
350.265	453.88
350.492	414.88
350.72	452.88
350.947	437.88
351.174	438.88
351.402	451.88
351.629	455.88
351.856	469.88
352.083	443.88
352.311	442.88
352.538	437.88
352.765	452.88
352.992	469.88
353.22	459.88
353.447	445.88
353.674	441.88
353.901	442.88
354.128	429.88
354.355	445.88
354.583	415.88
354.81	412.88
355.037	426.88
355.264	407.88
355.491	411.88
355.718	453.88
355.945	425.88
356.172	410.88
356.399	445.88
356.626	405.88
356.853	428.88
357.08	417.88
357.307	439.88
357.534	427.88
357.761	433.88
357.988	437.88
358.215	434.88
358.441	426.88
358.668	449.88
358.895	435.88
359.122	466.88
359.349	439.88
359.576	446.88
359.802	464.88
360.029	484.88
360.256	512.88
360.483	460.88
360.709	438.88
360.936	464.88
361.163	450.88
361.39	448.88
361.616	460.88
361.843	442.88
362.07	459.88
362.296	461.88
362.523	447.88
362.749	429.88
362.976	436.88
363.203	433.88
363.429	447.88
363.656	449.88
363.882	430.88
364.109	414.88
364.335	425.88
364.562	434.88
364.788	446.88
365.015	438.88
365.241	429.88
365.468	460.88
365.694	447.88
365.92	444.88
366.147	433.88
366.373	435.88
366.599	444.88
366.826	430.88
367.052	423.88
367.278	438.88
367.505	424.88
367.731	459.88
367.957	424.88
368.184	449.88
368.41	458.88
368.636	445.88
368.862	472.88
369.089	459.88
369.315	440.88
369.541	442.88
369.767	448.88
369.993	435.88
370.219	446.88
370.445	448.88
370.672	428.88
370.898	444.88
371.124	439.88
371.35	454.88
371.576	452.88
371.802	447.88
372.028	444.88
372.254	446.88
372.48	448.88
372.706	424.88
372.932	451.88
373.158	438.88
373.384	457.88
373.61	443.88
373.835	454.88
374.061	417.88
374.287	456.88
374.513	445.88
374.739	471.88
374.965	445.88
375.191	470.88
375.416	456.88
375.642	451.88
375.868	456.88
376.094	455.88
376.319	442.88
376.545	445.88
376.771	450.88
376.997	454.88
377.222	443.88
377.448	454.88
377.674	431.88
377.899	454.88
378.125	446.88
378.35	454.88
378.576	453.88
378.802	440.88
379.027	429.88
379.253	469.88
379.478	442.88
379.704	458.88
379.929	444.88
380.155	434.88
380.38	436.88
380.606	445.88
380.831	443.88
381.057	458.88
381.282	455.88
381.507	458.88
381.733	431.88
381.958	464.88
382.184	472.88
382.409	436.88
382.634	462.88
382.86	461.88
383.085	471.88
383.31	476.88
383.535	444.88
383.761	481.88
383.986	494.88
384.211	475.88
384.436	475.88
384.662	474.88
384.887	502.88
385.112	489.88
385.337	483.88
385.562	481.88
385.787	497.88
386.013	511.88
386.238	503.88
386.463	494.88
386.688	488.88
386.913	503.88
387.138	506.88
387.363	479.88
387.588	492.88
387.813	474.88
388.038	492.88
388.263	501.88
388.488	506.88
388.713	490.88
388.938	493.88
389.163	504.88
389.387	506.88
389.612	488.88
389.837	499.88
390.062	511.88
390.287	491.88
390.512	515.88
390.736	485.88
390.961	494.88
391.186	495.88
391.411	517.88
391.636	505.88
391.86	520.88
392.085	534.88
392.31	521.88
392.534	486.88
392.759	525.88
392.984	527.88
393.208	505.88
393.433	514.88
393.658	505.88
393.882	505.88
394.107	501.88
394.331	521.88
394.556	503.88
394.78	484.88
395.005	519.88
395.229	521.88
395.454	524.88
395.678	540.88
395.903	538.88
396.127	563.88
396.352	553.88
396.576	539.88
396.801	536.88
397.025	536.88
397.249	536.88
397.474	546.88
397.698	534.88
397.922	542.88
398.147	562.88
398.371	552.88
398.595	581.88
398.82	556.88
399.044	603.88
399.268	626.88
399.492	648.88
399.717	702.88
399.941	740.88
400.165	719.88
400.389	738.88
400.613	655.88
400.837	596.88
401.062	615.88
401.286	580.88
401.51	581.88
401.734	581.88
401.958	597.88
402.182	595.88
402.406	594.88
402.63	599.88
402.854	604.88
403.078	613.88
403.302	611.88
403.526	609.88
403.75	602.88
403.974	616.88
404.198	618.88
404.422	640.88
404.645	628.88
404.869	603.88
405.093	670.88
405.317	689.88
405.541	738.88
405.765	673.88
405.988	628.88
406.212	670.88
406.436	654.88
406.66	672.88
406.883	643.88
407.107	683.88
407.331	734.88
407.555	803.88
407.778	790.88
408.002	719.88
408.226	676.88
408.449	645.88
408.673	672.88
408.896	701.88
409.12	765.88
409.344	700.88
409.567	628.88
409.791	638.88
410.014	639.88
410.238	618.88
410.461	618.88
410.685	614.88
410.908	633.88
411.132	645.88
411.355	694.88
411.578	668.88
411.802	629.88
412.025	599.88
412.249	595.88
412.472	643.88
412.695	682.88
412.919	684.88
413.142	610.88
413.365	603.88
413.589	613.88
413.812	573.88
414.035	586.88
414.258	582.88
414.482	563.88
414.705	593.88
414.928	567.88
415.151	570.88
415.374	574.88
415.597	571.88
415.821	567.88
416.044	570.88
416.267	557.88
416.49	573.88
416.713	573.88
416.936	570.88
417.159	575.88
417.382	585.88
417.605	582.88
417.828	603.88
418.051	607.88
418.274	628.88
418.497	595.88
418.72	581.88
418.943	584.88
419.166	606.88
419.389	636.88
419.611	641.88
419.834	631.88
420.057	609.88
420.28	629.88
420.503	607.88
420.726	603.88
420.948	603.88
421.171	659.88
421.394	694.88
421.617	645.88
421.839	603.88
422.062	581.88
422.285	613.88
422.507	703.88
422.73	748.88
422.953	735.88
423.175	652.88
423.398	633.88
423.621	627.88
423.843	646.88
424.066	669.88
424.288	674.88
424.511	659.88
424.733	704.88
424.956	807.88
425.178	782.88
425.401	768.88
425.623	805.88
425.846	689.88
426.068	651.88
426.291	611.88
426.513	618.88
426.735	642.88
426.958	667.88
427.18	769.88
427.402	917.88
427.625	987.88
427.847	846.88
428.069	741.88
428.292	670.88
428.514	606.88
428.736	601.88
428.958	572.88
429.181	577.88
429.403	563.88
429.625	608.88
429.847	605.88
430.069	689.88
430.292	693.88
430.514	594.88
430.736	594.88
430.958	580.88
431.18	567.88
431.402	548.88
431.624	546.88
431.846	569.88
432.068	569.88
432.29	554.88
432.512	552.88
432.734	564.88
432.956	564.88
433.178	557.88
433.4	580.88
433.622	556.88
433.844	585.88
434.066	571.88
434.287	567.88
434.509	548.88
434.731	598.88
434.953	589.88
435.175	605.88
435.397	635.88
435.618	635.88
435.84	661.88
436.062	773.88
436.284	830.88
436.505	712.88
436.727	653.88
436.949	602.88
437.17	601.88
437.392	592.88
437.614	586.88
437.835	607.88
438.057	703.88
438.278	827.88
438.5	839.88
438.721	918.88
438.943	892.88
439.165	698.88
439.386	637.88
439.608	650.88
439.829	618.88
440.05	662.88
440.272	717.88
440.493	642.88
440.715	629.88
440.936	607.88
441.158	595.88
441.379	602.88
441.6	613.88
441.822	618.88
442.043	659.88
442.264	764.88
442.486	831.88
442.707	709.88
442.928	645.88
443.149	669.88
443.371	673.88
443.592	713.88
443.813	802.88
444.034	888.88
444.255	707.88
444.476	659.88
444.698	645.88
444.919	659.88
445.14	797.88
445.361	715.88
445.582	704.88
445.803	742.88
446.024	841.88
446.245	884.88
446.466	784.88
446.687	686.88
446.908	639.88
447.129	613.88
447.35	585.88
447.571	586.88
447.792	575.88
448.013	579.88
448.234	609.88
448.455	638.88
448.675	759.88
448.896	889.88
449.117	767.88
449.338	686.88
449.559	833.88
449.779	969.88
450	748.88
450.221	627.88
450.442	594.88
450.662	567.88
450.883	594.88
451.104	563.88
451.324	549.88
451.545	542.88
451.766	533.88
451.986	511.88
452.207	531.88
452.428	545.88
452.648	521.88
452.869	516.88
453.089	531.88
453.31	533.88
453.53	527.88
453.751	509.88
453.971	526.88
454.192	505.88
454.412	503.88
454.633	514.88
454.853	501.88
455.073	523.88
455.294	546.88
455.514	600.88
455.734	570.88
455.955	509.88
456.175	506.88
456.395	512.88
456.616	491.88
456.836	468.88
457.056	507.88
457.276	464.88
457.497	488.88
457.717	491.88
457.937	502.88
458.157	491.88
458.377	502.88
458.598	546.88
458.818	565.88
459.038	665.88
459.258	689.88
459.478	618.88
459.698	557.88
459.918	553.88
460.138	558.88
460.358	578.88
460.578	596.88
460.798	575.88
461.018	596.88
461.238	561.88
461.458	577.88
461.678	565.88
461.898	573.88
462.118	587.88
462.338	599.88
462.558	629.88
462.777	622.88
462.997	625.88
463.217	653.88
463.437	667.88
463.657	651.88
463.876	632.88
464.096	639.88
464.316	641.88
464.536	620.88
464.755	643.88
464.975	601.88
465.195	628.88
465.414	668.88
465.634	630.88
465.854	584.88
466.073	583.88
466.293	564.88
466.512	558.88
466.732	540.88
466.951	526.88
467.171	508.88
467.391	536.88
467.61	553.88
467.829	537.88
468.049	525.88
468.268	543.88
468.488	526.88
468.707	536.88
468.927	533.88
469.146	506.88
469.365	528.88
469.585	528.88
469.804	531.88
470.023	552.88
470.243	523.88
470.462	551.88
470.681	570.88
470.901	549.88
471.12	526.88
471.339	556.88
471.558	526.88
471.777	521.88
471.997	552.88
472.216	546.88
472.435	586.88
472.654	571.88
472.873	541.88
473.092	523.88
473.311	522.88
473.53	533.88
473.749	538.88
473.968	577.88
474.187	677.88
474.406	742.88
474.625	591.88
474.844	565.88
475.063	536.88
475.282	541.88
475.501	550.88
475.72	536.88
475.939	551.88
476.158	565.88
476.377	531.88
476.596	553.88
476.814	577.88
477.033	581.88
477.252	579.88
477.471	568.88
477.69	573.88
477.908	604.88
478.127	599.88
478.346	631.88
478.564	613.88
478.783	611.88
479.002	635.88
479.22	635.88
479.439	609.88
479.658	632.88
479.876	652.88
480.095	667.88
480.313	701.88
480.532	669.88
480.751	677.88
480.969	682.88
481.188	743.88
481.406	769.88
481.624	695.88
481.843	641.88
482.061	640.88
482.28	623.88
482.498	631.88
482.717	626.88
482.935	632.88
483.153	620.88
483.372	622.88
483.59	618.88
483.808	642.88
484.027	630.88
484.245	638.88
484.463	624.88
484.681	643.88
484.9	622.88
485.118	651.88
485.336	661.88
485.554	650.88
485.772	645.88
485.99	654.88
486.209	668.88
486.427	657.88
486.645	650.88
486.863	693.88
487.081	658.88
487.299	673.88
487.517	704.88
487.735	670.88
487.953	679.88
488.171	671.88
488.389	679.88
488.607	665.88
488.825	663.88
489.043	683.88
489.261	696.88
489.479	698.88
489.696	683.88
489.914	697.88
490.132	707.88
490.35	708.88
490.568	700.88
490.786	719.88
491.003	758.88
491.221	737.88
491.439	803.88
491.657	777.88
491.874	768.88
492.092	771.88
492.31	757.88
492.527	774.88
492.745	797.88
492.963	795.88
493.18	786.88
493.398	785.88
493.615	789.88
493.833	808.88
494.05	813.88
494.268	831.88
494.485	807.88
494.703	778.88
494.92	811.88
495.138	804.88
495.355	809.88
495.573	822.88
495.79	821.88
496.008	833.88
496.225	837.88
496.442	823.88
496.66	805.88
496.877	814.88
497.094	820.88
497.312	821.88
497.529	848.88
497.746	893.88
497.963	867.88
498.181	897.88
498.398	899.88
498.615	925.88
498.832	924.88
499.049	948.88
499.267	993.88
499.484	1038.88
499.701	1081.88
499.918	1129.88
500.135	1196.88
500.352	1277.88
500.569	1262.88
500.786	1305.88
501.003	1275.88
501.22	1244.88
501.437	1167.88
501.654	1100.88
501.871	1111.88
502.088	1026.88
502.305	989.88
502.522	947.88
502.739	890.88
502.956	890.88
503.172	881.88
503.389	834.88
503.606	856.88
503.823	847.88
504.04	839.88
504.256	807.88
504.473	815.88
504.69	831.88
504.907	820.88
505.123	773.88
505.34	789.88
505.557	756.88
505.773	787.88
505.99	774.88
506.207	772.88
506.423	772.88
506.64	766.88
506.856	739.88
507.073	727.88
507.289	736.88
507.506	721.88
507.722	731.88
507.939	766.88
508.155	732.88
508.372	699.88
508.588	713.88
508.805	710.88
509.021	701.88
509.238	717.88
509.454	731.88
509.67	701.88
509.887	722.88
510.103	723.88
510.319	697.88
510.536	774.88
510.752	1153.88
510.968	967.88
511.184	729.88
511.401	680.88
511.617	690.88
511.833	654.88
512.049	670.88
512.265	671.88
512.481	682.88
512.698	689.88
512.914	661.88
513.13	670.88
513.346	666.88
513.562	649.88
513.778	659.88
513.994	666.88
514.21	660.88
514.426	664.88
514.642	704.88
514.858	742.88
515.074	764.88
515.29	853.88
515.506	1165.88
515.721	1012.88
515.937	761.88
516.153	732.88
516.369	699.88
516.585	691.88
516.801	724.88
517.016	711.88
517.232	714.88
517.448	725.88
517.664	763.88
517.879	722.88
518.095	726.88
518.311	730.88
518.527	720.88
518.742	708.88
518.958	693.88
519.173	673.88
519.389	673.88
519.605	685.88
519.82	686.88
520.036	681.88
520.251	706.88
520.467	716.88
520.682	728.88
520.898	682.88
521.113	709.88
521.329	729.88
521.544	797.88
521.76	954.88
521.975	1433.88
522.19	1448.88
522.406	854.88
522.621	707.88
522.836	667.88
523.052	629.88
523.267	623.88
523.482	621.88
523.698	618.88
523.913	607.88
524.128	597.88
524.343	587.88
524.559	595.88
524.774	582.88
524.989	588.88
525.204	583.88
525.419	596.88
525.634	563.88
525.849	583.88
526.064	566.88
526.28	552.88
526.495	547.88
526.71	563.88
526.925	568.88
527.14	558.88
527.355	547.88
527.57	562.88
527.785	529.88
527.999	549.88
528.214	524.88
528.429	542.88
528.644	565.88
528.859	536.88
529.074	565.88
529.289	569.88
529.503	615.88
529.718	601.88
529.933	572.88
530.148	566.88
530.363	553.88
530.577	536.88
530.792	535.88
531.007	524.88
531.221	553.88
531.436	533.88
531.651	529.88
531.865	541.88
532.08	541.88
532.295	545.88
532.509	537.88
532.724	523.88
532.938	552.88
533.153	549.88
533.367	548.88
533.582	537.88
533.796	544.88
534.011	543.88
534.225	535.88
534.44	510.88
534.654	515.88
534.868	528.88
535.083	524.88
535.297	528.88
535.511	524.88
535.726	547.88
535.94	523.88
536.154	541.88
536.369	534.88
536.583	517.88
536.797	521.88
537.011	503.88
537.225	495.88
537.44	522.88
537.654	501.88
537.868	499.88
538.082	517.88
538.296	529.88
538.51	513.88
538.724	521.88
538.938	516.88
539.153	517.88
539.367	509.88
539.581	522.88
539.795	493.88
540.009	494.88
540.222	502.88
540.436	500.88
540.65	501.88
540.864	531.88
541.078	503.88
541.292	524.88
541.506	519.88
541.72	501.88
541.934	490.88
542.147	511.88
542.361	496.88
542.575	507.88
542.789	500.88
543.002	490.88
543.216	494.88
543.43	493.88
543.644	504.88
543.857	529.88
544.071	526.88
544.285	505.88
544.498	493.88
544.712	515.88
544.925	503.88
545.139	502.88
545.352	508.88
545.566	501.88
545.779	481.88
545.993	491.88
546.206	500.88
546.42	497.88
546.633	490.88
546.847	491.88
547.06	501.88
547.274	487.88
547.487	485.88
547.7	492.88
547.914	492.88
548.127	492.88
548.34	511.88
548.554	477.88
548.767	489.88
548.98	495.88
549.193	472.88
549.407	511.88
549.62	494.88
549.833	502.88
550.046	489.88
550.259	501.88
550.473	471.88
550.686	495.88
550.899	518.88
551.112	504.88
551.325	479.88
551.538	473.88
551.751	473.88
551.964	486.88
552.177	480.88
552.39	497.88
552.603	494.88
552.816	519.88
553.029	519.88
553.242	509.88
553.455	526.88
553.667	520.88
553.88	506.88
554.093	500.88
554.306	517.88
554.519	513.88
554.732	484.88
554.944	460.88
555.157	472.88
555.37	477.88
555.583	463.88
555.795	480.88
556.008	468.88
556.221	472.88
556.433	453.88
556.646	463.88
556.859	450.88
557.071	449.88
557.284	450.88
557.496	447.88
557.709	449.88
557.921	441.88
558.134	435.88
558.346	421.88
558.559	433.88
558.771	429.88
558.984	443.88
559.196	417.88
559.409	450.88
559.621	441.88
559.833	425.88
560.046	422.88
560.258	453.88
560.47	454.88
560.683	449.88
560.895	445.88
561.107	449.88
561.32	437.88
561.532	424.88
561.744	424.88
561.956	430.88
562.168	409.88
562.381	442.88
562.593	436.88
562.805	426.88
563.017	451.88
563.229	443.88
563.441	424.88
563.653	433.88
563.865	457.88
564.077	462.88
564.289	456.88
564.501	455.88
564.713	455.88
564.925	454.88
565.137	452.88
565.349	470.88
565.561	492.88
565.773	515.88
565.985	495.88
566.197	505.88
566.408	505.88
566.62	545.88
566.832	565.88
567.044	578.88
567.255	579.88
567.467	582.88
567.679	581.88
567.891	620.88
568.102	609.88
568.314	584.88
568.526	570.88
568.737	564.88
568.949	537.88
569.161	493.88
569.372	483.88
569.584	481.88
569.795	449.88
570.007	443.88
570.218	491.88
570.43	475.88
570.641	454.88
570.853	439.88
571.064	446.88
571.276	451.88
571.487	438.88
571.698	405.88
571.91	419.88
572.121	397.88
572.333	410.88
572.544	404.88
572.755	394.88
572.966	391.88
573.178	386.88
573.389	399.88
573.6	387.88
573.811	387.88
574.023	381.88
574.234	366.88
574.445	374.88
574.656	369.88
574.867	385.88
575.078	378.88
575.289	393.88
575.501	375.88
575.712	363.88
575.923	361.88
576.134	381.88
576.345	387.88
576.556	378.88
576.767	363.88
576.978	391.88
577.188	371.88
577.399	376.88
577.61	366.88
577.821	360.88
578.032	335.88
578.243	384.88
578.454	535.88
578.665	428.88
578.875	367.88
579.086	363.88
579.297	350.88
579.508	337.88
579.718	342.88
579.929	339.88
580.14	315.88
580.35	338.88
580.561	336.88
580.772	330.88
580.982	346.88
581.193	350.88
581.403	365.88
581.614	331.88
581.825	327.88
582.035	339.88
582.246	330.88
582.456	332.88
582.667	334.88
582.877	342.88
583.087	332.88
583.298	351.88
583.508	335.88
583.719	323.88
583.929	347.88
584.139	341.88
584.35	322.88
584.56	335.88
584.77	338.88
584.981	322.88
585.191	344.88
585.401	341.88
585.611	307.88
585.821	306.88
586.032	322.88
586.242	319.88
586.452	338.88
586.662	330.88
586.872	317.88
587.082	307.88
587.292	333.88
587.502	338.88
587.713	306.88
587.923	328.88
588.133	331.88
588.343	313.88
588.553	309.88
588.762	327.88
588.972	338.88
589.182	323.88
589.392	314.88
589.602	318.88
589.812	306.88
590.022	326.88
590.232	324.88
590.441	314.88
590.651	327.88
590.861	325.88
591.071	338.88
591.281	319.88
591.49	335.88
591.7	348.88
591.91	343.88
592.119	333.88
592.329	346.88
592.539	352.88
592.748	366.88
592.958	350.88
593.167	365.88
593.377	362.88
593.587	389.88
593.796	391.88
594.006	370.88
594.215	365.88
594.424	375.88
594.634	368.88
594.843	365.88
595.053	348.88
595.262	347.88
595.472	347.88
595.681	335.88
595.89	334.88
596.1	324.88
596.309	333.88
596.518	321.88
596.727	318.88
596.937	321.88
597.146	307.88
597.355	328.88
597.564	295.88
597.774	301.88
597.983	307.88
598.192	300.88
598.401	298.88
598.61	298.88
598.819	297.88
599.028	297.88
599.237	290.88
599.446	296.88
599.655	299.88
599.864	271.88
600.073	282.88
600.282	300.88
600.491	279.88
600.7	275.88
600.909	284.88
601.118	283.88
601.327	275.88
601.536	299.88
601.745	290.88
601.953	277.88
602.162	262.88
602.371	285.88
602.58	300.88
602.789	271.88
602.997	291.88
603.206	306.88
603.415	278.88
603.623	269.88
603.832	271.88
604.041	279.88
604.249	278.88
604.458	277.88
604.666	277.88
604.875	268.88
605.084	280.88
605.292	277.88
605.501	280.88
605.709	283.88
605.918	272.88
606.126	277.88
606.334	266.88
606.543	275.88
606.751	263.88
606.96	266.88
607.168	265.88
607.376	291.88
607.585	296.88
607.793	269.88
608.001	272.88
608.21	274.88
608.418	252.88
608.626	274.88
608.834	285.88
609.043	268.88
609.251	253.88
609.459	276.88
609.667	269.88
609.875	280.88
610.083	266.88
610.291	263.88
610.499	271.88
610.707	261.88
610.916	267.88
611.124	242.88
611.332	265.88
611.54	273.88
611.748	282.88
611.955	268.88
612.163	274.88
612.371	249.88
612.579	270.88
612.787	269.88
612.995	253.88
613.203	269.88
613.411	260.88
613.618	255.88
613.826	284.88
614.034	281.88
614.242	257.88
614.449	238.88
614.657	263.88
614.865	269.88
615.072	264.88
615.28	264.88
615.488	248.88
615.695	262.88
615.903	239.88
616.111	272.88
616.318	259.88
616.526	263.88
616.733	250.88
616.941	253.88
617.148	255.88
617.356	266.88
617.563	257.88
617.771	245.88
617.978	245.88
618.185	252.88
618.393	249.88
618.6	257.88
618.807	253.88
619.015	246.88
619.222	269.88
619.429	255.88
619.637	260.88
619.844	261.88
620.051	253.88
620.258	233.88
620.466	259.88
620.673	247.88
620.88	237.88
621.087	243.88
621.294	235.88
621.501	245.88
621.708	257.88
621.915	250.88
622.122	239.88
622.329	251.88
622.536	241.88
622.743	231.88
622.95	218.88
623.157	248.88
623.364	235.88
623.571	255.88
623.778	253.88
623.985	227.88
624.192	253.88
624.399	232.88
624.606	245.88
624.812	231.88
625.019	244.88
625.226	230.88
625.433	232.88
625.639	231.88
625.846	225.88
626.053	231.88
626.259	222.88
626.466	215.88
626.673	227.88
626.879	229.88
627.086	220.88
627.293	231.88
627.499	255.88
627.706	218.88
627.912	241.88
628.119	222.88
628.325	233.88
628.532	214.88
628.738	215.88
628.945	219.88
629.151	230.88
629.357	221.88
629.564	242.88
629.77	221.88
629.976	210.88
630.183	229.88
630.389	193.88
630.595	216.88
630.802	221.88
631.008	220.88
631.214	211.88
631.42	219.88
631.627	217.88
631.833	211.88
632.039	208.88
632.245	187.88
632.451	207.88
632.657	215.88
632.863	211.88
633.069	199.88
633.275	200.88
633.481	177.88
633.688	199.88
633.893	203.88
634.099	195.88
634.305	204.88
634.511	203.88
634.717	203.88
634.923	205.88
635.129	201.88
635.335	200.88
635.541	214.88
635.747	197.88
635.952	186.88
636.158	210.88
636.364	197.88
636.57	218.88
636.775	206.88
636.981	191.88
637.187	205.88
637.392	205.88
637.598	200.88
637.804	207.88
638.009	194.88
638.215	203.88
638.421	197.88
638.626	193.88
638.832	182.88
639.037	193.88
639.243	197.88
639.448	200.88
639.654	198.88
639.859	175.88
640.065	194.88
640.27	174.88
640.475	190.88
640.681	188.88
640.886	181.88
641.091	198.88
641.297	197.88
641.502	185.88
641.707	183.88
641.913	197.88
642.118	172.88
642.323	188.88
642.528	177.88
642.733	191.88
642.939	186.88
643.144	197.88
643.349	187.88
643.554	185.88
643.759	184.88
643.964	161.88
644.169	167.88
644.374	186.88
644.579	174.88
644.784	184.88
644.989	181.88
645.194	174.88
645.399	184.88
645.604	175.88
645.809	176.88
646.014	172.88
646.219	170.88
646.423	186.88
646.628	181.88
646.833	162.88
647.038	193.88
647.243	185.88
647.447	172.88
647.652	187.88
647.857	185.88
648.062	184.88
648.266	194.88
648.471	181.88
648.676	173.88
648.88	193.88
649.085	200.88
649.289	182.88
649.494	187.88
649.698	214.88
649.903	205.88
650.107	193.88
650.312	172.88
650.516	173.88
650.721	178.88
650.925	181.88
651.13	157.88
651.334	163.88
651.539	170.88
651.743	157.88
651.947	167.88
652.152	169.88
652.356	144.88
652.56	154.88
652.764	152.88
652.969	150.88
653.173	146.88
653.377	143.88
653.581	149.88
653.785	154.88
653.99	147.88
654.194	158.88
654.398	137.88
654.602	129.88
654.806	152.88
655.01	152.88
655.214	149.88
655.418	133.88
655.622	127.88
655.826	144.88
656.03	153.88
656.234	155.88
656.438	157.88
656.642	153.88
656.846	136.88
657.049	137.88
657.253	126.88
657.457	138.88
657.661	142.88
657.865	113.88
658.068	114.88
658.272	118.88
658.476	118.88
658.68	105.88
658.883	121.88
659.087	102.88
659.291	96.88
659.494	105.88
659.698	97.88
659.901	107.88
660.105	98.88
660.309	99.88
660.512	78.88
660.716	106.88
660.919	97.88
661.123	99.88
661.326	88.88
661.53	100.88
661.733	83.88
661.936	94.88
662.14	84.88
662.343	88.88
662.546	84.88
662.75	90.88
662.953	82.88
663.156	90.88
663.36	85.88
663.563	89.88
663.766	80.88
663.969	85.88
664.173	85.88
664.376	81.88
664.579	94.88
664.782	94.88
664.985	97.88
665.188	85.88
665.391	90.88
665.594	77.88
665.797	68.88
666	89.88
666.203	83.88
666.406	78.88
666.609	90.88
666.812	81.88
667.015	78.88
667.218	83.88
667.421	71.88
667.624	87.88
667.827	92.88
668.03	96.88
668.232	90.88
668.435	85.88
668.638	79.88
668.841	87.88
669.043	84.88
669.246	97.88
669.449	73.88
669.651	74.88
669.854	75.88
670.057	84.88
670.259	79.88
670.462	77.88
670.665	86.88
670.867	80.88
671.07	75.88
671.272	79.88
671.475	78.88
671.677	103.88
671.88	86.88
672.082	93.88
672.284	82.88
672.487	76.88
672.689	79.88
672.892	80.88
