Data from 1975.PennyLincolnUp.Lamp.En5.5.200Scan.071719.P1.Changed Mount._HRD10591_15-56-39-859.txt Node
Date: Thu Jul 18 15:56:39 EDT 2019
User: cochatt
Spectrometer: HR+D1059
Trigger mode: 1
Integration Time (sec): 1.000000E-1
Scans to average: 1
Electric dark correction enabled: true
Nonlinearity correction enabled: false
Boxcar width: 0
XAxis mode: Wavelengths
Number of Pixels in Spectrum: 2048
>>>>>Begin Spectral Data<<<<<
223.165	-11.25
223.4	-11.25
223.635	-11.25
223.869	-20.25
224.104	-19.25
224.338	-8.25
224.573	-14.25
224.808	-9.25
225.042	-2.25
225.277	2.75
225.511	6.75
225.746	-5.25
225.98	5.75
226.215	-7.25
226.449	21.75
226.683	17.75
226.918	12.75
227.152	29.75
227.387	27.75
227.621	37.75
227.856	40.75
228.09	50.75
228.324	52.75
228.559	59.75
228.793	56.75
229.027	87.75
229.262	104.75
229.496	118.75
229.73	116.75
229.964	152.75
230.199	125.75
230.433	111.75
230.667	116.75
230.901	119.75
231.136	113.75
231.37	105.75
231.604	122.75
231.838	120.75
232.072	118.75
232.306	101.75
232.541	106.75
232.775	108.75
233.009	108.75
233.243	132.75
233.477	128.75
233.711	106.75
233.945	110.75
234.179	121.75
234.413	118.75
234.647	130.75
234.881	111.75
235.115	107.75
235.349	131.75
235.583	127.75
235.817	119.75
236.051	120.75
236.285	125.75
236.519	122.75
236.753	128.75
236.987	136.75
237.221	181.75
237.455	229.75
237.689	186.75
237.922	152.75
238.156	147.75
238.39	137.75
238.624	148.75
238.858	121.75
239.091	134.75
239.325	138.75
239.559	135.75
239.793	129.75
240.027	140.75
240.26	125.75
240.494	173.75
240.728	147.75
240.961	164.75
241.195	146.75
241.429	150.75
241.662	158.75
241.896	142.75
242.13	147.75
242.363	144.75
242.597	136.75
242.83	155.75
243.064	154.75
243.298	149.75
243.531	145.75
243.765	128.75
243.998	151.75
244.232	147.75
244.465	145.75
244.699	161.75
244.932	138.75
245.166	146.75
245.399	157.75
245.633	145.75
245.866	154.75
246.099	153.75
246.333	155.75
246.566	158.75
246.8	155.75
247.033	163.75
247.266	164.75
247.5	175.75
247.733	177.75
247.966	181.75
248.2	180.75
248.433	175.75
248.666	171.75
248.899	205.75
249.133	198.75
249.366	221.75
249.599	200.75
249.832	180.75
250.066	187.75
250.299	196.75
250.532	173.75
250.765	210.75
250.998	234.75
251.231	222.75
251.465	215.75
251.698	220.75
251.931	197.75
252.164	197.75
252.397	199.75
252.63	203.75
252.863	208.75
253.096	220.75
253.329	208.75
253.562	226.75
253.795	229.75
254.028	216.75
254.261	235.75
254.494	245.75
254.727	255.75
254.96	272.75
255.193	277.75
255.426	242.75
255.659	239.75
255.892	231.75
256.124	233.75
256.357	244.75
256.59	228.75
256.823	218.75
257.056	218.75
257.289	211.75
257.521	212.75
257.754	213.75
257.987	209.75
258.22	220.75
258.452	239.75
258.685	230.75
258.918	212.75
259.151	239.75
259.383	213.75
259.616	221.75
259.849	223.75
260.081	241.75
260.314	250.75
260.547	254.75
260.779	261.75
261.012	257.75
261.244	245.75
261.477	244.75
261.71	222.75
261.942	225.75
262.175	238.75
262.407	234.75
262.64	228.75
262.872	228.75
263.105	211.75
263.337	219.75
263.57	220.75
263.802	220.75
264.035	223.75
264.267	213.75
264.499	220.75
264.732	228.75
264.964	214.75
265.197	218.75
265.429	227.75
265.661	212.75
265.894	231.75
266.126	233.75
266.358	236.75
266.591	224.75
266.823	238.75
267.055	231.75
267.287	238.75
267.52	223.75
267.752	237.75
267.984	228.75
268.216	252.75
268.448	234.75
268.681	235.75
268.913	264.75
269.145	263.75
269.377	292.75
269.609	273.75
269.841	277.75
270.073	279.75
270.306	294.75
270.538	308.75
270.77	321.75
271.002	310.75
271.234	288.75
271.466	320.75
271.698	306.75
271.93	324.75
272.162	319.75
272.394	309.75
272.626	311.75
272.858	302.75
273.09	288.75
273.322	286.75
273.553	284.75
273.785	257.75
274.017	289.75
274.249	265.75
274.481	288.75
274.713	247.75
274.945	272.75
275.176	272.75
275.408	278.75
275.64	287.75
275.872	271.75
276.104	277.75
276.335	281.75
276.567	289.75
276.799	289.75
277.031	303.75
277.262	324.75
277.494	312.75
277.726	299.75
277.957	290.75
278.189	287.75
278.421	280.75
278.652	281.75
278.884	268.75
279.115	298.75
279.347	282.75
279.579	292.75
279.81	279.75
280.042	274.75
280.273	262.75
280.505	260.75
280.736	270.75
280.968	282.75
281.199	276.75
281.431	284.75
281.662	267.75
281.894	281.75
282.125	279.75
282.356	308.75
282.588	307.75
282.819	302.75
283.051	286.75
283.282	297.75
283.513	289.75
283.745	297.75
283.976	305.75
284.207	300.75
284.439	312.75
284.67	298.75
284.901	297.75
285.132	304.75
285.364	282.75
285.595	299.75
285.826	289.75
286.057	306.75
286.288	304.75
286.52	281.75
286.751	297.75
286.982	305.75
287.213	306.75
287.444	301.75
287.675	318.75
287.906	319.75
288.138	323.75
288.369	331.75
288.6	326.75
288.831	312.75
289.062	321.75
289.293	304.75
289.524	321.75
289.755	302.75
289.986	309.75
290.217	304.75
290.448	306.75
290.679	321.75
290.91	302.75
291.141	305.75
291.371	309.75
291.602	306.75
291.833	301.75
292.064	311.75
292.295	310.75
292.526	312.75
292.757	312.75
292.987	313.75
293.218	306.75
293.449	331.75
293.68	320.75
293.91	318.75
294.141	305.75
294.372	314.75
294.603	317.75
294.833	334.75
295.064	317.75
295.295	321.75
295.525	313.75
295.756	324.75
295.987	305.75
296.217	329.75
296.448	337.75
296.679	317.75
296.909	324.75
297.14	316.75
297.37	314.75
297.601	311.75
297.831	309.75
298.062	314.75
298.292	314.75
298.523	351.75
298.753	327.75
298.984	329.75
299.214	330.75
299.445	317.75
299.675	317.75
299.905	335.75
300.136	335.75
300.366	319.75
300.597	334.75
300.827	354.75
301.057	350.75
301.288	356.75
301.518	328.75
301.748	336.75
301.979	354.75
302.209	358.75
302.439	345.75
302.669	336.75
302.9	342.75
303.13	325.75
303.36	334.75
303.59	353.75
303.82	370.75
304.051	375.75
304.281	356.75
304.511	337.75
304.741	328.75
304.971	337.75
305.201	351.75
305.431	324.75
305.661	358.75
305.891	338.75
306.121	373.75
306.352	343.75
306.582	348.75
306.812	329.75
307.042	344.75
307.272	337.75
307.502	348.75
307.731	349.75
307.961	338.75
308.191	347.75
308.421	349.75
308.651	363.75
308.881	348.75
309.111	344.75
309.341	358.75
309.571	367.75
309.8	367.75
310.03	357.75
310.26	386.75
310.49	364.75
310.72	383.75
310.949	392.75
311.179	392.75
311.409	368.75
311.639	388.75
311.868	388.75
312.098	375.75
312.328	402.75
312.557	415.75
312.787	406.75
313.017	405.75
313.246	401.75
313.476	384.75
313.706	385.75
313.935	391.75
314.165	408.75
314.394	396.75
314.624	404.75
314.853	381.75
315.083	402.75
315.312	380.75
315.542	383.75
315.771	385.75
316.001	396.75
316.23	382.75
316.46	384.75
316.689	394.75
316.919	406.75
317.148	408.75
317.377	393.75
317.607	380.75
317.836	390.75
318.065	383.75
318.295	399.75
318.524	388.75
318.753	374.75
318.983	384.75
319.212	392.75
319.441	412.75
319.67	372.75
319.9	380.75
320.129	389.75
320.358	397.75
320.587	379.75
320.816	390.75
321.046	428.75
321.275	402.75
321.504	406.75
321.733	388.75
321.962	417.75
322.191	408.75
322.42	417.75
322.649	425.75
322.878	425.75
323.108	444.75
323.337	450.75
323.566	473.75
323.795	497.75
324.024	514.75
324.253	593.75
324.482	792.75
324.71	1225.75
324.939	1767.75
325.168	1582.75
325.397	817.75
325.626	558.75
325.855	503.75
326.084	470.75
326.313	463.75
326.542	474.75
326.77	501.75
326.999	553.75
327.228	728.75
327.457	1102.75
327.686	1374.75
327.914	922.75
328.143	635.75
328.372	571.75
328.6	535.75
328.829	532.75
329.058	533.75
329.287	540.75
329.515	501.75
329.744	496.75
329.972	513.75
330.201	492.75
330.43	551.75
330.658	540.75
330.887	591.75
331.115	564.75
331.344	514.75
331.572	472.75
331.801	472.75
332.03	479.75
332.258	463.75
332.486	472.75
332.715	475.75
332.943	490.75
333.172	500.75
333.4	465.75
333.629	497.75
333.857	498.75
334.085	515.75
334.314	515.75
334.542	533.75
334.771	578.75
334.999	521.75
335.227	504.75
335.455	488.75
335.684	481.75
335.912	487.75
336.14	467.75
336.369	458.75
336.597	502.75
336.825	458.75
337.053	457.75
337.281	476.75
337.51	446.75
337.738	463.75
337.966	433.75
338.194	440.75
338.422	456.75
338.65	448.75
338.878	430.75
339.106	470.75
339.334	448.75
339.562	433.75
339.79	434.75
340.018	465.75
340.246	456.75
340.474	448.75
340.702	465.75
340.93	452.75
341.158	457.75
341.386	461.75
341.614	438.75
341.842	450.75
342.07	450.75
342.298	415.75
342.526	425.75
342.754	433.75
342.981	438.75
343.209	438.75
343.437	449.75
343.665	449.75
343.893	455.75
344.12	488.75
344.348	449.75
344.576	478.75
344.804	461.75
345.031	445.75
345.259	475.75
345.487	465.75
345.714	447.75
345.942	426.75
346.17	457.75
346.397	415.75
346.625	434.75
346.853	443.75
347.08	436.75
347.308	441.75
347.535	422.75
347.763	436.75
347.99	430.75
348.218	436.75
348.445	453.75
348.673	441.75
348.9	429.75
349.128	431.75
349.355	433.75
349.583	422.75
349.81	439.75
350.037	417.75
350.265	414.75
350.492	406.75
350.72	433.75
350.947	428.75
351.174	430.75
351.402	459.75
351.629	412.75
351.856	416.75
352.083	460.75
352.311	428.75
352.538	446.75
352.765	445.75
352.992	441.75
353.22	415.75
353.447	425.75
353.674	430.75
353.901	413.75
354.128	392.75
354.355	416.75
354.583	412.75
354.81	421.75
355.037	396.75
355.264	407.75
355.491	418.75
355.718	393.75
355.945	405.75
356.172	412.75
356.399	391.75
356.626	392.75
356.853	406.75
357.08	424.75
357.307	411.75
357.534	410.75
357.761	413.75
357.988	402.75
358.215	398.75
358.441	412.75
358.668	412.75
358.895	406.75
359.122	414.75
359.349	432.75
359.576	424.75
359.802	451.75
360.029	441.75
360.256	462.75
360.483	435.75
360.709	457.75
360.936	455.75
361.163	431.75
361.39	424.75
361.616	444.75
361.843	398.75
362.07	406.75
362.296	418.75
362.523	428.75
362.749	428.75
362.976	409.75
363.203	429.75
363.429	397.75
363.656	426.75
363.882	436.75
364.109	431.75
364.335	427.75
364.562	423.75
364.788	425.75
365.015	408.75
365.241	403.75
365.468	443.75
365.694	420.75
365.92	420.75
366.147	397.75
366.373	413.75
366.599	413.75
366.826	421.75
367.052	421.75
367.278	424.75
367.505	410.75
367.731	413.75
367.957	434.75
368.184	418.75
368.41	439.75
368.636	439.75
368.862	437.75
369.089	442.75
369.315	450.75
369.541	436.75
369.767	412.75
369.993	432.75
370.219	402.75
370.445	419.75
370.672	420.75
370.898	429.75
371.124	416.75
371.35	457.75
371.576	440.75
371.802	430.75
372.028	436.75
372.254	425.75
372.48	437.75
372.706	436.75
372.932	466.75
373.158	429.75
373.384	439.75
373.61	440.75
373.835	424.75
374.061	439.75
374.287	434.75
374.513	452.75
374.739	441.75
374.965	441.75
375.191	433.75
375.416	439.75
375.642	436.75
375.868	431.75
376.094	452.75
376.319	429.75
376.545	431.75
376.771	426.75
376.997	427.75
377.222	427.75
377.448	433.75
377.674	446.75
377.899	442.75
378.125	438.75
378.35	427.75
378.576	445.75
378.802	433.75
379.027	434.75
379.253	440.75
379.478	443.75
379.704	449.75
379.929	430.75
380.155	419.75
380.38	444.75
380.606	415.75
380.831	411.75
381.057	436.75
381.282	415.75
381.507	448.75
381.733	443.75
381.958	443.75
382.184	434.75
382.409	423.75
382.634	456.75
382.86	463.75
383.085	457.75
383.31	475.75
383.535	458.75
383.761	462.75
383.986	462.75
384.211	452.75
384.436	452.75
384.662	452.75
384.887	460.75
385.112	458.75
385.337	495.75
385.562	491.75
385.787	477.75
386.013	493.75
386.238	489.75
386.463	477.75
386.688	465.75
386.913	491.75
387.138	480.75
387.363	476.75
387.588	489.75
387.813	490.75
388.038	487.75
388.263	462.75
388.488	494.75
388.713	492.75
388.938	467.75
389.163	480.75
389.387	482.75
389.612	492.75
389.837	464.75
390.062	492.75
390.287	461.75
390.512	483.75
390.736	480.75
390.961	498.75
391.186	489.75
391.411	494.75
391.636	510.75
391.86	493.75
392.085	509.75
392.31	525.75
392.534	504.75
392.759	500.75
392.984	492.75
393.208	502.75
393.433	498.75
393.658	466.75
393.882	475.75
394.107	500.75
394.331	492.75
394.556	507.75
394.78	471.75
395.005	501.75
395.229	498.75
395.454	520.75
395.678	518.75
395.903	532.75
396.127	533.75
396.352	554.75
396.576	517.75
396.801	509.75
397.025	501.75
397.249	496.75
397.474	540.75
397.698	534.75
397.922	537.75
398.147	537.75
398.371	557.75
398.595	542.75
398.82	551.75
399.044	591.75
399.268	588.75
399.492	663.75
399.717	660.75
399.941	688.75
400.165	708.75
400.389	725.75
400.613	652.75
400.837	603.75
401.062	584.75
401.286	582.75
401.51	570.75
401.734	574.75
401.958	570.75
402.182	567.75
402.406	570.75
402.63	591.75
402.854	586.75
403.078	598.75
403.302	584.75
403.526	560.75
403.75	595.75
403.974	607.75
404.198	588.75
404.422	605.75
404.645	613.75
404.869	599.75
405.093	638.75
405.317	663.75
405.541	706.75
405.765	639.75
405.988	589.75
406.212	617.75
406.436	614.75
406.66	639.75
406.883	640.75
407.107	658.75
407.331	701.75
407.555	789.75
407.778	785.75
408.002	715.75
408.226	664.75
408.449	632.75
408.673	659.75
408.896	669.75
409.12	716.75
409.344	675.75
409.567	620.75
409.791	608.75
410.014	599.75
410.238	576.75
410.461	574.75
410.685	591.75
410.908	601.75
411.132	634.75
411.355	659.75
411.578	639.75
411.802	593.75
412.025	570.75
412.249	601.75
412.472	603.75
412.695	658.75
412.919	672.75
413.142	601.75
413.365	577.75
413.589	572.75
413.812	548.75
414.035	551.75
414.258	551.75
414.482	567.75
414.705	560.75
414.928	558.75
415.151	548.75
415.374	556.75
415.597	536.75
415.821	574.75
416.044	558.75
416.267	570.75
416.49	542.75
416.713	560.75
416.936	557.75
417.159	541.75
417.382	549.75
417.605	552.75
417.828	561.75
418.051	591.75
418.274	574.75
418.497	566.75
418.72	558.75
418.943	550.75
419.166	580.75
419.389	621.75
419.611	605.75
419.834	576.75
420.057	609.75
420.28	604.75
420.503	594.75
420.726	581.75
420.948	600.75
421.171	629.75
421.394	666.75
421.617	603.75
421.839	577.75
422.062	573.75
422.285	601.75
422.507	636.75
422.73	732.75
422.953	688.75
423.175	606.75
423.398	617.75
423.621	583.75
423.843	632.75
424.066	621.75
424.288	640.75
424.511	644.75
424.733	697.75
424.956	749.75
425.178	712.75
425.401	717.75
425.623	743.75
425.846	633.75
426.068	599.75
426.291	610.75
426.513	604.75
426.735	625.75
426.958	651.75
427.18	724.75
427.402	853.75
427.625	924.75
427.847	808.75
428.069	688.75
428.292	641.75
428.514	586.75
428.736	588.75
428.958	574.75
429.181	554.75
429.403	556.75
429.625	569.75
429.847	607.75
430.069	646.75
430.292	646.75
430.514	575.75
430.736	572.75
430.958	544.75
431.18	542.75
431.402	538.75
431.624	525.75
431.846	526.75
432.068	535.75
432.29	546.75
432.512	540.75
432.734	537.75
432.956	555.75
433.178	540.75
433.4	552.75
433.622	545.75
433.844	544.75
434.066	518.75
434.287	523.75
434.509	547.75
434.731	567.75
434.953	573.75
435.175	582.75
435.397	598.75
435.618	598.75
435.84	632.75
436.062	727.75
436.284	811.75
436.505	673.75
436.727	617.75
436.949	568.75
437.17	574.75
437.392	546.75
437.614	562.75
437.835	558.75
438.057	656.75
438.278	765.75
438.5	774.75
438.721	848.75
438.943	838.75
439.165	682.75
439.386	585.75
439.608	598.75
439.829	609.75
440.05	632.75
440.272	652.75
440.493	657.75
440.715	598.75
440.936	562.75
441.158	571.75
441.379	543.75
441.6	600.75
441.822	606.75
442.043	632.75
442.264	712.75
442.486	805.75
442.707	644.75
442.928	602.75
443.149	648.75
443.371	625.75
443.592	676.75
443.813	786.75
444.034	856.75
444.255	747.75
444.476	632.75
444.698	650.75
444.919	634.75
445.14	745.75
445.361	686.75
445.582	664.75
445.803	703.75
446.024	812.75
446.245	818.75
446.466	737.75
446.687	654.75
446.908	586.75
447.129	556.75
447.35	545.75
447.571	553.75
447.792	562.75
448.013	561.75
448.234	584.75
448.455	594.75
448.675	740.75
448.896	868.75
449.117	704.75
449.338	665.75
449.559	783.75
449.779	895.75
450	728.75
450.221	598.75
450.442	549.75
450.662	553.75
450.883	537.75
451.104	572.75
451.324	536.75
451.545	532.75
451.766	518.75
451.986	497.75
452.207	489.75
452.428	498.75
452.648	491.75
452.869	491.75
453.089	501.75
453.31	500.75
453.53	527.75
453.751	510.75
453.971	476.75
454.192	515.75
454.412	513.75
454.633	472.75
454.853	473.75
455.073	480.75
455.294	507.75
455.514	576.75
455.734	578.75
455.955	482.75
456.175	481.75
456.395	488.75
456.616	443.75
456.836	496.75
457.056	465.75
457.276	467.75
457.497	474.75
457.717	465.75
457.937	449.75
458.157	487.75
458.377	485.75
458.598	501.75
458.818	538.75
459.038	636.75
459.258	648.75
459.478	575.75
459.698	547.75
459.918	527.75
460.138	531.75
460.358	557.75
460.578	542.75
460.798	585.75
461.018	571.75
461.238	583.75
461.458	567.75
461.678	533.75
461.898	536.75
462.118	559.75
462.338	570.75
462.558	600.75
462.777	603.75
462.997	618.75
463.217	650.75
463.437	644.75
463.657	623.75
463.876	620.75
464.096	602.75
464.316	586.75
464.536	620.75
464.755	600.75
464.975	607.75
465.195	604.75
465.414	636.75
465.634	594.75
465.854	560.75
466.073	554.75
466.293	550.75
466.512	518.75
466.732	510.75
466.951	519.75
467.171	510.75
467.391	491.75
467.61	539.75
467.829	535.75
468.049	512.75
468.268	511.75
468.488	496.75
468.707	489.75
468.927	482.75
469.146	484.75
469.365	487.75
469.585	492.75
469.804	520.75
470.023	525.75
470.243	514.75
470.462	530.75
470.681	524.75
470.901	550.75
471.12	525.75
471.339	510.75
471.558	513.75
471.777	520.75
471.997	523.75
472.216	504.75
472.435	547.75
472.654	538.75
472.873	534.75
473.092	522.75
473.311	504.75
473.53	528.75
473.749	523.75
473.968	555.75
474.187	657.75
474.406	677.75
474.625	578.75
474.844	527.75
475.063	519.75
475.282	535.75
475.501	511.75
475.72	503.75
475.939	543.75
476.158	520.75
476.377	524.75
476.596	517.75
476.814	541.75
477.033	536.75
477.252	555.75
477.471	536.75
477.69	560.75
477.908	584.75
478.127	597.75
478.346	568.75
478.564	587.75
478.783	588.75
479.002	601.75
479.22	640.75
479.439	617.75
479.658	612.75
479.876	644.75
480.095	652.75
480.313	659.75
480.532	668.75
480.751	630.75
480.969	653.75
481.188	712.75
481.406	739.75
481.624	682.75
481.843	648.75
482.061	621.75
482.28	592.75
482.498	608.75
482.717	607.75
482.935	633.75
483.153	614.75
483.372	612.75
483.59	591.75
483.808	615.75
484.027	588.75
484.245	588.75
484.463	609.75
484.681	638.75
484.9	604.75
485.118	629.75
485.336	618.75
485.554	636.75
485.772	642.75
485.99	629.75
486.209	642.75
486.427	646.75
486.645	634.75
486.863	651.75
487.081	657.75
487.299	668.75
487.517	641.75
487.735	647.75
487.953	677.75
488.171	657.75
488.389	651.75
488.607	669.75
488.825	647.75
489.043	632.75
489.261	646.75
489.479	672.75
489.696	682.75
489.914	661.75
490.132	681.75
490.35	698.75
490.568	675.75
490.786	690.75
491.003	692.75
491.221	728.75
491.439	736.75
491.657	741.75
491.874	747.75
492.092	753.75
492.31	739.75
492.527	716.75
492.745	765.75
492.963	746.75
493.18	762.75
493.398	762.75
493.615	793.75
493.833	764.75
494.05	764.75
494.268	781.75
494.485	761.75
494.703	767.75
494.92	762.75
495.138	779.75
495.355	773.75
495.573	767.75
495.79	774.75
496.008	811.75
496.225	760.75
496.442	782.75
496.66	772.75
496.877	749.75
497.094	810.75
497.312	795.75
497.529	820.75
497.746	824.75
497.963	815.75
498.181	853.75
498.398	866.75
498.615	896.75
498.832	939.75
499.049	936.75
499.267	939.75
499.484	988.75
499.701	1060.75
499.918	1077.75
500.135	1165.75
500.352	1242.75
500.569	1261.75
500.786	1270.75
501.003	1243.75
501.22	1206.75
501.437	1113.75
501.654	1058.75
501.871	1013.75
502.088	973.75
502.305	929.75
502.522	918.75
502.739	884.75
502.956	851.75
503.172	840.75
503.389	824.75
503.606	821.75
503.823	793.75
504.04	799.75
504.256	766.75
504.473	805.75
504.69	768.75
504.907	808.75
505.123	770.75
505.34	768.75
505.557	774.75
505.773	746.75
505.99	706.75
506.207	728.75
506.423	734.75
506.64	716.75
506.856	685.75
507.073	724.75
507.289	702.75
507.506	705.75
507.722	716.75
507.939	689.75
508.155	701.75
508.372	676.75
508.588	660.75
508.805	652.75
509.021	690.75
509.238	690.75
509.454	686.75
509.67	664.75
509.887	685.75
510.103	669.75
510.319	678.75
510.536	721.75
510.752	1036.75
510.968	898.75
511.184	672.75
511.401	658.75
511.617	636.75
511.833	640.75
512.049	620.75
512.265	642.75
512.481	653.75
512.698	631.75
512.914	642.75
513.13	645.75
513.346	608.75
513.562	619.75
513.778	614.75
513.994	634.75
514.21	632.75
514.426	639.75
514.642	688.75
514.858	703.75
515.074	735.75
515.29	814.75
515.506	1070.75
515.721	949.75
515.937	712.75
516.153	712.75
516.369	671.75
516.585	670.75
516.801	677.75
517.016	655.75
517.232	675.75
517.448	702.75
517.664	688.75
517.879	712.75
518.095	690.75
518.311	684.75
518.527	684.75
518.742	670.75
518.958	668.75
519.173	634.75
519.389	638.75
519.605	642.75
519.82	640.75
520.036	655.75
520.251	653.75
520.467	686.75
520.682	670.75
520.898	653.75
521.113	667.75
521.329	703.75
521.544	747.75
521.76	865.75
521.975	1269.75
522.19	1295.75
522.406	828.75
522.621	666.75
522.836	624.75
523.052	600.75
523.267	584.75
523.482	588.75
523.698	582.75
523.913	577.75
524.128	578.75
524.343	576.75
524.559	560.75
524.774	543.75
524.989	561.75
525.204	561.75
525.419	571.75
525.634	555.75
525.849	545.75
526.064	551.75
526.28	533.75
526.495	524.75
526.71	554.75
526.925	565.75
527.14	529.75
527.355	522.75
527.57	536.75
527.785	539.75
527.999	509.75
528.214	541.75
528.429	534.75
528.644	542.75
528.859	522.75
529.074	550.75
529.289	560.75
529.503	597.75
529.718	561.75
529.933	542.75
530.148	528.75
530.363	554.75
530.577	518.75
530.792	540.75
531.007	539.75
531.221	533.75
531.436	507.75
531.651	519.75
531.865	545.75
532.08	525.75
532.295	508.75
532.509	549.75
532.724	530.75
532.938	495.75
533.153	518.75
533.367	501.75
533.582	525.75
533.796	508.75
534.011	509.75
534.225	504.75
534.44	518.75
534.654	525.75
534.868	517.75
535.083	502.75
535.297	486.75
535.511	497.75
535.726	516.75
535.94	518.75
536.154	495.75
536.369	500.75
536.583	503.75
536.797	506.75
537.011	497.75
537.225	506.75
537.44	511.75
537.654	486.75
537.868	493.75
538.082	474.75
538.296	477.75
538.51	508.75
538.724	506.75
538.938	490.75
539.153	479.75
539.367	491.75
539.581	509.75
539.795	479.75
540.009	469.75
540.222	495.75
540.436	472.75
540.65	484.75
540.864	504.75
541.078	489.75
541.292	504.75
541.506	498.75
541.72	468.75
541.934	488.75
542.147	503.75
542.361	487.75
542.575	477.75
542.789	474.75
543.002	481.75
543.216	493.75
543.43	486.75
543.644	498.75
543.857	478.75
544.071	489.75
544.285	522.75
544.498	497.75
544.712	505.75
544.925	481.75
545.139	485.75
545.352	488.75
545.566	482.75
545.779	488.75
545.993	505.75
546.206	487.75
546.42	485.75
546.633	478.75
546.847	497.75
547.06	478.75
547.274	475.75
547.487	488.75
547.7	465.75
547.914	488.75
548.127	468.75
548.34	489.75
548.554	484.75
548.767	492.75
548.98	493.75
549.193	472.75
549.407	502.75
549.62	479.75
549.833	487.75
550.046	486.75
550.259	489.75
550.473	486.75
550.686	468.75
550.899	461.75
551.112	490.75
551.325	466.75
551.538	462.75
551.751	475.75
551.964	477.75
552.177	470.75
552.39	482.75
552.603	479.75
552.816	489.75
553.029	486.75
553.242	505.75
553.455	497.75
553.667	514.75
553.88	515.75
554.093	478.75
554.306	515.75
554.519	482.75
554.732	484.75
554.944	460.75
555.157	485.75
555.37	457.75
555.583	457.75
555.795	460.75
556.008	458.75
556.221	446.75
556.433	438.75
556.646	434.75
556.859	452.75
557.071	446.75
557.284	431.75
557.496	424.75
557.709	433.75
557.921	468.75
558.134	430.75
558.346	427.75
558.559	442.75
558.771	421.75
558.984	430.75
559.196	431.75
559.409	425.75
559.621	428.75
559.833	406.75
560.046	403.75
560.258	424.75
560.47	423.75
560.683	412.75
560.895	400.75
561.107	400.75
561.32	426.75
561.532	414.75
561.744	413.75
561.956	437.75
562.168	428.75
562.381	448.75
562.593	440.75
562.805	436.75
563.017	432.75
563.229	414.75
563.441	427.75
563.653	430.75
563.865	444.75
564.077	433.75
564.289	438.75
564.501	444.75
564.713	439.75
564.925	458.75
565.137	469.75
565.349	461.75
565.561	477.75
565.773	462.75
565.985	495.75
566.197	495.75
566.408	521.75
566.62	537.75
566.832	582.75
567.044	573.75
567.255	574.75
567.467	580.75
567.679	579.75
567.891	578.75
568.102	593.75
568.314	561.75
568.526	555.75
568.737	520.75
568.949	524.75
569.161	491.75
569.372	473.75
569.584	461.75
569.795	457.75
570.007	453.75
570.218	491.75
570.43	448.75
570.641	422.75
570.853	432.75
571.064	446.75
571.276	448.75
571.487	419.75
571.698	394.75
571.91	391.75
572.121	388.75
572.333	392.75
572.544	398.75
572.755	396.75
572.966	397.75
573.178	380.75
573.389	358.75
573.6	372.75
573.811	351.75
574.023	359.75
574.234	375.75
574.445	366.75
574.656	356.75
574.867	369.75
575.078	376.75
575.289	388.75
575.501	377.75
575.712	368.75
575.923	351.75
576.134	355.75
576.345	361.75
576.556	344.75
576.767	357.75
576.978	366.75
577.188	356.75
577.399	372.75
577.61	344.75
577.821	369.75
578.032	361.75
578.243	379.75
578.454	526.75
578.665	419.75
578.875	353.75
579.086	352.75
579.297	350.75
579.508	343.75
579.718	342.75
579.929	337.75
580.14	336.75
580.35	344.75
580.561	344.75
580.772	334.75
580.982	343.75
581.193	337.75
581.403	334.75
581.614	325.75
581.825	333.75
582.035	338.75
582.246	323.75
582.456	331.75
582.667	325.75
582.877	326.75
583.087	330.75
583.298	316.75
583.508	337.75
583.719	346.75
583.929	320.75
584.139	329.75
584.35	337.75
584.56	329.75
584.77	332.75
584.981	319.75
585.191	328.75
585.401	325.75
585.611	333.75
585.821	325.75
586.032	315.75
586.242	342.75
586.452	335.75
586.662	311.75
586.872	320.75
587.082	318.75
587.292	332.75
587.502	331.75
587.713	321.75
587.923	338.75
588.133	352.75
588.343	320.75
588.553	315.75
588.762	324.75
588.972	320.75
589.182	321.75
589.392	339.75
589.602	336.75
589.812	326.75
590.022	316.75
590.232	299.75
590.441	339.75
590.651	329.75
590.861	322.75
591.071	312.75
591.281	324.75
591.49	305.75
591.7	329.75
591.91	343.75
592.119	337.75
592.329	330.75
592.539	348.75
592.748	356.75
592.958	360.75
593.167	338.75
593.377	345.75
593.587	360.75
593.796	355.75
594.006	352.75
594.215	360.75
594.424	379.75
594.634	340.75
594.843	351.75
595.053	331.75
595.262	348.75
595.472	339.75
595.681	338.75
595.89	341.75
596.1	304.75
596.309	312.75
596.518	308.75
596.727	319.75
596.937	289.75
597.146	329.75
597.355	298.75
597.564	296.75
597.774	300.75
597.983	282.75
598.192	301.75
598.401	297.75
598.61	284.75
598.819	286.75
599.028	293.75
599.237	293.75
599.446	293.75
599.655	291.75
599.864	290.75
600.073	292.75
600.282	280.75
600.491	276.75
600.7	289.75
600.909	268.75
601.118	278.75
601.327	274.75
601.536	277.75
601.745	295.75
601.953	290.75
602.162	265.75
602.371	268.75
602.58	271.75
602.789	279.75
602.997	281.75
603.206	291.75
603.415	269.75
603.623	269.75
603.832	273.75
604.041	285.75
604.249	256.75
604.458	288.75
604.666	274.75
604.875	270.75
605.084	264.75
605.292	274.75
605.501	282.75
605.709	268.75
605.918	264.75
606.126	256.75
606.334	264.75
606.543	254.75
606.751	263.75
606.96	247.75
607.168	254.75
607.376	270.75
607.585	269.75
607.793	266.75
608.001	268.75
608.21	282.75
608.418	262.75
608.626	277.75
608.834	259.75
609.043	274.75
609.251	282.75
609.459	260.75
609.667	255.75
609.875	268.75
610.083	266.75
610.291	264.75
610.499	268.75
610.707	228.75
610.916	269.75
611.124	270.75
611.332	278.75
611.54	264.75
611.748	275.75
611.955	272.75
612.163	284.75
612.371	273.75
612.579	275.75
612.787	246.75
612.995	265.75
613.203	256.75
613.411	250.75
613.618	250.75
613.826	252.75
614.034	258.75
614.242	250.75
614.449	260.75
614.657	273.75
614.865	256.75
615.072	253.75
615.28	263.75
615.488	246.75
615.695	248.75
615.903	256.75
616.111	260.75
616.318	265.75
616.526	252.75
616.733	263.75
616.941	260.75
617.148	245.75
617.356	257.75
617.563	241.75
617.771	258.75
617.978	245.75
618.185	242.75
618.393	249.75
618.6	257.75
618.807	254.75
619.015	233.75
619.222	240.75
619.429	237.75
619.637	255.75
619.844	271.75
620.051	261.75
620.258	258.75
620.466	244.75
620.673	246.75
620.88	237.75
621.087	241.75
621.294	237.75
621.501	222.75
621.708	241.75
621.915	233.75
622.122	232.75
622.329	248.75
622.536	256.75
622.743	242.75
622.95	233.75
623.157	230.75
623.364	237.75
623.571	235.75
623.778	259.75
623.985	245.75
624.192	236.75
624.399	233.75
624.606	258.75
624.812	248.75
625.019	232.75
625.226	239.75
625.433	226.75
625.639	227.75
625.846	236.75
626.053	223.75
626.259	208.75
626.466	239.75
626.673	234.75
626.879	226.75
627.086	230.75
627.293	221.75
627.499	219.75
627.706	208.75
627.912	235.75
628.119	216.75
628.325	219.75
628.532	236.75
628.738	218.75
628.945	208.75
629.151	209.75
629.357	214.75
629.564	212.75
629.77	210.75
629.976	208.75
630.183	209.75
630.389	220.75
630.595	212.75
630.802	192.75
631.008	205.75
631.214	199.75
631.42	212.75
631.627	204.75
631.833	209.75
632.039	204.75
632.245	186.75
632.451	227.75
632.657	218.75
632.863	219.75
633.069	207.75
633.275	210.75
633.481	198.75
633.688	195.75
633.893	204.75
634.099	201.75
634.305	200.75
634.511	185.75
634.717	209.75
634.923	199.75
635.129	200.75
635.335	183.75
635.541	199.75
635.747	204.75
635.952	189.75
636.158	185.75
636.364	202.75
636.57	210.75
636.775	205.75
636.981	197.75
637.187	196.75
637.392	197.75
637.598	207.75
637.804	185.75
638.009	205.75
638.215	202.75
638.421	197.75
638.626	199.75
638.832	196.75
639.037	195.75
639.243	188.75
639.448	187.75
639.654	192.75
639.859	196.75
640.065	175.75
640.27	184.75
640.475	208.75
640.681	201.75
640.886	172.75
641.091	192.75
641.297	190.75
641.502	178.75
641.707	185.75
641.913	193.75
642.118	184.75
642.323	180.75
642.528	192.75
642.733	183.75
642.939	181.75
643.144	180.75
643.349	174.75
643.554	177.75
643.759	183.75
643.964	204.75
644.169	186.75
644.374	182.75
644.579	173.75
644.784	175.75
644.989	179.75
645.194	183.75
645.399	193.75
645.604	184.75
645.809	189.75
646.014	183.75
646.219	198.75
646.423	187.75
646.628	182.75
646.833	190.75
647.038	191.75
647.243	186.75
647.447	178.75
647.652	184.75
647.857	191.75
648.062	180.75
648.266	166.75
648.471	180.75
648.676	192.75
648.88	205.75
649.085	186.75
649.289	204.75
649.494	201.75
649.698	197.75
649.903	204.75
650.107	179.75
650.312	178.75
650.516	157.75
650.721	178.75
650.925	170.75
651.13	157.75
651.334	152.75
651.539	159.75
651.743	166.75
651.947	150.75
652.152	162.75
652.356	163.75
652.56	141.75
652.764	157.75
652.969	150.75
653.173	147.75
653.377	161.75
653.581	162.75
653.785	146.75
653.99	156.75
654.194	130.75
654.398	144.75
654.602	141.75
654.806	154.75
655.01	158.75
655.214	150.75
655.418	141.75
655.622	147.75
655.826	146.75
656.03	147.75
656.234	154.75
656.438	152.75
656.642	139.75
656.846	156.75
657.049	149.75
657.253	142.75
657.457	125.75
657.661	136.75
657.865	118.75
658.068	110.75
658.272	118.75
658.476	129.75
658.68	120.75
658.883	119.75
659.087	113.75
659.291	122.75
659.494	109.75
659.698	97.75
659.901	111.75
660.105	102.75
660.309	97.75
660.512	96.75
660.716	86.75
660.919	102.75
661.123	109.75
661.326	96.75
661.53	87.75
661.733	94.75
661.936	84.75
662.14	101.75
662.343	87.75
662.546	89.75
662.75	96.75
662.953	85.75
663.156	76.75
663.36	87.75
663.563	94.75
663.766	78.75
663.969	84.75
664.173	96.75
664.376	94.75
664.579	75.75
664.782	84.75
664.985	91.75
665.188	104.75
665.391	102.75
665.594	92.75
665.797	65.75
666	90.75
666.203	92.75
666.406	100.75
666.609	78.75
666.812	92.75
667.015	88.75
667.218	88.75
667.421	82.75
667.624	85.75
667.827	93.75
668.03	78.75
668.232	89.75
668.435	93.75
668.638	83.75
668.841	85.75
669.043	89.75
669.246	97.75
669.449	95.75
669.651	90.75
669.854	90.75
670.057	75.75
670.259	89.75
670.462	88.75
670.665	80.75
670.867	92.75
671.07	90.75
671.272	101.75
671.475	92.75
671.677	89.75
671.88	80.75
672.082	76.75
672.284	88.75
672.487	77.75
672.689	80.75
672.892	82.75
