Data from 1975.PennyLincolnUp.Lamp.En5.5.200Scan.071719.P1.Changed Mount._HRD10591_15-57-44-859.txt Node
Date: Thu Jul 18 15:57:44 EDT 2019
User: cochatt
Spectrometer: HR+D1059
Trigger mode: 1
Integration Time (sec): 1.000000E-1
Scans to average: 1
Electric dark correction enabled: true
Nonlinearity correction enabled: false
Boxcar width: 0
XAxis mode: Wavelengths
Number of Pixels in Spectrum: 2048
>>>>>Begin Spectral Data<<<<<
223.165	-19.75
223.4	-19.75
223.635	-19.75
223.869	-14.75
224.104	-2.75
224.338	-14.75
224.573	-7.75
224.808	-16.75
225.042	-23.75
225.277	1.25
225.511	1.25
225.746	-0.75
225.98	6.25
226.215	11.25
226.449	13.25
226.683	16.25
226.918	17.25
227.152	34.25
227.387	35.25
227.621	28.25
227.856	37.25
228.09	38.25
228.324	40.25
228.559	54.25
228.793	66.25
229.027	107.25
229.262	104.25
229.496	104.25
229.73	123.25
229.964	156.25
230.199	133.25
230.433	113.25
230.667	120.25
230.901	117.25
231.136	104.25
231.37	118.25
231.604	118.25
231.838	102.25
232.072	119.25
232.306	115.25
232.541	114.25
232.775	101.25
233.009	121.25
233.243	124.25
233.477	107.25
233.711	111.25
233.945	114.25
234.179	108.25
234.413	123.25
234.647	122.25
234.881	122.25
235.115	121.25
235.349	121.25
235.583	128.25
235.817	123.25
236.051	118.25
236.285	132.25
236.519	118.25
236.753	128.25
236.987	127.25
237.221	174.25
237.455	210.25
237.689	177.25
237.922	131.25
238.156	137.25
238.39	135.25
238.624	127.25
238.858	125.25
239.091	133.25
239.325	129.25
239.559	127.25
239.793	134.25
240.027	143.25
240.26	126.25
240.494	150.25
240.728	147.25
240.961	142.25
241.195	159.25
241.429	151.25
241.662	137.25
241.896	137.25
242.13	127.25
242.363	151.25
242.597	139.25
242.83	151.25
243.064	151.25
243.298	142.25
243.531	136.25
243.765	146.25
243.998	149.25
244.232	158.25
244.465	146.25
244.699	149.25
244.932	148.25
245.166	140.25
245.399	159.25
245.633	141.25
245.866	144.25
246.099	140.25
246.333	142.25
246.566	164.25
246.8	163.25
247.033	173.25
247.266	177.25
247.5	161.25
247.733	171.25
247.966	182.25
248.2	187.25
248.433	178.25
248.666	172.25
248.899	176.25
249.133	195.25
249.366	211.25
249.599	211.25
249.832	177.25
250.066	184.25
250.299	175.25
250.532	195.25
250.765	203.25
250.998	222.25
251.231	222.25
251.465	215.25
251.698	212.25
251.931	195.25
252.164	202.25
252.397	189.25
252.63	202.25
252.863	214.25
253.096	223.25
253.329	235.25
253.562	221.25
253.795	219.25
254.028	230.25
254.261	222.25
254.494	237.25
254.727	261.25
254.96	292.25
255.193	267.25
255.426	254.25
255.659	229.25
255.892	249.25
256.124	227.25
256.357	236.25
256.59	237.25
256.823	229.25
257.056	206.25
257.289	215.25
257.521	211.25
257.754	215.25
257.987	225.25
258.22	216.25
258.452	193.25
258.685	213.25
258.918	204.25
259.151	227.25
259.383	207.25
259.616	232.25
259.849	222.25
260.081	241.25
260.314	247.25
260.547	270.25
260.779	250.25
261.012	239.25
261.244	234.25
261.477	228.25
261.71	232.25
261.942	223.25
262.175	220.25
262.407	239.25
262.64	227.25
262.872	209.25
263.105	212.25
263.337	217.25
263.57	226.25
263.802	227.25
264.035	227.25
264.267	225.25
264.499	218.25
264.732	211.25
264.964	225.25
265.197	221.25
265.429	217.25
265.661	229.25
265.894	201.25
266.126	220.25
266.358	232.25
266.591	220.25
266.823	244.25
267.055	228.25
267.287	238.25
267.52	227.25
267.752	241.25
267.984	235.25
268.216	239.25
268.448	233.25
268.681	238.25
268.913	222.25
269.145	263.25
269.377	302.25
269.609	294.25
269.841	283.25
270.073	278.25
270.306	297.25
270.538	312.25
270.77	330.25
271.002	296.25
271.234	298.25
271.466	290.25
271.698	295.25
271.93	318.25
272.162	315.25
272.394	319.25
272.626	325.25
272.858	291.25
273.09	287.25
273.322	298.25
273.553	275.25
273.785	275.25
274.017	261.25
274.249	275.25
274.481	249.25
274.713	278.25
274.945	269.25
275.176	280.25
275.408	267.25
275.64	281.25
275.872	297.25
276.104	270.25
276.335	272.25
276.567	279.25
276.799	293.25
277.031	293.25
277.262	317.25
277.494	325.25
277.726	310.25
277.957	300.25
278.189	283.25
278.421	276.25
278.652	283.25
278.884	298.25
279.115	284.25
279.347	276.25
279.579	283.25
279.81	273.25
280.042	291.25
280.273	289.25
280.505	289.25
280.736	275.25
280.968	289.25
281.199	306.25
281.431	275.25
281.662	283.25
281.894	278.25
282.125	305.25
282.356	291.25
282.588	308.25
282.819	314.25
283.051	281.25
283.282	282.25
283.513	282.25
283.745	302.25
283.976	290.25
284.207	309.25
284.439	295.25
284.67	296.25
284.901	294.25
285.132	296.25
285.364	289.25
285.595	302.25
285.826	315.25
286.057	283.25
286.288	309.25
286.52	295.25
286.751	307.25
286.982	295.25
287.213	307.25
287.444	308.25
287.675	332.25
287.906	321.25
288.138	316.25
288.369	319.25
288.6	317.25
288.831	302.25
289.062	326.25
289.293	333.25
289.524	301.25
289.755	296.25
289.986	308.25
290.217	307.25
290.448	329.25
290.679	298.25
290.91	301.25
291.141	302.25
291.371	321.25
291.602	323.25
291.833	307.25
292.064	317.25
292.295	294.25
292.526	301.25
292.757	301.25
292.987	305.25
293.218	305.25
293.449	306.25
293.68	315.25
293.91	310.25
294.141	321.25
294.372	310.25
294.603	307.25
294.833	318.25
295.064	322.25
295.295	322.25
295.525	294.25
295.756	315.25
295.987	321.25
296.217	330.25
296.448	335.25
296.679	338.25
296.909	319.25
297.14	324.25
297.37	328.25
297.601	328.25
297.831	312.25
298.062	317.25
298.292	326.25
298.523	318.25
298.753	323.25
298.984	343.25
299.214	327.25
299.445	316.25
299.675	337.25
299.905	339.25
300.136	337.25
300.366	333.25
300.597	332.25
300.827	330.25
301.057	347.25
301.288	349.25
301.518	339.25
301.748	347.25
301.979	331.25
302.209	363.25
302.439	354.25
302.669	347.25
302.9	343.25
303.13	331.25
303.36	350.25
303.59	366.25
303.82	364.25
304.051	353.25
304.281	356.25
304.511	344.25
304.741	343.25
304.971	352.25
305.201	345.25
305.431	326.25
305.661	339.25
305.891	341.25
306.121	332.25
306.352	361.25
306.582	362.25
306.812	351.25
307.042	348.25
307.272	352.25
307.502	343.25
307.731	345.25
307.961	346.25
308.191	336.25
308.421	374.25
308.651	345.25
308.881	344.25
309.111	363.25
309.341	349.25
309.571	363.25
309.8	361.25
310.03	352.25
310.26	397.25
310.49	374.25
310.72	381.25
310.949	399.25
311.179	403.25
311.409	382.25
311.639	381.25
311.868	383.25
312.098	376.25
312.328	384.25
312.557	415.25
312.787	387.25
313.017	432.25
313.246	404.25
313.476	385.25
313.706	401.25
313.935	389.25
314.165	402.25
314.394	417.25
314.624	405.25
314.853	395.25
315.083	391.25
315.312	380.25
315.542	387.25
315.771	386.25
316.001	385.25
316.23	372.25
316.46	389.25
316.689	413.25
316.919	391.25
317.148	409.25
317.377	384.25
317.607	405.25
317.836	393.25
318.065	394.25
318.295	378.25
318.524	391.25
318.753	370.25
318.983	380.25
319.212	389.25
319.441	395.25
319.67	411.25
319.9	407.25
320.129	398.25
320.358	387.25
320.587	403.25
320.816	401.25
321.046	430.25
321.275	403.25
321.504	409.25
321.733	411.25
321.962	402.25
322.191	398.25
322.42	430.25
322.649	449.25
322.878	472.25
323.108	454.25
323.337	490.25
323.566	462.25
323.795	473.25
324.024	533.25
324.253	628.25
324.482	843.25
324.71	1283.25
324.939	1882.25
325.168	1693.25
325.397	861.25
325.626	600.25
325.855	531.25
326.084	484.25
326.313	483.25
326.542	470.25
326.77	517.25
326.999	593.25
327.228	798.25
327.457	1168.25
327.686	1461.25
327.914	967.25
328.143	649.25
328.372	580.25
328.6	556.25
328.829	536.25
329.058	527.25
329.287	513.25
329.515	551.25
329.744	486.25
329.972	498.25
330.201	518.25
330.43	546.25
330.658	564.25
330.887	595.25
331.115	573.25
331.344	535.25
331.572	466.25
331.801	504.25
332.03	498.25
332.258	490.25
332.486	491.25
332.715	484.25
332.943	472.25
333.172	476.25
333.4	470.25
333.629	492.25
333.857	492.25
334.085	512.25
334.314	524.25
334.542	535.25
334.771	595.25
334.999	531.25
335.227	508.25
335.455	478.25
335.684	485.25
335.912	459.25
336.14	477.25
336.369	477.25
336.597	497.25
336.825	463.25
337.053	495.25
337.281	453.25
337.51	454.25
337.738	459.25
337.966	467.25
338.194	465.25
338.422	448.25
338.65	465.25
338.878	443.25
339.106	452.25
339.334	466.25
339.562	460.25
339.79	439.25
340.018	442.25
340.246	440.25
340.474	427.25
340.702	443.25
340.93	443.25
341.158	444.25
341.386	436.25
341.614	461.25
341.842	455.25
342.07	443.25
342.298	433.25
342.526	444.25
342.754	440.25
342.981	435.25
343.209	449.25
343.437	473.25
343.665	454.25
343.893	466.25
344.12	471.25
344.348	451.25
344.576	471.25
344.804	449.25
345.031	459.25
345.259	469.25
345.487	498.25
345.714	463.25
345.942	452.25
346.17	443.25
346.397	435.25
346.625	438.25
346.853	429.25
347.08	431.25
347.308	449.25
347.535	436.25
347.763	447.25
347.99	437.25
348.218	438.25
348.445	442.25
348.673	449.25
348.9	423.25
349.128	404.25
349.355	433.25
349.583	414.25
349.81	423.25
350.037	421.25
350.265	405.25
350.492	421.25
350.72	424.25
350.947	423.25
351.174	416.25
351.402	451.25
351.629	442.25
351.856	430.25
352.083	446.25
352.311	462.25
352.538	435.25
352.765	447.25
352.992	464.25
353.22	433.25
353.447	429.25
353.674	423.25
353.901	426.25
354.128	415.25
354.355	418.25
354.583	411.25
354.81	400.25
355.037	397.25
355.264	405.25
355.491	385.25
355.718	423.25
355.945	402.25
356.172	421.25
356.399	409.25
356.626	412.25
356.853	411.25
357.08	394.25
357.307	425.25
357.534	422.25
357.761	419.25
357.988	406.25
358.215	397.25
358.441	413.25
358.668	436.25
358.895	412.25
359.122	427.25
359.349	423.25
359.576	429.25
359.802	466.25
360.029	481.25
360.256	458.25
360.483	463.25
360.709	447.25
360.936	454.25
361.163	441.25
361.39	435.25
361.616	451.25
361.843	428.25
362.07	418.25
362.296	440.25
362.523	449.25
362.749	449.25
362.976	439.25
363.203	419.25
363.429	413.25
363.656	424.25
363.882	429.25
364.109	405.25
364.335	414.25
364.562	414.25
364.788	400.25
365.015	429.25
365.241	421.25
365.468	418.25
365.694	420.25
365.92	421.25
366.147	425.25
366.373	417.25
366.599	404.25
366.826	434.25
367.052	419.25
367.278	421.25
367.505	417.25
367.731	426.25
367.957	409.25
368.184	411.25
368.41	425.25
368.636	411.25
368.862	452.25
369.089	424.25
369.315	419.25
369.541	427.25
369.767	426.25
369.993	425.25
370.219	420.25
370.445	413.25
370.672	428.25
370.898	402.25
371.124	405.25
371.35	418.25
371.576	410.25
371.802	428.25
372.028	418.25
372.254	421.25
372.48	437.25
372.706	456.25
372.932	457.25
373.158	446.25
373.384	448.25
373.61	425.25
373.835	427.25
374.061	427.25
374.287	437.25
374.513	437.25
374.739	453.25
374.965	447.25
375.191	438.25
375.416	453.25
375.642	439.25
375.868	425.25
376.094	417.25
376.319	438.25
376.545	431.25
376.771	429.25
376.997	427.25
377.222	417.25
377.448	421.25
377.674	422.25
377.899	417.25
378.125	418.25
378.35	446.25
378.576	428.25
378.802	428.25
379.027	418.25
379.253	430.25
379.478	427.25
379.704	421.25
379.929	430.25
380.155	443.25
380.38	443.25
380.606	426.25
380.831	444.25
381.057	441.25
381.282	443.25
381.507	443.25
381.733	452.25
381.958	442.25
382.184	449.25
382.409	463.25
382.634	423.25
382.86	442.25
383.085	450.25
383.31	441.25
383.535	470.25
383.761	445.25
383.986	472.25
384.211	482.25
384.436	490.25
384.662	466.25
384.887	459.25
385.112	466.25
385.337	480.25
385.562	487.25
385.787	484.25
386.013	487.25
386.238	487.25
386.463	481.25
386.688	500.25
386.913	461.25
387.138	490.25
387.363	487.25
387.588	489.25
387.813	484.25
388.038	498.25
388.263	485.25
388.488	467.25
388.713	492.25
388.938	488.25
389.163	487.25
389.387	490.25
389.612	483.25
389.837	465.25
390.062	465.25
390.287	494.25
390.512	480.25
390.736	489.25
390.961	498.25
391.186	494.25
391.411	503.25
391.636	482.25
391.86	478.25
392.085	506.25
392.31	491.25
392.534	492.25
392.759	514.25
392.984	477.25
393.208	491.25
393.433	503.25
393.658	484.25
393.882	487.25
394.107	474.25
394.331	495.25
394.556	500.25
394.78	515.25
395.005	509.25
395.229	505.25
395.454	503.25
395.678	523.25
395.903	522.25
396.127	535.25
396.352	564.25
396.576	499.25
396.801	519.25
397.025	495.25
397.249	506.25
397.474	509.25
397.698	499.25
397.922	511.25
398.147	541.25
398.371	572.25
398.595	550.25
398.82	557.25
399.044	562.25
399.268	597.25
399.492	626.25
399.717	683.25
399.941	722.25
400.165	720.25
400.389	723.25
400.613	636.25
400.837	599.25
401.062	591.25
401.286	589.25
401.51	558.25
401.734	553.25
401.958	554.25
402.182	579.25
402.406	562.25
402.63	585.25
402.854	595.25
403.078	578.25
403.302	578.25
403.526	588.25
403.75	617.25
403.974	595.25
404.198	590.25
404.422	586.25
404.645	612.25
404.869	623.25
405.093	646.25
405.317	689.25
405.541	701.25
405.765	660.25
405.988	630.25
406.212	607.25
406.436	618.25
406.66	642.25
406.883	652.25
407.107	652.25
407.331	721.25
407.555	783.25
407.778	743.25
408.002	718.25
408.226	651.25
408.449	650.25
408.673	636.25
408.896	669.25
409.12	691.25
409.344	666.25
409.567	614.25
409.791	629.25
410.014	625.25
410.238	586.25
410.461	601.25
410.685	617.25
410.908	606.25
411.132	652.25
411.355	665.25
411.578	631.25
411.802	620.25
412.025	596.25
412.249	598.25
412.472	632.25
412.695	667.25
412.919	666.25
413.142	607.25
413.365	588.25
413.589	570.25
413.812	585.25
414.035	563.25
414.258	557.25
414.482	566.25
414.705	551.25
414.928	566.25
415.151	598.25
415.374	520.25
415.597	551.25
415.821	546.25
416.044	547.25
416.267	560.25
416.49	557.25
416.713	546.25
416.936	562.25
417.159	545.25
417.382	559.25
417.605	557.25
417.828	571.25
418.051	603.25
418.274	554.25
418.497	561.25
418.72	548.25
418.943	564.25
419.166	571.25
419.389	639.25
419.611	619.25
419.834	598.25
420.057	617.25
420.28	603.25
420.503	565.25
420.726	565.25
420.948	589.25
421.171	633.25
421.394	671.25
421.617	599.25
421.839	582.25
422.062	579.25
422.285	595.25
422.507	628.25
422.73	723.25
422.953	690.25
423.175	636.25
423.398	610.25
423.621	620.25
423.843	649.25
424.066	631.25
424.288	627.25
424.511	636.25
424.733	689.25
424.956	740.25
425.178	729.25
425.401	744.25
425.623	773.25
425.846	666.25
426.068	619.25
426.291	607.25
426.513	587.25
426.735	614.25
426.958	641.25
427.18	731.25
427.402	883.25
427.625	948.25
427.847	813.25
428.069	716.25
428.292	654.25
428.514	603.25
428.736	579.25
428.958	586.25
429.181	561.25
429.403	549.25
429.625	571.25
429.847	591.25
430.069	669.25
430.292	672.25
430.514	587.25
430.736	556.25
430.958	561.25
431.18	539.25
431.402	526.25
431.624	527.25
431.846	527.25
432.068	523.25
432.29	539.25
432.512	532.25
432.734	524.25
432.956	544.25
433.178	567.25
433.4	568.25
433.622	567.25
433.844	574.25
434.066	537.25
434.287	556.25
434.509	540.25
434.731	565.25
434.953	581.25
435.175	570.25
435.397	626.25
435.618	619.25
435.84	667.25
436.062	771.25
436.284	855.25
436.505	691.25
436.727	620.25
436.949	587.25
437.17	578.25
437.392	552.25
437.614	565.25
437.835	605.25
438.057	677.25
438.278	820.25
438.5	800.25
438.721	899.25
438.943	868.25
439.165	675.25
439.386	607.25
439.608	592.25
439.829	606.25
440.05	629.25
440.272	689.25
440.493	656.25
440.715	592.25
440.936	572.25
441.158	581.25
441.379	587.25
441.6	588.25
441.822	615.25
442.043	667.25
442.264	730.25
442.486	779.25
442.707	654.25
442.928	630.25
443.149	625.25
443.371	652.25
443.592	694.25
443.813	790.25
444.034	840.25
444.255	741.25
444.476	645.25
444.698	628.25
444.919	634.25
445.14	763.25
445.361	692.25
445.582	670.25
445.803	731.25
446.024	824.25
446.245	831.25
446.466	743.25
446.687	651.25
446.908	598.25
447.129	577.25
447.35	579.25
447.571	550.25
447.792	528.25
448.013	563.25
448.234	588.25
448.455	622.25
448.675	745.25
448.896	882.25
449.117	710.25
449.338	675.25
449.559	819.25
449.779	914.25
450	727.25
450.221	606.25
450.442	553.25
450.662	551.25
450.883	554.25
451.104	551.25
451.324	539.25
451.545	525.25
451.766	525.25
451.986	516.25
452.207	498.25
452.428	502.25
452.648	512.25
452.869	501.25
453.089	509.25
453.31	516.25
453.53	518.25
453.751	498.25
453.971	525.25
454.192	485.25
454.412	509.25
454.633	502.25
454.853	497.25
455.073	478.25
455.294	529.25
455.514	580.25
455.734	580.25
455.955	496.25
456.175	478.25
456.395	467.25
456.616	470.25
456.836	485.25
457.056	480.25
457.276	464.25
457.497	490.25
457.717	469.25
457.937	483.25
458.157	462.25
458.377	515.25
458.598	524.25
458.818	550.25
459.038	612.25
459.258	673.25
459.478	577.25
459.698	525.25
459.918	535.25
460.138	558.25
460.358	567.25
460.578	549.25
460.798	584.25
461.018	573.25
461.238	555.25
461.458	573.25
461.678	573.25
461.898	551.25
462.118	552.25
462.338	579.25
462.558	582.25
462.777	605.25
462.997	625.25
463.217	617.25
463.437	652.25
463.657	638.25
463.876	603.25
464.096	620.25
464.316	607.25
464.536	606.25
464.755	602.25
464.975	591.25
465.195	619.25
465.414	645.25
465.634	601.25
465.854	567.25
466.073	557.25
466.293	530.25
466.512	530.25
466.732	530.25
466.951	508.25
467.171	519.25
467.391	512.25
467.61	533.25
467.829	536.25
468.049	524.25
468.268	516.25
468.488	517.25
468.707	516.25
468.927	525.25
469.146	483.25
469.365	493.25
469.585	523.25
469.804	506.25
470.023	541.25
470.243	520.25
470.462	540.25
470.681	535.25
470.901	514.25
471.12	537.25
471.339	557.25
471.558	536.25
471.777	554.25
471.997	529.25
472.216	523.25
472.435	560.25
472.654	528.25
472.873	535.25
473.092	514.25
473.311	495.25
473.53	519.25
473.749	527.25
473.968	583.25
474.187	662.25
474.406	689.25
474.625	568.25
474.844	521.25
475.063	519.25
475.282	517.25
475.501	549.25
475.72	527.25
475.939	529.25
476.158	512.25
476.377	524.25
476.596	555.25
476.814	555.25
477.033	537.25
477.252	556.25
477.471	566.25
477.69	560.25
477.908	579.25
478.127	567.25
478.346	594.25
478.564	574.25
478.783	602.25
479.002	594.25
479.22	606.25
479.439	612.25
479.658	635.25
479.876	613.25
480.095	628.25
480.313	670.25
480.532	660.25
480.751	662.25
480.969	662.25
481.188	693.25
481.406	725.25
481.624	647.25
481.843	646.25
482.061	637.25
482.28	598.25
482.498	608.25
482.717	591.25
482.935	605.25
483.153	616.25
483.372	600.25
483.59	598.25
483.808	621.25
484.027	610.25
484.245	606.25
484.463	612.25
484.681	605.25
484.9	631.25
485.118	634.25
485.336	623.25
485.554	633.25
485.772	639.25
485.99	612.25
486.209	635.25
486.427	635.25
486.645	655.25
486.863	654.25
487.081	683.25
487.299	649.25
487.517	644.25
487.735	645.25
487.953	654.25
488.171	670.25
488.389	660.25
488.607	661.25
488.825	644.25
489.043	670.25
489.261	665.25
489.479	679.25
489.696	653.25
489.914	676.25
490.132	691.25
490.35	681.25
490.568	723.25
490.786	681.25
491.003	706.25
491.221	713.25
491.439	724.25
491.657	725.25
491.874	731.25
492.092	754.25
492.31	773.25
492.527	743.25
492.745	770.25
492.963	773.25
493.18	757.25
493.398	780.25
493.615	779.25
493.833	775.25
494.05	786.25
494.268	803.25
494.485	776.25
494.703	766.25
494.92	790.25
495.138	774.25
495.355	751.25
495.573	764.25
495.79	765.25
496.008	787.25
496.225	791.25
496.442	790.25
496.66	829.25
496.877	765.25
497.094	805.25
497.312	790.25
497.529	814.25
497.746	835.25
497.963	845.25
498.181	841.25
498.398	863.25
498.615	883.25
498.832	920.25
499.049	938.25
499.267	952.25
499.484	1014.25
499.701	1049.25
499.918	1124.25
500.135	1173.25
500.352	1229.25
500.569	1268.25
500.786	1271.25
501.003	1227.25
501.22	1186.25
501.437	1121.25
501.654	1068.25
501.871	1030.25
502.088	979.25
502.305	963.25
502.522	919.25
502.739	895.25
502.956	861.25
503.172	814.25
503.389	809.25
503.606	824.25
503.823	811.25
504.04	820.25
504.256	811.25
504.473	792.25
504.69	763.25
504.907	792.25
505.123	775.25
505.34	773.25
505.557	744.25
505.773	721.25
505.99	700.25
506.207	719.25
506.423	732.25
506.64	747.25
506.856	719.25
507.073	704.25
507.289	714.25
507.506	693.25
507.722	715.25
507.939	730.25
508.155	693.25
508.372	661.25
508.588	693.25
508.805	677.25
509.021	683.25
509.238	701.25
509.454	703.25
509.67	700.25
509.887	680.25
510.103	678.25
510.319	687.25
510.536	758.25
510.752	1087.25
510.968	947.25
511.184	702.25
511.401	685.25
511.617	657.25
511.833	649.25
512.049	655.25
512.265	655.25
512.481	643.25
512.698	639.25
512.914	642.25
513.13	634.25
513.346	625.25
513.562	631.25
513.778	630.25
513.994	649.25
514.21	646.25
514.426	698.25
514.642	714.25
514.858	707.25
515.074	769.25
515.29	830.25
515.506	1127.25
515.721	966.25
515.937	741.25
516.153	698.25
516.369	689.25
516.585	684.25
516.801	695.25
517.016	708.25
517.232	670.25
517.448	707.25
517.664	720.25
517.879	661.25
518.095	685.25
518.311	712.25
518.527	677.25
518.742	669.25
518.958	678.25
519.173	654.25
519.389	653.25
519.605	663.25
519.82	651.25
520.036	651.25
520.251	656.25
520.467	673.25
520.682	672.25
520.898	674.25
521.113	687.25
521.329	746.25
521.544	765.25
521.76	917.25
521.975	1348.25
522.19	1372.25
522.406	836.25
522.621	678.25
522.836	641.25
523.052	599.25
523.267	592.25
523.482	589.25
523.698	603.25
523.913	589.25
524.128	612.25
524.343	572.25
524.559	563.25
524.774	551.25
524.989	548.25
525.204	590.25
525.419	570.25
525.634	550.25
525.849	581.25
526.064	539.25
526.28	565.25
526.495	548.25
526.71	536.25
526.925	527.25
527.14	541.25
527.355	529.25
527.57	540.25
527.785	541.25
527.999	541.25
528.214	543.25
528.429	527.25
528.644	525.25
528.859	546.25
529.074	511.25
529.289	539.25
529.503	605.25
529.718	574.25
529.933	551.25
530.148	558.25
530.363	527.25
530.577	537.25
530.792	533.25
531.007	520.25
531.221	515.25
531.436	534.25
531.651	531.25
531.865	513.25
532.08	523.25
532.295	517.25
532.509	503.25
532.724	490.25
532.938	507.25
533.153	500.25
533.367	498.25
533.582	525.25
533.796	521.25
534.011	524.25
534.225	511.25
534.44	506.25
534.654	508.25
534.868	507.25
535.083	530.25
535.297	513.25
535.511	505.25
535.726	513.25
535.94	526.25
536.154	501.25
536.369	523.25
536.583	503.25
536.797	463.25
537.011	474.25
537.225	498.25
537.44	491.25
537.654	494.25
537.868	493.25
538.082	486.25
538.296	490.25
538.51	509.25
538.724	490.25
538.938	484.25
539.153	498.25
539.367	513.25
539.581	506.25
539.795	483.25
540.009	500.25
540.222	497.25
540.436	487.25
540.65	494.25
540.864	512.25
541.078	490.25
541.292	521.25
541.506	502.25
541.72	475.25
541.934	485.25
542.147	498.25
542.361	486.25
542.575	489.25
542.789	490.25
543.002	500.25
543.216	508.25
543.43	503.25
543.644	506.25
543.857	477.25
544.071	500.25
544.285	513.25
544.498	511.25
544.712	496.25
544.925	486.25
545.139	501.25
545.352	476.25
545.566	494.25
545.779	507.25
545.993	506.25
546.206	490.25
546.42	475.25
546.633	473.25
546.847	489.25
547.06	502.25
547.274	498.25
547.487	471.25
547.7	469.25
547.914	462.25
548.127	499.25
548.34	497.25
548.554	474.25
548.767	501.25
548.98	495.25
549.193	483.25
549.407	499.25
549.62	486.25
549.833	477.25
550.046	476.25
550.259	477.25
550.473	489.25
550.686	466.25
550.899	481.25
551.112	461.25
551.325	455.25
551.538	454.25
551.751	467.25
551.964	483.25
552.177	474.25
552.39	483.25
552.603	474.25
552.816	495.25
553.029	497.25
553.242	479.25
553.455	484.25
553.667	500.25
553.88	507.25
554.093	509.25
554.306	494.25
554.519	479.25
554.732	479.25
554.944	477.25
555.157	466.25
555.37	445.25
555.583	443.25
555.795	465.25
556.008	451.25
556.221	430.25
556.433	434.25
556.646	440.25
556.859	446.25
557.071	438.25
557.284	450.25
557.496	442.25
557.709	420.25
557.921	433.25
558.134	418.25
558.346	431.25
558.559	421.25
558.771	437.25
558.984	418.25
559.196	410.25
559.409	441.25
559.621	421.25
559.833	435.25
560.046	439.25
560.258	421.25
560.47	409.25
560.683	409.25
560.895	401.25
561.107	426.25
561.32	421.25
561.532	418.25
561.744	428.25
561.956	420.25
562.168	418.25
562.381	446.25
562.593	400.25
562.805	433.25
563.017	407.25
563.229	430.25
563.441	410.25
563.653	429.25
563.865	455.25
564.077	428.25
564.289	421.25
564.501	437.25
564.713	463.25
564.925	471.25
565.137	471.25
565.349	460.25
565.561	485.25
565.773	471.25
565.985	486.25
566.197	494.25
566.408	521.25
566.62	539.25
566.832	558.25
567.044	571.25
567.255	566.25
567.467	571.25
567.679	579.25
567.891	611.25
568.102	604.25
568.314	587.25
568.526	537.25
568.737	529.25
568.949	505.25
569.161	483.25
569.372	471.25
569.584	440.25
569.795	446.25
570.007	444.25
570.218	473.25
570.43	458.25
570.641	435.25
570.853	421.25
571.064	433.25
571.276	430.25
571.487	403.25
571.698	417.25
571.91	402.25
572.121	394.25
572.333	402.25
572.544	411.25
572.755	390.25
572.966	392.25
573.178	383.25
573.389	363.25
573.6	392.25
573.811	369.25
574.023	372.25
574.234	356.25
574.445	370.25
574.656	371.25
574.867	364.25
575.078	375.25
575.289	382.25
575.501	375.25
575.712	363.25
575.923	361.25
576.134	363.25
576.345	348.25
576.556	358.25
576.767	355.25
576.978	375.25
577.188	355.25
577.399	349.25
577.61	356.25
577.821	346.25
578.032	340.25
578.243	389.25
578.454	519.25
578.665	430.25
578.875	343.25
579.086	321.25
579.297	328.25
579.508	336.25
579.718	342.25
579.929	343.25
580.14	353.25
580.35	345.25
580.561	343.25
580.772	344.25
580.982	324.25
581.193	343.25
581.403	336.25
581.614	337.25
581.825	330.25
582.035	334.25
582.246	330.25
582.456	334.25
582.667	344.25
582.877	323.25
583.087	322.25
583.298	329.25
583.508	329.25
583.719	333.25
583.929	319.25
584.139	329.25
584.35	328.25
584.56	319.25
584.77	325.25
584.981	331.25
585.191	345.25
585.401	321.25
585.611	323.25
585.821	333.25
586.032	336.25
586.242	323.25
586.452	342.25
586.662	322.25
586.872	331.25
587.082	323.25
587.292	305.25
587.502	301.25
587.713	311.25
587.923	333.25
588.133	326.25
588.343	313.25
588.553	313.25
588.762	309.25
588.972	331.25
589.182	314.25
589.392	326.25
589.602	329.25
589.812	328.25
590.022	326.25
590.232	325.25
590.441	328.25
590.651	317.25
590.861	314.25
591.071	319.25
591.281	318.25
591.49	325.25
591.7	344.25
591.91	315.25
592.119	332.25
592.329	326.25
592.539	353.25
592.748	363.25
592.958	335.25
593.167	339.25
593.377	352.25
593.587	359.25
593.796	363.25
594.006	359.25
594.215	362.25
594.424	373.25
594.634	343.25
594.843	347.25
595.053	335.25
595.262	352.25
595.472	337.25
595.681	313.25
595.89	306.25
596.1	333.25
596.309	309.25
596.518	328.25
596.727	324.25
596.937	300.25
597.146	303.25
597.355	298.25
597.564	297.25
597.774	306.25
597.983	305.25
598.192	290.25
598.401	284.25
598.61	279.25
598.819	281.25
599.028	281.25
599.237	308.25
599.446	293.25
599.655	281.25
599.864	284.25
600.073	293.25
600.282	285.25
600.491	275.25
600.7	282.25
600.909	289.25
601.118	289.25
601.327	260.25
601.536	271.25
601.745	290.25
601.953	301.25
602.162	270.25
602.371	281.25
602.58	280.25
602.789	276.25
602.997	281.25
603.206	279.25
603.415	254.25
603.623	267.25
603.832	263.25
604.041	247.25
604.249	263.25
604.458	260.25
604.666	269.25
604.875	277.25
605.084	255.25
605.292	278.25
605.501	263.25
605.709	261.25
605.918	253.25
606.126	285.25
606.334	256.25
606.543	280.25
606.751	274.25
606.96	246.25
607.168	278.25
607.376	280.25
607.585	265.25
607.793	268.25
608.001	278.25
608.21	267.25
608.418	269.25
608.626	279.25
608.834	278.25
609.043	242.25
609.251	275.25
609.459	258.25
609.667	286.25
609.875	269.25
610.083	258.25
610.291	274.25
610.499	272.25
610.707	259.25
610.916	261.25
611.124	250.25
611.332	252.25
611.54	275.25
611.748	270.25
611.955	268.25
612.163	258.25
612.371	267.25
612.579	246.25
612.787	268.25
612.995	266.25
613.203	270.25
613.411	250.25
613.618	250.25
613.826	243.25
614.034	249.25
614.242	237.25
614.449	261.25
614.657	260.25
614.865	247.25
615.072	263.25
615.28	258.25
615.488	244.25
615.695	254.25
615.903	261.25
616.111	265.25
616.318	251.25
616.526	258.25
616.733	262.25
616.941	246.25
617.148	263.25
617.356	246.25
617.563	244.25
617.771	251.25
617.978	237.25
618.185	249.25
618.393	253.25
618.6	247.25
618.807	261.25
619.015	249.25
619.222	251.25
619.429	259.25
619.637	243.25
619.844	212.25
620.051	243.25
620.258	252.25
620.466	239.25
620.673	258.25
620.88	221.25
621.087	234.25
621.294	248.25
621.501	250.25
621.708	237.25
621.915	239.25
622.122	233.25
622.329	233.25
622.536	244.25
622.743	249.25
622.95	254.25
623.157	244.25
623.364	234.25
623.571	233.25
623.778	221.25
623.985	235.25
624.192	229.25
624.399	241.25
624.606	244.25
624.812	234.25
625.019	216.25
625.226	236.25
625.433	228.25
625.639	225.25
625.846	218.25
626.053	213.25
626.259	238.25
626.466	229.25
626.673	233.25
626.879	220.25
627.086	211.25
627.293	233.25
627.499	227.25
627.706	238.25
627.912	213.25
628.119	218.25
628.325	222.25
628.532	207.25
628.738	219.25
628.945	221.25
629.151	206.25
629.357	198.25
629.564	224.25
629.77	202.25
629.976	220.25
630.183	211.25
630.389	213.25
630.595	231.25
630.802	211.25
631.008	212.25
631.214	211.25
631.42	211.25
631.627	204.25
631.833	193.25
632.039	197.25
632.245	200.25
632.451	196.25
632.657	206.25
632.863	202.25
633.069	199.25
633.275	198.25
633.481	192.25
633.688	198.25
633.893	196.25
634.099	201.25
634.305	193.25
634.511	208.25
634.717	202.25
634.923	193.25
635.129	198.25
635.335	191.25
635.541	194.25
635.747	206.25
635.952	204.25
636.158	207.25
636.364	187.25
636.57	213.25
636.775	207.25
636.981	198.25
637.187	208.25
637.392	201.25
637.598	217.25
637.804	210.25
638.009	181.25
638.215	180.25
638.421	207.25
638.626	186.25
638.832	197.25
639.037	178.25
639.243	182.25
639.448	182.25
639.654	184.25
639.859	183.25
640.065	185.25
640.27	183.25
640.475	192.25
640.681	187.25
640.886	190.25
641.091	194.25
641.297	189.25
641.502	180.25
641.707	185.25
641.913	169.25
642.118	178.25
642.323	187.25
642.528	182.25
642.733	171.25
642.939	192.25
643.144	181.25
643.349	178.25
643.554	183.25
643.759	170.25
643.964	166.25
644.169	175.25
644.374	161.25
644.579	171.25
644.784	167.25
644.989	175.25
645.194	171.25
645.399	172.25
645.604	172.25
645.809	173.25
646.014	170.25
646.219	173.25
646.423	167.25
646.628	175.25
646.833	164.25
647.038	185.25
647.243	174.25
647.447	169.25
647.652	186.25
647.857	173.25
648.062	179.25
648.266	190.25
648.471	194.25
648.676	194.25
648.88	176.25
649.085	170.25
649.289	174.25
649.494	185.25
649.698	183.25
649.903	206.25
650.107	187.25
650.312	182.25
650.516	175.25
650.721	167.25
650.925	170.25
651.13	170.25
651.334	156.25
651.539	159.25
651.743	157.25
651.947	158.25
652.152	156.25
652.356	142.25
652.56	147.25
652.764	161.25
652.969	148.25
653.173	139.25
653.377	145.25
653.581	142.25
653.785	133.25
653.99	163.25
654.194	127.25
654.398	149.25
654.602	137.25
654.806	149.25
655.01	146.25
655.214	161.25
655.418	135.25
655.622	144.25
655.826	138.25
656.03	145.25
656.234	162.25
656.438	163.25
656.642	157.25
656.846	137.25
657.049	131.25
657.253	126.25
657.457	131.25
657.661	130.25
657.865	129.25
658.068	116.25
658.272	110.25
658.476	126.25
658.68	127.25
658.883	114.25
659.087	113.25
659.291	93.25
659.494	118.25
659.698	104.25
659.901	100.25
660.105	88.25
660.309	107.25
660.512	103.25
660.716	103.25
660.919	92.25
661.123	112.25
661.326	89.25
661.53	83.25
661.733	95.25
661.936	92.25
662.14	97.25
662.343	89.25
662.546	96.25
662.75	89.25
662.953	95.25
663.156	85.25
663.36	87.25
663.563	82.25
663.766	82.25
663.969	94.25
664.173	73.25
664.376	91.25
664.579	83.25
664.782	89.25
664.985	85.25
665.188	85.25
665.391	99.25
665.594	79.25
665.797	85.25
666	83.25
666.203	84.25
666.406	97.25
666.609	90.25
666.812	90.25
667.015	104.25
667.218	76.25
667.421	73.25
667.624	93.25
667.827	89.25
668.03	86.25
668.232	84.25
668.435	75.25
668.638	79.25
668.841	91.25
669.043	74.25
669.246	70.25
669.449	86.25
669.651	84.25
669.854	89.25
670.057	86.25
670.259	84.25
670.462	76.25
670.665	79.25
670.867	91.25
671.07	82.25
671.272	80.25
671.475	84.25
671.677	83.25
671.88	79.25
672.082	89.25
672.284	82.25
672.487	89.25
672.689	82.25
672.892	87.25
