Data from 1975.PennyLincolnUp.Lamp.En5.5.200Scan.071719.P1.Changed Mount._HRD10591_15-57-35-859.txt Node
Date: Thu Jul 18 15:57:35 EDT 2019
User: cochatt
Spectrometer: HR+D1059
Trigger mode: 1
Integration Time (sec): 1.000000E-1
Scans to average: 1
Electric dark correction enabled: true
Nonlinearity correction enabled: false
Boxcar width: 0
XAxis mode: Wavelengths
Number of Pixels in Spectrum: 2048
>>>>>Begin Spectral Data<<<<<
223.165	-14.75
223.4	-14.75
223.635	-14.75
223.869	-16.75
224.104	-22.75
224.338	-7.75
224.573	-15.75
224.808	-16.75
225.042	-4.75
225.277	-13.75
225.511	8.25
225.746	1.25
225.98	2.25
226.215	12.25
226.449	18.25
226.683	12.25
226.918	27.25
227.152	31.25
227.387	30.25
227.621	34.25
227.856	44.25
228.09	30.25
228.324	44.25
228.559	51.25
228.793	65.25
229.027	93.25
229.262	102.25
229.496	116.25
229.73	118.25
229.964	150.25
230.199	127.25
230.433	110.25
230.667	118.25
230.901	111.25
231.136	103.25
231.37	111.25
231.604	104.25
231.838	102.25
232.072	117.25
232.306	122.25
232.541	110.25
232.775	120.25
233.009	110.25
233.243	103.25
233.477	124.25
233.711	113.25
233.945	121.25
234.179	114.25
234.413	119.25
234.647	123.25
234.881	114.25
235.115	113.25
235.349	119.25
235.583	123.25
235.817	119.25
236.051	122.25
236.285	122.25
236.519	105.25
236.753	127.25
236.987	129.25
237.221	168.25
237.455	220.25
237.689	174.25
237.922	130.25
238.156	140.25
238.39	121.25
238.624	133.25
238.858	114.25
239.091	132.25
239.325	121.25
239.559	138.25
239.793	147.25
240.027	143.25
240.26	130.25
240.494	154.25
240.728	143.25
240.961	155.25
241.195	156.25
241.429	139.25
241.662	130.25
241.896	132.25
242.13	135.25
242.363	128.25
242.597	134.25
242.83	136.25
243.064	138.25
243.298	133.25
243.531	142.25
243.765	154.25
243.998	136.25
244.232	127.25
244.465	141.25
244.699	150.25
244.932	140.25
245.166	138.25
245.399	164.25
245.633	146.25
245.866	153.25
246.099	138.25
246.333	142.25
246.566	152.25
246.8	149.25
247.033	157.25
247.266	163.25
247.5	168.25
247.733	175.25
247.966	188.25
248.2	177.25
248.433	179.25
248.666	182.25
248.899	167.25
249.133	198.25
249.366	209.25
249.599	205.25
249.832	204.25
250.066	198.25
250.299	200.25
250.532	196.25
250.765	214.25
250.998	220.25
251.231	228.25
251.465	195.25
251.698	201.25
251.931	191.25
252.164	216.25
252.397	209.25
252.63	214.25
252.863	190.25
253.096	228.25
253.329	225.25
253.562	229.25
253.795	223.25
254.028	212.25
254.261	210.25
254.494	232.25
254.727	245.25
254.96	270.25
255.193	275.25
255.426	245.25
255.659	240.25
255.892	243.25
256.124	239.25
256.357	228.25
256.59	212.25
256.823	227.25
257.056	204.25
257.289	217.25
257.521	215.25
257.754	214.25
257.987	213.25
258.22	206.25
258.452	207.25
258.685	227.25
258.918	217.25
259.151	213.25
259.383	224.25
259.616	233.25
259.849	217.25
260.081	243.25
260.314	240.25
260.547	272.25
260.779	243.25
261.012	244.25
261.244	234.25
261.477	207.25
261.71	203.25
261.942	229.25
262.175	240.25
262.407	224.25
262.64	226.25
262.872	228.25
263.105	213.25
263.337	214.25
263.57	226.25
263.802	227.25
264.035	217.25
264.267	223.25
264.499	199.25
264.732	220.25
264.964	198.25
265.197	210.25
265.429	238.25
265.661	221.25
265.894	226.25
266.126	207.25
266.358	241.25
266.591	216.25
266.823	229.25
267.055	219.25
267.287	220.25
267.52	227.25
267.752	220.25
267.984	229.25
268.216	246.25
268.448	249.25
268.681	258.25
268.913	251.25
269.145	274.25
269.377	286.25
269.609	292.25
269.841	285.25
270.073	282.25
270.306	310.25
270.538	314.25
270.77	318.25
271.002	316.25
271.234	293.25
271.466	308.25
271.698	329.25
271.93	320.25
272.162	324.25
272.394	326.25
272.626	311.25
272.858	308.25
273.09	276.25
273.322	279.25
273.553	281.25
273.785	281.25
274.017	270.25
274.249	273.25
274.481	298.25
274.713	280.25
274.945	257.25
275.176	287.25
275.408	262.25
275.64	276.25
275.872	289.25
276.104	259.25
276.335	288.25
276.567	301.25
276.799	294.25
277.031	308.25
277.262	323.25
277.494	337.25
277.726	308.25
277.957	302.25
278.189	297.25
278.421	299.25
278.652	271.25
278.884	294.25
279.115	278.25
279.347	273.25
279.579	286.25
279.81	268.25
280.042	272.25
280.273	275.25
280.505	288.25
280.736	288.25
280.968	267.25
281.199	292.25
281.431	288.25
281.662	295.25
281.894	280.25
282.125	307.25
282.356	300.25
282.588	314.25
282.819	315.25
283.051	292.25
283.282	275.25
283.513	289.25
283.745	299.25
283.976	307.25
284.207	322.25
284.439	286.25
284.67	306.25
284.901	299.25
285.132	293.25
285.364	274.25
285.595	294.25
285.826	286.25
286.057	296.25
286.288	295.25
286.52	293.25
286.751	303.25
286.982	296.25
287.213	314.25
287.444	301.25
287.675	316.25
287.906	323.25
288.138	312.25
288.369	323.25
288.6	327.25
288.831	319.25
289.062	315.25
289.293	315.25
289.524	315.25
289.755	303.25
289.986	332.25
290.217	329.25
290.448	306.25
290.679	315.25
290.91	302.25
291.141	315.25
291.371	322.25
291.602	321.25
291.833	312.25
292.064	312.25
292.295	312.25
292.526	319.25
292.757	327.25
292.987	299.25
293.218	315.25
293.449	304.25
293.68	324.25
293.91	331.25
294.141	319.25
294.372	308.25
294.603	304.25
294.833	304.25
295.064	311.25
295.295	297.25
295.525	303.25
295.756	316.25
295.987	324.25
296.217	320.25
296.448	336.25
296.679	312.25
296.909	315.25
297.14	327.25
297.37	316.25
297.601	336.25
297.831	322.25
298.062	332.25
298.292	342.25
298.523	326.25
298.753	322.25
298.984	334.25
299.214	313.25
299.445	325.25
299.675	333.25
299.905	346.25
300.136	335.25
300.366	319.25
300.597	321.25
300.827	325.25
301.057	336.25
301.288	336.25
301.518	335.25
301.748	332.25
301.979	336.25
302.209	362.25
302.439	352.25
302.669	338.25
302.9	353.25
303.13	347.25
303.36	338.25
303.59	354.25
303.82	347.25
304.051	359.25
304.281	345.25
304.511	361.25
304.741	344.25
304.971	350.25
305.201	344.25
305.431	356.25
305.661	346.25
305.891	351.25
306.121	352.25
306.352	358.25
306.582	355.25
306.812	340.25
307.042	350.25
307.272	345.25
307.502	352.25
307.731	347.25
307.961	322.25
308.191	344.25
308.421	351.25
308.651	353.25
308.881	359.25
309.111	335.25
309.341	355.25
309.571	361.25
309.8	355.25
310.03	360.25
310.26	381.25
310.49	375.25
310.72	394.25
310.949	396.25
311.179	398.25
311.409	392.25
311.639	366.25
311.868	372.25
312.098	364.25
312.328	404.25
312.557	410.25
312.787	414.25
313.017	420.25
313.246	395.25
313.476	394.25
313.706	392.25
313.935	382.25
314.165	407.25
314.394	412.25
314.624	415.25
314.853	410.25
315.083	382.25
315.312	386.25
315.542	410.25
315.771	375.25
316.001	386.25
316.23	398.25
316.46	384.25
316.689	383.25
316.919	385.25
317.148	408.25
317.377	394.25
317.607	411.25
317.836	402.25
318.065	376.25
318.295	391.25
318.524	394.25
318.753	387.25
318.983	391.25
319.212	382.25
319.441	402.25
319.67	406.25
319.9	378.25
320.129	385.25
320.358	391.25
320.587	406.25
320.816	418.25
321.046	412.25
321.275	409.25
321.504	399.25
321.733	406.25
321.962	414.25
322.191	418.25
322.42	421.25
322.649	447.25
322.878	443.25
323.108	436.25
323.337	450.25
323.566	461.25
323.795	495.25
324.024	554.25
324.253	622.25
324.482	857.25
324.71	1294.25
324.939	1980.25
325.168	1731.25
325.397	859.25
325.626	587.25
325.855	523.25
326.084	479.25
326.313	481.25
326.542	484.25
326.77	509.25
326.999	592.25
327.228	793.25
327.457	1208.25
327.686	1513.25
327.914	976.25
328.143	659.25
328.372	611.25
328.6	535.25
328.829	555.25
329.058	547.25
329.287	561.25
329.515	540.25
329.744	503.25
329.972	516.25
330.201	536.25
330.43	540.25
330.658	573.25
330.887	577.25
331.115	583.25
331.344	507.25
331.572	500.25
331.801	497.25
332.03	499.25
332.258	494.25
332.486	486.25
332.715	479.25
332.943	485.25
333.172	494.25
333.4	507.25
333.629	487.25
333.857	510.25
334.085	525.25
334.314	543.25
334.542	562.25
334.771	588.25
334.999	511.25
335.227	514.25
335.455	514.25
335.684	499.25
335.912	460.25
336.14	476.25
336.369	480.25
336.597	478.25
336.825	474.25
337.053	468.25
337.281	459.25
337.51	459.25
337.738	486.25
337.966	472.25
338.194	481.25
338.422	466.25
338.65	457.25
338.878	454.25
339.106	444.25
339.334	460.25
339.562	437.25
339.79	443.25
340.018	438.25
340.246	436.25
340.474	452.25
340.702	464.25
340.93	453.25
341.158	450.25
341.386	454.25
341.614	463.25
341.842	442.25
342.07	448.25
342.298	424.25
342.526	436.25
342.754	425.25
342.981	435.25
343.209	441.25
343.437	458.25
343.665	442.25
343.893	479.25
344.12	496.25
344.348	475.25
344.576	470.25
344.804	452.25
345.031	473.25
345.259	467.25
345.487	446.25
345.714	458.25
345.942	455.25
346.17	440.25
346.397	439.25
346.625	439.25
346.853	412.25
347.08	417.25
347.308	432.25
347.535	423.25
347.763	443.25
347.99	443.25
348.218	454.25
348.445	456.25
348.673	457.25
348.9	423.25
349.128	443.25
349.355	396.25
349.583	423.25
349.81	422.25
350.037	438.25
350.265	414.25
350.492	418.25
350.72	441.25
350.947	425.25
351.174	422.25
351.402	438.25
351.629	444.25
351.856	436.25
352.083	431.25
352.311	457.25
352.538	439.25
352.765	436.25
352.992	436.25
353.22	426.25
353.447	440.25
353.674	417.25
353.901	407.25
354.128	411.25
354.355	415.25
354.583	393.25
354.81	417.25
355.037	408.25
355.264	428.25
355.491	405.25
355.718	419.25
355.945	426.25
356.172	438.25
356.399	397.25
356.626	411.25
356.853	411.25
357.08	414.25
357.307	411.25
357.534	414.25
357.761	389.25
357.988	401.25
358.215	414.25
358.441	403.25
358.668	408.25
358.895	418.25
359.122	424.25
359.349	409.25
359.576	450.25
359.802	441.25
360.029	468.25
360.256	463.25
360.483	431.25
360.709	425.25
360.936	437.25
361.163	430.25
361.39	417.25
361.616	448.25
361.843	429.25
362.07	417.25
362.296	452.25
362.523	417.25
362.749	423.25
362.976	433.25
363.203	422.25
363.429	425.25
363.656	417.25
363.882	424.25
364.109	411.25
364.335	423.25
364.562	435.25
364.788	425.25
365.015	414.25
365.241	409.25
365.468	432.25
365.694	433.25
365.92	430.25
366.147	409.25
366.373	414.25
366.599	438.25
366.826	424.25
367.052	397.25
367.278	436.25
367.505	423.25
367.731	438.25
367.957	433.25
368.184	432.25
368.41	423.25
368.636	419.25
368.862	448.25
369.089	432.25
369.315	424.25
369.541	434.25
369.767	418.25
369.993	412.25
370.219	438.25
370.445	411.25
370.672	410.25
370.898	447.25
371.124	416.25
371.35	424.25
371.576	426.25
371.802	420.25
372.028	447.25
372.254	422.25
372.48	423.25
372.706	427.25
372.932	447.25
373.158	430.25
373.384	414.25
373.61	434.25
373.835	449.25
374.061	419.25
374.287	426.25
374.513	444.25
374.739	452.25
374.965	453.25
375.191	443.25
375.416	455.25
375.642	428.25
375.868	418.25
376.094	453.25
376.319	447.25
376.545	450.25
376.771	428.25
376.997	423.25
377.222	434.25
377.448	432.25
377.674	414.25
377.899	435.25
378.125	427.25
378.35	410.25
378.576	418.25
378.802	428.25
379.027	448.25
379.253	427.25
379.478	427.25
379.704	435.25
379.929	443.25
380.155	421.25
380.38	423.25
380.606	418.25
380.831	448.25
381.057	453.25
381.282	435.25
381.507	440.25
381.733	430.25
381.958	430.25
382.184	447.25
382.409	460.25
382.634	444.25
382.86	432.25
383.085	434.25
383.31	455.25
383.535	458.25
383.761	451.25
383.986	464.25
384.211	457.25
384.436	468.25
384.662	434.25
384.887	443.25
385.112	464.25
385.337	483.25
385.562	472.25
385.787	495.25
386.013	474.25
386.238	490.25
386.463	497.25
386.688	478.25
386.913	481.25
387.138	492.25
387.363	467.25
387.588	486.25
387.813	467.25
388.038	475.25
388.263	480.25
388.488	481.25
388.713	465.25
388.938	476.25
389.163	469.25
389.387	481.25
389.612	487.25
389.837	474.25
390.062	490.25
390.287	479.25
390.512	458.25
390.736	471.25
390.961	499.25
391.186	490.25
391.411	482.25
391.636	495.25
391.86	512.25
392.085	512.25
392.31	516.25
392.534	509.25
392.759	494.25
392.984	487.25
393.208	486.25
393.433	498.25
393.658	473.25
393.882	463.25
394.107	479.25
394.331	483.25
394.556	502.25
394.78	484.25
395.005	500.25
395.229	514.25
395.454	502.25
395.678	512.25
395.903	508.25
396.127	534.25
396.352	524.25
396.576	511.25
396.801	509.25
397.025	498.25
397.249	521.25
397.474	556.25
397.698	520.25
397.922	527.25
398.147	544.25
398.371	544.25
398.595	539.25
398.82	562.25
399.044	599.25
399.268	588.25
399.492	634.25
399.717	697.25
399.941	703.25
400.165	722.25
400.389	719.25
400.613	664.25
400.837	616.25
401.062	597.25
401.286	581.25
401.51	546.25
401.734	566.25
401.958	574.25
402.182	569.25
402.406	591.25
402.63	587.25
402.854	593.25
403.078	591.25
403.302	583.25
403.526	595.25
403.75	625.25
403.974	587.25
404.198	594.25
404.422	596.25
404.645	596.25
404.869	607.25
405.093	639.25
405.317	671.25
405.541	717.25
405.765	664.25
405.988	638.25
406.212	640.25
406.436	648.25
406.66	640.25
406.883	625.25
407.107	656.25
407.331	680.25
407.555	790.25
407.778	793.25
408.002	733.25
408.226	666.25
408.449	653.25
408.673	646.25
408.896	670.25
409.12	722.25
409.344	686.25
409.567	627.25
409.791	610.25
410.014	587.25
410.238	576.25
410.461	578.25
410.685	586.25
410.908	615.25
411.132	645.25
411.355	679.25
411.578	629.25
411.802	601.25
412.025	574.25
412.249	593.25
412.472	632.25
412.695	683.25
412.919	664.25
413.142	617.25
413.365	596.25
413.589	590.25
413.812	589.25
414.035	549.25
414.258	548.25
414.482	571.25
414.705	588.25
414.928	550.25
415.151	558.25
415.374	568.25
415.597	558.25
415.821	554.25
416.044	558.25
416.267	563.25
416.49	555.25
416.713	560.25
416.936	562.25
417.159	555.25
417.382	562.25
417.605	568.25
417.828	587.25
418.051	589.25
418.274	568.25
418.497	563.25
418.72	572.25
418.943	553.25
419.166	592.25
419.389	605.25
419.611	610.25
419.834	604.25
420.057	598.25
420.28	591.25
420.503	596.25
420.726	598.25
420.948	616.25
421.171	644.25
421.394	663.25
421.617	615.25
421.839	580.25
422.062	604.25
422.285	591.25
422.507	632.25
422.73	739.25
422.953	728.25
423.175	615.25
423.398	613.25
423.621	606.25
423.843	627.25
424.066	640.25
424.288	630.25
424.511	638.25
424.733	693.25
424.956	775.25
425.178	736.25
425.401	702.25
425.623	784.25
425.846	673.25
426.068	603.25
426.291	618.25
426.513	593.25
426.735	612.25
426.958	656.25
427.18	707.25
427.402	872.25
427.625	975.25
427.847	830.25
428.069	736.25
428.292	668.25
428.514	616.25
428.736	565.25
428.958	575.25
429.181	580.25
429.403	535.25
429.625	566.25
429.847	585.25
430.069	671.25
430.292	664.25
430.514	602.25
430.736	586.25
430.958	582.25
431.18	553.25
431.402	543.25
431.624	554.25
431.846	516.25
432.068	517.25
432.29	555.25
432.512	538.25
432.734	539.25
432.956	570.25
433.178	550.25
433.4	591.25
433.622	548.25
433.844	522.25
434.066	542.25
434.287	558.25
434.509	543.25
434.731	578.25
434.953	593.25
435.175	575.25
435.397	616.25
435.618	626.25
435.84	638.25
436.062	736.25
436.284	834.25
436.505	683.25
436.727	607.25
436.949	597.25
437.17	547.25
437.392	564.25
437.614	586.25
437.835	601.25
438.057	686.25
438.278	822.25
438.5	792.25
438.721	897.25
438.943	846.25
439.165	662.25
439.386	620.25
439.608	611.25
439.829	616.25
440.05	643.25
440.272	696.25
440.493	658.25
440.715	599.25
440.936	591.25
441.158	575.25
441.379	581.25
441.6	599.25
441.822	638.25
442.043	635.25
442.264	744.25
442.486	794.25
442.707	692.25
442.928	651.25
443.149	627.25
443.371	652.25
443.592	705.25
443.813	810.25
444.034	882.25
444.255	736.25
444.476	652.25
444.698	630.25
444.919	627.25
445.14	775.25
445.361	702.25
445.582	665.25
445.803	720.25
446.024	825.25
446.245	836.25
446.466	772.25
446.687	663.25
446.908	620.25
447.129	586.25
447.35	563.25
447.571	565.25
447.792	548.25
448.013	556.25
448.234	579.25
448.455	630.25
448.675	742.25
448.896	861.25
449.117	743.25
449.338	682.25
449.559	802.25
449.779	913.25
450	711.25
450.221	598.25
450.442	566.25
450.662	538.25
450.883	546.25
451.104	581.25
451.324	547.25
451.545	494.25
451.766	520.25
451.986	498.25
452.207	495.25
452.428	497.25
452.648	518.25
452.869	473.25
453.089	492.25
453.31	528.25
453.53	504.25
453.751	508.25
453.971	487.25
454.192	522.25
454.412	497.25
454.633	498.25
454.853	486.25
455.073	484.25
455.294	517.25
455.514	572.25
455.734	612.25
455.955	504.25
456.175	502.25
456.395	489.25
456.616	456.25
456.836	474.25
457.056	459.25
457.276	478.25
457.497	470.25
457.717	495.25
457.937	462.25
458.157	475.25
458.377	501.25
458.598	513.25
458.818	560.25
459.038	620.25
459.258	663.25
459.478	582.25
459.698	558.25
459.918	539.25
460.138	545.25
460.358	564.25
460.578	555.25
460.798	560.25
461.018	558.25
461.238	546.25
461.458	537.25
461.678	558.25
461.898	570.25
462.118	568.25
462.338	571.25
462.558	584.25
462.777	608.25
462.997	616.25
463.217	632.25
463.437	653.25
463.657	635.25
463.876	611.25
464.096	613.25
464.316	586.25
464.536	600.25
464.755	614.25
464.975	602.25
465.195	608.25
465.414	661.25
465.634	592.25
465.854	592.25
466.073	553.25
466.293	531.25
466.512	507.25
466.732	505.25
466.951	518.25
467.171	510.25
467.391	527.25
467.61	540.25
467.829	518.25
468.049	545.25
468.268	528.25
468.488	496.25
468.707	499.25
468.927	517.25
469.146	512.25
469.365	502.25
469.585	517.25
469.804	512.25
470.023	528.25
470.243	537.25
470.462	532.25
470.681	520.25
470.901	536.25
471.12	541.25
471.339	536.25
471.558	547.25
471.777	537.25
471.997	490.25
472.216	532.25
472.435	571.25
472.654	537.25
472.873	523.25
473.092	501.25
473.311	503.25
473.53	521.25
473.749	543.25
473.968	565.25
474.187	667.25
474.406	698.25
474.625	565.25
474.844	540.25
475.063	521.25
475.282	528.25
475.501	530.25
475.72	524.25
475.939	555.25
476.158	554.25
476.377	539.25
476.596	523.25
476.814	540.25
477.033	547.25
477.252	538.25
477.471	576.25
477.69	551.25
477.908	573.25
478.127	586.25
478.346	588.25
478.564	607.25
478.783	595.25
479.002	582.25
479.22	600.25
479.439	616.25
479.658	602.25
479.876	640.25
480.095	646.25
480.313	671.25
480.532	660.25
480.751	674.25
480.969	671.25
481.188	718.25
481.406	734.25
481.624	683.25
481.843	626.25
482.061	634.25
482.28	628.25
482.498	599.25
482.717	615.25
482.935	614.25
483.153	625.25
483.372	613.25
483.59	612.25
483.808	612.25
484.027	580.25
484.245	620.25
484.463	613.25
484.681	622.25
484.9	629.25
485.118	637.25
485.336	611.25
485.554	632.25
485.772	644.25
485.99	638.25
486.209	643.25
486.427	651.25
486.645	650.25
486.863	640.25
487.081	660.25
487.299	628.25
487.517	656.25
487.735	654.25
487.953	650.25
488.171	645.25
488.389	649.25
488.607	656.25
488.825	641.25
489.043	663.25
489.261	681.25
489.479	665.25
489.696	682.25
489.914	678.25
490.132	671.25
490.35	712.25
490.568	681.25
490.786	710.25
491.003	713.25
491.221	744.25
491.439	741.25
491.657	744.25
491.874	769.25
492.092	759.25
492.31	786.25
492.527	770.25
492.745	766.25
492.963	758.25
493.18	772.25
493.398	775.25
493.615	805.25
493.833	762.25
494.05	802.25
494.268	776.25
494.485	770.25
494.703	782.25
494.92	776.25
495.138	788.25
495.355	798.25
495.573	760.25
495.79	774.25
496.008	797.25
496.225	780.25
496.442	814.25
496.66	794.25
496.877	791.25
497.094	803.25
497.312	809.25
497.529	820.25
497.746	823.25
497.963	832.25
498.181	855.25
498.398	870.25
498.615	907.25
498.832	928.25
499.049	942.25
499.267	973.25
499.484	1020.25
499.701	1042.25
499.918	1085.25
500.135	1127.25
500.352	1235.25
500.569	1269.25
500.786	1249.25
501.003	1251.25
501.22	1178.25
501.437	1128.25
501.654	1084.25
501.871	1074.25
502.088	978.25
502.305	950.25
502.522	901.25
502.739	891.25
502.956	885.25
503.172	866.25
503.389	831.25
503.606	846.25
503.823	822.25
504.04	809.25
504.256	800.25
504.473	777.25
504.69	811.25
504.907	816.25
505.123	755.25
505.34	758.25
505.557	727.25
505.773	751.25
505.99	726.25
506.207	743.25
506.423	743.25
506.64	731.25
506.856	745.25
507.073	744.25
507.289	735.25
507.506	699.25
507.722	688.25
507.939	717.25
508.155	721.25
508.372	702.25
508.588	686.25
508.805	673.25
509.021	682.25
509.238	674.25
509.454	715.25
509.67	694.25
509.887	677.25
510.103	686.25
510.319	689.25
510.536	752.25
510.752	1125.25
510.968	946.25
511.184	686.25
511.401	647.25
511.617	650.25
511.833	664.25
512.049	629.25
512.265	631.25
512.481	648.25
512.698	634.25
512.914	647.25
513.13	629.25
513.346	624.25
513.562	644.25
513.778	646.25
513.994	634.25
514.21	641.25
514.426	684.25
514.642	713.25
514.858	726.25
515.074	739.25
515.29	847.25
515.506	1121.25
515.721	983.25
515.937	755.25
516.153	709.25
516.369	683.25
516.585	674.25
516.801	656.25
517.016	656.25
517.232	681.25
517.448	690.25
517.664	714.25
517.879	680.25
518.095	692.25
518.311	700.25
518.527	659.25
518.742	679.25
518.958	681.25
519.173	678.25
519.389	649.25
519.605	638.25
519.82	650.25
520.036	668.25
520.251	669.25
520.467	683.25
520.682	682.25
520.898	668.25
521.113	673.25
521.329	754.25
521.544	782.25
521.76	908.25
521.975	1393.25
522.19	1383.25
522.406	857.25
522.621	686.25
522.836	646.25
523.052	634.25
523.267	591.25
523.482	580.25
523.698	586.25
523.913	577.25
524.128	597.25
524.343	567.25
524.559	567.25
524.774	538.25
524.989	560.25
525.204	538.25
525.419	562.25
525.634	572.25
525.849	551.25
526.064	551.25
526.28	553.25
526.495	555.25
526.71	542.25
526.925	525.25
527.14	536.25
527.355	562.25
527.57	555.25
527.785	532.25
527.999	506.25
528.214	536.25
528.429	520.25
528.644	560.25
528.859	548.25
529.074	536.25
529.289	562.25
529.503	622.25
529.718	602.25
529.933	568.25
530.148	566.25
530.363	528.25
530.577	521.25
530.792	502.25
531.007	521.25
531.221	538.25
531.436	541.25
531.651	529.25
531.865	516.25
532.08	531.25
532.295	538.25
532.509	516.25
532.724	523.25
532.938	506.25
533.153	521.25
533.367	516.25
533.582	516.25
533.796	528.25
534.011	523.25
534.225	524.25
534.44	527.25
534.654	514.25
534.868	512.25
535.083	519.25
535.297	518.25
535.511	521.25
535.726	534.25
535.94	537.25
536.154	535.25
536.369	523.25
536.583	488.25
536.797	499.25
537.011	477.25
537.225	506.25
537.44	484.25
537.654	477.25
537.868	493.25
538.082	496.25
538.296	491.25
538.51	487.25
538.724	477.25
538.938	479.25
539.153	517.25
539.367	502.25
539.581	486.25
539.795	508.25
540.009	487.25
540.222	484.25
540.436	492.25
540.65	505.25
540.864	498.25
541.078	487.25
541.292	483.25
541.506	493.25
541.72	494.25
541.934	494.25
542.147	487.25
542.361	494.25
542.575	479.25
542.789	502.25
543.002	496.25
543.216	506.25
543.43	482.25
543.644	491.25
543.857	461.25
544.071	502.25
544.285	498.25
544.498	511.25
544.712	495.25
544.925	502.25
545.139	495.25
545.352	487.25
545.566	475.25
545.779	477.25
545.993	478.25
546.206	511.25
546.42	496.25
546.633	484.25
546.847	490.25
547.06	495.25
547.274	500.25
547.487	479.25
547.7	485.25
547.914	468.25
548.127	472.25
548.34	501.25
548.554	465.25
548.767	480.25
548.98	483.25
549.193	474.25
549.407	462.25
549.62	494.25
549.833	478.25
550.046	481.25
550.259	464.25
550.473	475.25
550.686	480.25
550.899	461.25
551.112	488.25
551.325	471.25
551.538	474.25
551.751	470.25
551.964	449.25
552.177	471.25
552.39	474.25
552.603	490.25
552.816	483.25
553.029	490.25
553.242	484.25
553.455	483.25
553.667	491.25
553.88	531.25
554.093	512.25
554.306	504.25
554.519	488.25
554.732	499.25
554.944	491.25
555.157	486.25
555.37	456.25
555.583	461.25
555.795	495.25
556.008	449.25
556.221	472.25
556.433	475.25
556.646	456.25
556.859	430.25
557.071	450.25
557.284	436.25
557.496	447.25
557.709	452.25
557.921	416.25
558.134	427.25
558.346	436.25
558.559	436.25
558.771	450.25
558.984	429.25
559.196	421.25
559.409	409.25
559.621	414.25
559.833	416.25
560.046	421.25
560.258	423.25
560.47	415.25
560.683	415.25
560.895	406.25
561.107	424.25
561.32	427.25
561.532	424.25
561.744	440.25
561.956	429.25
562.168	433.25
562.381	439.25
562.593	422.25
562.805	428.25
563.017	407.25
563.229	418.25
563.441	408.25
563.653	446.25
563.865	444.25
564.077	444.25
564.289	423.25
564.501	417.25
564.713	439.25
564.925	463.25
565.137	468.25
565.349	455.25
565.561	492.25
565.773	496.25
565.985	501.25
566.197	516.25
566.408	528.25
566.62	532.25
566.832	563.25
567.044	553.25
567.255	562.25
567.467	555.25
567.679	594.25
567.891	603.25
568.102	585.25
568.314	576.25
568.526	554.25
568.737	519.25
568.949	515.25
569.161	481.25
569.372	483.25
569.584	452.25
569.795	432.25
570.007	446.25
570.218	458.25
570.43	463.25
570.641	417.25
570.853	426.25
571.064	430.25
571.276	421.25
571.487	422.25
571.698	398.25
571.91	406.25
572.121	415.25
572.333	388.25
572.544	397.25
572.755	403.25
572.966	396.25
573.178	371.25
573.389	351.25
573.6	360.25
573.811	377.25
574.023	371.25
574.234	346.25
574.445	378.25
574.656	362.25
574.867	363.25
575.078	370.25
575.289	355.25
575.501	356.25
575.712	362.25
575.923	343.25
576.134	356.25
576.345	359.25
576.556	371.25
576.767	357.25
576.978	362.25
577.188	362.25
577.399	346.25
577.61	357.25
577.821	357.25
578.032	337.25
578.243	382.25
578.454	538.25
578.665	427.25
578.875	357.25
579.086	348.25
579.297	351.25
579.508	353.25
579.718	331.25
579.929	350.25
580.14	345.25
580.35	346.25
580.561	337.25
580.772	325.25
580.982	318.25
581.193	336.25
581.403	339.25
581.614	318.25
581.825	328.25
582.035	313.25
582.246	331.25
582.456	319.25
582.667	320.25
582.877	308.25
583.087	314.25
583.298	335.25
583.508	327.25
583.719	320.25
583.929	324.25
584.139	323.25
584.35	313.25
584.56	326.25
584.77	320.25
584.981	328.25
585.191	327.25
585.401	319.25
585.611	321.25
585.821	309.25
586.032	316.25
586.242	327.25
586.452	317.25
586.662	312.25
586.872	332.25
587.082	324.25
587.292	318.25
587.502	308.25
587.713	324.25
587.923	307.25
588.133	319.25
588.343	315.25
588.553	306.25
588.762	312.25
588.972	313.25
589.182	319.25
589.392	318.25
589.602	304.25
589.812	319.25
590.022	292.25
590.232	295.25
590.441	320.25
590.651	325.25
590.861	329.25
591.071	327.25
591.281	324.25
591.49	326.25
591.7	344.25
591.91	335.25
592.119	337.25
592.329	347.25
592.539	351.25
592.748	353.25
592.958	373.25
593.167	353.25
593.377	368.25
593.587	368.25
593.796	359.25
594.006	352.25
594.215	351.25
594.424	347.25
594.634	343.25
594.843	358.25
595.053	346.25
595.262	323.25
595.472	339.25
595.681	320.25
595.89	314.25
596.1	324.25
596.309	327.25
596.518	311.25
596.727	310.25
596.937	302.25
597.146	295.25
597.355	306.25
597.564	299.25
597.774	290.25
597.983	302.25
598.192	286.25
598.401	293.25
598.61	295.25
598.819	304.25
599.028	284.25
599.237	299.25
599.446	290.25
599.655	264.25
599.864	270.25
600.073	295.25
600.282	298.25
600.491	278.25
600.7	276.25
600.909	272.25
601.118	295.25
601.327	296.25
601.536	267.25
601.745	274.25
601.953	288.25
602.162	294.25
602.371	285.25
602.58	272.25
602.789	285.25
602.997	268.25
603.206	267.25
603.415	264.25
603.623	273.25
603.832	277.25
604.041	269.25
604.249	275.25
604.458	267.25
604.666	256.25
604.875	259.25
605.084	280.25
605.292	280.25
605.501	245.25
605.709	254.25
605.918	270.25
606.126	267.25
606.334	278.25
606.543	272.25
606.751	256.25
606.96	260.25
607.168	255.25
607.376	267.25
607.585	260.25
607.793	281.25
608.001	252.25
608.21	252.25
608.418	244.25
608.626	256.25
608.834	256.25
609.043	243.25
609.251	271.25
609.459	278.25
609.667	261.25
609.875	254.25
610.083	259.25
610.291	257.25
610.499	240.25
610.707	260.25
610.916	257.25
611.124	240.25
611.332	272.25
611.54	278.25
611.748	257.25
611.955	264.25
612.163	246.25
612.371	261.25
612.579	238.25
612.787	247.25
612.995	252.25
613.203	254.25
613.411	246.25
613.618	248.25
613.826	246.25
614.034	263.25
614.242	261.25
614.449	264.25
614.657	256.25
614.865	264.25
615.072	270.25
615.28	261.25
615.488	261.25
615.695	260.25
615.903	227.25
616.111	246.25
616.318	241.25
616.526	268.25
616.733	238.25
616.941	277.25
617.148	255.25
617.356	268.25
617.563	248.25
617.771	246.25
617.978	246.25
618.185	263.25
618.393	251.25
618.6	248.25
618.807	270.25
619.015	274.25
619.222	252.25
619.429	246.25
619.637	253.25
619.844	255.25
620.051	258.25
620.258	229.25
620.466	224.25
620.673	228.25
620.88	230.25
621.087	228.25
621.294	258.25
621.501	234.25
621.708	241.25
621.915	259.25
622.122	247.25
622.329	227.25
622.536	234.25
622.743	240.25
622.95	240.25
623.157	261.25
623.364	225.25
623.571	234.25
623.778	236.25
623.985	247.25
624.192	248.25
624.399	239.25
624.606	228.25
624.812	230.25
625.019	217.25
625.226	234.25
625.433	228.25
625.639	225.25
625.846	218.25
626.053	211.25
626.259	226.25
626.466	229.25
626.673	216.25
626.879	202.25
627.086	206.25
627.293	216.25
627.499	225.25
627.706	233.25
627.912	227.25
628.119	221.25
628.325	217.25
628.532	218.25
628.738	221.25
628.945	209.25
629.151	212.25
629.357	202.25
629.564	213.25
629.77	227.25
629.976	205.25
630.183	216.25
630.389	216.25
630.595	209.25
630.802	213.25
631.008	196.25
631.214	195.25
631.42	219.25
631.627	220.25
631.833	208.25
632.039	209.25
632.245	195.25
632.451	205.25
632.657	197.25
632.863	199.25
633.069	191.25
633.275	208.25
633.481	201.25
633.688	214.25
633.893	204.25
634.099	189.25
634.305	200.25
634.511	187.25
634.717	202.25
634.923	196.25
635.129	191.25
635.335	184.25
635.541	203.25
635.747	190.25
635.952	206.25
636.158	202.25
636.364	210.25
636.57	201.25
636.775	195.25
636.981	196.25
637.187	194.25
637.392	171.25
637.598	166.25
637.804	195.25
638.009	193.25
638.215	180.25
638.421	194.25
638.626	203.25
638.832	203.25
639.037	187.25
639.243	186.25
639.448	191.25
639.654	192.25
639.859	192.25
640.065	183.25
640.27	191.25
640.475	175.25
640.681	188.25
640.886	184.25
641.091	188.25
641.297	194.25
641.502	185.25
641.707	167.25
641.913	186.25
642.118	178.25
642.323	191.25
642.528	169.25
642.733	175.25
642.939	188.25
643.144	194.25
643.349	187.25
643.554	161.25
643.759	174.25
643.964	190.25
644.169	177.25
644.374	170.25
644.579	160.25
644.784	182.25
644.989	167.25
645.194	171.25
645.399	167.25
645.604	178.25
645.809	196.25
646.014	176.25
646.219	181.25
646.423	167.25
646.628	175.25
646.833	187.25
647.038	186.25
647.243	172.25
647.447	171.25
647.652	191.25
647.857	187.25
648.062	169.25
648.266	164.25
648.471	173.25
648.676	199.25
648.88	170.25
649.085	171.25
649.289	178.25
649.494	179.25
649.698	195.25
649.903	184.25
650.107	182.25
650.312	177.25
650.516	156.25
650.721	157.25
650.925	174.25
651.13	166.25
651.334	157.25
651.539	166.25
651.743	150.25
651.947	164.25
652.152	152.25
652.356	134.25
652.56	164.25
652.764	165.25
652.969	153.25
653.173	146.25
653.377	146.25
653.581	148.25
653.785	141.25
653.99	150.25
654.194	140.25
654.398	128.25
654.602	140.25
654.806	155.25
655.01	141.25
655.214	141.25
655.418	129.25
655.622	139.25
655.826	138.25
656.03	138.25
656.234	146.25
656.438	130.25
656.642	132.25
656.846	139.25
657.049	136.25
657.253	128.25
657.457	115.25
657.661	118.25
657.865	124.25
658.068	120.25
658.272	109.25
658.476	124.25
658.68	115.25
658.883	102.25
659.087	105.25
659.291	101.25
659.494	89.25
659.698	108.25
659.901	96.25
660.105	98.25
660.309	90.25
660.512	101.25
660.716	87.25
660.919	103.25
661.123	88.25
661.326	92.25
661.53	99.25
661.733	92.25
661.936	97.25
662.14	71.25
662.343	84.25
662.546	96.25
662.75	80.25
662.953	85.25
663.156	91.25
663.36	85.25
663.563	77.25
663.766	85.25
663.969	81.25
664.173	90.25
664.376	84.25
664.579	91.25
664.782	85.25
664.985	83.25
665.188	86.25
665.391	86.25
665.594	68.25
665.797	87.25
666	75.25
666.203	85.25
666.406	87.25
666.609	81.25
666.812	82.25
667.015	74.25
667.218	79.25
667.421	80.25
667.624	83.25
667.827	100.25
668.03	91.25
668.232	89.25
668.435	79.25
668.638	76.25
668.841	85.25
669.043	78.25
669.246	83.25
669.449	86.25
669.651	77.25
669.854	76.25
670.057	92.25
670.259	79.25
670.462	78.25
670.665	72.25
670.867	100.25
671.07	87.25
671.272	85.25
671.475	89.25
671.677	62.25
671.88	76.25
672.082	78.25
672.284	91.25
672.487	70.25
672.689	92.25
672.892	68.25
