Data from 1975.PennyLincolnUp.Lamp.En5.5.200Scan.071719.P1.Changed Mount._HRD10591_15-57-48-860.txt Node
Date: Thu Jul 18 15:57:48 EDT 2019
User: cochatt
Spectrometer: HR+D1059
Trigger mode: 1
Integration Time (sec): 1.000000E-1
Scans to average: 1
Electric dark correction enabled: true
Nonlinearity correction enabled: false
Boxcar width: 0
XAxis mode: Wavelengths
Number of Pixels in Spectrum: 2048
>>>>>Begin Spectral Data<<<<<
223.165	-16.12
223.4	-16.12
223.635	-16.12
223.869	-22.12
224.104	-14.12
224.338	-25.12
224.573	-1.12
224.808	-18.12
225.042	-6.12
225.277	-5.12
225.511	-9.12
225.746	17.88
225.98	15.88
226.215	8.88
226.449	14.88
226.683	19.88
226.918	22.88
227.152	16.88
227.387	46.88
227.621	51.88
227.856	42.88
228.09	53.88
228.324	51.88
228.559	55.88
228.793	79.88
229.027	98.88
229.262	113.88
229.496	123.88
229.73	133.88
229.964	170.88
230.199	135.88
230.433	122.88
230.667	118.88
230.901	121.88
231.136	112.88
231.37	118.88
231.604	121.88
231.838	122.88
232.072	119.88
232.306	108.88
232.541	123.88
232.775	118.88
233.009	104.88
233.243	119.88
233.477	112.88
233.711	133.88
233.945	126.88
234.179	124.88
234.413	125.88
234.647	123.88
234.881	99.88
235.115	117.88
235.349	134.88
235.583	124.88
235.817	117.88
236.051	134.88
236.285	133.88
236.519	127.88
236.753	130.88
236.987	139.88
237.221	193.88
237.455	230.88
237.689	178.88
237.922	141.88
238.156	135.88
238.39	134.88
238.624	133.88
238.858	130.88
239.091	137.88
239.325	130.88
239.559	135.88
239.793	148.88
240.027	130.88
240.26	139.88
240.494	161.88
240.728	153.88
240.961	147.88
241.195	157.88
241.429	149.88
241.662	153.88
241.896	152.88
242.13	154.88
242.363	149.88
242.597	135.88
242.83	127.88
243.064	129.88
243.298	152.88
243.531	136.88
243.765	143.88
243.998	143.88
244.232	150.88
244.465	160.88
244.699	145.88
244.932	145.88
245.166	159.88
245.399	144.88
245.633	157.88
245.866	142.88
246.099	149.88
246.333	151.88
246.566	153.88
246.8	152.88
247.033	154.88
247.266	161.88
247.5	170.88
247.733	183.88
247.966	193.88
248.2	170.88
248.433	189.88
248.666	195.88
248.899	192.88
249.133	208.88
249.366	207.88
249.599	195.88
249.832	213.88
250.066	187.88
250.299	194.88
250.532	189.88
250.765	206.88
250.998	208.88
251.231	226.88
251.465	241.88
251.698	217.88
251.931	210.88
252.164	205.88
252.397	207.88
252.63	203.88
252.863	205.88
253.096	229.88
253.329	243.88
253.562	231.88
253.795	227.88
254.028	210.88
254.261	213.88
254.494	223.88
254.727	254.88
254.96	276.88
255.193	274.88
255.426	260.88
255.659	243.88
255.892	238.88
256.124	230.88
256.357	247.88
256.59	245.88
256.823	228.88
257.056	208.88
257.289	212.88
257.521	220.88
257.754	218.88
257.987	212.88
258.22	202.88
258.452	217.88
258.685	229.88
258.918	208.88
259.151	234.88
259.383	225.88
259.616	243.88
259.849	237.88
260.081	241.88
260.314	252.88
260.547	247.88
260.779	253.88
261.012	234.88
261.244	247.88
261.477	224.88
261.71	221.88
261.942	231.88
262.175	229.88
262.407	242.88
262.64	222.88
262.872	220.88
263.105	225.88
263.337	221.88
263.57	221.88
263.802	231.88
264.035	212.88
264.267	234.88
264.499	225.88
264.732	230.88
264.964	214.88
265.197	226.88
265.429	226.88
265.661	223.88
265.894	219.88
266.126	230.88
266.358	247.88
266.591	236.88
266.823	226.88
267.055	240.88
267.287	255.88
267.52	240.88
267.752	240.88
267.984	242.88
268.216	237.88
268.448	240.88
268.681	242.88
268.913	249.88
269.145	275.88
269.377	289.88
269.609	295.88
269.841	276.88
270.073	273.88
270.306	300.88
270.538	323.88
270.77	324.88
271.002	309.88
271.234	315.88
271.466	291.88
271.698	320.88
271.93	323.88
272.162	322.88
272.394	338.88
272.626	309.88
272.858	297.88
273.09	298.88
273.322	297.88
273.553	287.88
273.785	287.88
274.017	265.88
274.249	271.88
274.481	272.88
274.713	287.88
274.945	265.88
275.176	274.88
275.408	290.88
275.64	280.88
275.872	270.88
276.104	275.88
276.335	267.88
276.567	289.88
276.799	299.88
277.031	286.88
277.262	305.88
277.494	313.88
277.726	328.88
277.957	307.88
278.189	307.88
278.421	293.88
278.652	278.88
278.884	292.88
279.115	287.88
279.347	277.88
279.579	273.88
279.81	284.88
280.042	273.88
280.273	290.88
280.505	303.88
280.736	281.88
280.968	299.88
281.199	302.88
281.431	298.88
281.662	301.88
281.894	285.88
282.125	289.88
282.356	305.88
282.588	316.88
282.819	329.88
283.051	286.88
283.282	298.88
283.513	291.88
283.745	293.88
283.976	293.88
284.207	303.88
284.439	290.88
284.67	305.88
284.901	303.88
285.132	295.88
285.364	307.88
285.595	289.88
285.826	303.88
286.057	295.88
286.288	303.88
286.52	289.88
286.751	307.88
286.982	307.88
287.213	312.88
287.444	298.88
287.675	313.88
287.906	333.88
288.138	323.88
288.369	317.88
288.6	324.88
288.831	321.88
289.062	323.88
289.293	323.88
289.524	305.88
289.755	322.88
289.986	314.88
290.217	311.88
290.448	311.88
290.679	313.88
290.91	317.88
291.141	309.88
291.371	288.88
291.602	302.88
291.833	302.88
292.064	301.88
292.295	297.88
292.526	305.88
292.757	318.88
292.987	288.88
293.218	306.88
293.449	325.88
293.68	331.88
293.91	326.88
294.141	302.88
294.372	314.88
294.603	317.88
294.833	302.88
295.064	314.88
295.295	321.88
295.525	329.88
295.756	338.88
295.987	327.88
296.217	348.88
296.448	371.88
296.679	327.88
296.909	331.88
297.14	333.88
297.37	307.88
297.601	313.88
297.831	320.88
298.062	311.88
298.292	297.88
298.523	341.88
298.753	328.88
298.984	332.88
299.214	343.88
299.445	339.88
299.675	314.88
299.905	335.88
300.136	327.88
300.366	342.88
300.597	330.88
300.827	353.88
301.057	344.88
301.288	347.88
301.518	338.88
301.748	361.88
301.979	324.88
302.209	360.88
302.439	353.88
302.669	351.88
302.9	325.88
303.13	339.88
303.36	348.88
303.59	341.88
303.82	360.88
304.051	347.88
304.281	352.88
304.511	358.88
304.741	341.88
304.971	345.88
305.201	347.88
305.431	348.88
305.661	352.88
305.891	358.88
306.121	350.88
306.352	346.88
306.582	360.88
306.812	355.88
307.042	342.88
307.272	359.88
307.502	345.88
307.731	355.88
307.961	344.88
308.191	349.88
308.421	350.88
308.651	348.88
308.881	361.88
309.111	354.88
309.341	345.88
309.571	363.88
309.8	377.88
310.03	377.88
310.26	377.88
310.49	387.88
310.72	383.88
310.949	390.88
311.179	389.88
311.409	377.88
311.639	384.88
311.868	399.88
312.098	386.88
312.328	398.88
312.557	413.88
312.787	401.88
313.017	414.88
313.246	413.88
313.476	398.88
313.706	387.88
313.935	390.88
314.165	398.88
314.394	404.88
314.624	411.88
314.853	392.88
315.083	393.88
315.312	384.88
315.542	417.88
315.771	389.88
316.001	382.88
316.23	395.88
316.46	375.88
316.689	394.88
316.919	409.88
317.148	395.88
317.377	374.88
317.607	415.88
317.836	414.88
318.065	404.88
318.295	405.88
318.524	385.88
318.753	381.88
318.983	387.88
319.212	397.88
319.441	377.88
319.67	387.88
319.9	405.88
320.129	392.88
320.358	397.88
320.587	389.88
320.816	403.88
321.046	415.88
321.275	418.88
321.504	406.88
321.733	413.88
321.962	402.88
322.191	410.88
322.42	431.88
322.649	433.88
322.878	440.88
323.108	444.88
323.337	462.88
323.566	479.88
323.795	502.88
324.024	529.88
324.253	603.88
324.482	853.88
324.71	1286.88
324.939	1910.88
325.168	1704.88
325.397	829.88
325.626	605.88
325.855	512.88
326.084	489.88
326.313	479.88
326.542	483.88
326.77	514.88
326.999	616.88
327.228	787.88
327.457	1178.88
327.686	1426.88
327.914	948.88
328.143	658.88
328.372	599.88
328.6	562.88
328.829	543.88
329.058	555.88
329.287	559.88
329.515	539.88
329.744	504.88
329.972	514.88
330.201	511.88
330.43	547.88
330.658	584.88
330.887	584.88
331.115	581.88
331.344	525.88
331.572	498.88
331.801	477.88
332.03	507.88
332.258	483.88
332.486	488.88
332.715	496.88
332.943	486.88
333.172	498.88
333.4	480.88
333.629	517.88
333.857	505.88
334.085	524.88
334.314	521.88
334.542	567.88
334.771	560.88
334.999	545.88
335.227	507.88
335.455	517.88
335.684	492.88
335.912	473.88
336.14	462.88
336.369	462.88
336.597	490.88
336.825	493.88
337.053	480.88
337.281	450.88
337.51	450.88
337.738	465.88
337.966	447.88
338.194	471.88
338.422	454.88
338.65	457.88
338.878	444.88
339.106	442.88
339.334	455.88
339.562	454.88
339.79	454.88
340.018	448.88
340.246	454.88
340.474	469.88
340.702	445.88
340.93	454.88
341.158	457.88
341.386	451.88
341.614	448.88
341.842	458.88
342.07	453.88
342.298	430.88
342.526	453.88
342.754	451.88
342.981	422.88
343.209	449.88
343.437	454.88
343.665	450.88
343.893	487.88
344.12	497.88
344.348	488.88
344.576	480.88
344.804	480.88
345.031	460.88
345.259	460.88
345.487	465.88
345.714	457.88
345.942	422.88
346.17	454.88
346.397	444.88
346.625	441.88
346.853	427.88
347.08	415.88
347.308	412.88
347.535	441.88
347.763	447.88
347.99	437.88
348.218	438.88
348.445	445.88
348.673	460.88
348.9	413.88
349.128	450.88
349.355	410.88
349.583	424.88
349.81	422.88
350.037	428.88
350.265	413.88
350.492	407.88
350.72	428.88
350.947	427.88
351.174	423.88
351.402	447.88
351.629	451.88
351.856	452.88
352.083	433.88
352.311	464.88
352.538	449.88
352.765	447.88
352.992	425.88
353.22	428.88
353.447	429.88
353.674	425.88
353.901	420.88
354.128	421.88
354.355	417.88
354.583	433.88
354.81	400.88
355.037	431.88
355.264	417.88
355.491	415.88
355.718	409.88
355.945	419.88
356.172	417.88
356.399	414.88
356.626	411.88
356.853	412.88
357.08	402.88
357.307	422.88
357.534	404.88
357.761	415.88
357.988	425.88
358.215	417.88
358.441	398.88
358.668	428.88
358.895	390.88
359.122	419.88
359.349	410.88
359.576	444.88
359.802	462.88
360.029	470.88
360.256	491.88
360.483	481.88
360.709	445.88
360.936	437.88
361.163	429.88
361.39	441.88
361.616	442.88
361.843	446.88
362.07	434.88
362.296	440.88
362.523	446.88
362.749	441.88
362.976	433.88
363.203	445.88
363.429	421.88
363.656	431.88
363.882	427.88
364.109	432.88
364.335	448.88
364.562	407.88
364.788	426.88
365.015	434.88
365.241	416.88
365.468	429.88
365.694	436.88
365.92	435.88
366.147	432.88
366.373	431.88
366.599	437.88
366.826	429.88
367.052	414.88
367.278	420.88
367.505	448.88
367.731	447.88
367.957	418.88
368.184	398.88
368.41	413.88
368.636	429.88
368.862	460.88
369.089	449.88
369.315	420.88
369.541	435.88
369.767	418.88
369.993	419.88
370.219	415.88
370.445	438.88
370.672	414.88
370.898	414.88
371.124	410.88
371.35	451.88
371.576	431.88
371.802	431.88
372.028	434.88
372.254	428.88
372.48	456.88
372.706	453.88
372.932	443.88
373.158	433.88
373.384	438.88
373.61	440.88
373.835	461.88
374.061	442.88
374.287	450.88
374.513	441.88
374.739	457.88
374.965	448.88
375.191	445.88
375.416	448.88
375.642	449.88
375.868	462.88
376.094	447.88
376.319	439.88
376.545	441.88
376.771	431.88
376.997	416.88
377.222	403.88
377.448	445.88
377.674	425.88
377.899	449.88
378.125	454.88
378.35	440.88
378.576	423.88
378.802	431.88
379.027	433.88
379.253	425.88
379.478	423.88
379.704	440.88
379.929	447.88
380.155	425.88
380.38	451.88
380.606	423.88
380.831	430.88
381.057	440.88
381.282	441.88
381.507	438.88
381.733	449.88
381.958	432.88
382.184	434.88
382.409	439.88
382.634	469.88
382.86	460.88
383.085	467.88
383.31	439.88
383.535	455.88
383.761	452.88
383.986	478.88
384.211	459.88
384.436	460.88
384.662	481.88
384.887	460.88
385.112	471.88
385.337	452.88
385.562	473.88
385.787	495.88
386.013	508.88
386.238	511.88
386.463	490.88
386.688	487.88
386.913	480.88
387.138	488.88
387.363	490.88
387.588	463.88
387.813	483.88
388.038	465.88
388.263	480.88
388.488	514.88
388.713	475.88
388.938	475.88
389.163	499.88
389.387	482.88
389.612	466.88
389.837	493.88
390.062	475.88
390.287	458.88
390.512	470.88
390.736	494.88
390.961	477.88
391.186	487.88
391.411	477.88
391.636	474.88
391.86	515.88
392.085	521.88
392.31	520.88
392.534	502.88
392.759	503.88
392.984	509.88
393.208	493.88
393.433	487.88
393.658	496.88
393.882	477.88
394.107	480.88
394.331	487.88
394.556	481.88
394.78	493.88
395.005	489.88
395.229	495.88
395.454	504.88
395.678	517.88
395.903	528.88
396.127	559.88
396.352	541.88
396.576	511.88
396.801	506.88
397.025	514.88
397.249	513.88
397.474	507.88
397.698	537.88
397.922	552.88
398.147	535.88
398.371	559.88
398.595	573.88
398.82	543.88
399.044	581.88
399.268	580.88
399.492	625.88
399.717	679.88
399.941	717.88
400.165	717.88
400.389	709.88
400.613	635.88
400.837	615.88
401.062	606.88
401.286	574.88
401.51	578.88
401.734	572.88
401.958	548.88
402.182	579.88
402.406	577.88
402.63	571.88
402.854	609.88
403.078	580.88
403.302	604.88
403.526	592.88
403.75	602.88
403.974	602.88
404.198	582.88
404.422	598.88
404.645	604.88
404.869	616.88
405.093	638.88
405.317	673.88
405.541	697.88
405.765	665.88
405.988	627.88
406.212	622.88
406.436	634.88
406.66	651.88
406.883	634.88
407.107	670.88
407.331	725.88
407.555	783.88
407.778	785.88
408.002	723.88
408.226	668.88
408.449	650.88
408.673	641.88
408.896	684.88
409.12	718.88
409.344	677.88
409.567	626.88
409.791	633.88
410.014	610.88
410.238	589.88
410.461	591.88
410.685	626.88
410.908	589.88
411.132	640.88
411.355	669.88
411.578	659.88
411.802	603.88
412.025	588.88
412.249	581.88
412.472	610.88
412.695	648.88
412.919	660.88
413.142	591.88
413.365	582.88
413.589	560.88
413.812	561.88
414.035	566.88
414.258	571.88
414.482	562.88
414.705	562.88
414.928	559.88
415.151	549.88
415.374	574.88
415.597	551.88
415.821	544.88
416.044	572.88
416.267	562.88
416.49	535.88
416.713	545.88
416.936	552.88
417.159	542.88
417.382	561.88
417.605	568.88
417.828	565.88
418.051	590.88
418.274	573.88
418.497	554.88
418.72	575.88
418.943	554.88
419.166	579.88
419.389	602.88
419.611	625.88
419.834	578.88
420.057	588.88
420.28	581.88
420.503	596.88
420.726	582.88
420.948	589.88
421.171	625.88
421.394	666.88
421.617	615.88
421.839	606.88
422.062	566.88
422.285	585.88
422.507	669.88
422.73	720.88
422.953	706.88
423.175	643.88
423.398	620.88
423.621	591.88
423.843	638.88
424.066	624.88
424.288	629.88
424.511	641.88
424.733	685.88
424.956	766.88
425.178	750.88
425.401	731.88
425.623	768.88
425.846	667.88
426.068	613.88
426.291	599.88
426.513	606.88
426.735	624.88
426.958	653.88
427.18	722.88
427.402	848.88
427.625	975.88
427.847	842.88
428.069	738.88
428.292	642.88
428.514	583.88
428.736	589.88
428.958	575.88
429.181	570.88
429.403	567.88
429.625	572.88
429.847	600.88
430.069	663.88
430.292	672.88
430.514	590.88
430.736	573.88
430.958	582.88
431.18	555.88
431.402	550.88
431.624	544.88
431.846	553.88
432.068	535.88
432.29	553.88
432.512	546.88
432.734	549.88
432.956	547.88
433.178	547.88
433.4	571.88
433.622	557.88
433.844	546.88
434.066	551.88
434.287	523.88
434.509	555.88
434.731	569.88
434.953	546.88
435.175	592.88
435.397	607.88
435.618	597.88
435.84	649.88
436.062	742.88
436.284	802.88
436.505	670.88
436.727	620.88
436.949	587.88
437.17	579.88
437.392	551.88
437.614	567.88
437.835	592.88
438.057	695.88
438.278	789.88
438.5	789.88
438.721	867.88
438.943	832.88
439.165	680.88
439.386	607.88
439.608	612.88
439.829	591.88
440.05	630.88
440.272	671.88
440.493	644.88
440.715	589.88
440.936	579.88
441.158	581.88
441.379	578.88
441.6	593.88
441.822	600.88
442.043	621.88
442.264	721.88
442.486	781.88
442.707	694.88
442.928	630.88
443.149	623.88
443.371	621.88
443.592	673.88
443.813	801.88
444.034	857.88
444.255	702.88
444.476	659.88
444.698	623.88
444.919	652.88
445.14	783.88
445.361	680.88
445.582	662.88
445.803	679.88
446.024	792.88
446.245	822.88
446.466	746.88
446.687	661.88
446.908	607.88
447.129	595.88
447.35	572.88
447.571	580.88
447.792	569.88
448.013	562.88
448.234	586.88
448.455	618.88
448.675	746.88
448.896	866.88
449.117	724.88
449.338	674.88
449.559	775.88
449.779	878.88
450	727.88
450.221	596.88
450.442	545.88
450.662	554.88
450.883	538.88
451.104	558.88
451.324	542.88
451.545	511.88
451.766	512.88
451.986	503.88
452.207	505.88
452.428	482.88
452.648	482.88
452.869	508.88
453.089	518.88
453.31	523.88
453.53	520.88
453.751	498.88
453.971	484.88
454.192	527.88
454.412	497.88
454.633	482.88
454.853	505.88
455.073	498.88
455.294	527.88
455.514	562.88
455.734	575.88
455.955	508.88
456.175	485.88
456.395	481.88
456.616	489.88
456.836	475.88
457.056	445.88
457.276	482.88
457.497	488.88
457.717	453.88
457.937	450.88
458.157	486.88
458.377	496.88
458.598	505.88
458.818	550.88
459.038	635.88
459.258	663.88
459.478	575.88
459.698	537.88
459.918	524.88
460.138	535.88
460.358	551.88
460.578	566.88
460.798	585.88
461.018	577.88
461.238	566.88
461.458	555.88
461.678	556.88
461.898	567.88
462.118	577.88
462.338	577.88
462.558	595.88
462.777	598.88
462.997	629.88
463.217	619.88
463.437	635.88
463.657	638.88
463.876	609.88
464.096	621.88
464.316	585.88
464.536	609.88
464.755	595.88
464.975	601.88
465.195	618.88
465.414	671.88
465.634	601.88
465.854	568.88
466.073	526.88
466.293	528.88
466.512	519.88
466.732	519.88
466.951	532.88
467.171	523.88
467.391	509.88
467.61	509.88
467.829	547.88
468.049	514.88
468.268	514.88
468.488	521.88
468.707	531.88
468.927	510.88
469.146	494.88
469.365	487.88
469.585	493.88
469.804	530.88
470.023	537.88
470.243	519.88
470.462	526.88
470.681	539.88
470.901	546.88
471.12	549.88
471.339	501.88
471.558	513.88
471.777	539.88
471.997	515.88
472.216	519.88
472.435	534.88
472.654	548.88
472.873	524.88
473.092	526.88
473.311	513.88
473.53	505.88
473.749	539.88
473.968	558.88
474.187	635.88
474.406	690.88
474.625	581.88
474.844	539.88
475.063	505.88
475.282	516.88
475.501	517.88
475.72	529.88
475.939	552.88
476.158	539.88
476.377	551.88
476.596	523.88
476.814	541.88
477.033	541.88
477.252	567.88
477.471	541.88
477.69	539.88
477.908	566.88
478.127	567.88
478.346	571.88
478.564	598.88
478.783	565.88
479.002	586.88
479.22	614.88
479.439	619.88
479.658	617.88
479.876	606.88
480.095	646.88
480.313	659.88
480.532	643.88
480.751	643.88
480.969	658.88
481.188	707.88
481.406	722.88
481.624	658.88
481.843	637.88
482.061	633.88
482.28	616.88
482.498	604.88
482.717	601.88
482.935	603.88
483.153	599.88
483.372	606.88
483.59	616.88
483.808	623.88
484.027	598.88
484.245	605.88
484.463	608.88
484.681	608.88
484.9	633.88
485.118	633.88
485.336	616.88
485.554	629.88
485.772	655.88
485.99	640.88
486.209	625.88
486.427	643.88
486.645	656.88
486.863	659.88
487.081	662.88
487.299	666.88
487.517	646.88
487.735	659.88
487.953	658.88
488.171	647.88
488.389	677.88
488.607	649.88
488.825	654.88
489.043	654.88
489.261	655.88
489.479	660.88
489.696	663.88
489.914	662.88
490.132	674.88
490.35	677.88
490.568	682.88
490.786	704.88
491.003	727.88
491.221	707.88
491.439	738.88
491.657	720.88
491.874	729.88
492.092	754.88
492.31	777.88
492.527	756.88
492.745	750.88
492.963	760.88
493.18	789.88
493.398	767.88
493.615	770.88
493.833	801.88
494.05	784.88
494.268	762.88
494.485	753.88
494.703	758.88
494.92	805.88
495.138	753.88
495.355	779.88
495.573	785.88
495.79	801.88
496.008	781.88
496.225	758.88
496.442	777.88
496.66	791.88
496.877	791.88
497.094	793.88
497.312	793.88
497.529	791.88
497.746	813.88
497.963	833.88
498.181	840.88
498.398	855.88
498.615	869.88
498.832	925.88
499.049	954.88
499.267	950.88
499.484	995.88
499.701	1027.88
499.918	1090.88
500.135	1164.88
500.352	1212.88
500.569	1219.88
500.786	1242.88
501.003	1223.88
501.22	1173.88
501.437	1102.88
501.654	1070.88
501.871	1036.88
502.088	999.88
502.305	944.88
502.522	933.88
502.739	896.88
502.956	850.88
503.172	842.88
503.389	825.88
503.606	830.88
503.823	825.88
504.04	818.88
504.256	787.88
504.473	795.88
504.69	787.88
504.907	797.88
505.123	757.88
505.34	744.88
505.557	745.88
505.773	742.88
505.99	738.88
506.207	728.88
506.423	733.88
506.64	703.88
506.856	716.88
507.073	720.88
507.289	696.88
507.506	681.88
507.722	705.88
507.939	709.88
508.155	704.88
508.372	698.88
508.588	675.88
508.805	674.88
509.021	680.88
509.238	723.88
509.454	710.88
509.67	690.88
509.887	676.88
510.103	677.88
510.319	673.88
510.536	717.88
510.752	1070.88
510.968	937.88
511.184	668.88
511.401	695.88
511.617	651.88
511.833	636.88
512.049	668.88
512.265	647.88
512.481	647.88
512.698	667.88
512.914	645.88
513.13	637.88
513.346	673.88
513.562	643.88
513.778	624.88
513.994	674.88
514.21	640.88
514.426	686.88
514.642	679.88
514.858	709.88
515.074	728.88
515.29	815.88
515.506	1075.88
515.721	955.88
515.937	730.88
516.153	693.88
516.369	668.88
516.585	671.88
516.801	664.88
517.016	670.88
517.232	681.88
517.448	702.88
517.664	723.88
517.879	687.88
518.095	709.88
518.311	677.88
518.527	656.88
518.742	669.88
518.958	682.88
519.173	650.88
519.389	670.88
519.605	639.88
519.82	656.88
520.036	659.88
520.251	680.88
520.467	701.88
520.682	677.88
520.898	672.88
521.113	690.88
521.329	701.88
521.544	757.88
521.76	896.88
521.975	1326.88
522.19	1330.88
522.406	828.88
522.621	688.88
522.836	647.88
523.052	609.88
523.267	591.88
523.482	603.88
523.698	581.88
523.913	584.88
524.128	584.88
524.343	562.88
524.559	574.88
524.774	541.88
524.989	571.88
525.204	559.88
525.419	587.88
525.634	566.88
525.849	550.88
526.064	552.88
526.28	534.88
526.495	529.88
526.71	520.88
526.925	541.88
527.14	517.88
527.355	530.88
527.57	521.88
527.785	517.88
527.999	523.88
528.214	517.88
528.429	547.88
528.644	522.88
528.859	529.88
529.074	505.88
529.289	548.88
529.503	619.88
529.718	588.88
529.933	551.88
530.148	542.88
530.363	535.88
530.577	547.88
530.792	532.88
531.007	518.88
531.221	521.88
531.436	523.88
531.651	555.88
531.865	528.88
532.08	531.88
532.295	505.88
532.509	489.88
532.724	510.88
532.938	527.88
533.153	525.88
533.367	516.88
533.582	513.88
533.796	512.88
534.011	503.88
534.225	511.88
534.44	515.88
534.654	497.88
534.868	512.88
535.083	521.88
535.297	512.88
535.511	506.88
535.726	510.88
535.94	533.88
536.154	518.88
536.369	518.88
536.583	493.88
536.797	523.88
537.011	490.88
537.225	485.88
537.44	492.88
537.654	484.88
537.868	472.88
538.082	517.88
538.296	496.88
538.51	515.88
538.724	488.88
538.938	498.88
539.153	484.88
539.367	506.88
539.581	503.88
539.795	505.88
540.009	482.88
540.222	481.88
540.436	481.88
540.65	501.88
540.864	503.88
541.078	514.88
541.292	494.88
541.506	488.88
541.72	488.88
541.934	501.88
542.147	490.88
542.361	493.88
542.575	498.88
542.789	483.88
543.002	482.88
543.216	503.88
543.43	468.88
543.644	490.88
543.857	503.88
544.071	490.88
544.285	490.88
544.498	493.88
544.712	503.88
544.925	498.88
545.139	485.88
545.352	507.88
545.566	471.88
545.779	466.88
545.993	481.88
546.206	487.88
546.42	488.88
546.633	512.88
546.847	491.88
547.06	480.88
547.274	493.88
547.487	482.88
547.7	484.88
547.914	496.88
548.127	487.88
548.34	486.88
548.554	469.88
548.767	473.88
548.98	488.88
549.193	473.88
549.407	469.88
549.62	499.88
549.833	495.88
550.046	488.88
550.259	467.88
550.473	481.88
550.686	488.88
550.899	473.88
551.112	475.88
551.325	475.88
551.538	478.88
551.751	467.88
551.964	467.88
552.177	493.88
552.39	477.88
552.603	491.88
552.816	480.88
553.029	495.88
553.242	511.88
553.455	501.88
553.667	506.88
553.88	513.88
554.093	491.88
554.306	495.88
554.519	479.88
554.732	485.88
554.944	483.88
555.157	485.88
555.37	480.88
555.583	462.88
555.795	448.88
556.008	445.88
556.221	430.88
556.433	441.88
556.646	467.88
556.859	461.88
557.071	430.88
557.284	419.88
557.496	440.88
557.709	438.88
557.921	440.88
558.134	441.88
558.346	416.88
558.559	434.88
558.771	421.88
558.984	432.88
559.196	397.88
559.409	420.88
559.621	403.88
559.833	421.88
560.046	432.88
560.258	410.88
560.47	406.88
560.683	428.88
560.895	422.88
561.107	424.88
561.32	428.88
561.532	411.88
561.744	419.88
561.956	421.88
562.168	433.88
562.381	425.88
562.593	439.88
562.805	439.88
563.017	411.88
563.229	424.88
563.441	419.88
563.653	430.88
563.865	429.88
564.077	442.88
564.289	427.88
564.501	433.88
564.713	451.88
564.925	463.88
565.137	468.88
565.349	464.88
565.561	478.88
565.773	484.88
565.985	474.88
566.197	503.88
566.408	517.88
566.62	536.88
566.832	554.88
567.044	563.88
567.255	554.88
567.467	576.88
567.679	550.88
567.891	591.88
568.102	589.88
568.314	565.88
568.526	582.88
568.737	537.88
568.949	497.88
569.161	493.88
569.372	473.88
569.584	464.88
569.795	467.88
570.007	443.88
570.218	467.88
570.43	476.88
570.641	444.88
570.853	423.88
571.064	445.88
571.276	427.88
571.487	413.88
571.698	404.88
571.91	398.88
572.121	423.88
572.333	389.88
572.544	369.88
572.755	388.88
572.966	389.88
573.178	371.88
573.389	380.88
573.6	366.88
573.811	371.88
574.023	365.88
574.234	371.88
574.445	356.88
574.656	374.88
574.867	366.88
575.078	374.88
575.289	373.88
575.501	357.88
575.712	340.88
575.923	357.88
576.134	378.88
576.345	380.88
576.556	375.88
576.767	360.88
576.978	368.88
577.188	367.88
577.399	353.88
577.61	365.88
577.821	384.88
578.032	359.88
578.243	390.88
578.454	525.88
578.665	434.88
578.875	343.88
579.086	343.88
579.297	337.88
579.508	353.88
579.718	348.88
579.929	333.88
580.14	344.88
580.35	349.88
580.561	337.88
580.772	333.88
580.982	330.88
581.193	317.88
581.403	336.88
581.614	333.88
581.825	343.88
582.035	335.88
582.246	321.88
582.456	337.88
582.667	333.88
582.877	332.88
583.087	319.88
583.298	323.88
583.508	323.88
583.719	329.88
583.929	336.88
584.139	320.88
584.35	326.88
584.56	332.88
584.77	336.88
584.981	318.88
585.191	322.88
585.401	309.88
585.611	332.88
585.821	322.88
586.032	320.88
586.242	321.88
586.452	304.88
586.662	320.88
586.872	315.88
587.082	326.88
587.292	312.88
587.502	329.88
587.713	318.88
587.923	338.88
588.133	320.88
588.343	324.88
588.553	328.88
588.762	314.88
588.972	318.88
589.182	312.88
589.392	334.88
589.602	331.88
589.812	326.88
590.022	340.88
590.232	296.88
590.441	337.88
590.651	309.88
590.861	319.88
591.071	323.88
591.281	352.88
591.49	339.88
591.7	341.88
591.91	343.88
592.119	322.88
592.329	342.88
592.539	325.88
592.748	327.88
592.958	357.88
593.167	357.88
593.377	345.88
593.587	354.88
593.796	365.88
594.006	355.88
594.215	343.88
594.424	355.88
594.634	374.88
594.843	345.88
595.053	341.88
595.262	361.88
595.472	338.88
595.681	328.88
595.89	320.88
596.1	309.88
596.309	306.88
596.518	321.88
596.727	313.88
596.937	304.88
597.146	305.88
597.355	309.88
597.564	300.88
597.774	314.88
597.983	306.88
598.192	285.88
598.401	295.88
598.61	299.88
598.819	300.88
599.028	298.88
599.237	304.88
599.446	311.88
599.655	289.88
599.864	278.88
600.073	286.88
600.282	286.88
600.491	288.88
600.7	275.88
600.909	282.88
601.118	283.88
601.327	285.88
601.536	277.88
601.745	289.88
601.953	276.88
602.162	288.88
602.371	276.88
602.58	282.88
602.789	266.88
602.997	283.88
603.206	274.88
603.415	278.88
603.623	275.88
603.832	275.88
604.041	278.88
604.249	275.88
604.458	272.88
604.666	271.88
604.875	261.88
605.084	267.88
605.292	285.88
605.501	266.88
605.709	259.88
605.918	264.88
606.126	266.88
606.334	286.88
606.543	290.88
606.751	278.88
606.96	271.88
607.168	269.88
607.376	278.88
607.585	271.88
607.793	259.88
608.001	247.88
608.21	257.88
608.418	264.88
608.626	263.88
608.834	271.88
609.043	279.88
609.251	267.88
609.459	253.88
609.667	265.88
609.875	253.88
610.083	278.88
610.291	266.88
610.499	257.88
610.707	254.88
610.916	244.88
611.124	271.88
611.332	290.88
611.54	253.88
611.748	284.88
611.955	262.88
612.163	279.88
612.371	267.88
612.579	255.88
612.787	272.88
612.995	263.88
613.203	271.88
613.411	269.88
613.618	260.88
613.826	283.88
614.034	261.88
614.242	254.88
614.449	262.88
614.657	250.88
614.865	257.88
615.072	251.88
615.28	262.88
615.488	255.88
615.695	251.88
615.903	247.88
616.111	279.88
616.318	253.88
616.526	273.88
616.733	266.88
616.941	272.88
617.148	243.88
617.356	262.88
617.563	256.88
617.771	255.88
617.978	268.88
618.185	248.88
618.393	261.88
618.6	264.88
618.807	261.88
619.015	271.88
619.222	247.88
619.429	255.88
619.637	249.88
619.844	246.88
620.051	250.88
620.258	262.88
620.466	231.88
620.673	225.88
620.88	243.88
621.087	234.88
621.294	219.88
621.501	241.88
621.708	230.88
621.915	239.88
622.122	238.88
622.329	253.88
622.536	228.88
622.743	239.88
622.95	237.88
623.157	242.88
623.364	240.88
623.571	239.88
623.778	235.88
623.985	235.88
624.192	249.88
624.399	253.88
624.606	231.88
624.812	226.88
625.019	247.88
625.226	230.88
625.433	221.88
625.639	233.88
625.846	247.88
626.053	246.88
626.259	213.88
626.466	210.88
626.673	230.88
626.879	225.88
627.086	219.88
627.293	214.88
627.499	233.88
627.706	213.88
627.912	213.88
628.119	214.88
628.325	215.88
628.532	222.88
628.738	204.88
628.945	237.88
629.151	227.88
629.357	222.88
629.564	220.88
629.77	217.88
629.976	208.88
630.183	215.88
630.389	227.88
630.595	219.88
630.802	210.88
631.008	205.88
631.214	234.88
631.42	209.88
631.627	216.88
631.833	201.88
632.039	217.88
632.245	195.88
632.451	200.88
632.657	210.88
632.863	211.88
633.069	213.88
633.275	210.88
633.481	195.88
633.688	192.88
633.893	208.88
634.099	203.88
634.305	208.88
634.511	210.88
634.717	221.88
634.923	205.88
635.129	205.88
635.335	205.88
635.541	182.88
635.747	189.88
635.952	200.88
636.158	193.88
636.364	209.88
636.57	205.88
636.775	191.88
636.981	196.88
637.187	208.88
637.392	207.88
637.598	190.88
637.804	193.88
638.009	182.88
638.215	190.88
638.421	198.88
638.626	191.88
638.832	183.88
639.037	198.88
639.243	181.88
639.448	193.88
639.654	206.88
639.859	185.88
640.065	194.88
640.27	200.88
640.475	205.88
640.681	193.88
640.886	193.88
641.091	194.88
641.297	181.88
641.502	204.88
641.707	194.88
641.913	198.88
642.118	194.88
642.323	186.88
642.528	186.88
642.733	194.88
642.939	187.88
643.144	189.88
643.349	173.88
643.554	176.88
643.759	183.88
643.964	173.88
644.169	169.88
644.374	176.88
644.579	177.88
644.784	190.88
644.989	189.88
645.194	177.88
645.399	181.88
645.604	166.88
645.809	186.88
646.014	182.88
646.219	187.88
646.423	190.88
646.628	185.88
646.833	182.88
647.038	200.88
647.243	188.88
647.447	172.88
647.652	199.88
647.857	175.88
648.062	176.88
648.266	164.88
648.471	184.88
648.676	186.88
648.88	187.88
649.085	194.88
649.289	174.88
649.494	194.88
649.698	202.88
649.903	193.88
650.107	172.88
650.312	175.88
650.516	185.88
650.721	177.88
650.925	170.88
651.13	174.88
651.334	176.88
651.539	166.88
651.743	169.88
651.947	151.88
652.152	166.88
652.356	152.88
652.56	149.88
652.764	151.88
652.969	151.88
653.173	164.88
653.377	163.88
653.581	146.88
653.785	168.88
653.99	155.88
654.194	145.88
654.398	147.88
654.602	158.88
654.806	147.88
655.01	170.88
655.214	148.88
655.418	141.88
655.622	148.88
655.826	154.88
656.03	148.88
656.234	155.88
656.438	151.88
656.642	137.88
656.846	159.88
657.049	145.88
657.253	141.88
657.457	144.88
657.661	129.88
657.865	136.88
658.068	112.88
658.272	133.88
658.476	111.88
658.68	126.88
658.883	108.88
659.087	95.88
659.291	111.88
659.494	122.88
659.698	103.88
659.901	101.88
660.105	91.88
660.309	105.88
660.512	113.88
660.716	105.88
660.919	94.88
661.123	101.88
661.326	93.88
661.53	100.88
661.733	100.88
661.936	92.88
662.14	114.88
662.343	85.88
662.546	85.88
662.75	89.88
662.953	108.88
663.156	97.88
663.36	92.88
663.563	86.88
663.766	99.88
663.969	82.88
664.173	93.88
664.376	89.88
664.579	90.88
664.782	94.88
664.985	90.88
665.188	101.88
665.391	88.88
665.594	91.88
665.797	89.88
666	88.88
666.203	81.88
666.406	90.88
666.609	88.88
666.812	93.88
667.015	85.88
667.218	93.88
667.421	87.88
667.624	92.88
667.827	90.88
668.03	80.88
668.232	58.88
668.435	84.88
668.638	99.88
668.841	95.88
669.043	75.88
669.246	86.88
669.449	87.88
669.651	94.88
669.854	82.88
670.057	86.88
670.259	86.88
670.462	91.88
670.665	85.88
670.867	97.88
671.07	79.88
671.272	86.88
671.475	94.88
671.677	94.88
671.88	82.88
672.082	87.88
672.284	86.88
672.487	90.88
672.689	89.88
672.892	90.88
