Data from 1975.PennyLincolnUp.Lamp.En5.5.200Scan.071719.P1.Changed Mount._HRD10591_15-58-22-859.txt Node
Date: Thu Jul 18 15:58:22 EDT 2019
User: cochatt
Spectrometer: HR+D1059
Trigger mode: 1
Integration Time (sec): 1.000000E-1
Scans to average: 1
Electric dark correction enabled: true
Nonlinearity correction enabled: false
Boxcar width: 0
XAxis mode: Wavelengths
Number of Pixels in Spectrum: 2048
>>>>>Begin Spectral Data<<<<<
223.165	-18.44
223.4	-18.44
223.635	-18.44
223.869	-16.44
224.104	-23.44
224.338	-8.44
224.573	-18.44
224.808	-14.44
225.042	-3.44
225.277	-4.44
225.511	-3.44
225.746	12.56
225.98	10.56
226.215	10.56
226.449	7.56
226.683	20.56
226.918	21.56
227.152	27.56
227.387	23.56
227.621	39.56
227.856	31.56
228.09	51.56
228.324	54.56
228.559	50.56
228.793	66.56
229.027	99.56
229.262	106.56
229.496	92.56
229.73	111.56
229.964	138.56
230.199	121.56
230.433	116.56
230.667	113.56
230.901	104.56
231.136	108.56
231.37	102.56
231.604	107.56
231.838	122.56
232.072	108.56
232.306	117.56
232.541	107.56
232.775	99.56
233.009	117.56
233.243	112.56
233.477	112.56
233.711	112.56
233.945	118.56
234.179	119.56
234.413	126.56
234.647	117.56
234.881	120.56
235.115	117.56
235.349	106.56
235.583	123.56
235.817	121.56
236.051	128.56
236.285	128.56
236.519	124.56
236.753	124.56
236.987	130.56
237.221	199.56
237.455	230.56
237.689	178.56
237.922	143.56
238.156	136.56
238.39	127.56
238.624	125.56
238.858	116.56
239.091	128.56
239.325	114.56
239.559	123.56
239.793	131.56
240.027	126.56
240.26	146.56
240.494	168.56
240.728	137.56
240.961	149.56
241.195	162.56
241.429	133.56
241.662	145.56
241.896	145.56
242.13	129.56
242.363	135.56
242.597	147.56
242.83	133.56
243.064	151.56
243.298	136.56
243.531	140.56
243.765	132.56
243.998	137.56
244.232	155.56
244.465	146.56
244.699	141.56
244.932	153.56
245.166	172.56
245.399	164.56
245.633	159.56
245.866	157.56
246.099	149.56
246.333	140.56
246.566	145.56
246.8	156.56
247.033	146.56
247.266	175.56
247.5	172.56
247.733	199.56
247.966	171.56
248.2	161.56
248.433	177.56
248.666	176.56
248.899	197.56
249.133	217.56
249.366	207.56
249.599	211.56
249.832	195.56
250.066	189.56
250.299	180.56
250.532	198.56
250.765	204.56
250.998	225.56
251.231	227.56
251.465	227.56
251.698	203.56
251.931	203.56
252.164	201.56
252.397	188.56
252.63	216.56
252.863	216.56
253.096	213.56
253.329	212.56
253.562	233.56
253.795	217.56
254.028	223.56
254.261	234.56
254.494	222.56
254.727	245.56
254.96	266.56
255.193	298.56
255.426	264.56
255.659	265.56
255.892	242.56
256.124	241.56
256.357	258.56
256.59	241.56
256.823	229.56
257.056	248.56
257.289	223.56
257.521	223.56
257.754	209.56
257.987	221.56
258.22	210.56
258.452	225.56
258.685	206.56
258.918	198.56
259.151	221.56
259.383	223.56
259.616	224.56
259.849	237.56
260.081	244.56
260.314	252.56
260.547	260.56
260.779	257.56
261.012	256.56
261.244	226.56
261.477	219.56
261.71	226.56
261.942	241.56
262.175	241.56
262.407	223.56
262.64	215.56
262.872	224.56
263.105	216.56
263.337	229.56
263.57	227.56
263.802	221.56
264.035	225.56
264.267	217.56
264.499	232.56
264.732	232.56
264.964	219.56
265.197	234.56
265.429	212.56
265.661	232.56
265.894	219.56
266.126	219.56
266.358	220.56
266.591	234.56
266.823	245.56
267.055	258.56
267.287	245.56
267.52	243.56
267.752	242.56
267.984	240.56
268.216	239.56
268.448	234.56
268.681	257.56
268.913	267.56
269.145	277.56
269.377	271.56
269.609	270.56
269.841	271.56
270.073	274.56
270.306	307.56
270.538	321.56
270.77	309.56
271.002	303.56
271.234	295.56
271.466	307.56
271.698	316.56
271.93	308.56
272.162	314.56
272.394	313.56
272.626	305.56
272.858	295.56
273.09	289.56
273.322	284.56
273.553	267.56
273.785	275.56
274.017	282.56
274.249	261.56
274.481	283.56
274.713	258.56
274.945	263.56
275.176	276.56
275.408	269.56
275.64	281.56
275.872	276.56
276.104	286.56
276.335	290.56
276.567	283.56
276.799	278.56
277.031	308.56
277.262	341.56
277.494	317.56
277.726	304.56
277.957	307.56
278.189	292.56
278.421	286.56
278.652	297.56
278.884	264.56
279.115	287.56
279.347	283.56
279.579	276.56
279.81	287.56
280.042	267.56
280.273	273.56
280.505	269.56
280.736	276.56
280.968	287.56
281.199	293.56
281.431	261.56
281.662	290.56
281.894	301.56
282.125	294.56
282.356	289.56
282.588	303.56
282.819	321.56
283.051	303.56
283.282	289.56
283.513	282.56
283.745	303.56
283.976	308.56
284.207	290.56
284.439	295.56
284.67	296.56
284.901	298.56
285.132	300.56
285.364	303.56
285.595	292.56
285.826	292.56
286.057	291.56
286.288	285.56
286.52	297.56
286.751	288.56
286.982	303.56
287.213	306.56
287.444	305.56
287.675	301.56
287.906	313.56
288.138	321.56
288.369	307.56
288.6	328.56
288.831	333.56
289.062	311.56
289.293	319.56
289.524	304.56
289.755	316.56
289.986	301.56
290.217	307.56
290.448	310.56
290.679	308.56
290.91	305.56
291.141	296.56
291.371	321.56
291.602	307.56
291.833	308.56
292.064	288.56
292.295	308.56
292.526	319.56
292.757	315.56
292.987	331.56
293.218	318.56
293.449	306.56
293.68	308.56
293.91	317.56
294.141	305.56
294.372	306.56
294.603	329.56
294.833	312.56
295.064	315.56
295.295	319.56
295.525	326.56
295.756	312.56
295.987	309.56
296.217	329.56
296.448	348.56
296.679	338.56
296.909	321.56
297.14	327.56
297.37	349.56
297.601	340.56
297.831	299.56
298.062	322.56
298.292	327.56
298.523	318.56
298.753	343.56
298.984	307.56
299.214	353.56
299.445	327.56
299.675	344.56
299.905	336.56
300.136	325.56
300.366	333.56
300.597	326.56
300.827	336.56
301.057	350.56
301.288	334.56
301.518	340.56
301.748	348.56
301.979	343.56
302.209	346.56
302.439	351.56
302.669	346.56
302.9	359.56
303.13	339.56
303.36	347.56
303.59	353.56
303.82	360.56
304.051	360.56
304.281	347.56
304.511	337.56
304.741	348.56
304.971	336.56
305.201	343.56
305.431	349.56
305.661	369.56
305.891	350.56
306.121	347.56
306.352	364.56
306.582	360.56
306.812	348.56
307.042	344.56
307.272	356.56
307.502	360.56
307.731	367.56
307.961	356.56
308.191	345.56
308.421	344.56
308.651	347.56
308.881	348.56
309.111	328.56
309.341	364.56
309.571	368.56
309.8	379.56
310.03	360.56
310.26	377.56
310.49	389.56
310.72	401.56
310.949	399.56
311.179	409.56
311.409	381.56
311.639	381.56
311.868	387.56
312.098	389.56
312.328	384.56
312.557	403.56
312.787	402.56
313.017	412.56
313.246	392.56
313.476	392.56
313.706	396.56
313.935	390.56
314.165	403.56
314.394	394.56
314.624	420.56
314.853	398.56
315.083	403.56
315.312	386.56
315.542	381.56
315.771	401.56
316.001	409.56
316.23	399.56
316.46	381.56
316.689	399.56
316.919	393.56
317.148	397.56
317.377	409.56
317.607	419.56
317.836	393.56
318.065	383.56
318.295	387.56
318.524	396.56
318.753	380.56
318.983	383.56
319.212	397.56
319.441	416.56
319.67	400.56
319.9	376.56
320.129	383.56
320.358	411.56
320.587	398.56
320.816	410.56
321.046	419.56
321.275	413.56
321.504	399.56
321.733	409.56
321.962	417.56
322.191	441.56
322.42	436.56
322.649	437.56
322.878	446.56
323.108	447.56
323.337	460.56
323.566	494.56
323.795	516.56
324.024	517.56
324.253	640.56
324.482	828.56
324.71	1299.56
324.939	1909.56
325.168	1668.56
325.397	868.56
325.626	612.56
325.855	519.56
326.084	469.56
326.313	479.56
326.542	485.56
326.77	513.56
326.999	578.56
327.228	802.56
327.457	1166.56
327.686	1473.56
327.914	991.56
328.143	676.56
328.372	597.56
328.6	560.56
328.829	533.56
329.058	559.56
329.287	549.56
329.515	529.56
329.744	515.56
329.972	486.56
330.201	513.56
330.43	551.56
330.658	559.56
330.887	564.56
331.115	582.56
331.344	531.56
331.572	511.56
331.801	489.56
332.03	509.56
332.258	498.56
332.486	469.56
332.715	470.56
332.943	500.56
333.172	487.56
333.4	529.56
333.629	505.56
333.857	512.56
334.085	528.56
334.314	545.56
334.542	583.56
334.771	587.56
334.999	539.56
335.227	498.56
335.455	499.56
335.684	472.56
335.912	483.56
336.14	457.56
336.369	483.56
336.597	474.56
336.825	487.56
337.053	476.56
337.281	454.56
337.51	434.56
337.738	481.56
337.966	465.56
338.194	471.56
338.422	449.56
338.65	466.56
338.878	479.56
339.106	437.56
339.334	470.56
339.562	443.56
339.79	464.56
340.018	462.56
340.246	460.56
340.474	440.56
340.702	449.56
340.93	461.56
341.158	449.56
341.386	427.56
341.614	449.56
341.842	461.56
342.07	456.56
342.298	449.56
342.526	423.56
342.754	435.56
342.981	420.56
343.209	442.56
343.437	448.56
343.665	462.56
343.893	474.56
344.12	468.56
344.348	475.56
344.576	468.56
344.804	458.56
345.031	478.56
345.259	472.56
345.487	457.56
345.714	459.56
345.942	430.56
346.17	414.56
346.397	425.56
346.625	448.56
346.853	441.56
347.08	445.56
347.308	457.56
347.535	436.56
347.763	444.56
347.99	444.56
348.218	440.56
348.445	428.56
348.673	440.56
348.9	438.56
349.128	431.56
349.355	444.56
349.583	420.56
349.81	412.56
350.037	421.56
350.265	431.56
350.492	406.56
350.72	411.56
350.947	438.56
351.174	439.56
351.402	459.56
351.629	440.56
351.856	456.56
352.083	431.56
352.311	444.56
352.538	443.56
352.765	456.56
352.992	451.56
353.22	444.56
353.447	435.56
353.674	408.56
353.901	397.56
354.128	426.56
354.355	440.56
354.583	437.56
354.81	403.56
355.037	399.56
355.264	423.56
355.491	417.56
355.718	409.56
355.945	404.56
356.172	415.56
356.399	431.56
356.626	411.56
356.853	416.56
357.08	425.56
357.307	423.56
357.534	436.56
357.761	397.56
357.988	413.56
358.215	424.56
358.441	415.56
358.668	425.56
358.895	432.56
359.122	405.56
359.349	439.56
359.576	449.56
359.802	449.56
360.029	455.56
360.256	472.56
360.483	449.56
360.709	437.56
360.936	442.56
361.163	443.56
361.39	439.56
361.616	453.56
361.843	422.56
362.07	431.56
362.296	444.56
362.523	437.56
362.749	444.56
362.976	439.56
363.203	439.56
363.429	426.56
363.656	425.56
363.882	432.56
364.109	471.56
364.335	415.56
364.562	429.56
364.788	415.56
365.015	437.56
365.241	406.56
365.468	428.56
365.694	421.56
365.92	436.56
366.147	429.56
366.373	421.56
366.599	430.56
366.826	431.56
367.052	425.56
367.278	436.56
367.505	428.56
367.731	419.56
367.957	411.56
368.184	440.56
368.41	421.56
368.636	435.56
368.862	427.56
369.089	429.56
369.315	428.56
369.541	439.56
369.767	427.56
369.993	436.56
370.219	448.56
370.445	417.56
370.672	412.56
370.898	423.56
371.124	423.56
371.35	421.56
371.576	426.56
371.802	426.56
372.028	450.56
372.254	431.56
372.48	411.56
372.706	422.56
372.932	436.56
373.158	425.56
373.384	445.56
373.61	443.56
373.835	440.56
374.061	456.56
374.287	424.56
374.513	453.56
374.739	437.56
374.965	457.56
375.191	435.56
375.416	446.56
375.642	434.56
375.868	435.56
376.094	421.56
376.319	455.56
376.545	428.56
376.771	431.56
376.997	445.56
377.222	424.56
377.448	433.56
377.674	436.56
377.899	442.56
378.125	450.56
378.35	428.56
378.576	438.56
378.802	427.56
379.027	443.56
379.253	435.56
379.478	424.56
379.704	426.56
379.929	441.56
380.155	443.56
380.38	427.56
380.606	428.56
380.831	423.56
381.057	445.56
381.282	449.56
381.507	435.56
381.733	435.56
381.958	439.56
382.184	442.56
382.409	455.56
382.634	453.56
382.86	451.56
383.085	448.56
383.31	442.56
383.535	471.56
383.761	434.56
383.986	457.56
384.211	465.56
384.436	487.56
384.662	455.56
384.887	473.56
385.112	473.56
385.337	464.56
385.562	468.56
385.787	471.56
386.013	489.56
386.238	495.56
386.463	495.56
386.688	482.56
386.913	487.56
387.138	492.56
387.363	473.56
387.588	479.56
387.813	467.56
388.038	476.56
388.263	474.56
388.488	474.56
388.713	499.56
388.938	490.56
389.163	497.56
389.387	481.56
389.612	489.56
389.837	495.56
390.062	481.56
390.287	479.56
390.512	476.56
390.736	475.56
390.961	487.56
391.186	497.56
391.411	503.56
391.636	484.56
391.86	503.56
392.085	490.56
392.31	505.56
392.534	519.56
392.759	504.56
392.984	510.56
393.208	477.56
393.433	481.56
393.658	506.56
393.882	488.56
394.107	492.56
394.331	495.56
394.556	494.56
394.78	496.56
395.005	504.56
395.229	492.56
395.454	482.56
395.678	534.56
395.903	539.56
396.127	539.56
396.352	548.56
396.576	508.56
396.801	492.56
397.025	520.56
397.249	524.56
397.474	503.56
397.698	526.56
397.922	531.56
398.147	547.56
398.371	555.56
398.595	559.56
398.82	573.56
399.044	597.56
399.268	587.56
399.492	630.56
399.717	689.56
399.941	725.56
400.165	744.56
400.389	712.56
400.613	632.56
400.837	601.56
401.062	573.56
401.286	562.56
401.51	594.56
401.734	564.56
401.958	567.56
402.182	590.56
402.406	603.56
402.63	595.56
402.854	601.56
403.078	597.56
403.302	589.56
403.526	599.56
403.75	604.56
403.974	606.56
404.198	609.56
404.422	584.56
404.645	598.56
404.869	615.56
405.093	637.56
405.317	685.56
405.541	732.56
405.765	672.56
405.988	625.56
406.212	631.56
406.436	637.56
406.66	659.56
406.883	643.56
407.107	647.56
407.331	715.56
407.555	788.56
407.778	759.56
408.002	729.56
408.226	665.56
408.449	664.56
408.673	648.56
408.896	675.56
409.12	701.56
409.344	665.56
409.567	619.56
409.791	599.56
410.014	593.56
410.238	608.56
410.461	603.56
410.685	611.56
410.908	613.56
411.132	638.56
411.355	634.56
411.578	632.56
411.802	620.56
412.025	596.56
412.249	588.56
412.472	632.56
412.695	665.56
412.919	649.56
413.142	610.56
413.365	566.56
413.589	601.56
413.812	554.56
414.035	561.56
414.258	579.56
414.482	591.56
414.705	574.56
414.928	563.56
415.151	543.56
415.374	572.56
415.597	553.56
415.821	554.56
416.044	541.56
416.267	541.56
416.49	550.56
416.713	538.56
416.936	552.56
417.159	537.56
417.382	567.56
417.605	567.56
417.828	564.56
418.051	590.56
418.274	575.56
418.497	555.56
418.72	563.56
418.943	549.56
419.166	602.56
419.389	612.56
419.611	604.56
419.834	603.56
420.057	576.56
420.28	608.56
420.503	596.56
420.726	582.56
420.948	593.56
421.171	647.56
421.394	679.56
421.617	592.56
421.839	571.56
422.062	604.56
422.285	591.56
422.507	653.56
422.73	721.56
422.953	718.56
423.175	637.56
423.398	604.56
423.621	601.56
423.843	633.56
424.066	633.56
424.288	617.56
424.511	640.56
424.733	700.56
424.956	757.56
425.178	734.56
425.401	751.56
425.623	763.56
425.846	669.56
426.068	603.56
426.291	621.56
426.513	634.56
426.735	619.56
426.958	659.56
427.18	731.56
427.402	863.56
427.625	951.56
427.847	841.56
428.069	727.56
428.292	654.56
428.514	604.56
428.736	590.56
428.958	585.56
429.181	560.56
429.403	552.56
429.625	580.56
429.847	617.56
430.069	675.56
430.292	648.56
430.514	579.56
430.736	563.56
430.958	559.56
431.18	551.56
431.402	517.56
431.624	526.56
431.846	543.56
432.068	549.56
432.29	536.56
432.512	539.56
432.734	552.56
432.956	558.56
433.178	545.56
433.4	558.56
433.622	575.56
433.844	540.56
434.066	530.56
434.287	550.56
434.509	530.56
434.731	568.56
434.953	574.56
435.175	604.56
435.397	616.56
435.618	631.56
435.84	643.56
436.062	749.56
436.284	808.56
436.505	665.56
436.727	619.56
436.949	571.56
437.17	563.56
437.392	562.56
437.614	567.56
437.835	590.56
438.057	662.56
438.278	817.56
438.5	800.56
438.721	895.56
438.943	852.56
439.165	669.56
439.386	638.56
439.608	603.56
439.829	611.56
440.05	649.56
440.272	657.56
440.493	632.56
440.715	600.56
440.936	597.56
441.158	572.56
441.379	572.56
441.6	604.56
441.822	611.56
442.043	666.56
442.264	765.56
442.486	772.56
442.707	658.56
442.928	624.56
443.149	626.56
443.371	665.56
443.592	674.56
443.813	805.56
444.034	858.56
444.255	698.56
444.476	644.56
444.698	637.56
444.919	651.56
445.14	749.56
445.361	703.56
445.582	669.56
445.803	717.56
446.024	816.56
446.245	836.56
446.466	771.56
446.687	689.56
446.908	619.56
447.129	578.56
447.35	563.56
447.571	556.56
447.792	543.56
448.013	567.56
448.234	570.56
448.455	620.56
448.675	733.56
448.896	850.56
449.117	711.56
449.338	693.56
449.559	781.56
449.779	908.56
450	732.56
450.221	606.56
450.442	567.56
450.662	543.56
450.883	547.56
451.104	542.56
451.324	542.56
451.545	504.56
451.766	504.56
451.986	528.56
452.207	491.56
452.428	499.56
452.648	515.56
452.869	504.56
453.089	483.56
453.31	533.56
453.53	511.56
453.751	502.56
453.971	499.56
454.192	507.56
454.412	514.56
454.633	503.56
454.853	495.56
455.073	506.56
455.294	508.56
455.514	585.56
455.734	571.56
455.955	509.56
456.175	490.56
456.395	468.56
456.616	476.56
456.836	457.56
457.056	479.56
457.276	475.56
457.497	479.56
457.717	478.56
457.937	491.56
458.157	493.56
458.377	481.56
458.598	513.56
458.818	561.56
459.038	626.56
459.258	661.56
459.478	564.56
459.698	547.56
459.918	537.56
460.138	550.56
460.358	570.56
460.578	571.56
460.798	565.56
461.018	564.56
461.238	553.56
461.458	580.56
461.678	553.56
461.898	559.56
462.118	544.56
462.338	582.56
462.558	572.56
462.777	616.56
462.997	619.56
463.217	644.56
463.437	641.56
463.657	608.56
463.876	598.56
464.096	590.56
464.316	606.56
464.536	618.56
464.755	592.56
464.975	602.56
465.195	607.56
465.414	652.56
465.634	599.56
465.854	568.56
466.073	553.56
466.293	513.56
466.512	526.56
466.732	519.56
466.951	512.56
467.171	521.56
467.391	531.56
467.61	525.56
467.829	529.56
468.049	519.56
468.268	535.56
468.488	515.56
468.707	509.56
468.927	510.56
469.146	514.56
469.365	523.56
469.585	515.56
469.804	520.56
470.023	525.56
470.243	525.56
470.462	560.56
470.681	545.56
470.901	537.56
471.12	522.56
471.339	523.56
471.558	554.56
471.777	506.56
471.997	484.56
472.216	539.56
472.435	539.56
472.654	539.56
472.873	514.56
473.092	514.56
473.311	505.56
473.53	507.56
473.749	541.56
473.968	574.56
474.187	678.56
474.406	708.56
474.625	583.56
474.844	533.56
475.063	523.56
475.282	539.56
475.501	529.56
475.72	525.56
475.939	533.56
476.158	532.56
476.377	550.56
476.596	550.56
476.814	541.56
477.033	547.56
477.252	552.56
477.471	535.56
477.69	563.56
477.908	568.56
478.127	601.56
478.346	572.56
478.564	585.56
478.783	626.56
479.002	598.56
479.22	619.56
479.439	629.56
479.658	631.56
479.876	611.56
480.095	652.56
480.313	675.56
480.532	657.56
480.751	655.56
480.969	653.56
481.188	691.56
481.406	745.56
481.624	680.56
481.843	648.56
482.061	643.56
482.28	603.56
482.498	634.56
482.717	609.56
482.935	633.56
483.153	613.56
483.372	620.56
483.59	604.56
483.808	621.56
484.027	614.56
484.245	620.56
484.463	624.56
484.681	621.56
484.9	649.56
485.118	636.56
485.336	634.56
485.554	654.56
485.772	609.56
485.99	619.56
486.209	624.56
486.427	631.56
486.645	674.56
486.863	655.56
487.081	644.56
487.299	662.56
487.517	659.56
487.735	635.56
487.953	674.56
488.171	675.56
488.389	668.56
488.607	634.56
488.825	653.56
489.043	663.56
489.261	671.56
489.479	656.56
489.696	670.56
489.914	690.56
490.132	716.56
490.35	676.56
490.568	684.56
490.786	703.56
491.003	739.56
491.221	741.56
491.439	739.56
491.657	728.56
491.874	772.56
492.092	744.56
492.31	762.56
492.527	772.56
492.745	754.56
492.963	765.56
493.18	764.56
493.398	787.56
493.615	779.56
493.833	785.56
494.05	771.56
494.268	760.56
494.485	779.56
494.703	795.56
494.92	800.56
495.138	795.56
495.355	807.56
495.573	799.56
495.79	800.56
496.008	796.56
496.225	781.56
496.442	782.56
496.66	778.56
496.877	794.56
497.094	800.56
497.312	801.56
497.529	810.56
497.746	825.56
497.963	853.56
498.181	856.56
498.398	851.56
498.615	894.56
498.832	917.56
499.049	948.56
499.267	960.56
499.484	962.56
499.701	1060.56
499.918	1100.56
500.135	1169.56
500.352	1241.56
500.569	1229.56
500.786	1245.56
501.003	1239.56
501.22	1142.56
501.437	1136.56
501.654	1104.56
501.871	1033.56
502.088	1013.56
502.305	972.56
502.522	936.56
502.739	901.56
502.956	848.56
503.172	864.56
503.389	827.56
503.606	849.56
503.823	809.56
504.04	821.56
504.256	776.56
504.473	789.56
504.69	803.56
504.907	795.56
505.123	768.56
505.34	791.56
505.557	778.56
505.773	768.56
505.99	756.56
506.207	747.56
506.423	701.56
506.64	711.56
506.856	722.56
507.073	691.56
507.289	730.56
507.506	711.56
507.722	690.56
507.939	714.56
508.155	715.56
508.372	689.56
508.588	681.56
508.805	677.56
509.021	675.56
509.238	691.56
509.454	697.56
509.67	717.56
509.887	690.56
510.103	678.56
510.319	691.56
510.536	752.56
510.752	1119.56
510.968	937.56
511.184	682.56
511.401	653.56
511.617	665.56
511.833	655.56
512.049	642.56
512.265	652.56
512.481	682.56
512.698	643.56
512.914	644.56
513.13	634.56
513.346	648.56
513.562	649.56
513.778	646.56
513.994	650.56
514.21	667.56
514.426	657.56
514.642	715.56
514.858	700.56
515.074	744.56
515.29	852.56
515.506	1111.56
515.721	982.56
515.937	736.56
516.153	701.56
516.369	687.56
516.585	697.56
516.801	675.56
517.016	696.56
517.232	695.56
517.448	704.56
517.664	700.56
517.879	711.56
518.095	689.56
518.311	694.56
518.527	678.56
518.742	677.56
518.958	673.56
519.173	667.56
519.389	663.56
519.605	652.56
519.82	657.56
520.036	671.56
520.251	660.56
520.467	679.56
520.682	693.56
520.898	684.56
521.113	678.56
521.329	720.56
521.544	761.56
521.76	905.56
521.975	1384.56
522.19	1365.56
522.406	834.56
522.621	672.56
522.836	647.56
523.052	620.56
523.267	605.56
523.482	597.56
523.698	603.56
523.913	600.56
524.128	565.56
524.343	561.56
524.559	583.56
524.774	551.56
524.989	557.56
525.204	565.56
525.419	584.56
525.634	561.56
525.849	559.56
526.064	570.56
526.28	569.56
526.495	545.56
526.71	533.56
526.925	554.56
527.14	536.56
527.355	547.56
527.57	524.56
527.785	527.56
527.999	525.56
528.214	535.56
528.429	546.56
528.644	537.56
528.859	529.56
529.074	519.56
529.289	552.56
529.503	607.56
529.718	605.56
529.933	575.56
530.148	556.56
530.363	561.56
530.577	533.56
530.792	526.56
531.007	509.56
531.221	548.56
531.436	549.56
531.651	530.56
531.865	511.56
532.08	516.56
532.295	519.56
532.509	511.56
532.724	525.56
532.938	512.56
533.153	531.56
533.367	528.56
533.582	518.56
533.796	514.56
534.011	533.56
534.225	502.56
534.44	507.56
534.654	525.56
534.868	536.56
535.083	526.56
535.297	539.56
535.511	551.56
535.726	540.56
535.94	514.56
536.154	495.56
536.369	501.56
536.583	479.56
536.797	506.56
537.011	494.56
537.225	491.56
537.44	495.56
537.654	511.56
537.868	487.56
538.082	491.56
538.296	496.56
538.51	523.56
538.724	503.56
538.938	515.56
539.153	491.56
539.367	501.56
539.581	492.56
539.795	499.56
540.009	487.56
540.222	502.56
540.436	491.56
540.65	511.56
540.864	487.56
541.078	504.56
541.292	510.56
541.506	489.56
541.72	488.56
541.934	497.56
542.147	491.56
542.361	510.56
542.575	481.56
542.789	490.56
543.002	471.56
543.216	487.56
543.43	471.56
543.644	498.56
543.857	496.56
544.071	501.56
544.285	500.56
544.498	497.56
544.712	496.56
544.925	495.56
545.139	489.56
545.352	501.56
545.566	483.56
545.779	488.56
545.993	487.56
546.206	499.56
546.42	487.56
546.633	485.56
546.847	476.56
547.06	490.56
547.274	482.56
547.487	472.56
547.7	482.56
547.914	495.56
548.127	475.56
548.34	495.56
548.554	490.56
548.767	488.56
548.98	482.56
549.193	510.56
549.407	465.56
549.62	507.56
549.833	475.56
550.046	482.56
550.259	483.56
550.473	495.56
550.686	473.56
550.899	484.56
551.112	459.56
551.325	477.56
551.538	478.56
551.751	479.56
551.964	482.56
552.177	477.56
552.39	463.56
552.603	512.56
552.816	492.56
553.029	483.56
553.242	488.56
553.455	515.56
553.667	514.56
553.88	499.56
554.093	516.56
554.306	493.56
554.519	498.56
554.732	485.56
554.944	469.56
555.157	455.56
555.37	429.56
555.583	474.56
555.795	496.56
556.008	456.56
556.221	443.56
556.433	454.56
556.646	456.56
556.859	436.56
557.071	447.56
557.284	435.56
557.496	427.56
557.709	439.56
557.921	425.56
558.134	427.56
558.346	441.56
558.559	426.56
558.771	413.56
558.984	411.56
559.196	429.56
559.409	434.56
559.621	442.56
559.833	451.56
560.046	439.56
560.258	417.56
560.47	409.56
560.683	408.56
560.895	422.56
561.107	428.56
561.32	413.56
561.532	420.56
561.744	422.56
561.956	441.56
562.168	428.56
562.381	424.56
562.593	409.56
562.805	432.56
563.017	417.56
563.229	431.56
563.441	447.56
563.653	418.56
563.865	429.56
564.077	469.56
564.289	433.56
564.501	451.56
564.713	422.56
564.925	454.56
565.137	474.56
565.349	469.56
565.561	459.56
565.773	488.56
565.985	485.56
566.197	533.56
566.408	531.56
566.62	542.56
566.832	572.56
567.044	570.56
567.255	557.56
567.467	571.56
567.679	577.56
567.891	602.56
568.102	586.56
568.314	566.56
568.526	567.56
568.737	535.56
568.949	498.56
569.161	484.56
569.372	476.56
569.584	466.56
569.795	466.56
570.007	454.56
570.218	480.56
570.43	477.56
570.641	444.56
570.853	433.56
571.064	417.56
571.276	448.56
571.487	435.56
571.698	420.56
571.91	420.56
572.121	411.56
572.333	389.56
572.544	388.56
572.755	389.56
572.966	408.56
573.178	375.56
573.389	369.56
573.6	355.56
573.811	383.56
574.023	378.56
574.234	364.56
574.445	373.56
574.656	368.56
574.867	364.56
575.078	377.56
575.289	364.56
575.501	381.56
575.712	373.56
575.923	349.56
576.134	332.56
576.345	361.56
576.556	372.56
576.767	359.56
576.978	357.56
577.188	350.56
577.399	360.56
577.61	352.56
577.821	344.56
578.032	348.56
578.243	391.56
578.454	539.56
578.665	428.56
578.875	362.56
579.086	319.56
579.297	352.56
579.508	353.56
579.718	332.56
579.929	335.56
580.14	346.56
580.35	347.56
580.561	367.56
580.772	338.56
580.982	345.56
581.193	333.56
581.403	338.56
581.614	322.56
581.825	329.56
582.035	315.56
582.246	315.56
582.456	346.56
582.667	354.56
582.877	340.56
583.087	321.56
583.298	329.56
583.508	332.56
583.719	337.56
583.929	335.56
584.139	331.56
584.35	343.56
584.56	337.56
584.77	330.56
584.981	344.56
585.191	313.56
585.401	339.56
585.611	322.56
585.821	324.56
586.032	311.56
586.242	317.56
586.452	323.56
586.662	314.56
586.872	319.56
587.082	321.56
587.292	308.56
587.502	314.56
587.713	309.56
587.923	325.56
588.133	319.56
588.343	300.56
588.553	325.56
588.762	290.56
588.972	315.56
589.182	322.56
589.392	310.56
589.602	307.56
589.812	315.56
590.022	317.56
590.232	322.56
590.441	344.56
590.651	324.56
590.861	331.56
591.071	349.56
591.281	325.56
591.49	307.56
591.7	294.56
591.91	311.56
592.119	322.56
592.329	355.56
592.539	343.56
592.748	328.56
592.958	351.56
593.167	354.56
593.377	346.56
593.587	356.56
593.796	351.56
594.006	369.56
594.215	358.56
594.424	340.56
594.634	362.56
594.843	355.56
595.053	335.56
595.262	350.56
595.472	359.56
595.681	324.56
595.89	329.56
596.1	324.56
596.309	292.56
596.518	331.56
596.727	304.56
596.937	313.56
597.146	289.56
597.355	293.56
597.564	298.56
597.774	298.56
597.983	300.56
598.192	307.56
598.401	298.56
598.61	291.56
598.819	283.56
599.028	300.56
599.237	284.56
599.446	284.56
599.655	269.56
599.864	279.56
600.073	283.56
600.282	287.56
600.491	275.56
600.7	280.56
600.909	286.56
601.118	291.56
601.327	282.56
601.536	287.56
601.745	290.56
601.953	283.56
602.162	287.56
602.371	258.56
602.58	291.56
602.789	273.56
602.997	290.56
603.206	267.56
603.415	295.56
603.623	262.56
603.832	279.56
604.041	288.56
604.249	261.56
604.458	276.56
604.666	261.56
604.875	263.56
605.084	266.56
605.292	269.56
605.501	271.56
605.709	277.56
605.918	266.56
606.126	270.56
606.334	267.56
606.543	269.56
606.751	261.56
606.96	277.56
607.168	270.56
607.376	256.56
607.585	253.56
607.793	271.56
608.001	267.56
608.21	237.56
608.418	275.56
608.626	257.56
608.834	270.56
609.043	257.56
609.251	263.56
609.459	275.56
609.667	265.56
609.875	251.56
610.083	252.56
610.291	263.56
610.499	269.56
610.707	269.56
610.916	277.56
611.124	276.56
611.332	282.56
611.54	280.56
611.748	265.56
611.955	270.56
612.163	255.56
612.371	250.56
612.579	247.56
612.787	258.56
612.995	277.56
613.203	260.56
613.411	254.56
613.618	249.56
613.826	260.56
614.034	249.56
614.242	252.56
614.449	234.56
614.657	233.56
614.865	239.56
615.072	255.56
615.28	248.56
615.488	270.56
615.695	253.56
615.903	250.56
616.111	275.56
616.318	279.56
616.526	255.56
616.733	246.56
616.941	251.56
617.148	253.56
617.356	268.56
617.563	244.56
617.771	267.56
617.978	236.56
618.185	259.56
618.393	240.56
618.6	255.56
618.807	240.56
619.015	236.56
619.222	250.56
619.429	261.56
619.637	273.56
619.844	250.56
620.051	241.56
620.258	232.56
620.466	234.56
620.673	242.56
620.88	243.56
621.087	247.56
621.294	243.56
621.501	249.56
621.708	236.56
621.915	255.56
622.122	237.56
622.329	241.56
622.536	235.56
622.743	222.56
622.95	245.56
623.157	247.56
623.364	224.56
623.571	244.56
623.778	222.56
623.985	239.56
624.192	237.56
624.399	224.56
624.606	239.56
624.812	225.56
625.019	226.56
625.226	227.56
625.433	232.56
625.639	227.56
625.846	233.56
626.053	229.56
626.259	235.56
626.466	226.56
626.673	210.56
626.879	212.56
627.086	214.56
627.293	224.56
627.499	236.56
627.706	245.56
627.912	228.56
628.119	226.56
628.325	223.56
628.532	218.56
628.738	227.56
628.945	211.56
629.151	227.56
629.357	216.56
629.564	223.56
629.77	200.56
629.976	215.56
630.183	212.56
630.389	222.56
630.595	216.56
630.802	191.56
631.008	198.56
631.214	202.56
631.42	194.56
631.627	211.56
631.833	206.56
632.039	193.56
632.245	200.56
632.451	224.56
632.657	205.56
632.863	206.56
633.069	211.56
633.275	189.56
633.481	198.56
633.688	205.56
633.893	219.56
634.099	200.56
634.305	199.56
634.511	195.56
634.717	192.56
634.923	188.56
635.129	185.56
635.335	185.56
635.541	189.56
635.747	191.56
635.952	189.56
636.158	199.56
636.364	219.56
636.57	209.56
636.775	193.56
636.981	202.56
637.187	193.56
637.392	195.56
637.598	202.56
637.804	182.56
638.009	203.56
638.215	184.56
638.421	197.56
638.626	180.56
638.832	186.56
639.037	172.56
639.243	196.56
639.448	189.56
639.654	197.56
639.859	192.56
640.065	183.56
640.27	181.56
640.475	183.56
640.681	164.56
640.886	189.56
641.091	198.56
641.297	179.56
641.502	169.56
641.707	186.56
641.913	177.56
642.118	188.56
642.323	195.56
642.528	181.56
642.733	185.56
642.939	188.56
643.144	189.56
643.349	193.56
643.554	181.56
643.759	178.56
643.964	184.56
644.169	188.56
644.374	163.56
644.579	174.56
644.784	167.56
644.989	181.56
645.194	182.56
645.399	163.56
645.604	179.56
645.809	165.56
646.014	188.56
646.219	177.56
646.423	175.56
646.628	167.56
646.833	176.56
647.038	170.56
647.243	151.56
647.447	180.56
647.652	187.56
647.857	186.56
648.062	177.56
648.266	177.56
648.471	176.56
648.676	177.56
648.88	187.56
649.085	164.56
649.289	185.56
649.494	167.56
649.698	205.56
649.903	210.56
650.107	184.56
650.312	175.56
650.516	189.56
650.721	165.56
650.925	148.56
651.13	161.56
651.334	159.56
651.539	155.56
651.743	155.56
651.947	152.56
652.152	147.56
652.356	167.56
652.56	144.56
652.764	157.56
652.969	139.56
653.173	140.56
653.377	145.56
653.581	159.56
653.785	138.56
653.99	147.56
654.194	146.56
654.398	137.56
654.602	141.56
654.806	134.56
655.01	143.56
655.214	151.56
655.418	141.56
655.622	123.56
655.826	127.56
656.03	126.56
656.234	141.56
656.438	145.56
656.642	133.56
656.846	139.56
657.049	149.56
657.253	130.56
657.457	139.56
657.661	141.56
657.865	136.56
658.068	116.56
658.272	117.56
658.476	124.56
658.68	100.56
658.883	104.56
659.087	103.56
659.291	104.56
659.494	109.56
659.698	107.56
659.901	111.56
660.105	98.56
660.309	106.56
660.512	92.56
660.716	98.56
660.919	84.56
661.123	84.56
661.326	97.56
661.53	83.56
661.733	90.56
661.936	96.56
662.14	86.56
662.343	85.56
662.546	91.56
662.75	83.56
662.953	75.56
663.156	72.56
663.36	82.56
663.563	79.56
663.766	80.56
663.969	79.56
664.173	76.56
664.376	86.56
664.579	83.56
664.782	90.56
664.985	74.56
665.188	88.56
665.391	87.56
665.594	84.56
665.797	87.56
666	80.56
666.203	69.56
666.406	67.56
666.609	90.56
666.812	65.56
667.015	84.56
667.218	73.56
667.421	92.56
667.624	87.56
667.827	91.56
668.03	77.56
668.232	100.56
668.435	77.56
668.638	79.56
668.841	77.56
669.043	82.56
669.246	92.56
669.449	91.56
669.651	81.56
669.854	80.56
670.057	69.56
670.259	85.56
670.462	74.56
670.665	88.56
670.867	84.56
671.07	82.56
671.272	68.56
671.475	83.56
671.677	85.56
671.88	85.56
672.082	88.56
672.284	78.56
672.487	87.56
672.689	82.56
672.892	68.56
