Data from 1975.PennyLincolnUp.Lamp.En5.5.200Scan.071719.P1.Changed Mount._HRD10591_15-56-41-859.txt Node
Date: Thu Jul 18 15:56:41 EDT 2019
User: cochatt
Spectrometer: HR+D1059
Trigger mode: 1
Integration Time (sec): 1.000000E-1
Scans to average: 1
Electric dark correction enabled: true
Nonlinearity correction enabled: false
Boxcar width: 0
XAxis mode: Wavelengths
Number of Pixels in Spectrum: 2048
>>>>>Begin Spectral Data<<<<<
223.165	-34.19
223.4	-34.19
223.635	-34.19
223.869	-25.19
224.104	-5.19
224.338	-13.19
224.573	-10.19
224.808	-11.19
225.042	-1.19
225.277	-5.19
225.511	-1.19
225.746	5.81
225.98	-2.19
226.215	12.81
226.449	10.81
226.683	25.81
226.918	22.81
227.152	30.81
227.387	31.81
227.621	37.81
227.856	35.81
228.09	50.81
228.324	55.81
228.559	55.81
228.793	59.81
229.027	89.81
229.262	96.81
229.496	101.81
229.73	145.81
229.964	152.81
230.199	120.81
230.433	96.81
230.667	119.81
230.901	107.81
231.136	115.81
231.37	118.81
231.604	107.81
231.838	116.81
232.072	107.81
232.306	116.81
232.541	124.81
232.775	108.81
233.009	118.81
233.243	121.81
233.477	108.81
233.711	119.81
233.945	125.81
234.179	106.81
234.413	119.81
234.647	100.81
234.881	110.81
235.115	104.81
235.349	99.81
235.583	116.81
235.817	116.81
236.051	126.81
236.285	130.81
236.519	120.81
236.753	135.81
236.987	136.81
237.221	171.81
237.455	207.81
237.689	187.81
237.922	134.81
238.156	141.81
238.39	150.81
238.624	116.81
238.858	125.81
239.091	122.81
239.325	131.81
239.559	132.81
239.793	139.81
240.027	152.81
240.26	146.81
240.494	154.81
240.728	149.81
240.961	154.81
241.195	137.81
241.429	145.81
241.662	143.81
241.896	136.81
242.13	131.81
242.363	136.81
242.597	142.81
242.83	139.81
243.064	141.81
243.298	123.81
243.531	132.81
243.765	136.81
243.998	113.81
244.232	143.81
244.465	155.81
244.699	156.81
244.932	143.81
245.166	151.81
245.399	134.81
245.633	143.81
245.866	139.81
246.099	146.81
246.333	144.81
246.566	150.81
246.8	161.81
247.033	179.81
247.266	183.81
247.5	188.81
247.733	177.81
247.966	155.81
248.2	176.81
248.433	167.81
248.666	169.81
248.899	185.81
249.133	193.81
249.366	218.81
249.599	189.81
249.832	188.81
250.066	176.81
250.299	173.81
250.532	195.81
250.765	214.81
250.998	227.81
251.231	214.81
251.465	210.81
251.698	194.81
251.931	189.81
252.164	193.81
252.397	190.81
252.63	204.81
252.863	200.81
253.096	210.81
253.329	220.81
253.562	223.81
253.795	214.81
254.028	217.81
254.261	197.81
254.494	223.81
254.727	237.81
254.96	263.81
255.193	266.81
255.426	230.81
255.659	228.81
255.892	213.81
256.124	233.81
256.357	229.81
256.59	206.81
256.823	212.81
257.056	219.81
257.289	213.81
257.521	194.81
257.754	201.81
257.987	206.81
258.22	202.81
258.452	214.81
258.685	209.81
258.918	214.81
259.151	210.81
259.383	224.81
259.616	226.81
259.849	230.81
260.081	238.81
260.314	276.81
260.547	256.81
260.779	241.81
261.012	224.81
261.244	235.81
261.477	230.81
261.71	230.81
261.942	213.81
262.175	234.81
262.407	242.81
262.64	230.81
262.872	212.81
263.105	221.81
263.337	214.81
263.57	206.81
263.802	225.81
264.035	207.81
264.267	218.81
264.499	218.81
264.732	229.81
264.964	230.81
265.197	232.81
265.429	213.81
265.661	218.81
265.894	220.81
266.126	234.81
266.358	215.81
266.591	222.81
266.823	227.81
267.055	237.81
267.287	237.81
267.52	226.81
267.752	229.81
267.984	228.81
268.216	212.81
268.448	248.81
268.681	244.81
268.913	256.81
269.145	263.81
269.377	274.81
269.609	274.81
269.841	282.81
270.073	276.81
270.306	285.81
270.538	308.81
270.77	282.81
271.002	296.81
271.234	285.81
271.466	285.81
271.698	297.81
271.93	304.81
272.162	317.81
272.394	315.81
272.626	308.81
272.858	284.81
273.09	283.81
273.322	277.81
273.553	267.81
273.785	280.81
274.017	262.81
274.249	266.81
274.481	280.81
274.713	271.81
274.945	280.81
275.176	270.81
275.408	268.81
275.64	277.81
275.872	270.81
276.104	266.81
276.335	286.81
276.567	270.81
276.799	269.81
277.031	288.81
277.262	306.81
277.494	313.81
277.726	287.81
277.957	277.81
278.189	292.81
278.421	278.81
278.652	266.81
278.884	274.81
279.115	278.81
279.347	276.81
279.579	276.81
279.81	274.81
280.042	292.81
280.273	262.81
280.505	290.81
280.736	269.81
280.968	293.81
281.199	277.81
281.431	276.81
281.662	286.81
281.894	285.81
282.125	283.81
282.356	303.81
282.588	309.81
282.819	305.81
283.051	299.81
283.282	266.81
283.513	282.81
283.745	283.81
283.976	295.81
284.207	276.81
284.439	291.81
284.67	276.81
284.901	304.81
285.132	286.81
285.364	288.81
285.595	276.81
285.826	295.81
286.057	308.81
286.288	291.81
286.52	308.81
286.751	292.81
286.982	295.81
287.213	310.81
287.444	286.81
287.675	305.81
287.906	308.81
288.138	327.81
288.369	310.81
288.6	300.81
288.831	304.81
289.062	292.81
289.293	275.81
289.524	300.81
289.755	312.81
289.986	308.81
290.217	304.81
290.448	289.81
290.679	288.81
290.91	302.81
291.141	301.81
291.371	300.81
291.602	311.81
291.833	296.81
292.064	311.81
292.295	308.81
292.526	300.81
292.757	310.81
292.987	324.81
293.218	311.81
293.449	299.81
293.68	307.81
293.91	302.81
294.141	301.81
294.372	300.81
294.603	302.81
294.833	313.81
295.064	313.81
295.295	309.81
295.525	313.81
295.756	308.81
295.987	296.81
296.217	326.81
296.448	341.81
296.679	323.81
296.909	296.81
297.14	303.81
297.37	308.81
297.601	328.81
297.831	307.81
298.062	309.81
298.292	324.81
298.523	316.81
298.753	324.81
298.984	325.81
299.214	299.81
299.445	315.81
299.675	313.81
299.905	332.81
300.136	327.81
300.366	327.81
300.597	326.81
300.827	340.81
301.057	323.81
301.288	327.81
301.518	347.81
301.748	341.81
301.979	346.81
302.209	341.81
302.439	354.81
302.669	345.81
302.9	342.81
303.13	341.81
303.36	352.81
303.59	344.81
303.82	317.81
304.051	357.81
304.281	342.81
304.511	346.81
304.741	327.81
304.971	337.81
305.201	343.81
305.431	329.81
305.661	338.81
305.891	338.81
306.121	322.81
306.352	336.81
306.582	336.81
306.812	334.81
307.042	325.81
307.272	357.81
307.502	348.81
307.731	326.81
307.961	333.81
308.191	339.81
308.421	314.81
308.651	349.81
308.881	338.81
309.111	357.81
309.341	340.81
309.571	344.81
309.8	357.81
310.03	375.81
310.26	380.81
310.49	369.81
310.72	376.81
310.949	378.81
311.179	399.81
311.409	384.81
311.639	374.81
311.868	374.81
312.098	386.81
312.328	389.81
312.557	402.81
312.787	427.81
313.017	414.81
313.246	389.81
313.476	381.81
313.706	384.81
313.935	371.81
314.165	402.81
314.394	391.81
314.624	403.81
314.853	388.81
315.083	388.81
315.312	378.81
315.542	370.81
315.771	391.81
316.001	374.81
316.23	381.81
316.46	375.81
316.689	382.81
316.919	365.81
317.148	388.81
317.377	386.81
317.607	394.81
317.836	380.81
318.065	372.81
318.295	369.81
318.524	375.81
318.753	380.81
318.983	380.81
319.212	374.81
319.441	396.81
319.67	402.81
319.9	386.81
320.129	391.81
320.358	405.81
320.587	380.81
320.816	400.81
321.046	381.81
321.275	413.81
321.504	401.81
321.733	392.81
321.962	386.81
322.191	392.81
322.42	402.81
322.649	422.81
322.878	424.81
323.108	426.81
323.337	452.81
323.566	459.81
323.795	478.81
324.024	513.81
324.253	598.81
324.482	799.81
324.71	1214.81
324.939	1783.81
325.168	1552.81
325.397	790.81
325.626	540.81
325.855	497.81
326.084	460.81
326.313	469.81
326.542	475.81
326.77	505.81
326.999	573.81
327.228	754.81
327.457	1084.81
327.686	1327.81
327.914	892.81
328.143	619.81
328.372	557.81
328.6	549.81
328.829	512.81
329.058	526.81
329.287	546.81
329.515	505.81
329.744	462.81
329.972	482.81
330.201	482.81
330.43	532.81
330.658	516.81
330.887	574.81
331.115	538.81
331.344	478.81
331.572	469.81
331.801	491.81
332.03	459.81
332.258	453.81
332.486	459.81
332.715	458.81
332.943	459.81
333.172	450.81
333.4	459.81
333.629	500.81
333.857	504.81
334.085	507.81
334.314	513.81
334.542	541.81
334.771	574.81
334.999	516.81
335.227	490.81
335.455	468.81
335.684	461.81
335.912	471.81
336.14	437.81
336.369	458.81
336.597	459.81
336.825	473.81
337.053	466.81
337.281	472.81
337.51	450.81
337.738	472.81
337.966	451.81
338.194	454.81
338.422	455.81
338.65	448.81
338.878	435.81
339.106	436.81
339.334	455.81
339.562	427.81
339.79	450.81
340.018	447.81
340.246	436.81
340.474	441.81
340.702	436.81
340.93	431.81
341.158	412.81
341.386	446.81
341.614	443.81
341.842	455.81
342.07	432.81
342.298	446.81
342.526	422.81
342.754	436.81
342.981	445.81
343.209	425.81
343.437	419.81
343.665	437.81
343.893	468.81
344.12	488.81
344.348	461.81
344.576	468.81
344.804	460.81
345.031	464.81
345.259	471.81
345.487	447.81
345.714	445.81
345.942	420.81
346.17	412.81
346.397	417.81
346.625	438.81
346.853	416.81
347.08	423.81
347.308	409.81
347.535	412.81
347.763	438.81
347.99	408.81
348.218	413.81
348.445	434.81
348.673	419.81
348.9	445.81
349.128	416.81
349.355	435.81
349.583	426.81
349.81	422.81
350.037	408.81
350.265	402.81
350.492	415.81
350.72	414.81
350.947	418.81
351.174	416.81
351.402	418.81
351.629	436.81
351.856	435.81
352.083	420.81
352.311	450.81
352.538	414.81
352.765	443.81
352.992	414.81
353.22	420.81
353.447	434.81
353.674	408.81
353.901	415.81
354.128	414.81
354.355	405.81
354.583	382.81
354.81	411.81
355.037	414.81
355.264	423.81
355.491	402.81
355.718	396.81
355.945	398.81
356.172	410.81
356.399	404.81
356.626	404.81
356.853	409.81
357.08	388.81
357.307	416.81
357.534	384.81
357.761	398.81
357.988	415.81
358.215	420.81
358.441	399.81
358.668	417.81
358.895	413.81
359.122	411.81
359.349	399.81
359.576	417.81
359.802	429.81
360.029	429.81
360.256	461.81
360.483	440.81
360.709	426.81
360.936	427.81
361.163	412.81
361.39	406.81
361.616	433.81
361.843	416.81
362.07	427.81
362.296	429.81
362.523	424.81
362.749	414.81
362.976	435.81
363.203	427.81
363.429	412.81
363.656	433.81
363.882	421.81
364.109	436.81
364.335	420.81
364.562	414.81
364.788	406.81
365.015	415.81
365.241	397.81
365.468	406.81
365.694	410.81
365.92	414.81
366.147	419.81
366.373	404.81
366.599	405.81
366.826	417.81
367.052	404.81
367.278	411.81
367.505	417.81
367.731	420.81
367.957	410.81
368.184	403.81
368.41	417.81
368.636	420.81
368.862	430.81
369.089	414.81
369.315	417.81
369.541	408.81
369.767	428.81
369.993	417.81
370.219	413.81
370.445	433.81
370.672	403.81
370.898	428.81
371.124	410.81
371.35	432.81
371.576	422.81
371.802	427.81
372.028	420.81
372.254	410.81
372.48	421.81
372.706	406.81
372.932	435.81
373.158	438.81
373.384	454.81
373.61	438.81
373.835	421.81
374.061	422.81
374.287	436.81
374.513	444.81
374.739	435.81
374.965	438.81
375.191	437.81
375.416	440.81
375.642	441.81
375.868	449.81
376.094	440.81
376.319	440.81
376.545	421.81
376.771	422.81
376.997	425.81
377.222	416.81
377.448	420.81
377.674	439.81
377.899	441.81
378.125	434.81
378.35	410.81
378.576	414.81
378.802	419.81
379.027	425.81
379.253	424.81
379.478	428.81
379.704	427.81
379.929	410.81
380.155	400.81
380.38	434.81
380.606	430.81
380.831	413.81
381.057	425.81
381.282	417.81
381.507	427.81
381.733	443.81
381.958	425.81
382.184	420.81
382.409	404.81
382.634	443.81
382.86	421.81
383.085	434.81
383.31	446.81
383.535	437.81
383.761	433.81
383.986	439.81
384.211	440.81
384.436	445.81
384.662	463.81
384.887	482.81
385.112	452.81
385.337	482.81
385.562	468.81
385.787	483.81
386.013	450.81
386.238	479.81
386.463	470.81
386.688	484.81
386.913	471.81
387.138	488.81
387.363	487.81
387.588	486.81
387.813	489.81
388.038	462.81
388.263	479.81
388.488	467.81
388.713	477.81
388.938	461.81
389.163	507.81
389.387	483.81
389.612	459.81
389.837	459.81
390.062	471.81
390.287	482.81
390.512	453.81
390.736	473.81
390.961	480.81
391.186	468.81
391.411	464.81
391.636	469.81
391.86	476.81
392.085	512.81
392.31	510.81
392.534	488.81
392.759	478.81
392.984	487.81
393.208	494.81
393.433	481.81
393.658	493.81
393.882	484.81
394.107	493.81
394.331	485.81
394.556	466.81
394.78	480.81
395.005	478.81
395.229	494.81
395.454	498.81
395.678	516.81
395.903	526.81
396.127	496.81
396.352	528.81
396.576	497.81
396.801	510.81
397.025	488.81
397.249	504.81
397.474	505.81
397.698	518.81
397.922	512.81
398.147	536.81
398.371	550.81
398.595	528.81
398.82	538.81
399.044	572.81
399.268	584.81
399.492	634.81
399.717	694.81
399.941	675.81
400.165	698.81
400.389	710.81
400.613	619.81
400.837	596.81
401.062	570.81
401.286	576.81
401.51	564.81
401.734	523.81
401.958	546.81
402.182	557.81
402.406	569.81
402.63	562.81
402.854	580.81
403.078	560.81
403.302	566.81
403.526	571.81
403.75	573.81
403.974	576.81
404.198	601.81
404.422	611.81
404.645	608.81
404.869	614.81
405.093	649.81
405.317	679.81
405.541	711.81
405.765	641.81
405.988	595.81
406.212	604.81
406.436	613.81
406.66	652.81
406.883	618.81
407.107	640.81
407.331	682.81
407.555	730.81
407.778	759.81
408.002	690.81
408.226	680.81
408.449	630.81
408.673	610.81
408.896	647.81
409.12	705.81
409.344	670.81
409.567	603.81
409.791	592.81
410.014	584.81
410.238	596.81
410.461	597.81
410.685	589.81
410.908	592.81
411.132	632.81
411.355	658.81
411.578	644.81
411.802	586.81
412.025	576.81
412.249	579.81
412.472	640.81
412.695	667.81
412.919	637.81
413.142	602.81
413.365	585.81
413.589	601.81
413.812	562.81
414.035	561.81
414.258	564.81
414.482	544.81
414.705	557.81
414.928	557.81
415.151	550.81
415.374	556.81
415.597	541.81
415.821	535.81
416.044	531.81
416.267	577.81
416.49	562.81
416.713	560.81
416.936	542.81
417.159	522.81
417.382	544.81
417.605	565.81
417.828	548.81
418.051	556.81
418.274	577.81
418.497	540.81
418.72	541.81
418.943	540.81
419.166	595.81
419.389	603.81
419.611	592.81
419.834	580.81
420.057	590.81
420.28	555.81
420.503	556.81
420.726	579.81
420.948	608.81
421.171	602.81
421.394	636.81
421.617	576.81
421.839	582.81
422.062	591.81
422.285	579.81
422.507	634.81
422.73	731.81
422.953	709.81
423.175	640.81
423.398	585.81
423.621	603.81
423.843	613.81
424.066	602.81
424.288	604.81
424.511	636.81
424.733	697.81
424.956	788.81
425.178	727.81
425.401	716.81
425.623	757.81
425.846	650.81
426.068	604.81
426.291	602.81
426.513	586.81
426.735	592.81
426.958	630.81
427.18	742.81
427.402	853.81
427.625	921.81
427.847	797.81
428.069	689.81
428.292	634.81
428.514	587.81
428.736	542.81
428.958	567.81
429.181	546.81
429.403	532.81
429.625	562.81
429.847	560.81
430.069	658.81
430.292	659.81
430.514	577.81
430.736	551.81
430.958	546.81
431.18	553.81
431.402	525.81
431.624	515.81
431.846	527.81
432.068	512.81
432.29	537.81
432.512	499.81
432.734	530.81
432.956	537.81
433.178	536.81
433.4	537.81
433.622	529.81
433.844	545.81
434.066	529.81
434.287	526.81
434.509	552.81
434.731	548.81
434.953	561.81
435.175	572.81
435.397	584.81
435.618	593.81
435.84	633.81
436.062	728.81
436.284	796.81
436.505	672.81
436.727	619.81
436.949	561.81
437.17	572.81
437.392	546.81
437.614	550.81
437.835	584.81
438.057	691.81
438.278	782.81
438.5	765.81
438.721	845.81
438.943	812.81
439.165	686.81
439.386	607.81
439.608	601.81
439.829	576.81
440.05	617.81
440.272	662.81
440.493	620.81
440.715	576.81
440.936	559.81
441.158	556.81
441.379	565.81
441.6	563.81
441.822	595.81
442.043	610.81
442.264	712.81
442.486	760.81
442.707	678.81
442.928	627.81
443.149	625.81
443.371	639.81
443.592	677.81
443.813	777.81
444.034	833.81
444.255	703.81
444.476	658.81
444.698	626.81
444.919	634.81
445.14	760.81
445.361	672.81
445.582	656.81
445.803	691.81
446.024	768.81
446.245	805.81
446.466	705.81
446.687	659.81
446.908	592.81
447.129	572.81
447.35	539.81
447.571	529.81
447.792	529.81
448.013	546.81
448.234	565.81
448.455	627.81
448.675	746.81
448.896	848.81
449.117	723.81
449.338	663.81
449.559	758.81
449.779	888.81
450	692.81
450.221	587.81
450.442	552.81
450.662	530.81
450.883	545.81
451.104	547.81
451.324	532.81
451.545	516.81
451.766	522.81
451.986	485.81
452.207	476.81
452.428	492.81
452.648	499.81
452.869	485.81
453.089	516.81
453.31	506.81
453.53	508.81
453.751	500.81
453.971	490.81
454.192	476.81
454.412	477.81
454.633	472.81
454.853	470.81
455.073	460.81
455.294	505.81
455.514	589.81
455.734	564.81
455.955	485.81
456.175	470.81
456.395	472.81
456.616	450.81
456.836	455.81
457.056	438.81
457.276	442.81
457.497	478.81
457.717	478.81
457.937	489.81
458.157	493.81
458.377	476.81
458.598	516.81
458.818	540.81
459.038	584.81
459.258	667.81
459.478	559.81
459.698	514.81
459.918	531.81
460.138	532.81
460.358	541.81
460.578	537.81
460.798	553.81
461.018	558.81
461.238	554.81
461.458	553.81
461.678	550.81
461.898	550.81
462.118	547.81
462.338	569.81
462.558	563.81
462.777	597.81
462.997	582.81
463.217	626.81
463.437	620.81
463.657	626.81
463.876	594.81
464.096	609.81
464.316	594.81
464.536	597.81
464.755	608.81
464.975	610.81
465.195	616.81
465.414	625.81
465.634	582.81
465.854	572.81
466.073	550.81
466.293	526.81
466.512	509.81
466.732	530.81
466.951	504.81
467.171	511.81
467.391	482.81
467.61	520.81
467.829	522.81
468.049	507.81
468.268	527.81
468.488	496.81
468.707	515.81
468.927	477.81
469.146	491.81
469.365	491.81
469.585	492.81
469.804	512.81
470.023	514.81
470.243	528.81
470.462	523.81
470.681	524.81
470.901	520.81
471.12	541.81
471.339	512.81
471.558	512.81
471.777	505.81
471.997	490.81
472.216	531.81
472.435	548.81
472.654	525.81
472.873	523.81
473.092	502.81
473.311	485.81
473.53	512.81
473.749	512.81
473.968	558.81
474.187	640.81
474.406	668.81
474.625	566.81
474.844	530.81
475.063	517.81
475.282	529.81
475.501	526.81
475.72	520.81
475.939	523.81
476.158	514.81
476.377	537.81
476.596	539.81
476.814	545.81
477.033	537.81
477.252	533.81
477.471	540.81
477.69	560.81
477.908	582.81
478.127	554.81
478.346	575.81
478.564	586.81
478.783	576.81
479.002	600.81
479.22	594.81
479.439	585.81
479.658	628.81
479.876	598.81
480.095	613.81
480.313	632.81
480.532	632.81
480.751	632.81
480.969	637.81
481.188	706.81
481.406	731.81
481.624	664.81
481.843	636.81
482.061	616.81
482.28	598.81
482.498	612.81
482.717	590.81
482.935	615.81
483.153	597.81
483.372	605.81
483.59	580.81
483.808	594.81
484.027	612.81
484.245	586.81
484.463	604.81
484.681	636.81
484.9	621.81
485.118	639.81
485.336	616.81
485.554	619.81
485.772	607.81
485.99	614.81
486.209	628.81
486.427	610.81
486.645	649.81
486.863	640.81
487.081	635.81
487.299	640.81
487.517	647.81
487.735	636.81
487.953	642.81
488.171	634.81
488.389	667.81
488.607	634.81
488.825	648.81
489.043	648.81
489.261	637.81
489.479	638.81
489.696	627.81
489.914	668.81
490.132	665.81
490.35	679.81
490.568	674.81
490.786	714.81
491.003	696.81
491.221	693.81
491.439	726.81
491.657	698.81
491.874	747.81
492.092	733.81
492.31	758.81
492.527	727.81
492.745	774.81
492.963	772.81
493.18	746.81
493.398	735.81
493.615	762.81
493.833	789.81
494.05	773.81
494.268	744.81
494.485	756.81
494.703	762.81
494.92	759.81
495.138	765.81
495.355	765.81
495.573	757.81
495.79	752.81
496.008	775.81
496.225	788.81
496.442	758.81
496.66	752.81
496.877	769.81
497.094	775.81
497.312	750.81
497.529	776.81
497.746	793.81
497.963	841.81
498.181	827.81
498.398	869.81
498.615	863.81
498.832	894.81
499.049	912.81
499.267	966.81
499.484	992.81
499.701	1032.81
499.918	1076.81
500.135	1144.81
500.352	1200.81
500.569	1221.81
500.786	1228.81
501.003	1212.81
501.22	1176.81
501.437	1124.81
501.654	1060.81
501.871	1033.81
502.088	966.81
502.305	922.81
502.522	883.81
502.739	871.81
502.956	842.81
503.172	836.81
503.389	795.81
503.606	790.81
503.823	805.81
504.04	814.81
504.256	799.81
504.473	801.81
504.69	778.81
504.907	796.81
505.123	764.81
505.34	754.81
505.557	756.81
505.773	727.81
505.99	754.81
506.207	733.81
506.423	706.81
506.64	709.81
506.856	705.81
507.073	711.81
507.289	690.81
507.506	663.81
507.722	717.81
507.939	672.81
508.155	690.81
508.372	653.81
508.588	664.81
508.805	663.81
509.021	671.81
509.238	679.81
509.454	666.81
509.67	683.81
509.887	660.81
510.103	661.81
510.319	634.81
510.536	685.81
510.752	1036.81
510.968	904.81
511.184	642.81
511.401	645.81
511.617	646.81
511.833	616.81
512.049	635.81
512.265	643.81
512.481	658.81
512.698	651.81
512.914	638.81
513.13	636.81
513.346	620.81
513.562	619.81
513.778	628.81
513.994	623.81
514.21	634.81
514.426	640.81
514.642	691.81
514.858	706.81
515.074	713.81
515.29	797.81
515.506	1001.81
515.721	909.81
515.937	713.81
516.153	648.81
516.369	694.81
516.585	643.81
516.801	650.81
517.016	685.81
517.232	659.81
517.448	677.81
517.664	695.81
517.879	674.81
518.095	676.81
518.311	653.81
518.527	665.81
518.742	670.81
518.958	637.81
519.173	629.81
519.389	635.81
519.605	646.81
519.82	613.81
520.036	652.81
520.251	650.81
520.467	640.81
520.682	659.81
520.898	658.81
521.113	638.81
521.329	699.81
521.544	733.81
521.76	840.81
521.975	1292.81
522.19	1240.81
522.406	788.81
522.621	658.81
522.836	616.81
523.052	586.81
523.267	576.81
523.482	568.81
523.698	580.81
523.913	562.81
524.128	566.81
524.343	569.81
524.559	549.81
524.774	545.81
524.989	549.81
525.204	529.81
525.419	528.81
525.634	525.81
525.849	556.81
526.064	527.81
526.28	532.81
526.495	523.81
526.71	538.81
526.925	521.81
527.14	527.81
527.355	531.81
527.57	520.81
527.785	518.81
527.999	500.81
528.214	511.81
528.429	536.81
528.644	540.81
528.859	523.81
529.074	516.81
529.289	519.81
529.503	575.81
529.718	582.81
529.933	549.81
530.148	561.81
530.363	527.81
530.577	517.81
530.792	520.81
531.007	505.81
531.221	522.81
531.436	508.81
531.651	513.81
531.865	518.81
532.08	512.81
532.295	506.81
532.509	492.81
532.724	499.81
532.938	493.81
533.153	526.81
533.367	515.81
533.582	532.81
533.796	530.81
534.011	513.81
534.225	506.81
534.44	497.81
534.654	514.81
534.868	493.81
535.083	484.81
535.297	516.81
535.511	502.81
535.726	501.81
535.94	512.81
536.154	504.81
536.369	493.81
536.583	487.81
536.797	486.81
537.011	471.81
537.225	472.81
537.44	513.81
537.654	478.81
537.868	475.81
538.082	463.81
538.296	502.81
538.51	475.81
538.724	497.81
538.938	483.81
539.153	490.81
539.367	478.81
539.581	497.81
539.795	493.81
540.009	475.81
540.222	461.81
540.436	488.81
540.65	489.81
540.864	508.81
541.078	483.81
541.292	489.81
541.506	485.81
541.72	512.81
541.934	491.81
542.147	484.81
542.361	488.81
542.575	467.81
542.789	475.81
543.002	484.81
543.216	480.81
543.43	500.81
543.644	477.81
543.857	505.81
544.071	493.81
544.285	488.81
544.498	487.81
544.712	465.81
544.925	481.81
545.139	481.81
545.352	483.81
545.566	491.81
545.779	485.81
545.993	469.81
546.206	469.81
546.42	477.81
546.633	487.81
546.847	469.81
547.06	474.81
547.274	489.81
547.487	488.81
547.7	483.81
547.914	466.81
548.127	472.81
548.34	496.81
548.554	473.81
548.767	458.81
548.98	470.81
549.193	467.81
549.407	464.81
549.62	489.81
549.833	492.81
550.046	477.81
550.259	486.81
550.473	469.81
550.686	465.81
550.899	467.81
551.112	470.81
551.325	473.81
551.538	452.81
551.751	461.81
551.964	458.81
552.177	469.81
552.39	485.81
552.603	491.81
552.816	490.81
553.029	502.81
553.242	471.81
553.455	486.81
553.667	499.81
553.88	528.81
554.093	509.81
554.306	465.81
554.519	490.81
554.732	455.81
554.944	455.81
555.157	462.81
555.37	433.81
555.583	475.81
555.795	463.81
556.008	428.81
556.221	442.81
556.433	431.81
556.646	442.81
556.859	438.81
557.071	423.81
557.284	442.81
557.496	437.81
557.709	426.81
557.921	430.81
558.134	420.81
558.346	413.81
558.559	416.81
558.771	413.81
558.984	424.81
559.196	418.81
559.409	411.81
559.621	406.81
559.833	397.81
560.046	402.81
560.258	412.81
560.47	425.81
560.683	411.81
560.895	438.81
561.107	420.81
561.32	425.81
561.532	418.81
561.744	417.81
561.956	419.81
562.168	421.81
562.381	406.81
562.593	422.81
562.805	441.81
563.017	425.81
563.229	405.81
563.441	426.81
563.653	426.81
563.865	432.81
564.077	440.81
564.289	446.81
564.501	437.81
564.713	417.81
564.925	445.81
565.137	468.81
565.349	473.81
565.561	452.81
565.773	464.81
565.985	490.81
566.197	500.81
566.408	520.81
566.62	555.81
566.832	526.81
567.044	546.81
567.255	554.81
567.467	546.81
567.679	572.81
567.891	594.81
568.102	592.81
568.314	575.81
568.526	563.81
568.737	550.81
568.949	516.81
569.161	493.81
569.372	460.81
569.584	451.81
569.795	464.81
570.007	443.81
570.218	453.81
570.43	450.81
570.641	412.81
570.853	419.81
571.064	425.81
571.276	418.81
571.487	413.81
571.698	410.81
571.91	393.81
572.121	416.81
572.333	400.81
572.544	379.81
572.755	386.81
572.966	380.81
573.178	365.81
573.389	374.81
573.6	368.81
573.811	376.81
574.023	369.81
574.234	363.81
574.445	357.81
574.656	354.81
574.867	357.81
575.078	376.81
575.289	362.81
575.501	376.81
575.712	348.81
575.923	357.81
576.134	348.81
576.345	337.81
576.556	371.81
576.767	354.81
576.978	366.81
577.188	376.81
577.399	348.81
577.61	353.81
577.821	353.81
578.032	345.81
578.243	362.81
578.454	491.81
578.665	411.81
578.875	350.81
579.086	340.81
579.297	338.81
579.508	345.81
579.718	332.81
579.929	315.81
580.14	324.81
580.35	332.81
580.561	320.81
580.772	337.81
580.982	328.81
581.193	321.81
581.403	323.81
581.614	324.81
581.825	342.81
582.035	345.81
582.246	345.81
582.456	338.81
582.667	320.81
582.877	309.81
583.087	316.81
583.298	313.81
583.508	311.81
583.719	343.81
583.929	334.81
584.139	319.81
584.35	330.81
584.56	322.81
584.77	317.81
584.981	323.81
585.191	330.81
585.401	315.81
585.611	314.81
585.821	316.81
586.032	320.81
586.242	302.81
586.452	310.81
586.662	323.81
586.872	292.81
587.082	318.81
587.292	327.81
587.502	293.81
587.713	304.81
587.923	326.81
588.133	318.81
588.343	308.81
588.553	318.81
588.762	312.81
588.972	311.81
589.182	306.81
589.392	315.81
589.602	302.81
589.812	319.81
590.022	312.81
590.232	315.81
590.441	316.81
590.651	322.81
590.861	319.81
591.071	319.81
591.281	312.81
591.49	325.81
591.7	320.81
591.91	327.81
592.119	314.81
592.329	342.81
592.539	343.81
592.748	328.81
592.958	333.81
593.167	348.81
593.377	348.81
593.587	359.81
593.796	346.81
594.006	364.81
594.215	362.81
594.424	344.81
594.634	350.81
594.843	357.81
595.053	343.81
595.262	348.81
595.472	340.81
595.681	325.81
595.89	312.81
596.1	318.81
596.309	300.81
596.518	322.81
596.727	301.81
596.937	312.81
597.146	304.81
597.355	311.81
597.564	311.81
597.774	317.81
597.983	284.81
598.192	288.81
598.401	292.81
598.61	270.81
598.819	294.81
599.028	258.81
599.237	272.81
599.446	283.81
599.655	273.81
599.864	294.81
600.073	270.81
600.282	298.81
600.491	284.81
600.7	277.81
600.909	270.81
601.118	280.81
601.327	283.81
601.536	262.81
601.745	266.81
601.953	269.81
602.162	273.81
602.371	272.81
602.58	258.81
602.789	277.81
602.997	276.81
603.206	275.81
603.415	285.81
603.623	274.81
603.832	286.81
604.041	274.81
604.249	276.81
604.458	250.81
604.666	250.81
604.875	257.81
605.084	281.81
605.292	273.81
605.501	262.81
605.709	266.81
605.918	284.81
606.126	276.81
606.334	272.81
606.543	265.81
606.751	264.81
606.96	250.81
607.168	270.81
607.376	241.81
607.585	261.81
607.793	269.81
608.001	257.81
608.21	256.81
608.418	262.81
608.626	271.81
608.834	270.81
609.043	270.81
609.251	244.81
609.459	279.81
609.667	248.81
609.875	260.81
610.083	252.81
610.291	250.81
610.499	260.81
610.707	265.81
610.916	256.81
611.124	258.81
611.332	277.81
611.54	262.81
611.748	252.81
611.955	264.81
612.163	255.81
612.371	265.81
612.579	264.81
612.787	235.81
612.995	269.81
613.203	254.81
613.411	253.81
613.618	261.81
613.826	253.81
614.034	243.81
614.242	254.81
614.449	246.81
614.657	261.81
614.865	257.81
615.072	272.81
615.28	252.81
615.488	241.81
615.695	236.81
615.903	243.81
616.111	240.81
616.318	264.81
616.526	262.81
616.733	259.81
616.941	262.81
617.148	245.81
617.356	251.81
617.563	245.81
617.771	234.81
617.978	243.81
618.185	245.81
618.393	236.81
618.6	243.81
618.807	230.81
619.015	262.81
619.222	223.81
619.429	234.81
619.637	255.81
619.844	240.81
620.051	245.81
620.258	236.81
620.466	246.81
620.673	232.81
620.88	223.81
621.087	235.81
621.294	242.81
621.501	241.81
621.708	211.81
621.915	237.81
622.122	233.81
622.329	240.81
622.536	233.81
622.743	240.81
622.95	244.81
623.157	221.81
623.364	232.81
623.571	226.81
623.778	233.81
623.985	226.81
624.192	229.81
624.399	226.81
624.606	236.81
624.812	216.81
625.019	219.81
625.226	217.81
625.433	222.81
625.639	217.81
625.846	203.81
626.053	204.81
626.259	225.81
626.466	222.81
626.673	210.81
626.879	212.81
627.086	221.81
627.293	226.81
627.499	209.81
627.706	219.81
627.912	224.81
628.119	216.81
628.325	217.81
628.532	222.81
628.738	228.81
628.945	212.81
629.151	204.81
629.357	221.81
629.564	215.81
629.77	217.81
629.976	222.81
630.183	214.81
630.389	222.81
630.595	215.81
630.802	213.81
631.008	205.81
631.214	202.81
631.42	194.81
631.627	199.81
631.833	184.81
632.039	194.81
632.245	194.81
632.451	185.81
632.657	205.81
632.863	208.81
633.069	209.81
633.275	184.81
633.481	178.81
633.688	183.81
633.893	197.81
634.099	204.81
634.305	176.81
634.511	193.81
634.717	218.81
634.923	188.81
635.129	193.81
635.335	184.81
635.541	186.81
635.747	183.81
635.952	178.81
636.158	208.81
636.364	211.81
636.57	195.81
636.775	187.81
636.981	183.81
637.187	189.81
637.392	184.81
637.598	190.81
637.804	193.81
638.009	178.81
638.215	182.81
638.421	190.81
638.626	187.81
638.832	194.81
639.037	189.81
639.243	196.81
639.448	189.81
639.654	214.81
639.859	172.81
640.065	188.81
640.27	191.81
640.475	182.81
640.681	180.81
640.886	187.81
641.091	177.81
641.297	178.81
641.502	194.81
641.707	185.81
641.913	178.81
642.118	173.81
642.323	194.81
642.528	182.81
642.733	187.81
642.939	185.81
643.144	186.81
643.349	181.81
643.554	182.81
643.759	189.81
643.964	181.81
644.169	187.81
644.374	189.81
644.579	182.81
644.784	188.81
644.989	161.81
645.194	174.81
645.399	174.81
645.604	186.81
645.809	188.81
646.014	187.81
646.219	184.81
646.423	166.81
646.628	175.81
646.833	170.81
647.038	171.81
647.243	174.81
647.447	178.81
647.652	188.81
647.857	182.81
648.062	173.81
648.266	171.81
648.471	182.81
648.676	168.81
648.88	180.81
649.085	195.81
649.289	184.81
649.494	178.81
649.698	172.81
649.903	196.81
650.107	183.81
650.312	176.81
650.516	178.81
650.721	171.81
650.925	143.81
651.13	156.81
651.334	169.81
651.539	170.81
651.743	152.81
651.947	149.81
652.152	171.81
652.356	141.81
652.56	146.81
652.764	144.81
652.969	136.81
653.173	154.81
653.377	161.81
653.581	161.81
653.785	149.81
653.99	151.81
654.194	131.81
654.398	156.81
654.602	141.81
654.806	139.81
655.01	152.81
655.214	155.81
655.418	136.81
655.622	140.81
655.826	144.81
656.03	146.81
656.234	129.81
656.438	138.81
656.642	138.81
656.846	140.81
657.049	142.81
657.253	142.81
657.457	128.81
657.661	124.81
657.865	117.81
658.068	117.81
658.272	117.81
658.476	119.81
658.68	120.81
658.883	113.81
659.087	95.81
659.291	98.81
659.494	114.81
659.698	99.81
659.901	97.81
660.105	91.81
660.309	106.81
660.512	87.81
660.716	90.81
660.919	103.81
661.123	94.81
661.326	94.81
661.53	94.81
661.733	83.81
661.936	87.81
662.14	90.81
662.343	84.81
662.546	89.81
662.75	84.81
662.953	93.81
663.156	79.81
663.36	89.81
663.563	88.81
663.766	84.81
663.969	101.81
664.173	83.81
664.376	72.81
664.579	77.81
664.782	85.81
664.985	78.81
665.188	91.81
665.391	78.81
665.594	85.81
665.797	80.81
666	81.81
666.203	74.81
666.406	78.81
666.609	90.81
666.812	69.81
667.015	75.81
667.218	74.81
667.421	84.81
667.624	83.81
667.827	99.81
668.03	88.81
668.232	74.81
668.435	89.81
668.638	89.81
668.841	89.81
669.043	82.81
669.246	92.81
669.449	81.81
669.651	78.81
669.854	86.81
670.057	76.81
670.259	82.81
670.462	79.81
670.665	82.81
670.867	99.81
671.07	91.81
671.272	88.81
671.475	92.81
671.677	83.81
671.88	87.81
672.082	82.81
672.284	74.81
672.487	78.81
672.689	82.81
672.892	86.81
