Data from 1975.PennyLincolnUp.Lamp.En5.5.200Scan.071719.P1.Changed Mount._HRD10591_15-57-09-859.txt Node
Date: Thu Jul 18 15:57:09 EDT 2019
User: cochatt
Spectrometer: HR+D1059
Trigger mode: 1
Integration Time (sec): 1.000000E-1
Scans to average: 1
Electric dark correction enabled: true
Nonlinearity correction enabled: false
Boxcar width: 0
XAxis mode: Wavelengths
Number of Pixels in Spectrum: 2048
>>>>>Begin Spectral Data<<<<<
223.165	-13.31
223.4	-13.31
223.635	-13.31
223.869	-20.31
224.104	-14.31
224.338	-9.31
224.573	-13.31
224.808	2.69
225.042	-3.31
225.277	-0.31
225.511	2.69
225.746	-0.31
225.98	-7.31
226.215	4.69
226.449	1.69
226.683	20.69
226.918	25.69
227.152	23.69
227.387	26.69
227.621	25.69
227.856	39.69
228.09	43.69
228.324	55.69
228.559	55.69
228.793	68.69
229.027	100.69
229.262	99.69
229.496	111.69
229.73	119.69
229.964	152.69
230.199	117.69
230.433	127.69
230.667	100.69
230.901	119.69
231.136	113.69
231.37	113.69
231.604	118.69
231.838	103.69
232.072	93.69
232.306	110.69
232.541	102.69
232.775	103.69
233.009	104.69
233.243	118.69
233.477	115.69
233.711	117.69
233.945	118.69
234.179	123.69
234.413	119.69
234.647	111.69
234.881	125.69
235.115	121.69
235.349	121.69
235.583	112.69
235.817	118.69
236.051	102.69
236.285	109.69
236.519	130.69
236.753	105.69
236.987	143.69
237.221	172.69
237.455	234.69
237.689	179.69
237.922	151.69
238.156	132.69
238.39	131.69
238.624	132.69
238.858	127.69
239.091	109.69
239.325	123.69
239.559	123.69
239.793	123.69
240.027	144.69
240.26	140.69
240.494	149.69
240.728	157.69
240.961	152.69
241.195	153.69
241.429	126.69
241.662	146.69
241.896	142.69
242.13	142.69
242.363	126.69
242.597	127.69
242.83	139.69
243.064	132.69
243.298	143.69
243.531	128.69
243.765	130.69
243.998	151.69
244.232	147.69
244.465	131.69
244.699	135.69
244.932	148.69
245.166	161.69
245.399	140.69
245.633	131.69
245.866	151.69
246.099	139.69
246.333	152.69
246.566	155.69
246.8	164.69
247.033	149.69
247.266	169.69
247.5	162.69
247.733	167.69
247.966	185.69
248.2	187.69
248.433	177.69
248.666	170.69
248.899	170.69
249.133	205.69
249.366	204.69
249.599	201.69
249.832	173.69
250.066	186.69
250.299	172.69
250.532	200.69
250.765	199.69
250.998	225.69
251.231	234.69
251.465	235.69
251.698	197.69
251.931	206.69
252.164	207.69
252.397	196.69
252.63	193.69
252.863	200.69
253.096	227.69
253.329	234.69
253.562	228.69
253.795	216.69
254.028	226.69
254.261	215.69
254.494	207.69
254.727	245.69
254.96	241.69
255.193	261.69
255.426	250.69
255.659	224.69
255.892	233.69
256.124	229.69
256.357	243.69
256.59	232.69
256.823	213.69
257.056	223.69
257.289	221.69
257.521	217.69
257.754	212.69
257.987	217.69
258.22	211.69
258.452	203.69
258.685	197.69
258.918	207.69
259.151	202.69
259.383	214.69
259.616	241.69
259.849	239.69
260.081	241.69
260.314	250.69
260.547	280.69
260.779	254.69
261.012	242.69
261.244	247.69
261.477	236.69
261.71	220.69
261.942	224.69
262.175	241.69
262.407	216.69
262.64	204.69
262.872	217.69
263.105	224.69
263.337	223.69
263.57	226.69
263.802	212.69
264.035	212.69
264.267	225.69
264.499	225.69
264.732	225.69
264.964	210.69
265.197	214.69
265.429	218.69
265.661	231.69
265.894	222.69
266.126	226.69
266.358	229.69
266.591	225.69
266.823	236.69
267.055	259.69
267.287	244.69
267.52	233.69
267.752	236.69
267.984	228.69
268.216	209.69
268.448	225.69
268.681	244.69
268.913	230.69
269.145	272.69
269.377	270.69
269.609	269.69
269.841	281.69
270.073	279.69
270.306	280.69
270.538	314.69
270.77	312.69
271.002	305.69
271.234	270.69
271.466	288.69
271.698	312.69
271.93	311.69
272.162	309.69
272.394	309.69
272.626	306.69
272.858	293.69
273.09	270.69
273.322	289.69
273.553	261.69
273.785	245.69
274.017	264.69
274.249	264.69
274.481	266.69
274.713	280.69
274.945	277.69
275.176	263.69
275.408	269.69
275.64	282.69
275.872	259.69
276.104	275.69
276.335	270.69
276.567	275.69
276.799	279.69
277.031	311.69
277.262	322.69
277.494	325.69
277.726	310.69
277.957	262.69
278.189	300.69
278.421	280.69
278.652	283.69
278.884	275.69
279.115	283.69
279.347	287.69
279.579	283.69
279.81	286.69
280.042	267.69
280.273	263.69
280.505	270.69
280.736	281.69
280.968	273.69
281.199	291.69
281.431	288.69
281.662	283.69
281.894	283.69
282.125	284.69
282.356	308.69
282.588	298.69
282.819	283.69
283.051	284.69
283.282	298.69
283.513	296.69
283.745	300.69
283.976	321.69
284.207	284.69
284.439	306.69
284.67	277.69
284.901	307.69
285.132	276.69
285.364	296.69
285.595	296.69
285.826	294.69
286.057	283.69
286.288	281.69
286.52	307.69
286.751	294.69
286.982	287.69
287.213	305.69
287.444	290.69
287.675	307.69
287.906	288.69
288.138	329.69
288.369	315.69
288.6	300.69
288.831	324.69
289.062	297.69
289.293	307.69
289.524	300.69
289.755	303.69
289.986	312.69
290.217	304.69
290.448	309.69
290.679	299.69
290.91	312.69
291.141	305.69
291.371	314.69
291.602	299.69
291.833	310.69
292.064	294.69
292.295	287.69
292.526	301.69
292.757	307.69
292.987	308.69
293.218	307.69
293.449	308.69
293.68	302.69
293.91	310.69
294.141	294.69
294.372	303.69
294.603	300.69
294.833	291.69
295.064	309.69
295.295	303.69
295.525	309.69
295.756	326.69
295.987	309.69
296.217	320.69
296.448	328.69
296.679	317.69
296.909	315.69
297.14	312.69
297.37	315.69
297.601	314.69
297.831	321.69
298.062	305.69
298.292	320.69
298.523	332.69
298.753	311.69
298.984	328.69
299.214	319.69
299.445	317.69
299.675	323.69
299.905	328.69
300.136	329.69
300.366	326.69
300.597	330.69
300.827	316.69
301.057	332.69
301.288	340.69
301.518	332.69
301.748	343.69
301.979	343.69
302.209	349.69
302.439	351.69
302.669	355.69
302.9	333.69
303.13	337.69
303.36	330.69
303.59	346.69
303.82	359.69
304.051	359.69
304.281	338.69
304.511	342.69
304.741	340.69
304.971	344.69
305.201	331.69
305.431	340.69
305.661	343.69
305.891	348.69
306.121	321.69
306.352	340.69
306.582	309.69
306.812	348.69
307.042	345.69
307.272	334.69
307.502	315.69
307.731	349.69
307.961	335.69
308.191	331.69
308.421	359.69
308.651	355.69
308.881	343.69
309.111	365.69
309.341	354.69
309.571	368.69
309.8	349.69
310.03	376.69
310.26	387.69
310.49	379.69
310.72	373.69
310.949	384.69
311.179	388.69
311.409	370.69
311.639	383.69
311.868	373.69
312.098	368.69
312.328	383.69
312.557	381.69
312.787	396.69
313.017	402.69
313.246	392.69
313.476	375.69
313.706	386.69
313.935	397.69
314.165	397.69
314.394	397.69
314.624	390.69
314.853	403.69
315.083	385.69
315.312	375.69
315.542	382.69
315.771	381.69
316.001	391.69
316.23	378.69
316.46	384.69
316.689	369.69
316.919	383.69
317.148	397.69
317.377	394.69
317.607	394.69
317.836	400.69
318.065	364.69
318.295	379.69
318.524	371.69
318.753	382.69
318.983	388.69
319.212	383.69
319.441	387.69
319.67	389.69
319.9	375.69
320.129	382.69
320.358	391.69
320.587	385.69
320.816	397.69
321.046	412.69
321.275	392.69
321.504	401.69
321.733	398.69
321.962	417.69
322.191	422.69
322.42	438.69
322.649	435.69
322.878	441.69
323.108	432.69
323.337	464.69
323.566	474.69
323.795	508.69
324.024	522.69
324.253	617.69
324.482	799.69
324.71	1240.69
324.939	1785.69
325.168	1603.69
325.397	844.69
325.626	595.69
325.855	513.69
326.084	471.69
326.313	456.69
326.542	469.69
326.77	511.69
326.999	567.69
327.228	748.69
327.457	1129.69
327.686	1392.69
327.914	929.69
328.143	652.69
328.372	556.69
328.6	549.69
328.829	519.69
329.058	531.69
329.287	537.69
329.515	503.69
329.744	503.69
329.972	487.69
330.201	506.69
330.43	530.69
330.658	572.69
330.887	565.69
331.115	566.69
331.344	519.69
331.572	484.69
331.801	485.69
332.03	509.69
332.258	481.69
332.486	464.69
332.715	471.69
332.943	450.69
333.172	474.69
333.4	477.69
333.629	481.69
333.857	481.69
334.085	523.69
334.314	517.69
334.542	555.69
334.771	567.69
334.999	519.69
335.227	517.69
335.455	486.69
335.684	480.69
335.912	489.69
336.14	446.69
336.369	452.69
336.597	454.69
336.825	479.69
337.053	488.69
337.281	445.69
337.51	469.69
337.738	465.69
337.966	455.69
338.194	457.69
338.422	453.69
338.65	453.69
338.878	443.69
339.106	455.69
339.334	464.69
339.562	434.69
339.79	447.69
340.018	445.69
340.246	433.69
340.474	423.69
340.702	435.69
340.93	460.69
341.158	433.69
341.386	419.69
341.614	421.69
341.842	445.69
342.07	421.69
342.298	421.69
342.526	435.69
342.754	418.69
342.981	440.69
343.209	431.69
343.437	421.69
343.665	438.69
343.893	447.69
344.12	490.69
344.348	471.69
344.576	463.69
344.804	456.69
345.031	439.69
345.259	457.69
345.487	459.69
345.714	424.69
345.942	435.69
346.17	431.69
346.397	443.69
346.625	412.69
346.853	433.69
347.08	411.69
347.308	432.69
347.535	439.69
347.763	444.69
347.99	420.69
348.218	448.69
348.445	431.69
348.673	407.69
348.9	425.69
349.128	437.69
349.355	399.69
349.583	412.69
349.81	418.69
350.037	428.69
350.265	402.69
350.492	433.69
350.72	409.69
350.947	412.69
351.174	431.69
351.402	411.69
351.629	428.69
351.856	425.69
352.083	424.69
352.311	434.69
352.538	435.69
352.765	438.69
352.992	428.69
353.22	419.69
353.447	394.69
353.674	413.69
353.901	405.69
354.128	422.69
354.355	418.69
354.583	397.69
354.81	386.69
355.037	417.69
355.264	407.69
355.491	404.69
355.718	407.69
355.945	393.69
356.172	401.69
356.399	392.69
356.626	400.69
356.853	420.69
357.08	398.69
357.307	397.69
357.534	410.69
357.761	412.69
357.988	397.69
358.215	409.69
358.441	403.69
358.668	402.69
358.895	405.69
359.122	401.69
359.349	409.69
359.576	417.69
359.802	404.69
360.029	437.69
360.256	480.69
360.483	461.69
360.709	425.69
360.936	426.69
361.163	423.69
361.39	424.69
361.616	431.69
361.843	425.69
362.07	423.69
362.296	413.69
362.523	447.69
362.749	434.69
362.976	394.69
363.203	428.69
363.429	412.69
363.656	415.69
363.882	418.69
364.109	403.69
364.335	419.69
364.562	425.69
364.788	439.69
365.015	403.69
365.241	421.69
365.468	426.69
365.694	437.69
365.92	449.69
366.147	408.69
366.373	394.69
366.599	407.69
366.826	399.69
367.052	416.69
367.278	409.69
367.505	412.69
367.731	412.69
367.957	381.69
368.184	424.69
368.41	431.69
368.636	428.69
368.862	433.69
369.089	433.69
369.315	412.69
369.541	409.69
369.767	415.69
369.993	414.69
370.219	408.69
370.445	429.69
370.672	429.69
370.898	441.69
371.124	423.69
371.35	424.69
371.576	422.69
371.802	418.69
372.028	421.69
372.254	424.69
372.48	437.69
372.706	416.69
372.932	424.69
373.158	428.69
373.384	424.69
373.61	433.69
373.835	423.69
374.061	425.69
374.287	409.69
374.513	414.69
374.739	453.69
374.965	438.69
375.191	415.69
375.416	431.69
375.642	423.69
375.868	441.69
376.094	408.69
376.319	448.69
376.545	433.69
376.771	420.69
376.997	444.69
377.222	435.69
377.448	423.69
377.674	415.69
377.899	424.69
378.125	435.69
378.35	417.69
378.576	425.69
378.802	408.69
379.027	415.69
379.253	403.69
379.478	408.69
379.704	419.69
379.929	404.69
380.155	434.69
380.38	441.69
380.606	422.69
380.831	429.69
381.057	420.69
381.282	455.69
381.507	417.69
381.733	425.69
381.958	425.69
382.184	438.69
382.409	428.69
382.634	449.69
382.86	455.69
383.085	434.69
383.31	459.69
383.535	444.69
383.761	444.69
383.986	455.69
384.211	444.69
384.436	439.69
384.662	471.69
384.887	469.69
385.112	451.69
385.337	464.69
385.562	472.69
385.787	467.69
386.013	476.69
386.238	488.69
386.463	506.69
386.688	471.69
386.913	456.69
387.138	476.69
387.363	499.69
387.588	465.69
387.813	479.69
388.038	469.69
388.263	498.69
388.488	457.69
388.713	467.69
388.938	485.69
389.163	477.69
389.387	485.69
389.612	470.69
389.837	501.69
390.062	461.69
390.287	476.69
390.512	480.69
390.736	463.69
390.961	475.69
391.186	476.69
391.411	472.69
391.636	498.69
391.86	473.69
392.085	517.69
392.31	495.69
392.534	503.69
392.759	475.69
392.984	496.69
393.208	485.69
393.433	486.69
393.658	464.69
393.882	470.69
394.107	483.69
394.331	499.69
394.556	481.69
394.78	468.69
395.005	487.69
395.229	473.69
395.454	496.69
395.678	522.69
395.903	501.69
396.127	527.69
396.352	552.69
396.576	531.69
396.801	505.69
397.025	508.69
397.249	508.69
397.474	514.69
397.698	526.69
397.922	519.69
398.147	535.69
398.371	544.69
398.595	547.69
398.82	548.69
399.044	575.69
399.268	600.69
399.492	647.69
399.717	674.69
399.941	691.69
400.165	698.69
400.389	699.69
400.613	638.69
400.837	597.69
401.062	583.69
401.286	548.69
401.51	557.69
401.734	547.69
401.958	547.69
402.182	564.69
402.406	569.69
402.63	562.69
402.854	563.69
403.078	569.69
403.302	571.69
403.526	595.69
403.75	581.69
403.974	575.69
404.198	579.69
404.422	600.69
404.645	611.69
404.869	618.69
405.093	662.69
405.317	659.69
405.541	705.69
405.765	663.69
405.988	611.69
406.212	623.69
406.436	613.69
406.66	630.69
406.883	638.69
407.107	659.69
407.331	704.69
407.555	753.69
407.778	760.69
408.002	697.69
408.226	629.69
408.449	653.69
408.673	650.69
408.896	655.69
409.12	701.69
409.344	646.69
409.567	602.69
409.791	568.69
410.014	589.69
410.238	586.69
410.461	603.69
410.685	592.69
410.908	609.69
411.132	643.69
411.355	659.69
411.578	654.69
411.802	586.69
412.025	588.69
412.249	610.69
412.472	629.69
412.695	642.69
412.919	651.69
413.142	590.69
413.365	585.69
413.589	561.69
413.812	557.69
414.035	572.69
414.258	532.69
414.482	566.69
414.705	556.69
414.928	547.69
415.151	563.69
415.374	548.69
415.597	534.69
415.821	559.69
416.044	553.69
416.267	533.69
416.49	531.69
416.713	548.69
416.936	535.69
417.159	557.69
417.382	564.69
417.605	569.69
417.828	567.69
418.051	578.69
418.274	564.69
418.497	553.69
418.72	559.69
418.943	565.69
419.166	585.69
419.389	594.69
419.611	612.69
419.834	579.69
420.057	600.69
420.28	569.69
420.503	564.69
420.726	573.69
420.948	592.69
421.171	630.69
421.394	657.69
421.617	587.69
421.839	572.69
422.062	595.69
422.285	615.69
422.507	645.69
422.73	710.69
422.953	665.69
423.175	629.69
423.398	589.69
423.621	593.69
423.843	619.69
424.066	621.69
424.288	618.69
424.511	626.69
424.733	665.69
424.956	750.69
425.178	710.69
425.401	716.69
425.623	746.69
425.846	652.69
426.068	612.69
426.291	595.69
426.513	594.69
426.735	617.69
426.958	635.69
427.18	718.69
427.402	840.69
427.625	916.69
427.847	786.69
428.069	690.69
428.292	623.69
428.514	571.69
428.736	568.69
428.958	566.69
429.181	584.69
429.403	545.69
429.625	565.69
429.847	591.69
430.069	665.69
430.292	659.69
430.514	585.69
430.736	548.69
430.958	552.69
431.18	539.69
431.402	537.69
431.624	526.69
431.846	500.69
432.068	530.69
432.29	525.69
432.512	519.69
432.734	538.69
432.956	541.69
433.178	531.69
433.4	556.69
433.622	531.69
433.844	543.69
434.066	534.69
434.287	540.69
434.509	534.69
434.731	544.69
434.953	568.69
435.175	584.69
435.397	605.69
435.618	616.69
435.84	625.69
436.062	716.69
436.284	793.69
436.505	682.69
436.727	600.69
436.949	572.69
437.17	561.69
437.392	542.69
437.614	582.69
437.835	611.69
438.057	662.69
438.278	775.69
438.5	794.69
438.721	848.69
438.943	833.69
439.165	684.69
439.386	616.69
439.608	595.69
439.829	589.69
440.05	628.69
440.272	670.69
440.493	632.69
440.715	587.69
440.936	559.69
441.158	572.69
441.379	586.69
441.6	582.69
441.822	606.69
442.043	619.69
442.264	700.69
442.486	748.69
442.707	664.69
442.928	628.69
443.149	627.69
443.371	647.69
443.592	689.69
443.813	782.69
444.034	853.69
444.255	730.69
444.476	628.69
444.698	633.69
444.919	632.69
445.14	747.69
445.361	682.69
445.582	651.69
445.803	668.69
446.024	804.69
446.245	796.69
446.466	728.69
446.687	646.69
446.908	602.69
447.129	579.69
447.35	567.69
447.571	541.69
447.792	544.69
448.013	565.69
448.234	570.69
448.455	601.69
448.675	719.69
448.896	858.69
449.117	703.69
449.338	657.69
449.559	775.69
449.779	879.69
450	722.69
450.221	617.69
450.442	555.69
450.662	523.69
450.883	533.69
451.104	543.69
451.324	549.69
451.545	526.69
451.766	500.69
451.986	486.69
452.207	471.69
452.428	468.69
452.648	481.69
452.869	485.69
453.089	501.69
453.31	518.69
453.53	502.69
453.751	486.69
453.971	478.69
454.192	499.69
454.412	505.69
454.633	499.69
454.853	467.69
455.073	489.69
455.294	511.69
455.514	559.69
455.734	556.69
455.955	508.69
456.175	480.69
456.395	477.69
456.616	471.69
456.836	464.69
457.056	470.69
457.276	459.69
457.497	449.69
457.717	457.69
457.937	485.69
458.157	476.69
458.377	488.69
458.598	509.69
458.818	554.69
459.038	620.69
459.258	657.69
459.478	564.69
459.698	538.69
459.918	548.69
460.138	547.69
460.358	554.69
460.578	552.69
460.798	553.69
461.018	553.69
461.238	556.69
461.458	546.69
461.678	546.69
461.898	557.69
462.118	575.69
462.338	570.69
462.558	593.69
462.777	591.69
462.997	613.69
463.217	657.69
463.437	643.69
463.657	594.69
463.876	613.69
464.096	593.69
464.316	618.69
464.536	603.69
464.755	609.69
464.975	609.69
465.195	601.69
465.414	641.69
465.634	581.69
465.854	560.69
466.073	533.69
466.293	531.69
466.512	526.69
466.732	515.69
466.951	530.69
467.171	525.69
467.391	531.69
467.61	515.69
467.829	524.69
468.049	520.69
468.268	510.69
468.488	518.69
468.707	510.69
468.927	476.69
469.146	487.69
469.365	501.69
469.585	512.69
469.804	504.69
470.023	535.69
470.243	530.69
470.462	525.69
470.681	532.69
470.901	530.69
471.12	533.69
471.339	518.69
471.558	529.69
471.777	511.69
471.997	511.69
472.216	536.69
472.435	533.69
472.654	550.69
472.873	493.69
473.092	505.69
473.311	519.69
473.53	501.69
473.749	523.69
473.968	570.69
474.187	636.69
474.406	655.69
474.625	565.69
474.844	523.69
475.063	524.69
475.282	519.69
475.501	501.69
475.72	503.69
475.939	501.69
476.158	537.69
476.377	544.69
476.596	553.69
476.814	554.69
477.033	545.69
477.252	571.69
477.471	547.69
477.69	560.69
477.908	553.69
478.127	566.69
478.346	574.69
478.564	583.69
478.783	576.69
479.002	599.69
479.22	615.69
479.439	611.69
479.658	610.69
479.876	600.69
480.095	615.69
480.313	664.69
480.532	659.69
480.751	651.69
480.969	644.69
481.188	707.69
481.406	737.69
481.624	650.69
481.843	627.69
482.061	608.69
482.28	595.69
482.498	570.69
482.717	600.69
482.935	607.69
483.153	597.69
483.372	597.69
483.59	613.69
483.808	599.69
484.027	602.69
484.245	605.69
484.463	639.69
484.681	609.69
484.9	601.69
485.118	603.69
485.336	601.69
485.554	629.69
485.772	629.69
485.99	616.69
486.209	628.69
486.427	610.69
486.645	647.69
486.863	645.69
487.081	631.69
487.299	625.69
487.517	642.69
487.735	645.69
487.953	646.69
488.171	650.69
488.389	627.69
488.607	671.69
488.825	674.69
489.043	642.69
489.261	625.69
489.479	672.69
489.696	677.69
489.914	663.69
490.132	665.69
490.35	682.69
490.568	695.69
490.786	695.69
491.003	705.69
491.221	713.69
491.439	706.69
491.657	710.69
491.874	745.69
492.092	739.69
492.31	724.69
492.527	728.69
492.745	734.69
492.963	766.69
493.18	751.69
493.398	791.69
493.615	771.69
493.833	757.69
494.05	758.69
494.268	761.69
494.485	751.69
494.703	755.69
494.92	746.69
495.138	753.69
495.355	743.69
495.573	755.69
495.79	771.69
496.008	781.69
496.225	758.69
496.442	769.69
496.66	761.69
496.877	792.69
497.094	787.69
497.312	803.69
497.529	783.69
497.746	807.69
497.963	827.69
498.181	845.69
498.398	852.69
498.615	851.69
498.832	915.69
499.049	922.69
499.267	992.69
499.484	979.69
499.701	1037.69
499.918	1101.69
500.135	1106.69
500.352	1211.69
500.569	1219.69
500.786	1264.69
501.003	1210.69
501.22	1181.69
501.437	1110.69
501.654	1061.69
501.871	1032.69
502.088	951.69
502.305	931.69
502.522	881.69
502.739	899.69
502.956	840.69
503.172	832.69
503.389	840.69
503.606	810.69
503.823	803.69
504.04	817.69
504.256	803.69
504.473	803.69
504.69	777.69
504.907	796.69
505.123	751.69
505.34	763.69
505.557	780.69
505.773	734.69
505.99	739.69
506.207	707.69
506.423	740.69
506.64	710.69
506.856	712.69
507.073	709.69
507.289	691.69
507.506	717.69
507.722	709.69
507.939	705.69
508.155	683.69
508.372	693.69
508.588	680.69
508.805	673.69
509.021	663.69
509.238	683.69
509.454	680.69
509.67	687.69
509.887	669.69
510.103	650.69
510.319	667.69
510.536	720.69
510.752	1067.69
510.968	925.69
511.184	642.69
511.401	655.69
511.617	648.69
511.833	665.69
512.049	640.69
512.265	635.69
512.481	637.69
512.698	644.69
512.914	617.69
513.13	629.69
513.346	655.69
513.562	650.69
513.778	614.69
513.994	612.69
514.21	645.69
514.426	675.69
514.642	698.69
514.858	692.69
515.074	724.69
515.29	817.69
515.506	1066.69
515.721	936.69
515.937	723.69
516.153	678.69
516.369	673.69
516.585	674.69
516.801	662.69
517.016	666.69
517.232	695.69
517.448	669.69
517.664	665.69
517.879	693.69
518.095	696.69
518.311	696.69
518.527	660.69
518.742	681.69
518.958	675.69
519.173	639.69
519.389	629.69
519.605	632.69
519.82	647.69
520.036	667.69
520.251	662.69
520.467	677.69
520.682	671.69
520.898	668.69
521.113	662.69
521.329	696.69
521.544	758.69
521.76	903.69
521.975	1324.69
522.19	1320.69
522.406	819.69
522.621	659.69
522.836	623.69
523.052	601.69
523.267	580.69
523.482	569.69
523.698	596.69
523.913	605.69
524.128	550.69
524.343	579.69
524.559	571.69
524.774	555.69
524.989	560.69
525.204	539.69
525.419	556.69
525.634	520.69
525.849	549.69
526.064	551.69
526.28	561.69
526.495	525.69
526.71	525.69
526.925	532.69
527.14	525.69
527.355	513.69
527.57	560.69
527.785	546.69
527.999	525.69
528.214	519.69
528.429	525.69
528.644	534.69
528.859	506.69
529.074	536.69
529.289	540.69
529.503	605.69
529.718	592.69
529.933	579.69
530.148	545.69
530.363	515.69
530.577	513.69
530.792	519.69
531.007	496.69
531.221	521.69
531.436	515.69
531.651	524.69
531.865	518.69
532.08	509.69
532.295	498.69
532.509	497.69
532.724	495.69
532.938	483.69
533.153	499.69
533.367	494.69
533.582	504.69
533.796	496.69
534.011	501.69
534.225	482.69
534.44	498.69
534.654	515.69
534.868	507.69
535.083	496.69
535.297	495.69
535.511	475.69
535.726	526.69
535.94	511.69
536.154	503.69
536.369	499.69
536.583	491.69
536.797	491.69
537.011	475.69
537.225	486.69
537.44	486.69
537.654	465.69
537.868	482.69
538.082	522.69
538.296	502.69
538.51	486.69
538.724	483.69
538.938	483.69
539.153	492.69
539.367	493.69
539.581	499.69
539.795	491.69
540.009	481.69
540.222	490.69
540.436	501.69
540.65	484.69
540.864	483.69
541.078	490.69
541.292	486.69
541.506	488.69
541.72	474.69
541.934	472.69
542.147	477.69
542.361	500.69
542.575	497.69
542.789	470.69
543.002	475.69
543.216	500.69
543.43	495.69
543.644	511.69
543.857	496.69
544.071	485.69
544.285	475.69
544.498	493.69
544.712	496.69
544.925	484.69
545.139	482.69
545.352	494.69
545.566	462.69
545.779	486.69
545.993	487.69
546.206	484.69
546.42	474.69
546.633	470.69
546.847	450.69
547.06	500.69
547.274	496.69
547.487	474.69
547.7	471.69
547.914	496.69
548.127	483.69
548.34	477.69
548.554	491.69
548.767	481.69
548.98	486.69
549.193	495.69
549.407	493.69
549.62	487.69
549.833	475.69
550.046	469.69
550.259	471.69
550.473	465.69
550.686	488.69
550.899	476.69
551.112	479.69
551.325	453.69
551.538	486.69
551.751	479.69
551.964	471.69
552.177	476.69
552.39	475.69
552.603	484.69
552.816	481.69
553.029	489.69
553.242	476.69
553.455	475.69
553.667	492.69
553.88	503.69
554.093	497.69
554.306	486.69
554.519	490.69
554.732	465.69
554.944	464.69
555.157	464.69
555.37	464.69
555.583	466.69
555.795	447.69
556.008	428.69
556.221	434.69
556.433	445.69
556.646	451.69
556.859	443.69
557.071	414.69
557.284	457.69
557.496	421.69
557.709	411.69
557.921	415.69
558.134	409.69
558.346	429.69
558.559	431.69
558.771	419.69
558.984	419.69
559.196	421.69
559.409	431.69
559.621	408.69
559.833	396.69
560.046	404.69
560.258	428.69
560.47	411.69
560.683	404.69
560.895	400.69
561.107	407.69
561.32	411.69
561.532	424.69
561.744	427.69
561.956	424.69
562.168	428.69
562.381	423.69
562.593	436.69
562.805	442.69
563.017	450.69
563.229	438.69
563.441	428.69
563.653	422.69
563.865	420.69
564.077	432.69
564.289	433.69
564.501	451.69
564.713	444.69
564.925	462.69
565.137	444.69
565.349	475.69
565.561	468.69
565.773	465.69
565.985	485.69
566.197	483.69
566.408	508.69
566.62	541.69
566.832	556.69
567.044	562.69
567.255	561.69
567.467	591.69
567.679	564.69
567.891	595.69
568.102	603.69
568.314	585.69
568.526	562.69
568.737	518.69
568.949	520.69
569.161	505.69
569.372	458.69
569.584	451.69
569.795	439.69
570.007	436.69
570.218	466.69
570.43	453.69
570.641	401.69
570.853	410.69
571.064	435.69
571.276	424.69
571.487	392.69
571.698	394.69
571.91	385.69
572.121	380.69
572.333	390.69
572.544	389.69
572.755	388.69
572.966	378.69
573.178	382.69
573.389	358.69
573.6	379.69
573.811	347.69
574.023	363.69
574.234	351.69
574.445	344.69
574.656	359.69
574.867	360.69
575.078	359.69
575.289	364.69
575.501	367.69
575.712	349.69
575.923	347.69
576.134	355.69
576.345	345.69
576.556	357.69
576.767	354.69
576.978	352.69
577.188	364.69
577.399	349.69
577.61	342.69
577.821	353.69
578.032	356.69
578.243	381.69
578.454	525.69
578.665	425.69
578.875	341.69
579.086	332.69
579.297	321.69
579.508	332.69
579.718	319.69
579.929	338.69
580.14	307.69
580.35	316.69
580.561	330.69
580.772	333.69
580.982	332.69
581.193	317.69
581.403	353.69
581.614	315.69
581.825	335.69
582.035	328.69
582.246	332.69
582.456	322.69
582.667	335.69
582.877	308.69
583.087	328.69
583.298	318.69
583.508	343.69
583.719	315.69
583.929	313.69
584.139	318.69
584.35	337.69
584.56	335.69
584.77	323.69
584.981	316.69
585.191	324.69
585.401	317.69
585.611	311.69
585.821	309.69
586.032	310.69
586.242	325.69
586.452	306.69
586.662	296.69
586.872	325.69
587.082	316.69
587.292	323.69
587.502	314.69
587.713	297.69
587.923	294.69
588.133	301.69
588.343	299.69
588.553	318.69
588.762	313.69
588.972	306.69
589.182	309.69
589.392	311.69
589.602	307.69
589.812	305.69
590.022	312.69
590.232	302.69
590.441	311.69
590.651	291.69
590.861	297.69
591.071	305.69
591.281	308.69
591.49	296.69
591.7	334.69
591.91	330.69
592.119	324.69
592.329	339.69
592.539	354.69
592.748	343.69
592.958	341.69
593.167	331.69
593.377	324.69
593.587	364.69
593.796	337.69
594.006	353.69
594.215	381.69
594.424	334.69
594.634	347.69
594.843	339.69
595.053	325.69
595.262	352.69
595.472	322.69
595.681	325.69
595.89	312.69
596.1	298.69
596.309	310.69
596.518	296.69
596.727	312.69
596.937	319.69
597.146	319.69
597.355	314.69
597.564	288.69
597.774	282.69
597.983	295.69
598.192	291.69
598.401	291.69
598.61	278.69
598.819	280.69
599.028	284.69
599.237	284.69
599.446	281.69
599.655	283.69
599.864	287.69
600.073	278.69
600.282	288.69
600.491	268.69
600.7	287.69
600.909	281.69
601.118	272.69
601.327	263.69
601.536	283.69
601.745	270.69
601.953	275.69
602.162	277.69
602.371	279.69
602.58	267.69
602.789	267.69
602.997	282.69
603.206	268.69
603.415	297.69
603.623	260.69
603.832	269.69
604.041	242.69
604.249	273.69
604.458	261.69
604.666	264.69
604.875	263.69
605.084	263.69
605.292	267.69
605.501	264.69
605.709	266.69
605.918	251.69
606.126	241.69
606.334	272.69
606.543	290.69
606.751	279.69
606.96	253.69
607.168	259.69
607.376	281.69
607.585	259.69
607.793	247.69
608.001	267.69
608.21	261.69
608.418	267.69
608.626	259.69
608.834	268.69
609.043	268.69
609.251	240.69
609.459	257.69
609.667	256.69
609.875	249.69
610.083	257.69
610.291	258.69
610.499	246.69
610.707	255.69
610.916	267.69
611.124	247.69
611.332	243.69
611.54	259.69
611.748	245.69
611.955	256.69
612.163	241.69
612.371	264.69
612.579	247.69
612.787	270.69
612.995	263.69
613.203	247.69
613.411	244.69
613.618	269.69
613.826	261.69
614.034	248.69
614.242	271.69
614.449	246.69
614.657	244.69
614.865	234.69
615.072	239.69
615.28	242.69
615.488	236.69
615.695	246.69
615.903	255.69
616.111	240.69
616.318	261.69
616.526	255.69
616.733	253.69
616.941	243.69
617.148	230.69
617.356	249.69
617.563	240.69
617.771	245.69
617.978	258.69
618.185	276.69
618.393	240.69
618.6	244.69
618.807	230.69
619.015	243.69
619.222	233.69
619.429	247.69
619.637	248.69
619.844	243.69
620.051	240.69
620.258	244.69
620.466	242.69
620.673	222.69
620.88	239.69
621.087	229.69
621.294	250.69
621.501	227.69
621.708	239.69
621.915	239.69
622.122	247.69
622.329	256.69
622.536	217.69
622.743	225.69
622.95	232.69
623.157	224.69
623.364	232.69
623.571	225.69
623.778	228.69
623.985	238.69
624.192	232.69
624.399	233.69
624.606	202.69
624.812	222.69
625.019	229.69
625.226	231.69
625.433	228.69
625.639	202.69
625.846	207.69
626.053	213.69
626.259	219.69
626.466	220.69
626.673	217.69
626.879	204.69
627.086	225.69
627.293	211.69
627.499	233.69
627.706	227.69
627.912	216.69
628.119	211.69
628.325	217.69
628.532	214.69
628.738	208.69
628.945	210.69
629.151	202.69
629.357	203.69
629.564	213.69
629.77	212.69
629.976	194.69
630.183	204.69
630.389	190.69
630.595	193.69
630.802	215.69
631.008	192.69
631.214	187.69
631.42	211.69
631.627	187.69
631.833	208.69
632.039	200.69
632.245	195.69
632.451	204.69
632.657	195.69
632.863	191.69
633.069	190.69
633.275	210.69
633.481	203.69
633.688	197.69
633.893	201.69
634.099	191.69
634.305	202.69
634.511	195.69
634.717	204.69
634.923	193.69
635.129	182.69
635.335	193.69
635.541	197.69
635.747	202.69
635.952	177.69
636.158	175.69
636.364	192.69
636.57	200.69
636.775	186.69
636.981	194.69
637.187	209.69
637.392	187.69
637.598	189.69
637.804	191.69
638.009	194.69
638.215	184.69
638.421	176.69
638.626	172.69
638.832	173.69
639.037	176.69
639.243	177.69
639.448	192.69
639.654	187.69
639.859	188.69
640.065	182.69
640.27	181.69
640.475	198.69
640.681	185.69
640.886	183.69
641.091	191.69
641.297	177.69
641.502	178.69
641.707	188.69
641.913	189.69
642.118	191.69
642.323	198.69
642.528	167.69
642.733	167.69
642.939	182.69
643.144	163.69
643.349	181.69
643.554	164.69
643.759	191.69
643.964	175.69
644.169	191.69
644.374	156.69
644.579	179.69
644.784	170.69
644.989	169.69
645.194	183.69
645.399	187.69
645.604	177.69
645.809	185.69
646.014	171.69
646.219	181.69
646.423	187.69
646.628	175.69
646.833	172.69
647.038	175.69
647.243	179.69
647.447	194.69
647.652	177.69
647.857	171.69
648.062	173.69
648.266	181.69
648.471	202.69
648.676	190.69
648.88	177.69
649.085	201.69
649.289	171.69
649.494	178.69
649.698	200.69
649.903	188.69
650.107	166.69
650.312	179.69
650.516	154.69
650.721	161.69
650.925	162.69
651.13	170.69
651.334	165.69
651.539	149.69
651.743	153.69
651.947	163.69
652.152	155.69
652.356	176.69
652.56	149.69
652.764	136.69
652.969	154.69
653.173	149.69
653.377	136.69
653.581	141.69
653.785	139.69
653.99	152.69
654.194	141.69
654.398	140.69
654.602	139.69
654.806	140.69
655.01	147.69
655.214	133.69
655.418	153.69
655.622	148.69
655.826	146.69
656.03	140.69
656.234	144.69
656.438	148.69
656.642	143.69
656.846	153.69
657.049	152.69
657.253	133.69
657.457	127.69
657.661	121.69
657.865	125.69
658.068	113.69
658.272	107.69
658.476	106.69
658.68	94.69
658.883	100.69
659.087	94.69
659.291	98.69
659.494	102.69
659.698	102.69
659.901	100.69
660.105	100.69
660.309	84.69
660.512	86.69
660.716	91.69
660.919	103.69
661.123	88.69
661.326	91.69
661.53	94.69
661.733	79.69
661.936	99.69
662.14	78.69
662.343	81.69
662.546	82.69
662.75	81.69
662.953	76.69
663.156	81.69
663.36	92.69
663.563	81.69
663.766	91.69
663.969	87.69
664.173	81.69
664.376	85.69
664.579	85.69
664.782	80.69
664.985	72.69
665.188	89.69
665.391	87.69
665.594	84.69
665.797	74.69
666	81.69
666.203	87.69
666.406	74.69
666.609	76.69
666.812	85.69
667.015	79.69
667.218	76.69
667.421	81.69
667.624	76.69
667.827	68.69
668.03	86.69
668.232	69.69
668.435	80.69
668.638	89.69
668.841	73.69
669.043	88.69
669.246	59.69
669.449	89.69
669.651	74.69
669.854	75.69
670.057	69.69
670.259	72.69
670.462	86.69
670.665	73.69
670.867	85.69
671.07	83.69
671.272	73.69
671.475	87.69
671.677	77.69
671.88	78.69
672.082	81.69
672.284	68.69
672.487	84.69
672.689	78.69
672.892	80.69
