Data from 1975.PennyLincolnUp.Lamp.En5.5.200Scan.071719.P1.Changed Mount._HRD10591_15-56-33-858.txt Node
Date: Thu Jul 18 15:56:33 EDT 2019
User: cochatt
Spectrometer: HR+D1059
Trigger mode: 1
Integration Time (sec): 1.000000E-1
Scans to average: 1
Electric dark correction enabled: true
Nonlinearity correction enabled: false
Boxcar width: 0
XAxis mode: Wavelengths
Number of Pixels in Spectrum: 2048
>>>>>Begin Spectral Data<<<<<
223.165	-18.31
223.4	-18.31
223.635	-18.31
223.869	-24.31
224.104	-11.31
224.338	-23.31
224.573	-8.31
224.808	-22.31
225.042	-24.31
225.277	1.69
225.511	-6.31
225.746	7.69
225.98	-0.31
226.215	10.69
226.449	30.69
226.683	28.69
226.918	15.69
227.152	43.69
227.387	41.69
227.621	42.69
227.856	50.69
228.09	60.69
228.324	55.69
228.559	63.69
228.793	68.69
229.027	95.69
229.262	110.69
229.496	103.69
229.73	128.69
229.964	161.69
230.199	130.69
230.433	121.69
230.667	108.69
230.901	120.69
231.136	130.69
231.37	114.69
231.604	122.69
231.838	122.69
232.072	107.69
232.306	115.69
232.541	117.69
232.775	121.69
233.009	120.69
233.243	127.69
233.477	120.69
233.711	117.69
233.945	118.69
234.179	122.69
234.413	122.69
234.647	108.69
234.881	113.69
235.115	116.69
235.349	129.69
235.583	130.69
235.817	128.69
236.051	123.69
236.285	125.69
236.519	122.69
236.753	133.69
236.987	125.69
237.221	156.69
237.455	225.69
237.689	177.69
237.922	141.69
238.156	136.69
238.39	137.69
238.624	129.69
238.858	118.69
239.091	121.69
239.325	125.69
239.559	137.69
239.793	129.69
240.027	138.69
240.26	139.69
240.494	159.69
240.728	133.69
240.961	147.69
241.195	148.69
241.429	140.69
241.662	142.69
241.896	149.69
242.13	131.69
242.363	141.69
242.597	127.69
242.83	136.69
243.064	136.69
243.298	146.69
243.531	134.69
243.765	137.69
243.998	149.69
244.232	147.69
244.465	156.69
244.699	152.69
244.932	141.69
245.166	154.69
245.399	137.69
245.633	145.69
245.866	150.69
246.099	153.69
246.333	149.69
246.566	161.69
246.8	146.69
247.033	162.69
247.266	140.69
247.5	160.69
247.733	167.69
247.966	166.69
248.2	191.69
248.433	175.69
248.666	174.69
248.899	195.69
249.133	174.69
249.366	207.69
249.599	190.69
249.832	191.69
250.066	172.69
250.299	186.69
250.532	201.69
250.765	196.69
250.998	205.69
251.231	231.69
251.465	236.69
251.698	188.69
251.931	186.69
252.164	204.69
252.397	206.69
252.63	194.69
252.863	197.69
253.096	216.69
253.329	231.69
253.562	222.69
253.795	230.69
254.028	214.69
254.261	205.69
254.494	225.69
254.727	238.69
254.96	281.69
255.193	265.69
255.426	227.69
255.659	216.69
255.892	221.69
256.124	215.69
256.357	224.69
256.59	220.69
256.823	218.69
257.056	206.69
257.289	224.69
257.521	203.69
257.754	205.69
257.987	197.69
258.22	210.69
258.452	205.69
258.685	216.69
258.918	201.69
259.151	216.69
259.383	214.69
259.616	233.69
259.849	213.69
260.081	222.69
260.314	260.69
260.547	259.69
260.779	244.69
261.012	234.69
261.244	215.69
261.477	197.69
261.71	219.69
261.942	225.69
262.175	228.69
262.407	217.69
262.64	206.69
262.872	212.69
263.105	220.69
263.337	212.69
263.57	224.69
263.802	226.69
264.035	209.69
264.267	206.69
264.499	222.69
264.732	217.69
264.964	225.69
265.197	209.69
265.429	212.69
265.661	224.69
265.894	217.69
266.126	209.69
266.358	213.69
266.591	215.69
266.823	240.69
267.055	245.69
267.287	234.69
267.52	235.69
267.752	224.69
267.984	230.69
268.216	229.69
268.448	235.69
268.681	235.69
268.913	236.69
269.145	247.69
269.377	275.69
269.609	259.69
269.841	275.69
270.073	269.69
270.306	267.69
270.538	304.69
270.77	311.69
271.002	302.69
271.234	280.69
271.466	292.69
271.698	316.69
271.93	316.69
272.162	295.69
272.394	294.69
272.626	295.69
272.858	264.69
273.09	275.69
273.322	268.69
273.553	267.69
273.785	282.69
274.017	245.69
274.249	249.69
274.481	274.69
274.713	274.69
274.945	281.69
275.176	261.69
275.408	258.69
275.64	269.69
275.872	263.69
276.104	266.69
276.335	281.69
276.567	265.69
276.799	293.69
277.031	292.69
277.262	306.69
277.494	305.69
277.726	291.69
277.957	293.69
278.189	280.69
278.421	279.69
278.652	291.69
278.884	279.69
279.115	266.69
279.347	259.69
279.579	275.69
279.81	279.69
280.042	259.69
280.273	272.69
280.505	269.69
280.736	272.69
280.968	283.69
281.199	270.69
281.431	271.69
281.662	268.69
281.894	267.69
282.125	286.69
282.356	294.69
282.588	310.69
282.819	308.69
283.051	286.69
283.282	289.69
283.513	295.69
283.745	280.69
283.976	285.69
284.207	288.69
284.439	303.69
284.67	291.69
284.901	298.69
285.132	288.69
285.364	284.69
285.595	291.69
285.826	294.69
286.057	273.69
286.288	302.69
286.52	297.69
286.751	298.69
286.982	281.69
287.213	290.69
287.444	300.69
287.675	286.69
287.906	283.69
288.138	311.69
288.369	300.69
288.6	296.69
288.831	314.69
289.062	297.69
289.293	304.69
289.524	293.69
289.755	306.69
289.986	307.69
290.217	290.69
290.448	287.69
290.679	297.69
290.91	285.69
291.141	291.69
291.371	305.69
291.602	306.69
291.833	281.69
292.064	309.69
292.295	301.69
292.526	295.69
292.757	334.69
292.987	297.69
293.218	284.69
293.449	290.69
293.68	290.69
293.91	301.69
294.141	288.69
294.372	296.69
294.603	305.69
294.833	305.69
295.064	311.69
295.295	291.69
295.525	311.69
295.756	303.69
295.987	294.69
296.217	309.69
296.448	328.69
296.679	311.69
296.909	302.69
297.14	313.69
297.37	305.69
297.601	300.69
297.831	311.69
298.062	321.69
298.292	332.69
298.523	292.69
298.753	309.69
298.984	313.69
299.214	317.69
299.445	321.69
299.675	324.69
299.905	322.69
300.136	330.69
300.366	312.69
300.597	315.69
300.827	322.69
301.057	347.69
301.288	324.69
301.518	347.69
301.748	321.69
301.979	345.69
302.209	330.69
302.439	333.69
302.669	327.69
302.9	335.69
303.13	317.69
303.36	338.69
303.59	348.69
303.82	351.69
304.051	340.69
304.281	353.69
304.511	328.69
304.741	345.69
304.971	336.69
305.201	331.69
305.431	334.69
305.661	321.69
305.891	325.69
306.121	347.69
306.352	344.69
306.582	346.69
306.812	326.69
307.042	328.69
307.272	352.69
307.502	350.69
307.731	344.69
307.961	340.69
308.191	345.69
308.421	339.69
308.651	342.69
308.881	350.69
309.111	341.69
309.341	340.69
309.571	346.69
309.8	367.69
310.03	362.69
310.26	371.69
310.49	343.69
310.72	373.69
310.949	370.69
311.179	380.69
311.409	375.69
311.639	369.69
311.868	373.69
312.098	354.69
312.328	387.69
312.557	389.69
312.787	391.69
313.017	384.69
313.246	365.69
313.476	377.69
313.706	394.69
313.935	382.69
314.165	399.69
314.394	412.69
314.624	397.69
314.853	374.69
315.083	372.69
315.312	366.69
315.542	389.69
315.771	379.69
316.001	373.69
316.23	365.69
316.46	354.69
316.689	379.69
316.919	390.69
317.148	371.69
317.377	389.69
317.607	376.69
317.836	396.69
318.065	379.69
318.295	377.69
318.524	381.69
318.753	384.69
318.983	363.69
319.212	369.69
319.441	373.69
319.67	388.69
319.9	384.69
320.129	367.69
320.358	391.69
320.587	409.69
320.816	375.69
321.046	388.69
321.275	389.69
321.504	369.69
321.733	382.69
321.962	397.69
322.191	398.69
322.42	411.69
322.649	433.69
322.878	413.69
323.108	418.69
323.337	439.69
323.566	439.69
323.795	483.69
324.024	502.69
324.253	578.69
324.482	768.69
324.71	1185.69
324.939	1747.69
325.168	1539.69
325.397	791.69
325.626	556.69
325.855	486.69
326.084	466.69
326.313	453.69
326.542	452.69
326.77	488.69
326.999	558.69
327.228	738.69
327.457	1066.69
327.686	1326.69
327.914	898.69
328.143	622.69
328.372	562.69
328.6	539.69
328.829	531.69
329.058	521.69
329.287	506.69
329.515	511.69
329.744	474.69
329.972	490.69
330.201	472.69
330.43	519.69
330.658	557.69
330.887	526.69
331.115	523.69
331.344	485.69
331.572	476.69
331.801	474.69
332.03	482.69
332.258	455.69
332.486	442.69
332.715	455.69
332.943	438.69
333.172	468.69
333.4	474.69
333.629	463.69
333.857	495.69
334.085	487.69
334.314	522.69
334.542	521.69
334.771	539.69
334.999	514.69
335.227	476.69
335.455	453.69
335.684	450.69
335.912	477.69
336.14	433.69
336.369	467.69
336.597	458.69
336.825	459.69
337.053	452.69
337.281	447.69
337.51	454.69
337.738	441.69
337.966	446.69
338.194	437.69
338.422	432.69
338.65	445.69
338.878	426.69
339.106	441.69
339.334	434.69
339.562	443.69
339.79	443.69
340.018	422.69
340.246	434.69
340.474	426.69
340.702	421.69
340.93	422.69
341.158	435.69
341.386	429.69
341.614	433.69
341.842	437.69
342.07	435.69
342.298	413.69
342.526	441.69
342.754	394.69
342.981	441.69
343.209	437.69
343.437	436.69
343.665	458.69
343.893	451.69
344.12	467.69
344.348	451.69
344.576	485.69
344.804	441.69
345.031	451.69
345.259	468.69
345.487	440.69
345.714	433.69
345.942	430.69
346.17	431.69
346.397	426.69
346.625	422.69
346.853	411.69
347.08	431.69
347.308	434.69
347.535	425.69
347.763	413.69
347.99	439.69
348.218	414.69
348.445	445.69
348.673	427.69
348.9	413.69
349.128	408.69
349.355	403.69
349.583	421.69
349.81	409.69
350.037	411.69
350.265	402.69
350.492	398.69
350.72	403.69
350.947	419.69
351.174	425.69
351.402	427.69
351.629	425.69
351.856	426.69
352.083	416.69
352.311	423.69
352.538	427.69
352.765	426.69
352.992	431.69
353.22	430.69
353.447	406.69
353.674	430.69
353.901	414.69
354.128	402.69
354.355	419.69
354.583	402.69
354.81	391.69
355.037	375.69
355.264	389.69
355.491	400.69
355.718	398.69
355.945	407.69
356.172	401.69
356.399	383.69
356.626	392.69
356.853	395.69
357.08	399.69
357.307	406.69
357.534	397.69
357.761	402.69
357.988	387.69
358.215	408.69
358.441	389.69
358.668	389.69
358.895	394.69
359.122	388.69
359.349	389.69
359.576	424.69
359.802	440.69
360.029	467.69
360.256	458.69
360.483	451.69
360.709	438.69
360.936	407.69
361.163	408.69
361.39	421.69
361.616	421.69
361.843	414.69
362.07	413.69
362.296	410.69
362.523	420.69
362.749	409.69
362.976	423.69
363.203	382.69
363.429	399.69
363.656	385.69
363.882	416.69
364.109	409.69
364.335	395.69
364.562	404.69
364.788	419.69
365.015	420.69
365.241	413.69
365.468	425.69
365.694	422.69
365.92	421.69
366.147	404.69
366.373	409.69
366.599	411.69
366.826	378.69
367.052	409.69
367.278	388.69
367.505	414.69
367.731	406.69
367.957	410.69
368.184	414.69
368.41	419.69
368.636	421.69
368.862	414.69
369.089	417.69
369.315	407.69
369.541	423.69
369.767	403.69
369.993	401.69
370.219	409.69
370.445	417.69
370.672	399.69
370.898	384.69
371.124	380.69
371.35	403.69
371.576	421.69
371.802	421.69
372.028	435.69
372.254	412.69
372.48	419.69
372.706	412.69
372.932	414.69
373.158	405.69
373.384	422.69
373.61	418.69
373.835	417.69
374.061	438.69
374.287	429.69
374.513	435.69
374.739	443.69
374.965	427.69
375.191	435.69
375.416	451.69
375.642	438.69
375.868	428.69
376.094	405.69
376.319	423.69
376.545	415.69
376.771	402.69
376.997	409.69
377.222	406.69
377.448	411.69
377.674	391.69
377.899	425.69
378.125	420.69
378.35	425.69
378.576	413.69
378.802	422.69
379.027	425.69
379.253	411.69
379.478	421.69
379.704	424.69
379.929	399.69
380.155	425.69
380.38	411.69
380.606	434.69
380.831	425.69
381.057	424.69
381.282	427.69
381.507	426.69
381.733	438.69
381.958	439.69
382.184	434.69
382.409	436.69
382.634	437.69
382.86	429.69
383.085	423.69
383.31	422.69
383.535	438.69
383.761	429.69
383.986	445.69
384.211	440.69
384.436	449.69
384.662	442.69
384.887	453.69
385.112	444.69
385.337	458.69
385.562	471.69
385.787	475.69
386.013	469.69
386.238	469.69
386.463	464.69
386.688	496.69
386.913	463.69
387.138	461.69
387.363	491.69
387.588	467.69
387.813	465.69
388.038	466.69
388.263	458.69
388.488	475.69
388.713	461.69
388.938	474.69
389.163	446.69
389.387	474.69
389.612	477.69
389.837	466.69
390.062	456.69
390.287	483.69
390.512	461.69
390.736	462.69
390.961	459.69
391.186	443.69
391.411	469.69
391.636	491.69
391.86	478.69
392.085	484.69
392.31	492.69
392.534	487.69
392.759	460.69
392.984	472.69
393.208	473.69
393.433	486.69
393.658	470.69
393.882	482.69
394.107	459.69
394.331	484.69
394.556	471.69
394.78	502.69
395.005	486.69
395.229	463.69
395.454	500.69
395.678	505.69
395.903	505.69
396.127	542.69
396.352	523.69
396.576	500.69
396.801	492.69
397.025	489.69
397.249	491.69
397.474	511.69
397.698	516.69
397.922	534.69
398.147	527.69
398.371	537.69
398.595	518.69
398.82	553.69
399.044	544.69
399.268	578.69
399.492	620.69
399.717	649.69
399.941	683.69
400.165	700.69
400.389	687.69
400.613	650.69
400.837	610.69
401.062	578.69
401.286	556.69
401.51	566.69
401.734	551.69
401.958	553.69
402.182	550.69
402.406	555.69
402.63	552.69
402.854	571.69
403.078	575.69
403.302	594.69
403.526	563.69
403.75	571.69
403.974	571.69
404.198	578.69
404.422	582.69
404.645	584.69
404.869	566.69
405.093	621.69
405.317	663.69
405.541	697.69
405.765	641.69
405.988	603.69
406.212	604.69
406.436	611.69
406.66	629.69
406.883	646.69
407.107	631.69
407.331	667.69
407.555	742.69
407.778	715.69
408.002	692.69
408.226	651.69
408.449	623.69
408.673	631.69
408.896	643.69
409.12	686.69
409.344	659.69
409.567	603.69
409.791	579.69
410.014	581.69
410.238	595.69
410.461	574.69
410.685	583.69
410.908	578.69
411.132	635.69
411.355	640.69
411.578	629.69
411.802	572.69
412.025	574.69
412.249	561.69
412.472	605.69
412.695	641.69
412.919	663.69
413.142	602.69
413.365	566.69
413.589	557.69
413.812	536.69
414.035	534.69
414.258	542.69
414.482	537.69
414.705	524.69
414.928	553.69
415.151	543.69
415.374	548.69
415.597	516.69
415.821	517.69
416.044	529.69
416.267	548.69
416.49	539.69
416.713	538.69
416.936	528.69
417.159	527.69
417.382	537.69
417.605	551.69
417.828	553.69
418.051	570.69
418.274	547.69
418.497	538.69
418.72	532.69
418.943	565.69
419.166	587.69
419.389	614.69
419.611	563.69
419.834	593.69
420.057	562.69
420.28	570.69
420.503	583.69
420.726	578.69
420.948	596.69
421.171	612.69
421.394	646.69
421.617	590.69
421.839	544.69
422.062	570.69
422.285	569.69
422.507	651.69
422.73	706.69
422.953	669.69
423.175	595.69
423.398	607.69
423.621	591.69
423.843	594.69
424.066	609.69
424.288	600.69
424.511	619.69
424.733	684.69
424.956	747.69
425.178	709.69
425.401	690.69
425.623	741.69
425.846	621.69
426.068	580.69
426.291	558.69
426.513	579.69
426.735	600.69
426.958	633.69
427.18	696.69
427.402	832.69
427.625	913.69
427.847	769.69
428.069	679.69
428.292	623.69
428.514	577.69
428.736	550.69
428.958	555.69
429.181	541.69
429.403	550.69
429.625	566.69
429.847	569.69
430.069	637.69
430.292	657.69
430.514	557.69
430.736	566.69
430.958	549.69
431.18	527.69
431.402	517.69
431.624	506.69
431.846	521.69
432.068	524.69
432.29	516.69
432.512	502.69
432.734	541.69
432.956	542.69
433.178	544.69
433.4	531.69
433.622	517.69
433.844	513.69
434.066	520.69
434.287	538.69
434.509	539.69
434.731	537.69
434.953	562.69
435.175	598.69
435.397	581.69
435.618	574.69
435.84	641.69
436.062	695.69
436.284	768.69
436.505	630.69
436.727	579.69
436.949	563.69
437.17	553.69
437.392	536.69
437.614	548.69
437.835	585.69
438.057	659.69
438.278	793.69
438.5	750.69
438.721	836.69
438.943	817.69
439.165	647.69
439.386	598.69
439.608	597.69
439.829	584.69
440.05	623.69
440.272	638.69
440.493	643.69
440.715	560.69
440.936	560.69
441.158	534.69
441.379	547.69
441.6	579.69
441.822	589.69
442.043	630.69
442.264	703.69
442.486	758.69
442.707	646.69
442.928	608.69
443.149	617.69
443.371	617.69
443.592	686.69
443.813	768.69
444.034	828.69
444.255	689.69
444.476	623.69
444.698	620.69
444.919	614.69
445.14	729.69
445.361	654.69
445.582	641.69
445.803	699.69
446.024	795.69
446.245	781.69
446.466	713.69
446.687	628.69
446.908	588.69
447.129	552.69
447.35	550.69
447.571	533.69
447.792	519.69
448.013	519.69
448.234	556.69
448.455	586.69
448.675	716.69
448.896	826.69
449.117	698.69
449.338	651.69
449.559	782.69
449.779	888.69
450	677.69
450.221	610.69
450.442	558.69
450.662	505.69
450.883	508.69
451.104	532.69
451.324	520.69
451.545	498.69
451.766	495.69
451.986	476.69
452.207	468.69
452.428	482.69
452.648	473.69
452.869	471.69
453.089	480.69
453.31	503.69
453.53	480.69
453.751	475.69
453.971	481.69
454.192	509.69
454.412	469.69
454.633	443.69
454.853	481.69
455.073	468.69
455.294	500.69
455.514	532.69
455.734	548.69
455.955	466.69
456.175	465.69
456.395	459.69
456.616	452.69
456.836	483.69
457.056	441.69
457.276	455.69
457.497	470.69
457.717	442.69
457.937	473.69
458.157	445.69
458.377	476.69
458.598	490.69
458.818	524.69
459.038	602.69
459.258	626.69
459.478	561.69
459.698	525.69
459.918	548.69
460.138	526.69
460.358	537.69
460.578	534.69
460.798	546.69
461.018	527.69
461.238	553.69
461.458	532.69
461.678	543.69
461.898	547.69
462.118	538.69
462.338	567.69
462.558	580.69
462.777	570.69
462.997	577.69
463.217	610.69
463.437	615.69
463.657	607.69
463.876	594.69
464.096	601.69
464.316	586.69
464.536	605.69
464.755	567.69
464.975	587.69
465.195	588.69
465.414	621.69
465.634	592.69
465.854	555.69
466.073	542.69
466.293	533.69
466.512	513.69
466.732	499.69
466.951	514.69
467.171	502.69
467.391	522.69
467.61	504.69
467.829	504.69
468.049	522.69
468.268	507.69
468.488	497.69
468.707	498.69
468.927	485.69
469.146	475.69
469.365	490.69
469.585	492.69
469.804	490.69
470.023	516.69
470.243	495.69
470.462	507.69
470.681	527.69
470.901	496.69
471.12	515.69
471.339	519.69
471.558	507.69
471.777	517.69
471.997	510.69
472.216	525.69
472.435	548.69
472.654	517.69
472.873	495.69
473.092	519.69
473.311	505.69
473.53	505.69
473.749	511.69
473.968	542.69
474.187	630.69
474.406	666.69
474.625	553.69
474.844	513.69
475.063	499.69
475.282	488.69
475.501	513.69
475.72	530.69
475.939	517.69
476.158	497.69
476.377	516.69
476.596	528.69
476.814	530.69
477.033	546.69
477.252	549.69
477.471	551.69
477.69	539.69
477.908	557.69
478.127	549.69
478.346	554.69
478.564	567.69
478.783	582.69
479.002	566.69
479.22	586.69
479.439	582.69
479.658	609.69
479.876	632.69
480.095	627.69
480.313	654.69
480.532	615.69
480.751	629.69
480.969	665.69
481.188	676.69
481.406	695.69
481.624	628.69
481.843	595.69
482.061	624.69
482.28	602.69
482.498	586.69
482.717	582.69
482.935	590.69
483.153	579.69
483.372	593.69
483.59	562.69
483.808	584.69
484.027	601.69
484.245	586.69
484.463	592.69
484.681	627.69
484.9	609.69
485.118	610.69
485.336	614.69
485.554	599.69
485.772	601.69
485.99	627.69
486.209	633.69
486.427	615.69
486.645	621.69
486.863	629.69
487.081	649.69
487.299	658.69
487.517	633.69
487.735	630.69
487.953	613.69
488.171	615.69
488.389	631.69
488.607	646.69
488.825	647.69
489.043	634.69
489.261	639.69
489.479	640.69
489.696	633.69
489.914	661.69
490.132	670.69
490.35	673.69
490.568	676.69
490.786	670.69
491.003	673.69
491.221	693.69
491.439	699.69
491.657	724.69
491.874	713.69
492.092	727.69
492.31	736.69
492.527	751.69
492.745	736.69
492.963	731.69
493.18	733.69
493.398	757.69
493.615	763.69
493.833	759.69
494.05	758.69
494.268	746.69
494.485	758.69
494.703	771.69
494.92	750.69
495.138	767.69
495.355	778.69
495.573	742.69
495.79	745.69
496.008	764.69
496.225	781.69
496.442	758.69
496.66	780.69
496.877	765.69
497.094	761.69
497.312	770.69
497.529	766.69
497.746	803.69
497.963	805.69
498.181	839.69
498.398	845.69
498.615	858.69
498.832	865.69
499.049	884.69
499.267	943.69
499.484	984.69
499.701	1014.69
499.918	1041.69
500.135	1137.69
500.352	1192.69
500.569	1213.69
500.786	1244.69
501.003	1199.69
501.22	1146.69
501.437	1092.69
501.654	1018.69
501.871	1014.69
502.088	947.69
502.305	940.69
502.522	892.69
502.739	853.69
502.956	837.69
503.172	824.69
503.389	789.69
503.606	798.69
503.823	766.69
504.04	760.69
504.256	760.69
504.473	776.69
504.69	765.69
504.907	763.69
505.123	736.69
505.34	725.69
505.557	727.69
505.773	737.69
505.99	731.69
506.207	722.69
506.423	685.69
506.64	723.69
506.856	671.69
507.073	713.69
507.289	712.69
507.506	699.69
507.722	709.69
507.939	719.69
508.155	667.69
508.372	669.69
508.588	655.69
508.805	655.69
509.021	653.69
509.238	657.69
509.454	689.69
509.67	685.69
509.887	653.69
510.103	652.69
510.319	649.69
510.536	711.69
510.752	1011.69
510.968	854.69
511.184	650.69
511.401	631.69
511.617	627.69
511.833	619.69
512.049	669.69
512.265	632.69
512.481	614.69
512.698	613.69
512.914	607.69
513.13	620.69
513.346	618.69
513.562	630.69
513.778	629.69
513.994	635.69
514.21	596.69
514.426	619.69
514.642	661.69
514.858	697.69
515.074	685.69
515.29	805.69
515.506	1002.69
515.721	905.69
515.937	698.69
516.153	677.69
516.369	635.69
516.585	653.69
516.801	630.69
517.016	664.69
517.232	686.69
517.448	676.69
517.664	679.69
517.879	685.69
518.095	695.69
518.311	673.69
518.527	641.69
518.742	642.69
518.958	642.69
519.173	622.69
519.389	630.69
519.605	616.69
519.82	635.69
520.036	601.69
520.251	638.69
520.467	655.69
520.682	663.69
520.898	638.69
521.113	650.69
521.329	655.69
521.544	722.69
521.76	865.69
521.975	1242.69
522.19	1215.69
522.406	775.69
522.621	649.69
522.836	599.69
523.052	577.69
523.267	572.69
523.482	602.69
523.698	579.69
523.913	559.69
524.128	554.69
524.343	561.69
524.559	545.69
524.774	550.69
524.989	540.69
525.204	538.69
525.419	558.69
525.634	539.69
525.849	552.69
526.064	523.69
526.28	517.69
526.495	514.69
526.71	522.69
526.925	522.69
527.14	498.69
527.355	504.69
527.57	517.69
527.785	514.69
527.999	502.69
528.214	507.69
528.429	514.69
528.644	527.69
528.859	537.69
529.074	517.69
529.289	530.69
529.503	572.69
529.718	598.69
529.933	535.69
530.148	539.69
530.363	519.69
530.577	521.69
530.792	501.69
531.007	508.69
531.221	500.69
531.436	527.69
531.651	517.69
531.865	506.69
532.08	519.69
532.295	513.69
532.509	515.69
532.724	504.69
532.938	501.69
533.153	481.69
533.367	487.69
533.582	491.69
533.796	525.69
534.011	535.69
534.225	498.69
534.44	480.69
534.654	500.69
534.868	489.69
535.083	488.69
535.297	498.69
535.511	517.69
535.726	522.69
535.94	517.69
536.154	505.69
536.369	485.69
536.583	467.69
536.797	492.69
537.011	474.69
537.225	473.69
537.44	469.69
537.654	485.69
537.868	473.69
538.082	464.69
538.296	489.69
538.51	491.69
538.724	487.69
538.938	486.69
539.153	480.69
539.367	498.69
539.581	497.69
539.795	473.69
540.009	489.69
540.222	472.69
540.436	519.69
540.65	449.69
540.864	485.69
541.078	478.69
541.292	483.69
541.506	494.69
541.72	483.69
541.934	490.69
542.147	473.69
542.361	483.69
542.575	471.69
542.789	471.69
543.002	450.69
543.216	511.69
543.43	491.69
543.644	465.69
543.857	486.69
544.071	487.69
544.285	490.69
544.498	472.69
544.712	487.69
544.925	475.69
545.139	474.69
545.352	497.69
545.566	484.69
545.779	469.69
545.993	506.69
546.206	473.69
546.42	479.69
546.633	475.69
546.847	451.69
547.06	467.69
547.274	479.69
547.487	475.69
547.7	478.69
547.914	467.69
548.127	483.69
548.34	478.69
548.554	470.69
548.767	481.69
548.98	470.69
549.193	478.69
549.407	457.69
549.62	466.69
549.833	477.69
550.046	476.69
550.259	473.69
550.473	457.69
550.686	451.69
550.899	473.69
551.112	451.69
551.325	463.69
551.538	443.69
551.751	443.69
551.964	443.69
552.177	461.69
552.39	472.69
552.603	477.69
552.816	476.69
553.029	488.69
553.242	492.69
553.455	482.69
553.667	482.69
553.88	499.69
554.093	518.69
554.306	486.69
554.519	474.69
554.732	465.69
554.944	478.69
555.157	461.69
555.37	457.69
555.583	448.69
555.795	455.69
556.008	460.69
556.221	436.69
556.433	428.69
556.646	435.69
556.859	427.69
557.071	422.69
557.284	433.69
557.496	419.69
557.709	433.69
557.921	425.69
558.134	395.69
558.346	419.69
558.559	414.69
558.771	421.69
558.984	417.69
559.196	406.69
559.409	401.69
559.621	419.69
559.833	413.69
560.046	417.69
560.258	405.69
560.47	412.69
560.683	421.69
560.895	410.69
561.107	422.69
561.32	416.69
561.532	397.69
561.744	415.69
561.956	399.69
562.168	408.69
562.381	423.69
562.593	419.69
562.805	410.69
563.017	409.69
563.229	422.69
563.441	429.69
563.653	411.69
563.865	426.69
564.077	446.69
564.289	435.69
564.501	434.69
564.713	439.69
564.925	447.69
565.137	442.69
565.349	460.69
565.561	467.69
565.773	475.69
565.985	470.69
566.197	490.69
566.408	502.69
566.62	503.69
566.832	540.69
567.044	533.69
567.255	544.69
567.467	533.69
567.679	567.69
567.891	592.69
568.102	569.69
568.314	564.69
568.526	544.69
568.737	527.69
568.949	465.69
569.161	477.69
569.372	454.69
569.584	446.69
569.795	455.69
570.007	422.69
570.218	444.69
570.43	451.69
570.641	421.69
570.853	428.69
571.064	425.69
571.276	404.69
571.487	410.69
571.698	417.69
571.91	374.69
572.121	377.69
572.333	374.69
572.544	364.69
572.755	375.69
572.966	381.69
573.178	389.69
573.389	375.69
573.6	385.69
573.811	365.69
574.023	375.69
574.234	362.69
574.445	354.69
574.656	345.69
574.867	355.69
575.078	358.69
575.289	356.69
575.501	354.69
575.712	332.69
575.923	356.69
576.134	355.69
576.345	354.69
576.556	378.69
576.767	351.69
576.978	370.69
577.188	354.69
577.399	358.69
577.61	353.69
577.821	362.69
578.032	342.69
578.243	376.69
578.454	474.69
578.665	400.69
578.875	340.69
579.086	318.69
579.297	316.69
579.508	344.69
579.718	350.69
579.929	312.69
580.14	329.69
580.35	331.69
580.561	325.69
580.772	309.69
580.982	306.69
581.193	343.69
581.403	311.69
581.614	325.69
581.825	332.69
582.035	337.69
582.246	322.69
582.456	324.69
582.667	313.69
582.877	303.69
583.087	317.69
583.298	311.69
583.508	325.69
583.719	331.69
583.929	314.69
584.139	319.69
584.35	312.69
584.56	307.69
584.77	318.69
584.981	308.69
585.191	319.69
585.401	329.69
585.611	327.69
585.821	327.69
586.032	299.69
586.242	308.69
586.452	298.69
586.662	317.69
586.872	313.69
587.082	303.69
587.292	309.69
587.502	308.69
587.713	315.69
587.923	307.69
588.133	306.69
588.343	297.69
588.553	302.69
588.762	308.69
588.972	305.69
589.182	311.69
589.392	323.69
589.602	309.69
589.812	320.69
590.022	304.69
590.232	308.69
590.441	308.69
590.651	317.69
590.861	318.69
591.071	325.69
591.281	308.69
591.49	314.69
591.7	329.69
591.91	321.69
592.119	337.69
592.329	347.69
592.539	335.69
592.748	355.69
592.958	335.69
593.167	340.69
593.377	340.69
593.587	338.69
593.796	358.69
594.006	341.69
594.215	333.69
594.424	344.69
594.634	355.69
594.843	346.69
595.053	314.69
595.262	326.69
595.472	333.69
595.681	318.69
595.89	309.69
596.1	300.69
596.309	303.69
596.518	314.69
596.727	311.69
596.937	301.69
597.146	296.69
597.355	284.69
597.564	282.69
597.774	298.69
597.983	290.69
598.192	274.69
598.401	297.69
598.61	281.69
598.819	284.69
599.028	278.69
599.237	270.69
599.446	280.69
599.655	286.69
599.864	279.69
600.073	262.69
600.282	278.69
600.491	275.69
600.7	269.69
600.909	262.69
601.118	292.69
601.327	282.69
601.536	279.69
601.745	285.69
601.953	283.69
602.162	269.69
602.371	277.69
602.58	270.69
602.789	270.69
602.997	284.69
603.206	229.69
603.415	272.69
603.623	271.69
603.832	269.69
604.041	259.69
604.249	263.69
604.458	258.69
604.666	259.69
604.875	264.69
605.084	260.69
605.292	264.69
605.501	277.69
605.709	258.69
605.918	242.69
606.126	271.69
606.334	245.69
606.543	281.69
606.751	258.69
606.96	255.69
607.168	245.69
607.376	264.69
607.585	270.69
607.793	257.69
608.001	265.69
608.21	257.69
608.418	237.69
608.626	254.69
608.834	259.69
609.043	252.69
609.251	262.69
609.459	243.69
609.667	275.69
609.875	263.69
610.083	266.69
610.291	257.69
610.499	247.69
610.707	253.69
610.916	255.69
611.124	249.69
611.332	264.69
611.54	242.69
611.748	242.69
611.955	252.69
612.163	258.69
612.371	260.69
612.579	246.69
612.787	258.69
612.995	256.69
613.203	255.69
613.411	265.69
613.618	267.69
613.826	278.69
614.034	247.69
614.242	258.69
614.449	256.69
614.657	262.69
614.865	253.69
615.072	250.69
615.28	242.69
615.488	267.69
615.695	246.69
615.903	244.69
616.111	263.69
616.318	270.69
616.526	261.69
616.733	257.69
616.941	253.69
617.148	262.69
617.356	253.69
617.563	245.69
617.771	232.69
617.978	227.69
618.185	249.69
618.393	242.69
618.6	258.69
618.807	254.69
619.015	247.69
619.222	231.69
619.429	247.69
619.637	235.69
619.844	241.69
620.051	231.69
620.258	229.69
620.466	234.69
620.673	230.69
620.88	228.69
621.087	227.69
621.294	226.69
621.501	241.69
621.708	233.69
621.915	237.69
622.122	248.69
622.329	241.69
622.536	236.69
622.743	228.69
622.95	232.69
623.157	242.69
623.364	226.69
623.571	239.69
623.778	237.69
623.985	219.69
624.192	232.69
624.399	230.69
624.606	221.69
624.812	214.69
625.019	231.69
625.226	231.69
625.433	204.69
625.639	217.69
625.846	224.69
626.053	226.69
626.259	213.69
626.466	209.69
626.673	233.69
626.879	232.69
627.086	212.69
627.293	211.69
627.499	222.69
627.706	211.69
627.912	203.69
628.119	214.69
628.325	223.69
628.532	219.69
628.738	198.69
628.945	220.69
629.151	213.69
629.357	199.69
629.564	221.69
629.77	197.69
629.976	211.69
630.183	202.69
630.389	212.69
630.595	200.69
630.802	215.69
631.008	202.69
631.214	213.69
631.42	213.69
631.627	212.69
631.833	205.69
632.039	200.69
632.245	192.69
632.451	210.69
632.657	194.69
632.863	205.69
633.069	195.69
633.275	207.69
633.481	183.69
633.688	189.69
633.893	203.69
634.099	206.69
634.305	183.69
634.511	195.69
634.717	186.69
634.923	185.69
635.129	195.69
635.335	190.69
635.541	200.69
635.747	191.69
635.952	181.69
636.158	193.69
636.364	189.69
636.57	193.69
636.775	199.69
636.981	205.69
637.187	190.69
637.392	187.69
637.598	191.69
637.804	188.69
638.009	194.69
638.215	199.69
638.421	174.69
638.626	189.69
638.832	191.69
639.037	183.69
639.243	187.69
639.448	204.69
639.654	177.69
639.859	172.69
640.065	168.69
640.27	195.69
640.475	181.69
640.681	188.69
640.886	189.69
641.091	184.69
641.297	185.69
641.502	184.69
641.707	183.69
641.913	186.69
642.118	165.69
642.323	170.69
642.528	182.69
642.733	177.69
642.939	180.69
643.144	168.69
643.349	183.69
643.554	169.69
643.759	171.69
643.964	163.69
644.169	178.69
644.374	171.69
644.579	185.69
644.784	170.69
644.989	179.69
645.194	164.69
645.399	183.69
645.604	178.69
645.809	191.69
646.014	188.69
646.219	188.69
646.423	181.69
646.628	181.69
646.833	186.69
647.038	184.69
647.243	178.69
647.447	174.69
647.652	191.69
647.857	162.69
648.062	182.69
648.266	192.69
648.471	180.69
648.676	182.69
648.88	188.69
649.085	163.69
649.289	168.69
649.494	173.69
649.698	193.69
649.903	199.69
650.107	159.69
650.312	183.69
650.516	163.69
650.721	168.69
650.925	167.69
651.13	164.69
651.334	170.69
651.539	170.69
651.743	169.69
651.947	156.69
652.152	159.69
652.356	159.69
652.56	166.69
652.764	140.69
652.969	134.69
653.173	139.69
653.377	143.69
653.581	146.69
653.785	153.69
653.99	148.69
654.194	144.69
654.398	140.69
654.602	140.69
654.806	132.69
655.01	142.69
655.214	142.69
655.418	134.69
655.622	132.69
655.826	136.69
656.03	150.69
656.234	141.69
656.438	146.69
656.642	140.69
656.846	142.69
657.049	133.69
657.253	139.69
657.457	136.69
657.661	123.69
657.865	114.69
658.068	105.69
658.272	135.69
658.476	120.69
658.68	122.69
658.883	94.69
659.087	97.69
659.291	103.69
659.494	111.69
659.698	99.69
659.901	96.69
660.105	93.69
660.309	85.69
660.512	87.69
660.716	94.69
660.919	90.69
661.123	93.69
661.326	86.69
661.53	106.69
661.733	99.69
661.936	84.69
662.14	107.69
662.343	76.69
662.546	91.69
662.75	84.69
662.953	78.69
663.156	89.69
663.36	85.69
663.563	76.69
663.766	88.69
663.969	77.69
664.173	100.69
664.376	83.69
664.579	89.69
664.782	88.69
664.985	92.69
665.188	69.69
665.391	86.69
665.594	90.69
665.797	83.69
666	88.69
666.203	72.69
666.406	95.69
666.609	91.69
666.812	90.69
667.015	81.69
667.218	88.69
667.421	87.69
667.624	78.69
667.827	79.69
668.03	89.69
668.232	97.69
668.435	82.69
668.638	86.69
668.841	97.69
669.043	95.69
669.246	80.69
669.449	92.69
669.651	75.69
669.854	93.69
670.057	83.69
670.259	88.69
670.462	84.69
670.665	94.69
670.867	77.69
671.07	85.69
671.272	78.69
671.475	72.69
671.677	91.69
671.88	92.69
672.082	71.69
672.284	83.69
672.487	77.69
672.689	71.69
672.892	65.69
