Data from 1975.PennyLincolnUp.Lamp.En5.5.200Scan.071719.P1.Changed Mount._HRD10591_15-58-24-859.txt Node
Date: Thu Jul 18 15:58:24 EDT 2019
User: cochatt
Spectrometer: HR+D1059
Trigger mode: 1
Integration Time (sec): 1.000000E-1
Scans to average: 1
Electric dark correction enabled: true
Nonlinearity correction enabled: false
Boxcar width: 0
XAxis mode: Wavelengths
Number of Pixels in Spectrum: 2048
>>>>>Begin Spectral Data<<<<<
223.165	-14.25
223.4	-14.25
223.635	-14.25
223.869	-27.25
224.104	-16.25
224.338	-20.25
224.573	-9.25
224.808	-17.25
225.042	-12.25
225.277	1.75
225.511	11.75
225.746	-5.25
225.98	-4.25
226.215	5.75
226.449	14.75
226.683	30.75
226.918	32.75
227.152	28.75
227.387	33.75
227.621	27.75
227.856	63.75
228.09	35.75
228.324	45.75
228.559	65.75
228.793	65.75
229.027	99.75
229.262	90.75
229.496	105.75
229.73	137.75
229.964	151.75
230.199	133.75
230.433	103.75
230.667	116.75
230.901	120.75
231.136	110.75
231.37	115.75
231.604	108.75
231.838	122.75
232.072	118.75
232.306	117.75
232.541	111.75
232.775	104.75
233.009	110.75
233.243	114.75
233.477	114.75
233.711	126.75
233.945	131.75
234.179	120.75
234.413	110.75
234.647	102.75
234.881	117.75
235.115	125.75
235.349	128.75
235.583	119.75
235.817	112.75
236.051	120.75
236.285	126.75
236.519	110.75
236.753	133.75
236.987	153.75
237.221	193.75
237.455	237.75
237.689	174.75
237.922	162.75
238.156	139.75
238.39	126.75
238.624	123.75
238.858	133.75
239.091	133.75
239.325	141.75
239.559	135.75
239.793	138.75
240.027	143.75
240.26	147.75
240.494	153.75
240.728	168.75
240.961	162.75
241.195	144.75
241.429	141.75
241.662	137.75
241.896	149.75
242.13	137.75
242.363	138.75
242.597	142.75
242.83	144.75
243.064	144.75
243.298	150.75
243.531	149.75
243.765	147.75
243.998	147.75
244.232	140.75
244.465	149.75
244.699	142.75
244.932	151.75
245.166	145.75
245.399	159.75
245.633	150.75
245.866	147.75
246.099	164.75
246.333	166.75
246.566	176.75
246.8	179.75
247.033	163.75
247.266	162.75
247.5	158.75
247.733	185.75
247.966	169.75
248.2	173.75
248.433	169.75
248.666	177.75
248.899	187.75
249.133	211.75
249.366	222.75
249.599	203.75
249.832	202.75
250.066	185.75
250.299	197.75
250.532	199.75
250.765	203.75
250.998	230.75
251.231	241.75
251.465	236.75
251.698	241.75
251.931	207.75
252.164	203.75
252.397	189.75
252.63	212.75
252.863	210.75
253.096	216.75
253.329	235.75
253.562	245.75
253.795	226.75
254.028	203.75
254.261	232.75
254.494	222.75
254.727	265.75
254.96	279.75
255.193	277.75
255.426	254.75
255.659	235.75
255.892	248.75
256.124	233.75
256.357	265.75
256.59	217.75
256.823	218.75
257.056	231.75
257.289	228.75
257.521	218.75
257.754	242.75
257.987	208.75
258.22	229.75
258.452	227.75
258.685	206.75
258.918	219.75
259.151	205.75
259.383	246.75
259.616	225.75
259.849	257.75
260.081	269.75
260.314	265.75
260.547	278.75
260.779	263.75
261.012	250.75
261.244	234.75
261.477	237.75
261.71	218.75
261.942	241.75
262.175	227.75
262.407	244.75
262.64	235.75
262.872	218.75
263.105	236.75
263.337	235.75
263.57	221.75
263.802	218.75
264.035	213.75
264.267	218.75
264.499	211.75
264.732	220.75
264.964	220.75
265.197	227.75
265.429	227.75
265.661	230.75
265.894	229.75
266.126	234.75
266.358	240.75
266.591	240.75
266.823	221.75
267.055	255.75
267.287	245.75
267.52	241.75
267.752	243.75
267.984	241.75
268.216	250.75
268.448	231.75
268.681	237.75
268.913	259.75
269.145	284.75
269.377	284.75
269.609	272.75
269.841	288.75
270.073	286.75
270.306	303.75
270.538	321.75
270.77	343.75
271.002	313.75
271.234	309.75
271.466	305.75
271.698	323.75
271.93	336.75
272.162	314.75
272.394	320.75
272.626	301.75
272.858	295.75
273.09	298.75
273.322	299.75
273.553	273.75
273.785	276.75
274.017	275.75
274.249	287.75
274.481	291.75
274.713	280.75
274.945	291.75
275.176	285.75
275.408	278.75
275.64	285.75
275.872	280.75
276.104	268.75
276.335	280.75
276.567	289.75
276.799	296.75
277.031	312.75
277.262	321.75
277.494	330.75
277.726	308.75
277.957	322.75
278.189	293.75
278.421	267.75
278.652	293.75
278.884	293.75
279.115	303.75
279.347	298.75
279.579	294.75
279.81	291.75
280.042	274.75
280.273	295.75
280.505	307.75
280.736	285.75
280.968	292.75
281.199	300.75
281.431	296.75
281.662	270.75
281.894	285.75
282.125	286.75
282.356	311.75
282.588	301.75
282.819	304.75
283.051	307.75
283.282	297.75
283.513	290.75
283.745	282.75
283.976	310.75
284.207	296.75
284.439	301.75
284.67	290.75
284.901	322.75
285.132	310.75
285.364	306.75
285.595	308.75
285.826	306.75
286.057	317.75
286.288	304.75
286.52	305.75
286.751	306.75
286.982	323.75
287.213	324.75
287.444	297.75
287.675	327.75
287.906	325.75
288.138	327.75
288.369	316.75
288.6	322.75
288.831	333.75
289.062	336.75
289.293	313.75
289.524	323.75
289.755	302.75
289.986	289.75
290.217	317.75
290.448	312.75
290.679	295.75
290.91	300.75
291.141	308.75
291.371	296.75
291.602	315.75
291.833	297.75
292.064	323.75
292.295	310.75
292.526	318.75
292.757	312.75
292.987	317.75
293.218	321.75
293.449	314.75
293.68	291.75
293.91	314.75
294.141	323.75
294.372	314.75
294.603	308.75
294.833	306.75
295.064	324.75
295.295	331.75
295.525	319.75
295.756	330.75
295.987	303.75
296.217	354.75
296.448	345.75
296.679	332.75
296.909	333.75
297.14	325.75
297.37	309.75
297.601	328.75
297.831	323.75
298.062	328.75
298.292	321.75
298.523	336.75
298.753	333.75
298.984	314.75
299.214	325.75
299.445	340.75
299.675	343.75
299.905	333.75
300.136	346.75
300.366	330.75
300.597	342.75
300.827	323.75
301.057	350.75
301.288	358.75
301.518	363.75
301.748	348.75
301.979	359.75
302.209	361.75
302.439	350.75
302.669	359.75
302.9	362.75
303.13	332.75
303.36	350.75
303.59	365.75
303.82	364.75
304.051	366.75
304.281	354.75
304.511	351.75
304.741	351.75
304.971	351.75
305.201	346.75
305.431	361.75
305.661	358.75
305.891	346.75
306.121	353.75
306.352	352.75
306.582	341.75
306.812	334.75
307.042	341.75
307.272	347.75
307.502	357.75
307.731	363.75
307.961	361.75
308.191	375.75
308.421	357.75
308.651	367.75
308.881	340.75
309.111	356.75
309.341	365.75
309.571	360.75
309.8	372.75
310.03	373.75
310.26	375.75
310.49	377.75
310.72	380.75
310.949	391.75
311.179	417.75
311.409	396.75
311.639	397.75
311.868	386.75
312.098	388.75
312.328	399.75
312.557	417.75
312.787	435.75
313.017	426.75
313.246	391.75
313.476	375.75
313.706	378.75
313.935	407.75
314.165	390.75
314.394	410.75
314.624	426.75
314.853	415.75
315.083	398.75
315.312	389.75
315.542	383.75
315.771	386.75
316.001	383.75
316.23	397.75
316.46	396.75
316.689	421.75
316.919	384.75
317.148	407.75
317.377	393.75
317.607	420.75
317.836	406.75
318.065	399.75
318.295	403.75
318.524	386.75
318.753	394.75
318.983	395.75
319.212	389.75
319.441	393.75
319.67	410.75
319.9	393.75
320.129	389.75
320.358	397.75
320.587	397.75
320.816	405.75
321.046	403.75
321.275	417.75
321.504	425.75
321.733	421.75
321.962	445.75
322.191	421.75
322.42	410.75
322.649	445.75
322.878	469.75
323.108	436.75
323.337	470.75
323.566	497.75
323.795	511.75
324.024	541.75
324.253	627.75
324.482	828.75
324.71	1336.75
324.939	1931.75
325.168	1719.75
325.397	871.75
325.626	606.75
325.855	521.75
326.084	500.75
326.313	491.75
326.542	505.75
326.77	517.75
326.999	617.75
327.228	818.75
327.457	1185.75
327.686	1499.75
327.914	985.75
328.143	638.75
328.372	598.75
328.6	531.75
328.829	568.75
329.058	570.75
329.287	567.75
329.515	567.75
329.744	507.75
329.972	498.75
330.201	537.75
330.43	581.75
330.658	579.75
330.887	592.75
331.115	591.75
331.344	511.75
331.572	491.75
331.801	495.75
332.03	503.75
332.258	507.75
332.486	498.75
332.715	489.75
332.943	477.75
333.172	480.75
333.4	502.75
333.629	528.75
333.857	520.75
334.085	531.75
334.314	542.75
334.542	568.75
334.771	578.75
334.999	536.75
335.227	520.75
335.455	491.75
335.684	473.75
335.912	482.75
336.14	490.75
336.369	482.75
336.597	476.75
336.825	492.75
337.053	464.75
337.281	451.75
337.51	473.75
337.738	447.75
337.966	470.75
338.194	473.75
338.422	492.75
338.65	476.75
338.878	460.75
339.106	444.75
339.334	457.75
339.562	441.75
339.79	451.75
340.018	456.75
340.246	450.75
340.474	456.75
340.702	463.75
340.93	419.75
341.158	457.75
341.386	470.75
341.614	456.75
341.842	444.75
342.07	453.75
342.298	453.75
342.526	458.75
342.754	454.75
342.981	448.75
343.209	419.75
343.437	453.75
343.665	455.75
343.893	471.75
344.12	499.75
344.348	475.75
344.576	453.75
344.804	487.75
345.031	467.75
345.259	478.75
345.487	458.75
345.714	449.75
345.942	447.75
346.17	452.75
346.397	449.75
346.625	437.75
346.853	447.75
347.08	442.75
347.308	429.75
347.535	425.75
347.763	449.75
347.99	452.75
348.218	461.75
348.445	450.75
348.673	441.75
348.9	456.75
349.128	442.75
349.355	425.75
349.583	433.75
349.81	417.75
350.037	436.75
350.265	420.75
350.492	435.75
350.72	439.75
350.947	428.75
351.174	431.75
351.402	444.75
351.629	440.75
351.856	433.75
352.083	460.75
352.311	452.75
352.538	453.75
352.765	438.75
352.992	429.75
353.22	434.75
353.447	431.75
353.674	409.75
353.901	421.75
354.128	428.75
354.355	433.75
354.583	419.75
354.81	426.75
355.037	398.75
355.264	418.75
355.491	415.75
355.718	414.75
355.945	415.75
356.172	408.75
356.399	430.75
356.626	409.75
356.853	423.75
357.08	381.75
357.307	413.75
357.534	439.75
357.761	408.75
357.988	419.75
358.215	418.75
358.441	399.75
358.668	422.75
358.895	447.75
359.122	411.75
359.349	420.75
359.576	428.75
359.802	471.75
360.029	479.75
360.256	486.75
360.483	478.75
360.709	459.75
360.936	441.75
361.163	458.75
361.39	439.75
361.616	421.75
361.843	430.75
362.07	444.75
362.296	453.75
362.523	429.75
362.749	439.75
362.976	439.75
363.203	424.75
363.429	405.75
363.656	434.75
363.882	405.75
364.109	425.75
364.335	453.75
364.562	435.75
364.788	434.75
365.015	428.75
365.241	437.75
365.468	424.75
365.694	441.75
365.92	440.75
366.147	435.75
366.373	421.75
366.599	413.75
366.826	431.75
367.052	413.75
367.278	437.75
367.505	424.75
367.731	431.75
367.957	427.75
368.184	432.75
368.41	431.75
368.636	445.75
368.862	431.75
369.089	429.75
369.315	437.75
369.541	430.75
369.767	416.75
369.993	443.75
370.219	419.75
370.445	422.75
370.672	425.75
370.898	414.75
371.124	414.75
371.35	448.75
371.576	439.75
371.802	429.75
372.028	447.75
372.254	444.75
372.48	432.75
372.706	435.75
372.932	446.75
373.158	448.75
373.384	429.75
373.61	419.75
373.835	431.75
374.061	442.75
374.287	438.75
374.513	445.75
374.739	449.75
374.965	469.75
375.191	457.75
375.416	444.75
375.642	434.75
375.868	444.75
376.094	441.75
376.319	454.75
376.545	443.75
376.771	413.75
376.997	438.75
377.222	428.75
377.448	441.75
377.674	439.75
377.899	426.75
378.125	425.75
378.35	437.75
378.576	440.75
378.802	426.75
379.027	435.75
379.253	423.75
379.478	439.75
379.704	436.75
379.929	447.75
380.155	434.75
380.38	435.75
380.606	420.75
380.831	457.75
381.057	437.75
381.282	437.75
381.507	425.75
381.733	425.75
381.958	446.75
382.184	451.75
382.409	458.75
382.634	467.75
382.86	452.75
383.085	444.75
383.31	454.75
383.535	474.75
383.761	430.75
383.986	470.75
384.211	453.75
384.436	477.75
384.662	477.75
384.887	480.75
385.112	473.75
385.337	465.75
385.562	476.75
385.787	487.75
386.013	486.75
386.238	506.75
386.463	512.75
386.688	481.75
386.913	469.75
387.138	487.75
387.363	486.75
387.588	476.75
387.813	501.75
388.038	485.75
388.263	499.75
388.488	490.75
388.713	489.75
388.938	492.75
389.163	500.75
389.387	502.75
389.612	466.75
389.837	484.75
390.062	488.75
390.287	496.75
390.512	492.75
390.736	453.75
390.961	497.75
391.186	483.75
391.411	498.75
391.636	515.75
391.86	523.75
392.085	522.75
392.31	495.75
392.534	510.75
392.759	492.75
392.984	513.75
393.208	489.75
393.433	478.75
393.658	509.75
393.882	474.75
394.107	488.75
394.331	509.75
394.556	513.75
394.78	492.75
395.005	507.75
395.229	513.75
395.454	527.75
395.678	527.75
395.903	532.75
396.127	518.75
396.352	553.75
396.576	511.75
396.801	497.75
397.025	541.75
397.249	523.75
397.474	547.75
397.698	525.75
397.922	559.75
398.147	549.75
398.371	547.75
398.595	567.75
398.82	570.75
399.044	553.75
399.268	605.75
399.492	653.75
399.717	683.75
399.941	734.75
400.165	747.75
400.389	712.75
400.613	667.75
400.837	616.75
401.062	609.75
401.286	547.75
401.51	589.75
401.734	573.75
401.958	566.75
402.182	551.75
402.406	591.75
402.63	601.75
402.854	599.75
403.078	578.75
403.302	595.75
403.526	583.75
403.75	604.75
403.974	613.75
404.198	584.75
404.422	613.75
404.645	586.75
404.869	627.75
405.093	654.75
405.317	702.75
405.541	753.75
405.765	680.75
405.988	632.75
406.212	623.75
406.436	645.75
406.66	656.75
406.883	644.75
407.107	645.75
407.331	719.75
407.555	789.75
407.778	799.75
408.002	730.75
408.226	655.75
408.449	646.75
408.673	669.75
408.896	677.75
409.12	727.75
409.344	681.75
409.567	613.75
409.791	616.75
410.014	600.75
410.238	589.75
410.461	604.75
410.685	596.75
410.908	627.75
411.132	631.75
411.355	694.75
411.578	640.75
411.802	609.75
412.025	583.75
412.249	629.75
412.472	617.75
412.695	676.75
412.919	677.75
413.142	621.75
413.365	617.75
413.589	573.75
413.812	570.75
414.035	558.75
414.258	581.75
414.482	594.75
414.705	578.75
414.928	574.75
415.151	563.75
415.374	577.75
415.597	589.75
415.821	558.75
416.044	573.75
416.267	568.75
416.49	576.75
416.713	562.75
416.936	545.75
417.159	530.75
417.382	559.75
417.605	545.75
417.828	591.75
418.051	594.75
418.274	537.75
418.497	571.75
418.72	574.75
418.943	556.75
419.166	621.75
419.389	627.75
419.611	599.75
419.834	591.75
420.057	613.75
420.28	616.75
420.503	611.75
420.726	590.75
420.948	598.75
421.171	638.75
421.394	661.75
421.617	589.75
421.839	603.75
422.062	583.75
422.285	584.75
422.507	682.75
422.73	750.75
422.953	717.75
423.175	641.75
423.398	585.75
423.621	613.75
423.843	623.75
424.066	620.75
424.288	608.75
424.511	637.75
424.733	709.75
424.956	766.75
425.178	762.75
425.401	787.75
425.623	780.75
425.846	673.75
426.068	593.75
426.291	615.75
426.513	612.75
426.735	635.75
426.958	689.75
427.18	755.75
427.402	885.75
427.625	969.75
427.847	827.75
428.069	737.75
428.292	649.75
428.514	587.75
428.736	587.75
428.958	583.75
429.181	564.75
429.403	565.75
429.625	571.75
429.847	612.75
430.069	659.75
430.292	689.75
430.514	571.75
430.736	563.75
430.958	575.75
431.18	562.75
431.402	541.75
431.624	555.75
431.846	549.75
432.068	577.75
432.29	539.75
432.512	550.75
432.734	551.75
432.956	549.75
433.178	558.75
433.4	558.75
433.622	552.75
433.844	560.75
434.066	561.75
434.287	548.75
434.509	549.75
434.731	568.75
434.953	568.75
435.175	601.75
435.397	606.75
435.618	613.75
435.84	674.75
436.062	737.75
436.284	805.75
436.505	674.75
436.727	619.75
436.949	572.75
437.17	589.75
437.392	578.75
437.614	586.75
437.835	626.75
438.057	693.75
438.278	793.75
438.5	800.75
438.721	888.75
438.943	849.75
439.165	663.75
439.386	626.75
439.608	605.75
439.829	614.75
440.05	615.75
440.272	666.75
440.493	647.75
440.715	610.75
440.936	597.75
441.158	569.75
441.379	583.75
441.6	584.75
441.822	614.75
442.043	666.75
442.264	747.75
442.486	819.75
442.707	681.75
442.928	636.75
443.149	623.75
443.371	643.75
443.592	696.75
443.813	795.75
444.034	876.75
444.255	742.75
444.476	646.75
444.698	659.75
444.919	650.75
445.14	779.75
445.361	718.75
445.582	677.75
445.803	735.75
446.024	812.75
446.245	809.75
446.466	779.75
446.687	656.75
446.908	641.75
447.129	583.75
447.35	580.75
447.571	550.75
447.792	561.75
448.013	561.75
448.234	590.75
448.455	627.75
448.675	742.75
448.896	853.75
449.117	746.75
449.338	702.75
449.559	817.75
449.779	927.75
450	730.75
450.221	612.75
450.442	551.75
450.662	572.75
450.883	559.75
451.104	572.75
451.324	523.75
451.545	525.75
451.766	515.75
451.986	533.75
452.207	520.75
452.428	517.75
452.648	507.75
452.869	497.75
453.089	514.75
453.31	534.75
453.53	510.75
453.751	503.75
453.971	507.75
454.192	521.75
454.412	525.75
454.633	514.75
454.853	501.75
455.073	494.75
455.294	531.75
455.514	583.75
455.734	581.75
455.955	495.75
456.175	493.75
456.395	469.75
456.616	459.75
456.836	473.75
457.056	491.75
457.276	474.75
457.497	495.75
457.717	481.75
457.937	481.75
458.157	499.75
458.377	498.75
458.598	515.75
458.818	553.75
459.038	633.75
459.258	671.75
459.478	572.75
459.698	541.75
459.918	535.75
460.138	543.75
460.358	559.75
460.578	556.75
460.798	572.75
461.018	577.75
461.238	571.75
461.458	577.75
461.678	540.75
461.898	593.75
462.118	581.75
462.338	598.75
462.558	612.75
462.777	602.75
462.997	634.75
463.217	619.75
463.437	667.75
463.657	641.75
463.876	604.75
464.096	615.75
464.316	611.75
464.536	616.75
464.755	614.75
464.975	607.75
465.195	650.75
465.414	683.75
465.634	617.75
465.854	558.75
466.073	564.75
466.293	549.75
466.512	528.75
466.732	522.75
466.951	521.75
467.171	522.75
467.391	532.75
467.61	536.75
467.829	535.75
468.049	523.75
468.268	539.75
468.488	533.75
468.707	531.75
468.927	501.75
469.146	489.75
469.365	515.75
469.585	513.75
469.804	535.75
470.023	531.75
470.243	517.75
470.462	543.75
470.681	558.75
470.901	556.75
471.12	540.75
471.339	534.75
471.558	554.75
471.777	536.75
471.997	522.75
472.216	558.75
472.435	549.75
472.654	548.75
472.873	516.75
473.092	553.75
473.311	529.75
473.53	527.75
473.749	529.75
473.968	580.75
474.187	673.75
474.406	695.75
474.625	569.75
474.844	545.75
475.063	526.75
475.282	538.75
475.501	541.75
475.72	547.75
475.939	541.75
476.158	532.75
476.377	554.75
476.596	525.75
476.814	562.75
477.033	550.75
477.252	557.75
477.471	564.75
477.69	559.75
477.908	577.75
478.127	570.75
478.346	592.75
478.564	584.75
478.783	592.75
479.002	607.75
479.22	637.75
479.439	614.75
479.658	636.75
479.876	647.75
480.095	644.75
480.313	682.75
480.532	670.75
480.751	654.75
480.969	660.75
481.188	709.75
481.406	731.75
481.624	673.75
481.843	625.75
482.061	634.75
482.28	637.75
482.498	628.75
482.717	629.75
482.935	597.75
483.153	612.75
483.372	630.75
483.59	616.75
483.808	631.75
484.027	615.75
484.245	612.75
484.463	616.75
484.681	633.75
484.9	649.75
485.118	639.75
485.336	626.75
485.554	641.75
485.772	663.75
485.99	634.75
486.209	650.75
486.427	657.75
486.645	643.75
486.863	664.75
487.081	659.75
487.299	653.75
487.517	673.75
487.735	654.75
487.953	656.75
488.171	657.75
488.389	663.75
488.607	657.75
488.825	652.75
489.043	670.75
489.261	644.75
489.479	683.75
489.696	673.75
489.914	656.75
490.132	679.75
490.35	683.75
490.568	693.75
490.786	711.75
491.003	692.75
491.221	745.75
491.439	742.75
491.657	718.75
491.874	750.75
492.092	764.75
492.31	775.75
492.527	766.75
492.745	753.75
492.963	759.75
493.18	777.75
493.398	784.75
493.615	804.75
493.833	801.75
494.05	805.75
494.268	795.75
494.485	789.75
494.703	795.75
494.92	783.75
495.138	760.75
495.355	781.75
495.573	792.75
495.79	793.75
496.008	798.75
496.225	772.75
496.442	806.75
496.66	780.75
496.877	798.75
497.094	803.75
497.312	811.75
497.529	800.75
497.746	834.75
497.963	837.75
498.181	865.75
498.398	877.75
498.615	883.75
498.832	912.75
499.049	953.75
499.267	967.75
499.484	1024.75
499.701	1052.75
499.918	1078.75
500.135	1164.75
500.352	1231.75
500.569	1282.75
500.786	1286.75
501.003	1246.75
501.22	1188.75
501.437	1128.75
501.654	1089.75
501.871	1044.75
502.088	1017.75
502.305	979.75
502.522	932.75
502.739	876.75
502.956	869.75
503.172	862.75
503.389	828.75
503.606	822.75
503.823	821.75
504.04	817.75
504.256	803.75
504.473	814.75
504.69	775.75
504.907	798.75
505.123	762.75
505.34	779.75
505.557	737.75
505.773	736.75
505.99	713.75
506.207	766.75
506.423	731.75
506.64	737.75
506.856	738.75
507.073	705.75
507.289	725.75
507.506	715.75
507.722	740.75
507.939	739.75
508.155	711.75
508.372	717.75
508.588	686.75
508.805	665.75
509.021	672.75
509.238	694.75
509.454	708.75
509.67	696.75
509.887	689.75
510.103	698.75
510.319	699.75
510.536	733.75
510.752	1099.75
510.968	937.75
511.184	692.75
511.401	655.75
511.617	640.75
511.833	646.75
512.049	644.75
512.265	653.75
512.481	672.75
512.698	646.75
512.914	645.75
513.13	656.75
513.346	638.75
513.562	646.75
513.778	659.75
513.994	654.75
514.21	661.75
514.426	658.75
514.642	715.75
514.858	713.75
515.074	731.75
515.29	848.75
515.506	1108.75
515.721	964.75
515.937	754.75
516.153	716.75
516.369	686.75
516.585	698.75
516.801	701.75
517.016	682.75
517.232	705.75
517.448	700.75
517.664	713.75
517.879	712.75
518.095	696.75
518.311	693.75
518.527	709.75
518.742	685.75
518.958	667.75
519.173	671.75
519.389	677.75
519.605	661.75
519.82	654.75
520.036	659.75
520.251	669.75
520.467	702.75
520.682	678.75
520.898	686.75
521.113	686.75
521.329	725.75
521.544	739.75
521.76	905.75
521.975	1355.75
522.19	1341.75
522.406	851.75
522.621	691.75
522.836	646.75
523.052	623.75
523.267	591.75
523.482	604.75
523.698	597.75
523.913	579.75
524.128	599.75
524.343	582.75
524.559	573.75
524.774	558.75
524.989	582.75
525.204	574.75
525.419	569.75
525.634	559.75
525.849	550.75
526.064	549.75
526.28	548.75
526.495	550.75
526.71	529.75
526.925	541.75
527.14	543.75
527.355	536.75
527.57	515.75
527.785	535.75
527.999	550.75
528.214	550.75
528.429	540.75
528.644	550.75
528.859	559.75
529.074	562.75
529.289	562.75
529.503	620.75
529.718	598.75
529.933	564.75
530.148	559.75
530.363	536.75
530.577	528.75
530.792	538.75
531.007	504.75
531.221	523.75
531.436	539.75
531.651	541.75
531.865	541.75
532.08	525.75
532.295	505.75
532.509	528.75
532.724	506.75
532.938	531.75
533.153	532.75
533.367	527.75
533.582	521.75
533.796	513.75
534.011	515.75
534.225	525.75
534.44	515.75
534.654	519.75
534.868	497.75
535.083	535.75
535.297	497.75
535.511	508.75
535.726	541.75
535.94	524.75
536.154	524.75
536.369	516.75
536.583	489.75
536.797	502.75
537.011	492.75
537.225	499.75
537.44	500.75
537.654	494.75
537.868	500.75
538.082	477.75
538.296	488.75
538.51	514.75
538.724	482.75
538.938	492.75
539.153	499.75
539.367	507.75
539.581	486.75
539.795	501.75
540.009	493.75
540.222	491.75
540.436	487.75
540.65	501.75
540.864	497.75
541.078	517.75
541.292	510.75
541.506	493.75
541.72	490.75
541.934	507.75
542.147	469.75
542.361	504.75
542.575	475.75
542.789	487.75
543.002	481.75
543.216	526.75
543.43	513.75
543.644	506.75
543.857	482.75
544.071	500.75
544.285	523.75
544.498	514.75
544.712	478.75
544.925	495.75
545.139	486.75
545.352	481.75
545.566	501.75
545.779	503.75
545.993	487.75
546.206	497.75
546.42	495.75
546.633	485.75
546.847	483.75
547.06	486.75
547.274	499.75
547.487	500.75
547.7	489.75
547.914	484.75
548.127	497.75
548.34	510.75
548.554	483.75
548.767	488.75
548.98	483.75
549.193	475.75
549.407	470.75
549.62	483.75
549.833	498.75
550.046	486.75
550.259	493.75
550.473	487.75
550.686	497.75
550.899	483.75
551.112	468.75
551.325	465.75
551.538	469.75
551.751	476.75
551.964	474.75
552.177	489.75
552.39	478.75
552.603	498.75
552.816	485.75
553.029	505.75
553.242	520.75
553.455	512.75
553.667	494.75
553.88	521.75
554.093	509.75
554.306	493.75
554.519	493.75
554.732	471.75
554.944	474.75
555.157	476.75
555.37	471.75
555.583	474.75
555.795	469.75
556.008	455.75
556.221	446.75
556.433	446.75
556.646	428.75
556.859	437.75
557.071	427.75
557.284	433.75
557.496	433.75
557.709	423.75
557.921	435.75
558.134	439.75
558.346	429.75
558.559	429.75
558.771	431.75
558.984	422.75
559.196	414.75
559.409	404.75
559.621	447.75
559.833	436.75
560.046	433.75
560.258	415.75
560.47	428.75
560.683	409.75
560.895	423.75
561.107	426.75
561.32	411.75
561.532	438.75
561.744	414.75
561.956	422.75
562.168	411.75
562.381	417.75
562.593	430.75
562.805	437.75
563.017	426.75
563.229	441.75
563.441	424.75
563.653	445.75
563.865	435.75
564.077	423.75
564.289	435.75
564.501	454.75
564.713	447.75
564.925	474.75
565.137	465.75
565.349	488.75
565.561	503.75
565.773	463.75
565.985	510.75
566.197	513.75
566.408	532.75
566.62	532.75
566.832	563.75
567.044	585.75
567.255	573.75
567.467	572.75
567.679	604.75
567.891	588.75
568.102	583.75
568.314	566.75
568.526	570.75
568.737	543.75
568.949	532.75
569.161	496.75
569.372	487.75
569.584	462.75
569.795	471.75
570.007	430.75
570.218	479.75
570.43	471.75
570.641	425.75
570.853	424.75
571.064	439.75
571.276	441.75
571.487	430.75
571.698	399.75
571.91	402.75
572.121	423.75
572.333	398.75
572.544	406.75
572.755	394.75
572.966	391.75
573.178	403.75
573.389	381.75
573.6	356.75
573.811	367.75
574.023	377.75
574.234	352.75
574.445	357.75
574.656	375.75
574.867	391.75
575.078	384.75
575.289	378.75
575.501	365.75
575.712	375.75
575.923	376.75
576.134	374.75
576.345	370.75
576.556	358.75
576.767	360.75
576.978	361.75
577.188	352.75
577.399	356.75
577.61	338.75
577.821	365.75
578.032	360.75
578.243	382.75
578.454	508.75
578.665	433.75
578.875	349.75
579.086	344.75
579.297	348.75
579.508	328.75
579.718	345.75
579.929	344.75
580.14	327.75
580.35	336.75
580.561	345.75
580.772	335.75
580.982	354.75
581.193	324.75
581.403	340.75
581.614	334.75
581.825	330.75
582.035	340.75
582.246	334.75
582.456	348.75
582.667	334.75
582.877	335.75
583.087	341.75
583.298	327.75
583.508	322.75
583.719	334.75
583.929	327.75
584.139	338.75
584.35	318.75
584.56	325.75
584.77	334.75
584.981	316.75
585.191	341.75
585.401	319.75
585.611	315.75
585.821	311.75
586.032	323.75
586.242	325.75
586.452	307.75
586.662	329.75
586.872	313.75
587.082	316.75
587.292	303.75
587.502	337.75
587.713	317.75
587.923	319.75
588.133	330.75
588.343	319.75
588.553	328.75
588.762	312.75
588.972	299.75
589.182	310.75
589.392	326.75
589.602	326.75
589.812	337.75
590.022	316.75
590.232	316.75
590.441	317.75
590.651	333.75
590.861	318.75
591.071	328.75
591.281	322.75
591.49	324.75
591.7	341.75
591.91	312.75
592.119	321.75
592.329	339.75
592.539	357.75
592.748	342.75
592.958	341.75
593.167	351.75
593.377	354.75
593.587	355.75
593.796	354.75
594.006	369.75
594.215	362.75
594.424	348.75
594.634	370.75
594.843	334.75
595.053	353.75
595.262	328.75
595.472	362.75
595.681	343.75
595.89	337.75
596.1	297.75
596.309	323.75
596.518	312.75
596.727	298.75
596.937	305.75
597.146	311.75
597.355	298.75
597.564	293.75
597.774	319.75
597.983	299.75
598.192	314.75
598.401	293.75
598.61	277.75
598.819	281.75
599.028	271.75
599.237	301.75
599.446	298.75
599.655	306.75
599.864	276.75
600.073	278.75
600.282	291.75
600.491	284.75
600.7	279.75
600.909	281.75
601.118	286.75
601.327	275.75
601.536	279.75
601.745	279.75
601.953	277.75
602.162	264.75
602.371	277.75
602.58	264.75
602.789	263.75
602.997	306.75
603.206	284.75
603.415	271.75
603.623	277.75
603.832	291.75
604.041	267.75
604.249	273.75
604.458	253.75
604.666	271.75
604.875	263.75
605.084	275.75
605.292	271.75
605.501	276.75
605.709	275.75
605.918	279.75
606.126	281.75
606.334	285.75
606.543	273.75
606.751	266.75
606.96	279.75
607.168	261.75
607.376	260.75
607.585	277.75
607.793	276.75
608.001	257.75
608.21	257.75
608.418	249.75
608.626	265.75
608.834	280.75
609.043	275.75
609.251	257.75
609.459	264.75
609.667	270.75
609.875	274.75
610.083	278.75
610.291	248.75
610.499	269.75
610.707	259.75
610.916	277.75
611.124	273.75
611.332	274.75
611.54	275.75
611.748	277.75
611.955	257.75
612.163	281.75
612.371	254.75
612.579	250.75
612.787	263.75
612.995	262.75
613.203	258.75
613.411	252.75
613.618	257.75
613.826	251.75
614.034	262.75
614.242	251.75
614.449	242.75
614.657	254.75
614.865	271.75
615.072	264.75
615.28	274.75
615.488	264.75
615.695	264.75
615.903	263.75
616.111	246.75
616.318	260.75
616.526	276.75
616.733	258.75
616.941	261.75
617.148	261.75
617.356	260.75
617.563	265.75
617.771	262.75
617.978	247.75
618.185	251.75
618.393	241.75
618.6	262.75
618.807	253.75
619.015	264.75
619.222	228.75
619.429	241.75
619.637	250.75
619.844	245.75
620.051	241.75
620.258	238.75
620.466	241.75
620.673	250.75
620.88	248.75
621.087	229.75
621.294	228.75
621.501	239.75
621.708	236.75
621.915	235.75
622.122	231.75
622.329	242.75
622.536	264.75
622.743	246.75
622.95	231.75
623.157	241.75
623.364	223.75
623.571	229.75
623.778	230.75
623.985	216.75
624.192	233.75
624.399	228.75
624.606	250.75
624.812	228.75
625.019	231.75
625.226	214.75
625.433	225.75
625.639	219.75
625.846	222.75
626.053	219.75
626.259	232.75
626.466	229.75
626.673	209.75
626.879	205.75
627.086	199.75
627.293	238.75
627.499	234.75
627.706	212.75
627.912	230.75
628.119	226.75
628.325	228.75
628.532	244.75
628.738	211.75
628.945	215.75
629.151	214.75
629.357	231.75
629.564	212.75
629.77	221.75
629.976	211.75
630.183	229.75
630.389	212.75
630.595	212.75
630.802	212.75
631.008	206.75
631.214	214.75
631.42	211.75
631.627	215.75
631.833	210.75
632.039	199.75
632.245	200.75
632.451	217.75
632.657	220.75
632.863	193.75
633.069	193.75
633.275	215.75
633.481	208.75
633.688	206.75
633.893	213.75
634.099	203.75
634.305	200.75
634.511	186.75
634.717	206.75
634.923	217.75
635.129	183.75
635.335	206.75
635.541	201.75
635.747	195.75
635.952	193.75
636.158	204.75
636.364	199.75
636.57	198.75
636.775	213.75
636.981	202.75
637.187	190.75
637.392	191.75
637.598	183.75
637.804	195.75
638.009	202.75
638.215	193.75
638.421	189.75
638.626	179.75
638.832	184.75
639.037	184.75
639.243	190.75
639.448	189.75
639.654	188.75
639.859	188.75
640.065	185.75
640.27	170.75
640.475	191.75
640.681	181.75
640.886	180.75
641.091	188.75
641.297	199.75
641.502	191.75
641.707	179.75
641.913	188.75
642.118	175.75
642.323	177.75
642.528	191.75
642.733	189.75
642.939	185.75
643.144	196.75
643.349	189.75
643.554	186.75
643.759	174.75
643.964	202.75
644.169	183.75
644.374	186.75
644.579	169.75
644.784	179.75
644.989	186.75
645.194	179.75
645.399	186.75
645.604	188.75
645.809	204.75
646.014	180.75
646.219	163.75
646.423	185.75
646.628	178.75
646.833	173.75
647.038	170.75
647.243	184.75
647.447	188.75
647.652	178.75
647.857	197.75
648.062	184.75
648.266	177.75
648.471	168.75
648.676	188.75
648.88	192.75
649.085	192.75
649.289	182.75
649.494	196.75
649.698	206.75
649.903	201.75
650.107	191.75
650.312	188.75
650.516	160.75
650.721	170.75
650.925	162.75
651.13	162.75
651.334	157.75
651.539	164.75
651.743	149.75
651.947	160.75
652.152	158.75
652.356	145.75
652.56	152.75
652.764	150.75
652.969	133.75
653.173	139.75
653.377	144.75
653.581	134.75
653.785	149.75
653.99	149.75
654.194	139.75
654.398	147.75
654.602	138.75
654.806	147.75
655.01	137.75
655.214	158.75
655.418	150.75
655.622	138.75
655.826	151.75
656.03	138.75
656.234	147.75
656.438	151.75
656.642	140.75
656.846	153.75
657.049	141.75
657.253	138.75
657.457	138.75
657.661	130.75
657.865	114.75
658.068	120.75
658.272	107.75
658.476	116.75
658.68	111.75
658.883	103.75
659.087	115.75
659.291	104.75
659.494	106.75
659.698	102.75
659.901	110.75
660.105	102.75
660.309	98.75
660.512	107.75
660.716	100.75
660.919	91.75
661.123	96.75
661.326	87.75
661.53	82.75
661.733	100.75
661.936	96.75
662.14	95.75
662.343	88.75
662.546	74.75
662.75	82.75
662.953	92.75
663.156	82.75
663.36	83.75
663.563	82.75
663.766	84.75
663.969	72.75
664.173	88.75
664.376	98.75
664.579	93.75
664.782	92.75
664.985	85.75
665.188	68.75
665.391	83.75
665.594	88.75
665.797	72.75
666	90.75
666.203	93.75
666.406	77.75
666.609	84.75
666.812	85.75
667.015	78.75
667.218	78.75
667.421	75.75
667.624	93.75
667.827	80.75
668.03	75.75
668.232	86.75
668.435	98.75
668.638	86.75
668.841	81.75
669.043	74.75
669.246	75.75
669.449	91.75
669.651	78.75
669.854	80.75
670.057	80.75
670.259	83.75
670.462	94.75
670.665	89.75
670.867	97.75
671.07	83.75
671.272	85.75
671.475	70.75
671.677	80.75
671.88	86.75
672.082	76.75
672.284	92.75
672.487	83.75
672.689	79.75
672.892	86.75
