Data from 1975.PennyLincolnUp.Lamp.En5.5.200Scan.071719.P1.Changed Mount._HRD10591_15-56-25-859.txt Node
Date: Thu Jul 18 15:56:25 EDT 2019
User: cochatt
Spectrometer: HR+D1059
Trigger mode: 1
Integration Time (sec): 1.000000E-1
Scans to average: 1
Electric dark correction enabled: true
Nonlinearity correction enabled: false
Boxcar width: 0
XAxis mode: Wavelengths
Number of Pixels in Spectrum: 2048
>>>>>Begin Spectral Data<<<<<
223.165	-18.44
223.4	-18.44
223.635	-18.44
223.869	-7.44
224.104	-16.44
224.338	-23.44
224.573	-10.44
224.808	-14.44
225.042	-0.44
225.277	-7.44
225.511	-0.44
225.746	4.56
225.98	9.56
226.215	10.56
226.449	9.56
226.683	15.56
226.918	11.56
227.152	37.56
227.387	26.56
227.621	25.56
227.856	58.56
228.09	57.56
228.324	43.56
228.559	55.56
228.793	70.56
229.027	93.56
229.262	84.56
229.496	86.56
229.73	123.56
229.964	139.56
230.199	121.56
230.433	125.56
230.667	116.56
230.901	119.56
231.136	115.56
231.37	115.56
231.604	98.56
231.838	101.56
232.072	102.56
232.306	109.56
232.541	111.56
232.775	114.56
233.009	120.56
233.243	113.56
233.477	105.56
233.711	121.56
233.945	126.56
234.179	107.56
234.413	113.56
234.647	127.56
234.881	111.56
235.115	124.56
235.349	113.56
235.583	123.56
235.817	112.56
236.051	115.56
236.285	112.56
236.519	118.56
236.753	120.56
236.987	131.56
237.221	160.56
237.455	208.56
237.689	179.56
237.922	132.56
238.156	122.56
238.39	144.56
238.624	124.56
238.858	125.56
239.091	126.56
239.325	137.56
239.559	130.56
239.793	119.56
240.027	130.56
240.26	145.56
240.494	170.56
240.728	139.56
240.961	146.56
241.195	145.56
241.429	130.56
241.662	127.56
241.896	150.56
242.13	135.56
242.363	121.56
242.597	145.56
242.83	140.56
243.064	145.56
243.298	144.56
243.531	136.56
243.765	147.56
243.998	125.56
244.232	131.56
244.465	127.56
244.699	130.56
244.932	142.56
245.166	133.56
245.399	151.56
245.633	138.56
245.866	142.56
246.099	140.56
246.333	144.56
246.566	158.56
246.8	166.56
247.033	172.56
247.266	168.56
247.5	165.56
247.733	178.56
247.966	160.56
248.2	173.56
248.433	168.56
248.666	174.56
248.899	184.56
249.133	202.56
249.366	194.56
249.599	198.56
249.832	173.56
250.066	181.56
250.299	181.56
250.532	194.56
250.765	203.56
250.998	202.56
251.231	217.56
251.465	222.56
251.698	192.56
251.931	197.56
252.164	187.56
252.397	208.56
252.63	206.56
252.863	187.56
253.096	205.56
253.329	210.56
253.562	213.56
253.795	214.56
254.028	205.56
254.261	204.56
254.494	231.56
254.727	233.56
254.96	267.56
255.193	253.56
255.426	223.56
255.659	221.56
255.892	229.56
256.124	233.56
256.357	240.56
256.59	239.56
256.823	219.56
257.056	205.56
257.289	205.56
257.521	204.56
257.754	212.56
257.987	216.56
258.22	215.56
258.452	210.56
258.685	207.56
258.918	195.56
259.151	191.56
259.383	213.56
259.616	224.56
259.849	219.56
260.081	224.56
260.314	226.56
260.547	250.56
260.779	236.56
261.012	218.56
261.244	222.56
261.477	231.56
261.71	218.56
261.942	227.56
262.175	241.56
262.407	217.56
262.64	214.56
262.872	222.56
263.105	216.56
263.337	214.56
263.57	204.56
263.802	208.56
264.035	198.56
264.267	194.56
264.499	208.56
264.732	220.56
264.964	209.56
265.197	223.56
265.429	203.56
265.661	210.56
265.894	220.56
266.126	209.56
266.358	211.56
266.591	225.56
266.823	200.56
267.055	216.56
267.287	213.56
267.52	223.56
267.752	216.56
267.984	228.56
268.216	245.56
268.448	225.56
268.681	237.56
268.913	240.56
269.145	270.56
269.377	257.56
269.609	267.56
269.841	258.56
270.073	264.56
270.306	285.56
270.538	300.56
270.77	305.56
271.002	295.56
271.234	285.56
271.466	286.56
271.698	278.56
271.93	292.56
272.162	318.56
272.394	310.56
272.626	293.56
272.858	267.56
273.09	262.56
273.322	276.56
273.553	248.56
273.785	258.56
274.017	265.56
274.249	268.56
274.481	259.56
274.713	251.56
274.945	270.56
275.176	261.56
275.408	251.56
275.64	240.56
275.872	244.56
276.104	253.56
276.335	283.56
276.567	279.56
276.799	271.56
277.031	305.56
277.262	305.56
277.494	320.56
277.726	294.56
277.957	297.56
278.189	281.56
278.421	275.56
278.652	272.56
278.884	281.56
279.115	284.56
279.347	273.56
279.579	267.56
279.81	270.56
280.042	263.56
280.273	273.56
280.505	287.56
280.736	271.56
280.968	274.56
281.199	286.56
281.431	265.56
281.662	278.56
281.894	273.56
282.125	264.56
282.356	279.56
282.588	317.56
282.819	298.56
283.051	279.56
283.282	290.56
283.513	279.56
283.745	281.56
283.976	289.56
284.207	272.56
284.439	271.56
284.67	293.56
284.901	286.56
285.132	275.56
285.364	273.56
285.595	304.56
285.826	287.56
286.057	275.56
286.288	298.56
286.52	292.56
286.751	295.56
286.982	292.56
287.213	286.56
287.444	288.56
287.675	288.56
287.906	288.56
288.138	305.56
288.369	310.56
288.6	312.56
288.831	286.56
289.062	303.56
289.293	289.56
289.524	294.56
289.755	311.56
289.986	303.56
290.217	286.56
290.448	305.56
290.679	285.56
290.91	299.56
291.141	276.56
291.371	288.56
291.602	283.56
291.833	291.56
292.064	291.56
292.295	296.56
292.526	291.56
292.757	283.56
292.987	286.56
293.218	285.56
293.449	285.56
293.68	302.56
293.91	285.56
294.141	303.56
294.372	296.56
294.603	299.56
294.833	319.56
295.064	302.56
295.295	293.56
295.525	283.56
295.756	310.56
295.987	294.56
296.217	320.56
296.448	316.56
296.679	308.56
296.909	305.56
297.14	312.56
297.37	309.56
297.601	293.56
297.831	315.56
298.062	303.56
298.292	315.56
298.523	295.56
298.753	312.56
298.984	321.56
299.214	313.56
299.445	311.56
299.675	319.56
299.905	298.56
300.136	324.56
300.366	317.56
300.597	301.56
300.827	326.56
301.057	319.56
301.288	323.56
301.518	327.56
301.748	323.56
301.979	336.56
302.209	336.56
302.439	326.56
302.669	343.56
302.9	336.56
303.13	344.56
303.36	331.56
303.59	325.56
303.82	345.56
304.051	314.56
304.281	351.56
304.511	330.56
304.741	323.56
304.971	329.56
305.201	326.56
305.431	335.56
305.661	367.56
305.891	333.56
306.121	343.56
306.352	339.56
306.582	350.56
306.812	343.56
307.042	340.56
307.272	319.56
307.502	327.56
307.731	355.56
307.961	336.56
308.191	338.56
308.421	342.56
308.651	340.56
308.881	360.56
309.111	320.56
309.341	352.56
309.571	336.56
309.8	358.56
310.03	358.56
310.26	356.56
310.49	382.56
310.72	359.56
310.949	376.56
311.179	401.56
311.409	369.56
311.639	361.56
311.868	362.56
312.098	370.56
312.328	354.56
312.557	381.56
312.787	372.56
313.017	396.56
313.246	360.56
313.476	362.56
313.706	359.56
313.935	366.56
314.165	376.56
314.394	393.56
314.624	385.56
314.853	391.56
315.083	378.56
315.312	363.56
315.542	367.56
315.771	360.56
316.001	379.56
316.23	365.56
316.46	374.56
316.689	355.56
316.919	361.56
317.148	382.56
317.377	377.56
317.607	371.56
317.836	378.56
318.065	363.56
318.295	349.56
318.524	369.56
318.753	387.56
318.983	378.56
319.212	369.56
319.441	383.56
319.67	365.56
319.9	357.56
320.129	377.56
320.358	354.56
320.587	373.56
320.816	404.56
321.046	401.56
321.275	380.56
321.504	402.56
321.733	397.56
321.962	375.56
322.191	400.56
322.42	404.56
322.649	422.56
322.878	429.56
323.108	431.56
323.337	446.56
323.566	452.56
323.795	455.56
324.024	497.56
324.253	571.56
324.482	758.56
324.71	1151.56
324.939	1671.56
325.168	1496.56
325.397	789.56
325.626	547.56
325.855	479.56
326.084	447.56
326.313	452.56
326.542	461.56
326.77	501.56
326.999	552.56
327.228	719.56
327.457	1055.56
327.686	1307.56
327.914	881.56
328.143	579.56
328.372	519.56
328.6	511.56
328.829	494.56
329.058	510.56
329.287	523.56
329.515	493.56
329.744	447.56
329.972	475.56
330.201	503.56
330.43	526.56
330.658	541.56
330.887	529.56
331.115	537.56
331.344	495.56
331.572	470.56
331.801	472.56
332.03	479.56
332.258	449.56
332.486	452.56
332.715	445.56
332.943	459.56
333.172	445.56
333.4	477.56
333.629	477.56
333.857	498.56
334.085	489.56
334.314	515.56
334.542	529.56
334.771	550.56
334.999	496.56
335.227	490.56
335.455	473.56
335.684	457.56
335.912	461.56
336.14	454.56
336.369	451.56
336.597	446.56
336.825	459.56
337.053	467.56
337.281	422.56
337.51	452.56
337.738	450.56
337.966	433.56
338.194	415.56
338.422	441.56
338.65	431.56
338.878	445.56
339.106	430.56
339.334	437.56
339.562	443.56
339.79	429.56
340.018	441.56
340.246	426.56
340.474	433.56
340.702	435.56
340.93	427.56
341.158	442.56
341.386	423.56
341.614	430.56
341.842	441.56
342.07	438.56
342.298	423.56
342.526	425.56
342.754	431.56
342.981	424.56
343.209	425.56
343.437	443.56
343.665	441.56
343.893	448.56
344.12	451.56
344.348	447.56
344.576	424.56
344.804	431.56
345.031	423.56
345.259	451.56
345.487	438.56
345.714	444.56
345.942	430.56
346.17	419.56
346.397	420.56
346.625	407.56
346.853	406.56
347.08	417.56
347.308	411.56
347.535	438.56
347.763	413.56
347.99	410.56
348.218	421.56
348.445	419.56
348.673	419.56
348.9	413.56
349.128	405.56
349.355	413.56
349.583	413.56
349.81	398.56
350.037	416.56
350.265	401.56
350.492	417.56
350.72	404.56
350.947	407.56
351.174	408.56
351.402	399.56
351.629	406.56
351.856	410.56
352.083	419.56
352.311	417.56
352.538	413.56
352.765	410.56
352.992	424.56
353.22	422.56
353.447	405.56
353.674	395.56
353.901	409.56
354.128	385.56
354.355	395.56
354.583	411.56
354.81	392.56
355.037	383.56
355.264	395.56
355.491	404.56
355.718	399.56
355.945	384.56
356.172	377.56
356.399	391.56
356.626	397.56
356.853	395.56
357.08	377.56
357.307	381.56
357.534	403.56
357.761	399.56
357.988	398.56
358.215	396.56
358.441	414.56
358.668	398.56
358.895	388.56
359.122	402.56
359.349	393.56
359.576	419.56
359.802	423.56
360.029	452.56
360.256	454.56
360.483	436.56
360.709	419.56
360.936	413.56
361.163	415.56
361.39	396.56
361.616	434.56
361.843	413.56
362.07	395.56
362.296	417.56
362.523	401.56
362.749	421.56
362.976	416.56
363.203	422.56
363.429	395.56
363.656	401.56
363.882	398.56
364.109	419.56
364.335	403.56
364.562	410.56
364.788	411.56
365.015	398.56
365.241	419.56
365.468	409.56
365.694	395.56
365.92	396.56
366.147	411.56
366.373	389.56
366.599	395.56
366.826	408.56
367.052	407.56
367.278	415.56
367.505	400.56
367.731	421.56
367.957	417.56
368.184	417.56
368.41	422.56
368.636	409.56
368.862	429.56
369.089	399.56
369.315	406.56
369.541	399.56
369.767	406.56
369.993	408.56
370.219	416.56
370.445	427.56
370.672	420.56
370.898	389.56
371.124	427.56
371.35	396.56
371.576	408.56
371.802	413.56
372.028	419.56
372.254	426.56
372.48	407.56
372.706	424.56
372.932	411.56
373.158	423.56
373.384	415.56
373.61	426.56
373.835	418.56
374.061	418.56
374.287	412.56
374.513	429.56
374.739	427.56
374.965	427.56
375.191	445.56
375.416	440.56
375.642	431.56
375.868	432.56
376.094	442.56
376.319	428.56
376.545	412.56
376.771	407.56
376.997	422.56
377.222	424.56
377.448	398.56
377.674	405.56
377.899	420.56
378.125	400.56
378.35	426.56
378.576	397.56
378.802	409.56
379.027	426.56
379.253	416.56
379.478	434.56
379.704	409.56
379.929	408.56
380.155	409.56
380.38	409.56
380.606	437.56
380.831	401.56
381.057	418.56
381.282	418.56
381.507	408.56
381.733	427.56
381.958	413.56
382.184	422.56
382.409	424.56
382.634	445.56
382.86	431.56
383.085	446.56
383.31	438.56
383.535	421.56
383.761	446.56
383.986	435.56
384.211	448.56
384.436	450.56
384.662	440.56
384.887	456.56
385.112	452.56
385.337	434.56
385.562	475.56
385.787	462.56
386.013	462.56
386.238	474.56
386.463	472.56
386.688	486.56
386.913	448.56
387.138	465.56
387.363	481.56
387.588	454.56
387.813	470.56
388.038	452.56
388.263	471.56
388.488	458.56
388.713	483.56
388.938	476.56
389.163	455.56
389.387	480.56
389.612	464.56
389.837	463.56
390.062	462.56
390.287	477.56
390.512	458.56
390.736	453.56
390.961	440.56
391.186	472.56
391.411	474.56
391.636	475.56
391.86	472.56
392.085	485.56
392.31	495.56
392.534	483.56
392.759	469.56
392.984	463.56
393.208	465.56
393.433	478.56
393.658	487.56
393.882	473.56
394.107	451.56
394.331	457.56
394.556	474.56
394.78	491.56
395.005	473.56
395.229	484.56
395.454	484.56
395.678	501.56
395.903	529.56
396.127	525.56
396.352	529.56
396.576	490.56
396.801	482.56
397.025	497.56
397.249	495.56
397.474	513.56
397.698	506.56
397.922	527.56
398.147	554.56
398.371	535.56
398.595	535.56
398.82	547.56
399.044	550.56
399.268	593.56
399.492	635.56
399.717	678.56
399.941	692.56
400.165	693.56
400.389	675.56
400.613	625.56
400.837	572.56
401.062	573.56
401.286	564.56
401.51	538.56
401.734	550.56
401.958	550.56
402.182	548.56
402.406	542.56
402.63	548.56
402.854	566.56
403.078	556.56
403.302	571.56
403.526	586.56
403.75	574.56
403.974	578.56
404.198	576.56
404.422	562.56
404.645	599.56
404.869	598.56
405.093	587.56
405.317	645.56
405.541	669.56
405.765	631.56
405.988	574.56
406.212	592.56
406.436	633.56
406.66	614.56
406.883	599.56
407.107	628.56
407.331	670.56
407.555	773.56
407.778	713.56
408.002	674.56
408.226	635.56
408.449	624.56
408.673	621.56
408.896	627.56
409.12	690.56
409.344	657.56
409.567	589.56
409.791	591.56
410.014	584.56
410.238	547.56
410.461	561.56
410.685	579.56
410.908	597.56
411.132	613.56
411.355	641.56
411.578	628.56
411.802	596.56
412.025	566.56
412.249	596.56
412.472	608.56
412.695	643.56
412.919	631.56
413.142	571.56
413.365	531.56
413.589	584.56
413.812	547.56
414.035	547.56
414.258	549.56
414.482	543.56
414.705	535.56
414.928	537.56
415.151	535.56
415.374	550.56
415.597	538.56
415.821	527.56
416.044	551.56
416.267	554.56
416.49	543.56
416.713	521.56
416.936	531.56
417.159	538.56
417.382	536.56
417.605	538.56
417.828	545.56
418.051	565.56
418.274	565.56
418.497	533.56
418.72	557.56
418.943	557.56
419.166	568.56
419.389	599.56
419.611	593.56
419.834	573.56
420.057	582.56
420.28	563.56
420.503	557.56
420.726	581.56
420.948	569.56
421.171	615.56
421.394	633.56
421.617	593.56
421.839	549.56
422.062	562.56
422.285	594.56
422.507	644.56
422.73	722.56
422.953	685.56
423.175	624.56
423.398	587.56
423.621	570.56
423.843	589.56
424.066	592.56
424.288	608.56
424.511	625.56
424.733	665.56
424.956	742.56
425.178	734.56
425.401	726.56
425.623	726.56
425.846	645.56
426.068	586.56
426.291	564.56
426.513	577.56
426.735	587.56
426.958	631.56
427.18	701.56
427.402	825.56
427.625	914.56
427.847	762.56
428.069	661.56
428.292	627.56
428.514	559.56
428.736	527.56
428.958	552.56
429.181	540.56
429.403	533.56
429.625	551.56
429.847	563.56
430.069	637.56
430.292	619.56
430.514	554.56
430.736	536.56
430.958	516.56
431.18	521.56
431.402	519.56
431.624	506.56
431.846	518.56
432.068	494.56
432.29	515.56
432.512	510.56
432.734	543.56
432.956	516.56
433.178	536.56
433.4	539.56
433.622	518.56
433.844	541.56
434.066	517.56
434.287	527.56
434.509	513.56
434.731	503.56
434.953	549.56
435.175	566.56
435.397	600.56
435.618	588.56
435.84	624.56
436.062	710.56
436.284	795.56
436.505	655.56
436.727	595.56
436.949	558.56
437.17	544.56
437.392	547.56
437.614	575.56
437.835	577.56
438.057	652.56
438.278	757.56
438.5	769.56
438.721	863.56
438.943	823.56
439.165	643.56
439.386	597.56
439.608	561.56
439.829	600.56
440.05	605.56
440.272	633.56
440.493	601.56
440.715	573.56
440.936	563.56
441.158	538.56
441.379	550.56
441.6	547.56
441.822	596.56
442.043	622.56
442.264	683.56
442.486	753.56
442.707	645.56
442.928	602.56
443.149	616.56
443.371	612.56
443.592	664.56
443.813	760.56
444.034	833.56
444.255	687.56
444.476	627.56
444.698	588.56
444.919	601.56
445.14	722.56
445.361	679.56
445.582	651.56
445.803	667.56
446.024	768.56
446.245	779.56
446.466	704.56
446.687	608.56
446.908	585.56
447.129	552.56
447.35	535.56
447.571	534.56
447.792	521.56
448.013	532.56
448.234	557.56
448.455	571.56
448.675	696.56
448.896	804.56
449.117	696.56
449.338	658.56
449.559	760.56
449.779	862.56
450	712.56
450.221	582.56
450.442	560.56
450.662	509.56
450.883	517.56
451.104	516.56
451.324	529.56
451.545	519.56
451.766	471.56
451.986	489.56
452.207	487.56
452.428	468.56
452.648	488.56
452.869	481.56
453.089	478.56
453.31	480.56
453.53	491.56
453.751	469.56
453.971	458.56
454.192	481.56
454.412	469.56
454.633	484.56
454.853	443.56
455.073	471.56
455.294	482.56
455.514	547.56
455.734	540.56
455.955	496.56
456.175	436.56
456.395	461.56
456.616	441.56
456.836	443.56
457.056	449.56
457.276	439.56
457.497	443.56
457.717	440.56
457.937	459.56
458.157	441.56
458.377	475.56
458.598	482.56
458.818	537.56
459.038	598.56
459.258	618.56
459.478	575.56
459.698	555.56
459.918	511.56
460.138	509.56
460.358	517.56
460.578	543.56
460.798	564.56
461.018	545.56
461.238	538.56
461.458	539.56
461.678	542.56
461.898	539.56
462.118	544.56
462.338	556.56
462.558	561.56
462.777	592.56
462.997	593.56
463.217	627.56
463.437	629.56
463.657	596.56
463.876	571.56
464.096	577.56
464.316	590.56
464.536	593.56
464.755	586.56
464.975	583.56
465.195	601.56
465.414	631.56
465.634	594.56
465.854	549.56
466.073	531.56
466.293	517.56
466.512	499.56
466.732	505.56
466.951	511.56
467.171	493.56
467.391	489.56
467.61	490.56
467.829	513.56
468.049	523.56
468.268	485.56
468.488	493.56
468.707	485.56
468.927	479.56
469.146	470.56
469.365	488.56
469.585	510.56
469.804	498.56
470.023	522.56
470.243	488.56
470.462	502.56
470.681	525.56
470.901	496.56
471.12	489.56
471.339	511.56
471.558	494.56
471.777	502.56
471.997	496.56
472.216	485.56
472.435	519.56
472.654	526.56
472.873	496.56
473.092	511.56
473.311	515.56
473.53	493.56
473.749	502.56
473.968	525.56
474.187	637.56
474.406	654.56
474.625	553.56
474.844	536.56
475.063	489.56
475.282	495.56
475.501	506.56
475.72	507.56
475.939	517.56
476.158	518.56
476.377	519.56
476.596	544.56
476.814	522.56
477.033	533.56
477.252	527.56
477.471	526.56
477.69	530.56
477.908	546.56
478.127	566.56
478.346	551.56
478.564	556.56
478.783	571.56
479.002	584.56
479.22	581.56
479.439	600.56
479.658	592.56
479.876	610.56
480.095	605.56
480.313	631.56
480.532	620.56
480.751	622.56
480.969	618.56
481.188	655.56
481.406	695.56
481.624	655.56
481.843	641.56
482.061	597.56
482.28	585.56
482.498	598.56
482.717	591.56
482.935	600.56
483.153	568.56
483.372	608.56
483.59	586.56
483.808	583.56
484.027	598.56
484.245	578.56
484.463	605.56
484.681	598.56
484.9	622.56
485.118	614.56
485.336	601.56
485.554	629.56
485.772	616.56
485.99	606.56
486.209	606.56
486.427	599.56
486.645	616.56
486.863	643.56
487.081	637.56
487.299	599.56
487.517	599.56
487.735	616.56
487.953	661.56
488.171	638.56
488.389	645.56
488.607	629.56
488.825	634.56
489.043	643.56
489.261	649.56
489.479	655.56
489.696	655.56
489.914	654.56
490.132	679.56
490.35	674.56
490.568	655.56
490.786	688.56
491.003	689.56
491.221	683.56
491.439	722.56
491.657	715.56
491.874	711.56
492.092	698.56
492.31	737.56
492.527	749.56
492.745	728.56
492.963	726.56
493.18	752.56
493.398	761.56
493.615	745.56
493.833	741.56
494.05	751.56
494.268	723.56
494.485	747.56
494.703	760.56
494.92	746.56
495.138	735.56
495.355	701.56
495.573	755.56
495.79	757.56
496.008	759.56
496.225	720.56
496.442	743.56
496.66	766.56
496.877	777.56
497.094	761.56
497.312	753.56
497.529	766.56
497.746	777.56
497.963	799.56
498.181	832.56
498.398	842.56
498.615	860.56
498.832	895.56
499.049	899.56
499.267	925.56
499.484	954.56
499.701	994.56
499.918	1031.56
500.135	1125.56
500.352	1189.56
500.569	1213.56
500.786	1191.56
501.003	1225.56
501.22	1140.56
501.437	1077.56
501.654	1028.56
501.871	1030.56
502.088	935.56
502.305	919.56
502.522	874.56
502.739	869.56
502.956	823.56
503.172	806.56
503.389	781.56
503.606	792.56
503.823	774.56
504.04	754.56
504.256	771.56
504.473	747.56
504.69	769.56
504.907	742.56
505.123	718.56
505.34	737.56
505.557	765.56
505.773	735.56
505.99	715.56
506.207	691.56
506.423	696.56
506.64	701.56
506.856	699.56
507.073	673.56
507.289	687.56
507.506	686.56
507.722	689.56
507.939	679.56
508.155	700.56
508.372	671.56
508.588	633.56
508.805	635.56
509.021	658.56
509.238	685.56
509.454	686.56
509.67	645.56
509.887	655.56
510.103	641.56
510.319	632.56
510.536	696.56
510.752	1000.56
510.968	848.56
511.184	627.56
511.401	618.56
511.617	616.56
511.833	625.56
512.049	634.56
512.265	610.56
512.481	628.56
512.698	608.56
512.914	608.56
513.13	633.56
513.346	630.56
513.562	610.56
513.778	623.56
513.994	630.56
514.21	609.56
514.426	625.56
514.642	637.56
514.858	671.56
515.074	675.56
515.29	750.56
515.506	1063.56
515.721	910.56
515.937	699.56
516.153	658.56
516.369	649.56
516.585	663.56
516.801	620.56
517.016	645.56
517.232	671.56
517.448	648.56
517.664	673.56
517.879	655.56
518.095	685.56
518.311	687.56
518.527	690.56
518.742	649.56
518.958	625.56
519.173	625.56
519.389	634.56
519.605	615.56
519.82	606.56
520.036	622.56
520.251	621.56
520.467	650.56
520.682	639.56
520.898	632.56
521.113	661.56
521.329	673.56
521.544	709.56
521.76	835.56
521.975	1238.56
522.19	1227.56
522.406	774.56
522.621	633.56
522.836	597.56
523.052	587.56
523.267	563.56
523.482	561.56
523.698	568.56
523.913	566.56
524.128	569.56
524.343	557.56
524.559	554.56
524.774	535.56
524.989	544.56
525.204	541.56
525.419	563.56
525.634	543.56
525.849	519.56
526.064	511.56
526.28	532.56
526.495	526.56
526.71	516.56
526.925	501.56
527.14	497.56
527.355	525.56
527.57	524.56
527.785	503.56
527.999	508.56
528.214	518.56
528.429	505.56
528.644	517.56
528.859	523.56
529.074	532.56
529.289	542.56
529.503	582.56
529.718	568.56
529.933	533.56
530.148	521.56
530.363	522.56
530.577	506.56
530.792	504.56
531.007	510.56
531.221	505.56
531.436	486.56
531.651	523.56
531.865	510.56
532.08	509.56
532.295	497.56
532.509	496.56
532.724	484.56
532.938	480.56
533.153	515.56
533.367	495.56
533.582	476.56
533.796	495.56
534.011	511.56
534.225	489.56
534.44	494.56
534.654	488.56
534.868	488.56
535.083	493.56
535.297	467.56
535.511	473.56
535.726	486.56
535.94	497.56
536.154	484.56
536.369	493.56
536.583	482.56
536.797	475.56
537.011	453.56
537.225	453.56
537.44	465.56
537.654	490.56
537.868	470.56
538.082	495.56
538.296	476.56
538.51	479.56
538.724	479.56
538.938	458.56
539.153	478.56
539.367	482.56
539.581	461.56
539.795	465.56
540.009	477.56
540.222	456.56
540.436	487.56
540.65	463.56
540.864	478.56
541.078	488.56
541.292	486.56
541.506	483.56
541.72	490.56
541.934	472.56
542.147	495.56
542.361	480.56
542.575	482.56
542.789	461.56
543.002	474.56
543.216	480.56
543.43	479.56
543.644	459.56
543.857	455.56
544.071	488.56
544.285	485.56
544.498	493.56
544.712	471.56
544.925	479.56
545.139	473.56
545.352	488.56
545.566	447.56
545.779	457.56
545.993	454.56
546.206	491.56
546.42	481.56
546.633	510.56
546.847	474.56
547.06	460.56
547.274	479.56
547.487	456.56
547.7	488.56
547.914	461.56
548.127	459.56
548.34	447.56
548.554	475.56
548.767	477.56
548.98	458.56
549.193	493.56
549.407	461.56
549.62	463.56
549.833	470.56
550.046	487.56
550.259	462.56
550.473	457.56
550.686	470.56
550.899	466.56
551.112	454.56
551.325	452.56
551.538	457.56
551.751	464.56
551.964	473.56
552.177	467.56
552.39	464.56
552.603	450.56
552.816	470.56
553.029	474.56
553.242	474.56
553.455	487.56
553.667	470.56
553.88	482.56
554.093	484.56
554.306	469.56
554.519	465.56
554.732	469.56
554.944	450.56
555.157	446.56
555.37	461.56
555.583	439.56
555.795	422.56
556.008	441.56
556.221	435.56
556.433	443.56
556.646	413.56
556.859	434.56
557.071	425.56
557.284	439.56
557.496	406.56
557.709	421.56
557.921	413.56
558.134	418.56
558.346	427.56
558.559	432.56
558.771	417.56
558.984	408.56
559.196	423.56
559.409	405.56
559.621	431.56
559.833	414.56
560.046	402.56
560.258	394.56
560.47	408.56
560.683	389.56
560.895	397.56
561.107	394.56
561.32	411.56
561.532	434.56
561.744	416.56
561.956	424.56
562.168	415.56
562.381	421.56
562.593	404.56
562.805	407.56
563.017	424.56
563.229	429.56
563.441	408.56
563.653	427.56
563.865	402.56
564.077	421.56
564.289	400.56
564.501	421.56
564.713	435.56
564.925	439.56
565.137	460.56
565.349	453.56
565.561	467.56
565.773	479.56
565.985	477.56
566.197	489.56
566.408	519.56
566.62	517.56
566.832	541.56
567.044	542.56
567.255	544.56
567.467	547.56
567.679	588.56
567.891	613.56
568.102	585.56
568.314	575.56
568.526	540.56
568.737	534.56
568.949	483.56
569.161	475.56
569.372	459.56
569.584	439.56
569.795	442.56
570.007	427.56
570.218	463.56
570.43	446.56
570.641	407.56
570.853	407.56
571.064	414.56
571.276	424.56
571.487	389.56
571.698	402.56
571.91	407.56
572.121	399.56
572.333	377.56
572.544	369.56
572.755	386.56
572.966	383.56
573.178	352.56
573.389	383.56
573.6	371.56
573.811	358.56
574.023	362.56
574.234	363.56
574.445	352.56
574.656	353.56
574.867	370.56
575.078	355.56
575.289	360.56
575.501	345.56
575.712	357.56
575.923	353.56
576.134	336.56
576.345	351.56
576.556	349.56
576.767	341.56
576.978	334.56
577.188	361.56
577.399	358.56
577.61	353.56
577.821	357.56
578.032	338.56
578.243	356.56
578.454	479.56
578.665	400.56
578.875	351.56
579.086	320.56
579.297	335.56
579.508	327.56
579.718	316.56
579.929	325.56
580.14	320.56
580.35	330.56
580.561	316.56
580.772	335.56
580.982	313.56
581.193	318.56
581.403	326.56
581.614	327.56
581.825	324.56
582.035	320.56
582.246	302.56
582.456	296.56
582.667	309.56
582.877	317.56
583.087	326.56
583.298	322.56
583.508	331.56
583.719	303.56
583.929	330.56
584.139	313.56
584.35	304.56
584.56	312.56
584.77	313.56
584.981	295.56
585.191	330.56
585.401	318.56
585.611	305.56
585.821	315.56
586.032	325.56
586.242	304.56
586.452	311.56
586.662	308.56
586.872	294.56
587.082	315.56
587.292	297.56
587.502	307.56
587.713	325.56
587.923	312.56
588.133	310.56
588.343	310.56
588.553	306.56
588.762	302.56
588.972	308.56
589.182	318.56
589.392	303.56
589.602	316.56
589.812	322.56
590.022	319.56
590.232	317.56
590.441	296.56
590.651	309.56
590.861	317.56
591.071	313.56
591.281	309.56
591.49	307.56
591.7	315.56
591.91	322.56
592.119	319.56
592.329	322.56
592.539	336.56
592.748	336.56
592.958	345.56
593.167	331.56
593.377	318.56
593.587	355.56
593.796	349.56
594.006	339.56
594.215	333.56
594.424	333.56
594.634	340.56
594.843	338.56
595.053	349.56
595.262	341.56
595.472	322.56
595.681	318.56
595.89	330.56
596.1	297.56
596.309	288.56
596.518	317.56
596.727	292.56
596.937	303.56
597.146	283.56
597.355	280.56
597.564	267.56
597.774	271.56
597.983	282.56
598.192	281.56
598.401	290.56
598.61	285.56
598.819	287.56
599.028	272.56
599.237	284.56
599.446	296.56
599.655	298.56
599.864	295.56
600.073	266.56
600.282	281.56
600.491	283.56
600.7	253.56
600.909	276.56
601.118	279.56
601.327	270.56
601.536	253.56
601.745	252.56
601.953	273.56
602.162	279.56
602.371	251.56
602.58	277.56
602.789	272.56
602.997	263.56
603.206	261.56
603.415	260.56
603.623	250.56
603.832	254.56
604.041	261.56
604.249	244.56
604.458	264.56
604.666	262.56
604.875	264.56
605.084	258.56
605.292	249.56
605.501	254.56
605.709	258.56
605.918	275.56
606.126	257.56
606.334	274.56
606.543	266.56
606.751	273.56
606.96	273.56
607.168	251.56
607.376	256.56
607.585	262.56
607.793	276.56
608.001	256.56
608.21	270.56
608.418	257.56
608.626	252.56
608.834	253.56
609.043	263.56
609.251	257.56
609.459	257.56
609.667	280.56
609.875	256.56
610.083	257.56
610.291	267.56
610.499	259.56
610.707	268.56
610.916	255.56
611.124	246.56
611.332	272.56
611.54	241.56
611.748	271.56
611.955	246.56
612.163	254.56
612.371	262.56
612.579	228.56
612.787	259.56
612.995	253.56
613.203	253.56
613.411	237.56
613.618	233.56
613.826	249.56
614.034	233.56
614.242	253.56
614.449	237.56
614.657	258.56
614.865	249.56
615.072	241.56
615.28	259.56
615.488	246.56
615.695	242.56
615.903	259.56
616.111	253.56
616.318	252.56
616.526	253.56
616.733	258.56
616.941	244.56
617.148	241.56
617.356	247.56
617.563	234.56
617.771	253.56
617.978	227.56
618.185	229.56
618.393	255.56
618.6	248.56
618.807	260.56
619.015	236.56
619.222	236.56
619.429	226.56
619.637	249.56
619.844	239.56
620.051	243.56
620.258	253.56
620.466	239.56
620.673	227.56
620.88	246.56
621.087	232.56
621.294	254.56
621.501	246.56
621.708	241.56
621.915	225.56
622.122	229.56
622.329	229.56
622.536	223.56
622.743	227.56
622.95	229.56
623.157	218.56
623.364	232.56
623.571	237.56
623.778	230.56
623.985	224.56
624.192	224.56
624.399	214.56
624.606	242.56
624.812	222.56
625.019	225.56
625.226	221.56
625.433	217.56
625.639	216.56
625.846	202.56
626.053	207.56
626.259	216.56
626.466	211.56
626.673	210.56
626.879	225.56
627.086	224.56
627.293	226.56
627.499	222.56
627.706	210.56
627.912	209.56
628.119	209.56
628.325	214.56
628.532	213.56
628.738	211.56
628.945	234.56
629.151	212.56
629.357	210.56
629.564	216.56
629.77	212.56
629.976	188.56
630.183	209.56
630.389	196.56
630.595	194.56
630.802	201.56
631.008	189.56
631.214	202.56
631.42	191.56
631.627	224.56
631.833	191.56
632.039	201.56
632.245	192.56
632.451	191.56
632.657	200.56
632.863	187.56
633.069	197.56
633.275	193.56
633.481	202.56
633.688	186.56
633.893	200.56
634.099	211.56
634.305	195.56
634.511	185.56
634.717	194.56
634.923	191.56
635.129	196.56
635.335	192.56
635.541	197.56
635.747	197.56
635.952	200.56
636.158	177.56
636.364	200.56
636.57	207.56
636.775	215.56
636.981	213.56
637.187	202.56
637.392	192.56
637.598	197.56
637.804	183.56
638.009	200.56
638.215	190.56
638.421	182.56
638.626	171.56
638.832	178.56
639.037	166.56
639.243	177.56
639.448	186.56
639.654	189.56
639.859	194.56
640.065	170.56
640.27	182.56
640.475	183.56
640.681	172.56
640.886	173.56
641.091	174.56
641.297	183.56
641.502	177.56
641.707	170.56
641.913	181.56
642.118	177.56
642.323	197.56
642.528	175.56
642.733	155.56
642.939	164.56
643.144	171.56
643.349	163.56
643.554	180.56
643.759	179.56
643.964	178.56
644.169	159.56
644.374	175.56
644.579	160.56
644.784	180.56
644.989	178.56
645.194	182.56
645.399	177.56
645.604	165.56
645.809	173.56
646.014	171.56
646.219	162.56
646.423	171.56
646.628	165.56
646.833	168.56
647.038	179.56
647.243	174.56
647.447	170.56
647.652	185.56
647.857	158.56
648.062	170.56
648.266	176.56
648.471	164.56
648.676	185.56
648.88	173.56
649.085	175.56
649.289	173.56
649.494	184.56
649.698	190.56
649.903	187.56
650.107	166.56
650.312	171.56
650.516	183.56
650.721	169.56
650.925	167.56
651.13	145.56
651.334	159.56
651.539	161.56
651.743	154.56
651.947	163.56
652.152	153.56
652.356	145.56
652.56	147.56
652.764	124.56
652.969	142.56
653.173	147.56
653.377	141.56
653.581	154.56
653.785	157.56
653.99	145.56
654.194	150.56
654.398	132.56
654.602	129.56
654.806	140.56
655.01	159.56
655.214	126.56
655.418	133.56
655.622	120.56
655.826	144.56
656.03	146.56
656.234	147.56
656.438	119.56
656.642	139.56
656.846	147.56
657.049	139.56
657.253	127.56
657.457	127.56
657.661	113.56
657.865	133.56
658.068	119.56
658.272	112.56
658.476	106.56
658.68	116.56
658.883	110.56
659.087	107.56
659.291	95.56
659.494	99.56
659.698	100.56
659.901	91.56
660.105	99.56
660.309	103.56
660.512	99.56
660.716	94.56
660.919	90.56
661.123	97.56
661.326	84.56
661.53	101.56
661.733	98.56
661.936	101.56
662.14	80.56
662.343	85.56
662.546	88.56
662.75	89.56
662.953	74.56
663.156	89.56
663.36	74.56
663.563	72.56
663.766	90.56
663.969	95.56
664.173	96.56
664.376	91.56
664.579	87.56
664.782	85.56
664.985	87.56
665.188	78.56
665.391	93.56
665.594	78.56
665.797	83.56
666	77.56
666.203	79.56
666.406	75.56
666.609	73.56
666.812	83.56
667.015	91.56
667.218	81.56
667.421	82.56
667.624	79.56
667.827	79.56
668.03	79.56
668.232	83.56
668.435	83.56
668.638	81.56
668.841	80.56
669.043	74.56
669.246	74.56
669.449	80.56
669.651	86.56
669.854	72.56
670.057	87.56
670.259	66.56
670.462	89.56
670.665	85.56
670.867	74.56
671.07	75.56
671.272	80.56
671.475	100.56
671.677	69.56
671.88	80.56
672.082	85.56
672.284	80.56
672.487	88.56
672.689	81.56
672.892	72.56
