Data from 1975.PennyLincolnUp.Lamp.En5.5.200Scan.071719.P1.Changed Mount._HRD10591_15-56-24-859.txt Node
Date: Thu Jul 18 15:56:24 EDT 2019
User: cochatt
Spectrometer: HR+D1059
Trigger mode: 1
Integration Time (sec): 1.000000E-1
Scans to average: 1
Electric dark correction enabled: true
Nonlinearity correction enabled: false
Boxcar width: 0
XAxis mode: Wavelengths
Number of Pixels in Spectrum: 2048
>>>>>Begin Spectral Data<<<<<
223.165	-11.56
223.4	-11.56
223.635	-11.56
223.869	-26.56
224.104	0.44
224.338	-0.56
224.573	-21.56
224.808	-11.56
225.042	-16.56
225.277	-18.56
225.511	3.44
225.746	11.44
225.98	3.44
226.215	0.44
226.449	18.44
226.683	16.44
226.918	22.44
227.152	30.44
227.387	18.44
227.621	36.44
227.856	50.44
228.09	50.44
228.324	49.44
228.559	67.44
228.793	65.44
229.027	93.44
229.262	102.44
229.496	100.44
229.73	129.44
229.964	145.44
230.199	130.44
230.433	119.44
230.667	116.44
230.901	123.44
231.136	116.44
231.37	123.44
231.604	116.44
231.838	116.44
232.072	97.44
232.306	118.44
232.541	127.44
232.775	106.44
233.009	123.44
233.243	122.44
233.477	121.44
233.711	126.44
233.945	117.44
234.179	126.44
234.413	113.44
234.647	102.44
234.881	126.44
235.115	127.44
235.349	111.44
235.583	117.44
235.817	120.44
236.051	122.44
236.285	135.44
236.519	119.44
236.753	132.44
236.987	161.44
237.221	167.44
237.455	206.44
237.689	172.44
237.922	135.44
238.156	126.44
238.39	142.44
238.624	130.44
238.858	129.44
239.091	131.44
239.325	124.44
239.559	129.44
239.793	113.44
240.027	130.44
240.26	150.44
240.494	149.44
240.728	142.44
240.961	146.44
241.195	140.44
241.429	134.44
241.662	135.44
241.896	127.44
242.13	143.44
242.363	137.44
242.597	134.44
242.83	145.44
243.064	139.44
243.298	135.44
243.531	133.44
243.765	152.44
243.998	141.44
244.232	148.44
244.465	152.44
244.699	132.44
244.932	154.44
245.166	156.44
245.399	141.44
245.633	142.44
245.866	139.44
246.099	131.44
246.333	148.44
246.566	150.44
246.8	162.44
247.033	155.44
247.266	158.44
247.5	157.44
247.733	159.44
247.966	175.44
248.2	170.44
248.433	171.44
248.666	179.44
248.899	180.44
249.133	196.44
249.366	208.44
249.599	197.44
249.832	194.44
250.066	177.44
250.299	181.44
250.532	199.44
250.765	202.44
250.998	220.44
251.231	210.44
251.465	199.44
251.698	191.44
251.931	198.44
252.164	200.44
252.397	201.44
252.63	190.44
252.863	180.44
253.096	213.44
253.329	206.44
253.562	222.44
253.795	218.44
254.028	207.44
254.261	210.44
254.494	224.44
254.727	239.44
254.96	280.44
255.193	265.44
255.426	249.44
255.659	236.44
255.892	232.44
256.124	242.44
256.357	247.44
256.59	243.44
256.823	218.44
257.056	215.44
257.289	191.44
257.521	211.44
257.754	220.44
257.987	215.44
258.22	207.44
258.452	196.44
258.685	204.44
258.918	204.44
259.151	215.44
259.383	219.44
259.616	223.44
259.849	228.44
260.081	212.44
260.314	244.44
260.547	277.44
260.779	262.44
261.012	238.44
261.244	223.44
261.477	222.44
261.71	223.44
261.942	226.44
262.175	234.44
262.407	219.44
262.64	237.44
262.872	214.44
263.105	227.44
263.337	207.44
263.57	211.44
263.802	216.44
264.035	227.44
264.267	218.44
264.499	221.44
264.732	210.44
264.964	234.44
265.197	210.44
265.429	214.44
265.661	214.44
265.894	223.44
266.126	220.44
266.358	228.44
266.591	224.44
266.823	230.44
267.055	233.44
267.287	229.44
267.52	231.44
267.752	231.44
267.984	216.44
268.216	219.44
268.448	239.44
268.681	229.44
268.913	243.44
269.145	243.44
269.377	282.44
269.609	278.44
269.841	255.44
270.073	266.44
270.306	274.44
270.538	319.44
270.77	311.44
271.002	286.44
271.234	302.44
271.466	300.44
271.698	317.44
271.93	314.44
272.162	323.44
272.394	322.44
272.626	323.44
272.858	280.44
273.09	269.44
273.322	271.44
273.553	287.44
273.785	261.44
274.017	280.44
274.249	266.44
274.481	290.44
274.713	273.44
274.945	287.44
275.176	284.44
275.408	245.44
275.64	268.44
275.872	269.44
276.104	267.44
276.335	270.44
276.567	264.44
276.799	281.44
277.031	295.44
277.262	308.44
277.494	322.44
277.726	289.44
277.957	286.44
278.189	290.44
278.421	260.44
278.652	284.44
278.884	270.44
279.115	287.44
279.347	291.44
279.579	283.44
279.81	282.44
280.042	284.44
280.273	276.44
280.505	308.44
280.736	263.44
280.968	263.44
281.199	276.44
281.431	277.44
281.662	279.44
281.894	260.44
282.125	301.44
282.356	292.44
282.588	312.44
282.819	298.44
283.051	290.44
283.282	267.44
283.513	280.44
283.745	283.44
283.976	288.44
284.207	285.44
284.439	291.44
284.67	281.44
284.901	297.44
285.132	300.44
285.364	275.44
285.595	294.44
285.826	286.44
286.057	307.44
286.288	286.44
286.52	296.44
286.751	284.44
286.982	297.44
287.213	314.44
287.444	267.44
287.675	295.44
287.906	321.44
288.138	309.44
288.369	310.44
288.6	298.44
288.831	294.44
289.062	322.44
289.293	294.44
289.524	299.44
289.755	300.44
289.986	315.44
290.217	282.44
290.448	309.44
290.679	296.44
290.91	302.44
291.141	306.44
291.371	288.44
291.602	299.44
291.833	297.44
292.064	311.44
292.295	306.44
292.526	318.44
292.757	324.44
292.987	306.44
293.218	299.44
293.449	300.44
293.68	301.44
293.91	284.44
294.141	280.44
294.372	292.44
294.603	313.44
294.833	308.44
295.064	287.44
295.295	301.44
295.525	296.44
295.756	311.44
295.987	311.44
296.217	327.44
296.448	338.44
296.679	316.44
296.909	324.44
297.14	321.44
297.37	312.44
297.601	319.44
297.831	314.44
298.062	323.44
298.292	311.44
298.523	312.44
298.753	316.44
298.984	329.44
299.214	312.44
299.445	319.44
299.675	319.44
299.905	334.44
300.136	343.44
300.366	326.44
300.597	318.44
300.827	332.44
301.057	329.44
301.288	331.44
301.518	328.44
301.748	354.44
301.979	343.44
302.209	332.44
302.439	340.44
302.669	344.44
302.9	350.44
303.13	340.44
303.36	340.44
303.59	360.44
303.82	370.44
304.051	353.44
304.281	340.44
304.511	322.44
304.741	326.44
304.971	312.44
305.201	340.44
305.431	354.44
305.661	356.44
305.891	333.44
306.121	342.44
306.352	342.44
306.582	358.44
306.812	356.44
307.042	340.44
307.272	340.44
307.502	359.44
307.731	345.44
307.961	349.44
308.191	356.44
308.421	345.44
308.651	359.44
308.881	340.44
309.111	356.44
309.341	363.44
309.571	358.44
309.8	356.44
310.03	359.44
310.26	359.44
310.49	369.44
310.72	366.44
310.949	386.44
311.179	399.44
311.409	376.44
311.639	357.44
311.868	374.44
312.098	363.44
312.328	391.44
312.557	377.44
312.787	403.44
313.017	393.44
313.246	408.44
313.476	370.44
313.706	381.44
313.935	391.44
314.165	400.44
314.394	385.44
314.624	399.44
314.853	375.44
315.083	395.44
315.312	375.44
315.542	394.44
315.771	378.44
316.001	388.44
316.23	398.44
316.46	372.44
316.689	400.44
316.919	378.44
317.148	382.44
317.377	385.44
317.607	389.44
317.836	390.44
318.065	387.44
318.295	378.44
318.524	374.44
318.753	380.44
318.983	382.44
319.212	388.44
319.441	381.44
319.67	388.44
319.9	393.44
320.129	361.44
320.358	389.44
320.587	384.44
320.816	391.44
321.046	404.44
321.275	400.44
321.504	431.44
321.733	404.44
321.962	396.44
322.191	414.44
322.42	426.44
322.649	421.44
322.878	417.44
323.108	431.44
323.337	439.44
323.566	458.44
323.795	471.44
324.024	502.44
324.253	574.44
324.482	764.44
324.71	1154.44
324.939	1720.44
325.168	1568.44
325.397	799.44
325.626	548.44
325.855	491.44
326.084	459.44
326.313	461.44
326.542	468.44
326.77	501.44
326.999	562.44
327.228	731.44
327.457	1090.44
327.686	1305.44
327.914	922.44
328.143	602.44
328.372	529.44
328.6	521.44
328.829	507.44
329.058	511.44
329.287	516.44
329.515	489.44
329.744	492.44
329.972	475.44
330.201	500.44
330.43	522.44
330.658	534.44
330.887	565.44
331.115	548.44
331.344	500.44
331.572	466.44
331.801	464.44
332.03	476.44
332.258	456.44
332.486	440.44
332.715	443.44
332.943	465.44
333.172	483.44
333.4	506.44
333.629	490.44
333.857	488.44
334.085	518.44
334.314	510.44
334.542	537.44
334.771	572.44
334.999	526.44
335.227	509.44
335.455	499.44
335.684	478.44
335.912	476.44
336.14	468.44
336.369	476.44
336.597	478.44
336.825	460.44
337.053	450.44
337.281	443.44
337.51	462.44
337.738	456.44
337.966	446.44
338.194	456.44
338.422	458.44
338.65	466.44
338.878	458.44
339.106	430.44
339.334	430.44
339.562	439.44
339.79	455.44
340.018	427.44
340.246	429.44
340.474	445.44
340.702	459.44
340.93	475.44
341.158	442.44
341.386	438.44
341.614	444.44
341.842	435.44
342.07	428.44
342.298	424.44
342.526	422.44
342.754	414.44
342.981	427.44
343.209	435.44
343.437	444.44
343.665	442.44
343.893	458.44
344.12	469.44
344.348	464.44
344.576	472.44
344.804	453.44
345.031	456.44
345.259	476.44
345.487	447.44
345.714	430.44
345.942	441.44
346.17	408.44
346.397	430.44
346.625	446.44
346.853	420.44
347.08	423.44
347.308	406.44
347.535	438.44
347.763	441.44
347.99	424.44
348.218	436.44
348.445	451.44
348.673	424.44
348.9	423.44
349.128	414.44
349.355	406.44
349.583	404.44
349.81	416.44
350.037	413.44
350.265	431.44
350.492	407.44
350.72	419.44
350.947	417.44
351.174	421.44
351.402	417.44
351.629	422.44
351.856	430.44
352.083	427.44
352.311	425.44
352.538	425.44
352.765	444.44
352.992	414.44
353.22	419.44
353.447	444.44
353.674	417.44
353.901	389.44
354.128	404.44
354.355	410.44
354.583	411.44
354.81	403.44
355.037	421.44
355.264	391.44
355.491	390.44
355.718	395.44
355.945	388.44
356.172	391.44
356.399	402.44
356.626	391.44
356.853	418.44
357.08	419.44
357.307	397.44
357.534	400.44
357.761	418.44
357.988	415.44
358.215	390.44
358.441	417.44
358.668	397.44
358.895	378.44
359.122	403.44
359.349	397.44
359.576	424.44
359.802	426.44
360.029	452.44
360.256	476.44
360.483	440.44
360.709	438.44
360.936	447.44
361.163	417.44
361.39	425.44
361.616	415.44
361.843	421.44
362.07	435.44
362.296	421.44
362.523	432.44
362.749	418.44
362.976	432.44
363.203	430.44
363.429	408.44
363.656	397.44
363.882	428.44
364.109	424.44
364.335	412.44
364.562	425.44
364.788	418.44
365.015	406.44
365.241	421.44
365.468	437.44
365.694	434.44
365.92	423.44
366.147	421.44
366.373	410.44
366.599	420.44
366.826	416.44
367.052	424.44
367.278	409.44
367.505	420.44
367.731	414.44
367.957	410.44
368.184	434.44
368.41	412.44
368.636	436.44
368.862	411.44
369.089	418.44
369.315	416.44
369.541	425.44
369.767	393.44
369.993	408.44
370.219	416.44
370.445	414.44
370.672	412.44
370.898	415.44
371.124	427.44
371.35	421.44
371.576	426.44
371.802	419.44
372.028	428.44
372.254	427.44
372.48	422.44
372.706	428.44
372.932	448.44
373.158	439.44
373.384	430.44
373.61	429.44
373.835	428.44
374.061	421.44
374.287	424.44
374.513	422.44
374.739	449.44
374.965	426.44
375.191	444.44
375.416	439.44
375.642	444.44
375.868	444.44
376.094	430.44
376.319	420.44
376.545	437.44
376.771	414.44
376.997	426.44
377.222	430.44
377.448	429.44
377.674	423.44
377.899	414.44
378.125	420.44
378.35	442.44
378.576	418.44
378.802	418.44
379.027	418.44
379.253	422.44
379.478	422.44
379.704	407.44
379.929	429.44
380.155	429.44
380.38	437.44
380.606	436.44
380.831	432.44
381.057	452.44
381.282	439.44
381.507	436.44
381.733	436.44
381.958	438.44
382.184	440.44
382.409	471.44
382.634	454.44
382.86	440.44
383.085	449.44
383.31	414.44
383.535	449.44
383.761	460.44
383.986	454.44
384.211	453.44
384.436	442.44
384.662	478.44
384.887	483.44
385.112	482.44
385.337	476.44
385.562	470.44
385.787	480.44
386.013	498.44
386.238	474.44
386.463	474.44
386.688	452.44
386.913	479.44
387.138	477.44
387.363	495.44
387.588	478.44
387.813	475.44
388.038	490.44
388.263	487.44
388.488	479.44
388.713	484.44
388.938	470.44
389.163	458.44
389.387	470.44
389.612	476.44
389.837	461.44
390.062	484.44
390.287	473.44
390.512	471.44
390.736	476.44
390.961	478.44
391.186	454.44
391.411	474.44
391.636	475.44
391.86	494.44
392.085	487.44
392.31	510.44
392.534	508.44
392.759	508.44
392.984	483.44
393.208	481.44
393.433	483.44
393.658	474.44
393.882	468.44
394.107	480.44
394.331	480.44
394.556	487.44
394.78	492.44
395.005	494.44
395.229	492.44
395.454	515.44
395.678	506.44
395.903	502.44
396.127	545.44
396.352	512.44
396.576	514.44
396.801	478.44
397.025	518.44
397.249	510.44
397.474	526.44
397.698	499.44
397.922	515.44
398.147	543.44
398.371	547.44
398.595	535.44
398.82	546.44
399.044	527.44
399.268	581.44
399.492	648.44
399.717	667.44
399.941	729.44
400.165	707.44
400.389	686.44
400.613	620.44
400.837	610.44
401.062	584.44
401.286	592.44
401.51	578.44
401.734	547.44
401.958	558.44
402.182	574.44
402.406	590.44
402.63	572.44
402.854	571.44
403.078	588.44
403.302	571.44
403.526	602.44
403.75	595.44
403.974	584.44
404.198	562.44
404.422	593.44
404.645	587.44
404.869	615.44
405.093	645.44
405.317	650.44
405.541	722.44
405.765	650.44
405.988	602.44
406.212	598.44
406.436	613.44
406.66	662.44
406.883	626.44
407.107	643.44
407.331	666.44
407.555	771.44
407.778	767.44
408.002	695.44
408.226	644.44
408.449	635.44
408.673	638.44
408.896	663.44
409.12	705.44
409.344	660.44
409.567	623.44
409.791	607.44
410.014	585.44
410.238	576.44
410.461	605.44
410.685	580.44
410.908	619.44
411.132	630.44
411.355	675.44
411.578	608.44
411.802	599.44
412.025	588.44
412.249	595.44
412.472	602.44
412.695	644.44
412.919	642.44
413.142	563.44
413.365	573.44
413.589	554.44
413.812	563.44
414.035	557.44
414.258	564.44
414.482	549.44
414.705	558.44
414.928	541.44
415.151	550.44
415.374	540.44
415.597	552.44
415.821	525.44
416.044	540.44
416.267	524.44
416.49	530.44
416.713	532.44
416.936	573.44
417.159	572.44
417.382	534.44
417.605	562.44
417.828	582.44
418.051	575.44
418.274	583.44
418.497	557.44
418.72	552.44
418.943	555.44
419.166	597.44
419.389	614.44
419.611	606.44
419.834	584.44
420.057	590.44
420.28	596.44
420.503	564.44
420.726	586.44
420.948	603.44
421.171	640.44
421.394	667.44
421.617	586.44
421.839	556.44
422.062	564.44
422.285	563.44
422.507	636.44
422.73	741.44
422.953	681.44
423.175	628.44
423.398	608.44
423.621	611.44
423.843	618.44
424.066	626.44
424.288	591.44
424.511	624.44
424.733	682.44
424.956	751.44
425.178	735.44
425.401	694.44
425.623	731.44
425.846	642.44
426.068	610.44
426.291	595.44
426.513	574.44
426.735	591.44
426.958	633.44
427.18	735.44
427.402	825.44
427.625	923.44
427.847	803.44
428.069	692.44
428.292	644.44
428.514	593.44
428.736	582.44
428.958	583.44
429.181	532.44
429.403	536.44
429.625	555.44
429.847	580.44
430.069	676.44
430.292	650.44
430.514	570.44
430.736	532.44
430.958	577.44
431.18	542.44
431.402	518.44
431.624	517.44
431.846	519.44
432.068	509.44
432.29	542.44
432.512	524.44
432.734	554.44
432.956	556.44
433.178	538.44
433.4	548.44
433.622	534.44
433.844	543.44
434.066	549.44
434.287	518.44
434.509	545.44
434.731	551.44
434.953	564.44
435.175	593.44
435.397	636.44
435.618	584.44
435.84	644.44
436.062	723.44
436.284	784.44
436.505	676.44
436.727	612.44
436.949	559.44
437.17	559.44
437.392	546.44
437.614	563.44
437.835	583.44
438.057	658.44
438.278	773.44
438.5	735.44
438.721	855.44
438.943	824.44
439.165	675.44
439.386	593.44
439.608	587.44
439.829	579.44
440.05	612.44
440.272	643.44
440.493	605.44
440.715	597.44
440.936	575.44
441.158	547.44
441.379	546.44
441.6	560.44
441.822	603.44
442.043	622.44
442.264	720.44
442.486	746.44
442.707	680.44
442.928	624.44
443.149	621.44
443.371	643.44
443.592	674.44
443.813	748.44
444.034	840.44
444.255	710.44
444.476	610.44
444.698	648.44
444.919	605.44
445.14	739.44
445.361	682.44
445.582	651.44
445.803	668.44
446.024	836.44
446.245	814.44
446.466	719.44
446.687	655.44
446.908	597.44
447.129	562.44
447.35	544.44
447.571	554.44
447.792	519.44
448.013	543.44
448.234	559.44
448.455	613.44
448.675	691.44
448.896	863.44
449.117	706.44
449.338	666.44
449.559	789.44
449.779	910.44
450	702.44
450.221	596.44
450.442	528.44
450.662	539.44
450.883	529.44
451.104	521.44
451.324	536.44
451.545	510.44
451.766	507.44
451.986	486.44
452.207	467.44
452.428	486.44
452.648	474.44
452.869	486.44
453.089	498.44
453.31	543.44
453.53	485.44
453.751	486.44
453.971	466.44
454.192	485.44
454.412	478.44
454.633	488.44
454.853	483.44
455.073	485.44
455.294	523.44
455.514	595.44
455.734	553.44
455.955	495.44
456.175	474.44
456.395	463.44
456.616	466.44
456.836	458.44
457.056	456.44
457.276	473.44
457.497	444.44
457.717	467.44
457.937	469.44
458.157	480.44
458.377	502.44
458.598	488.44
458.818	555.44
459.038	616.44
459.258	622.44
459.478	570.44
459.698	539.44
459.918	542.44
460.138	549.44
460.358	538.44
460.578	549.44
460.798	553.44
461.018	552.44
461.238	584.44
461.458	565.44
461.678	560.44
461.898	572.44
462.118	560.44
462.338	568.44
462.558	592.44
462.777	590.44
462.997	622.44
463.217	620.44
463.437	648.44
463.657	595.44
463.876	590.44
464.096	589.44
464.316	610.44
464.536	603.44
464.755	593.44
464.975	578.44
465.195	596.44
465.414	638.44
465.634	576.44
465.854	576.44
466.073	546.44
466.293	534.44
466.512	516.44
466.732	480.44
466.951	509.44
467.171	500.44
467.391	504.44
467.61	501.44
467.829	517.44
468.049	536.44
468.268	536.44
468.488	518.44
468.707	475.44
468.927	494.44
469.146	482.44
469.365	501.44
469.585	500.44
469.804	510.44
470.023	511.44
470.243	533.44
470.462	524.44
470.681	522.44
470.901	538.44
471.12	519.44
471.339	502.44
471.558	525.44
471.777	515.44
471.997	517.44
472.216	517.44
472.435	520.44
472.654	528.44
472.873	477.44
473.092	520.44
473.311	498.44
473.53	504.44
473.749	500.44
473.968	547.44
474.187	646.44
474.406	654.44
474.625	540.44
474.844	522.44
475.063	513.44
475.282	511.44
475.501	511.44
475.72	525.44
475.939	524.44
476.158	527.44
476.377	529.44
476.596	538.44
476.814	521.44
477.033	545.44
477.252	549.44
477.471	513.44
477.69	560.44
477.908	572.44
478.127	554.44
478.346	570.44
478.564	567.44
478.783	598.44
479.002	591.44
479.22	587.44
479.439	587.44
479.658	612.44
479.876	615.44
480.095	611.44
480.313	635.44
480.532	638.44
480.751	637.44
480.969	645.44
481.188	694.44
481.406	690.44
481.624	661.44
481.843	648.44
482.061	591.44
482.28	602.44
482.498	613.44
482.717	621.44
482.935	607.44
483.153	601.44
483.372	586.44
483.59	594.44
483.808	599.44
484.027	602.44
484.245	606.44
484.463	636.44
484.681	629.44
484.9	610.44
485.118	604.44
485.336	594.44
485.554	602.44
485.772	615.44
485.99	626.44
486.209	637.44
486.427	617.44
486.645	640.44
486.863	638.44
487.081	663.44
487.299	630.44
487.517	625.44
487.735	629.44
487.953	637.44
488.171	648.44
488.389	645.44
488.607	644.44
488.825	642.44
489.043	647.44
489.261	648.44
489.479	655.44
489.696	664.44
489.914	668.44
490.132	669.44
490.35	698.44
490.568	685.44
490.786	708.44
491.003	708.44
491.221	717.44
491.439	740.44
491.657	726.44
491.874	724.44
492.092	730.44
492.31	724.44
492.527	748.44
492.745	763.44
492.963	757.44
493.18	743.44
493.398	780.44
493.615	757.44
493.833	759.44
494.05	775.44
494.268	746.44
494.485	742.44
494.703	766.44
494.92	756.44
495.138	766.44
495.355	763.44
495.573	748.44
495.79	782.44
496.008	743.44
496.225	734.44
496.442	762.44
496.66	776.44
496.877	759.44
497.094	793.44
497.312	799.44
497.529	778.44
497.746	800.44
497.963	806.44
498.181	856.44
498.398	850.44
498.615	848.44
498.832	896.44
499.049	928.44
499.267	942.44
499.484	980.44
499.701	1006.44
499.918	1051.44
500.135	1148.44
500.352	1210.44
500.569	1243.44
500.786	1253.44
501.003	1207.44
501.22	1135.44
501.437	1116.44
501.654	1051.44
501.871	1023.44
502.088	955.44
502.305	930.44
502.522	887.44
502.739	874.44
502.956	854.44
503.172	814.44
503.389	815.44
503.606	792.44
503.823	810.44
504.04	796.44
504.256	784.44
504.473	775.44
504.69	775.44
504.907	771.44
505.123	757.44
505.34	738.44
505.557	727.44
505.773	735.44
505.99	714.44
506.207	712.44
506.423	718.44
506.64	730.44
506.856	686.44
507.073	712.44
507.289	686.44
507.506	666.44
507.722	694.44
507.939	692.44
508.155	686.44
508.372	680.44
508.588	665.44
508.805	664.44
509.021	658.44
509.238	670.44
509.454	692.44
509.67	670.44
509.887	657.44
510.103	664.44
510.319	678.44
510.536	738.44
510.752	1019.44
510.968	875.44
511.184	662.44
511.401	646.44
511.617	624.44
511.833	612.44
512.049	638.44
512.265	614.44
512.481	634.44
512.698	630.44
512.914	654.44
513.13	632.44
513.346	631.44
513.562	642.44
513.778	619.44
513.994	642.44
514.21	646.44
514.426	649.44
514.642	672.44
514.858	702.44
515.074	685.44
515.29	813.44
515.506	1055.44
515.721	895.44
515.937	709.44
516.153	691.44
516.369	656.44
516.585	666.44
516.801	661.44
517.016	656.44
517.232	668.44
517.448	666.44
517.664	670.44
517.879	664.44
518.095	699.44
518.311	687.44
518.527	656.44
518.742	677.44
518.958	654.44
519.173	628.44
519.389	628.44
519.605	615.44
519.82	608.44
520.036	635.44
520.251	638.44
520.467	673.44
520.682	669.44
520.898	668.44
521.113	658.44
521.329	695.44
521.544	740.44
521.76	840.44
521.975	1245.44
522.19	1215.44
522.406	784.44
522.621	667.44
522.836	618.44
523.052	598.44
523.267	587.44
523.482	554.44
523.698	559.44
523.913	548.44
524.128	576.44
524.343	571.44
524.559	551.44
524.774	549.44
524.989	554.44
525.204	553.44
525.419	542.44
525.634	520.44
525.849	545.44
526.064	534.44
526.28	553.44
526.495	553.44
526.71	520.44
526.925	532.44
527.14	534.44
527.355	508.44
527.57	524.44
527.785	537.44
527.999	508.44
528.214	531.44
528.429	514.44
528.644	529.44
528.859	548.44
529.074	535.44
529.289	548.44
529.503	607.44
529.718	582.44
529.933	556.44
530.148	539.44
530.363	523.44
530.577	530.44
530.792	522.44
531.007	521.44
531.221	526.44
531.436	511.44
531.651	523.44
531.865	506.44
532.08	514.44
532.295	520.44
532.509	505.44
532.724	494.44
532.938	506.44
533.153	524.44
533.367	516.44
533.582	499.44
533.796	496.44
534.011	509.44
534.225	519.44
534.44	506.44
534.654	507.44
534.868	507.44
535.083	503.44
535.297	525.44
535.511	504.44
535.726	511.44
535.94	504.44
536.154	506.44
536.369	482.44
536.583	476.44
536.797	491.44
537.011	485.44
537.225	488.44
537.44	499.44
537.654	472.44
537.868	476.44
538.082	503.44
538.296	492.44
538.51	479.44
538.724	489.44
538.938	480.44
539.153	520.44
539.367	494.44
539.581	488.44
539.795	468.44
540.009	481.44
540.222	486.44
540.436	494.44
540.65	485.44
540.864	491.44
541.078	502.44
541.292	481.44
541.506	505.44
541.72	499.44
541.934	494.44
542.147	490.44
542.361	500.44
542.575	480.44
542.789	471.44
543.002	498.44
543.216	470.44
543.43	482.44
543.644	476.44
543.857	470.44
544.071	473.44
544.285	512.44
544.498	482.44
544.712	506.44
544.925	488.44
545.139	482.44
545.352	491.44
545.566	481.44
545.779	471.44
545.993	483.44
546.206	480.44
546.42	476.44
546.633	490.44
546.847	466.44
547.06	483.44
547.274	497.44
547.487	470.44
547.7	487.44
547.914	509.44
548.127	490.44
548.34	475.44
548.554	455.44
548.767	479.44
548.98	486.44
549.193	484.44
549.407	463.44
549.62	474.44
549.833	476.44
550.046	455.44
550.259	469.44
550.473	467.44
550.686	445.44
550.899	455.44
551.112	465.44
551.325	478.44
551.538	485.44
551.751	472.44
551.964	461.44
552.177	467.44
552.39	453.44
552.603	461.44
552.816	473.44
553.029	488.44
553.242	479.44
553.455	495.44
553.667	487.44
553.88	511.44
554.093	470.44
554.306	472.44
554.519	481.44
554.732	471.44
554.944	485.44
555.157	454.44
555.37	446.44
555.583	443.44
555.795	448.44
556.008	456.44
556.221	445.44
556.433	462.44
556.646	435.44
556.859	431.44
557.071	448.44
557.284	450.44
557.496	443.44
557.709	421.44
557.921	418.44
558.134	432.44
558.346	410.44
558.559	427.44
558.771	427.44
558.984	412.44
559.196	410.44
559.409	397.44
559.621	399.44
559.833	413.44
560.046	429.44
560.258	424.44
560.47	408.44
560.683	425.44
560.895	436.44
561.107	412.44
561.32	428.44
561.532	426.44
561.744	403.44
561.956	416.44
562.168	430.44
562.381	430.44
562.593	416.44
562.805	425.44
563.017	425.44
563.229	452.44
563.441	441.44
563.653	438.44
563.865	434.44
564.077	430.44
564.289	449.44
564.501	419.44
564.713	455.44
564.925	443.44
565.137	446.44
565.349	461.44
565.561	482.44
565.773	476.44
565.985	497.44
566.197	474.44
566.408	506.44
566.62	512.44
566.832	527.44
567.044	555.44
567.255	556.44
567.467	547.44
567.679	574.44
567.891	598.44
568.102	599.44
568.314	590.44
568.526	564.44
568.737	532.44
568.949	489.44
569.161	500.44
569.372	468.44
569.584	462.44
569.795	452.44
570.007	444.44
570.218	464.44
570.43	458.44
570.641	419.44
570.853	422.44
571.064	422.44
571.276	414.44
571.487	421.44
571.698	430.44
571.91	407.44
572.121	366.44
572.333	383.44
572.544	360.44
572.755	388.44
572.966	372.44
573.178	378.44
573.389	366.44
573.6	363.44
573.811	368.44
574.023	372.44
574.234	366.44
574.445	374.44
574.656	375.44
574.867	376.44
575.078	389.44
575.289	382.44
575.501	379.44
575.712	363.44
575.923	372.44
576.134	378.44
576.345	363.44
576.556	350.44
576.767	363.44
576.978	353.44
577.188	349.44
577.399	344.44
577.61	326.44
577.821	349.44
578.032	353.44
578.243	390.44
578.454	499.44
578.665	404.44
578.875	336.44
579.086	341.44
579.297	344.44
579.508	338.44
579.718	325.44
579.929	328.44
580.14	335.44
580.35	333.44
580.561	314.44
580.772	332.44
580.982	330.44
581.193	331.44
581.403	351.44
581.614	333.44
581.825	331.44
582.035	326.44
582.246	347.44
582.456	336.44
582.667	328.44
582.877	319.44
583.087	330.44
583.298	325.44
583.508	323.44
583.719	336.44
583.929	337.44
584.139	321.44
584.35	327.44
584.56	321.44
584.77	335.44
584.981	336.44
585.191	332.44
585.401	322.44
585.611	326.44
585.821	339.44
586.032	331.44
586.242	325.44
586.452	319.44
586.662	326.44
586.872	312.44
587.082	318.44
587.292	309.44
587.502	307.44
587.713	324.44
587.923	311.44
588.133	299.44
588.343	314.44
588.553	314.44
588.762	314.44
588.972	335.44
589.182	321.44
589.392	335.44
589.602	310.44
589.812	329.44
590.022	340.44
590.232	314.44
590.441	329.44
590.651	302.44
590.861	308.44
591.071	314.44
591.281	325.44
591.49	323.44
591.7	323.44
591.91	328.44
592.119	343.44
592.329	333.44
592.539	352.44
592.748	360.44
592.958	349.44
593.167	355.44
593.377	362.44
593.587	384.44
593.796	363.44
594.006	374.44
594.215	366.44
594.424	345.44
594.634	359.44
594.843	349.44
595.053	327.44
595.262	348.44
595.472	346.44
595.681	320.44
595.89	306.44
596.1	346.44
596.309	314.44
596.518	290.44
596.727	319.44
596.937	291.44
597.146	298.44
597.355	306.44
597.564	284.44
597.774	297.44
597.983	292.44
598.192	287.44
598.401	291.44
598.61	283.44
598.819	284.44
599.028	266.44
599.237	276.44
599.446	299.44
599.655	296.44
599.864	295.44
600.073	279.44
600.282	271.44
600.491	288.44
600.7	290.44
600.909	279.44
601.118	263.44
601.327	284.44
601.536	261.44
601.745	266.44
601.953	275.44
602.162	279.44
602.371	269.44
602.58	267.44
602.789	293.44
602.997	283.44
603.206	276.44
603.415	288.44
603.623	272.44
603.832	273.44
604.041	276.44
604.249	274.44
604.458	271.44
604.666	267.44
604.875	258.44
605.084	264.44
605.292	260.44
605.501	264.44
605.709	272.44
605.918	260.44
606.126	264.44
606.334	262.44
606.543	250.44
606.751	269.44
606.96	290.44
607.168	261.44
607.376	242.44
607.585	261.44
607.793	261.44
608.001	270.44
608.21	273.44
608.418	254.44
608.626	262.44
608.834	266.44
609.043	265.44
609.251	253.44
609.459	249.44
609.667	264.44
609.875	266.44
610.083	252.44
610.291	254.44
610.499	251.44
610.707	278.44
610.916	269.44
611.124	281.44
611.332	269.44
611.54	259.44
611.748	253.44
611.955	265.44
612.163	256.44
612.371	258.44
612.579	258.44
612.787	266.44
612.995	267.44
613.203	280.44
613.411	243.44
613.618	244.44
613.826	255.44
614.034	261.44
614.242	256.44
614.449	260.44
614.657	267.44
614.865	254.44
615.072	243.44
615.28	243.44
615.488	249.44
615.695	255.44
615.903	252.44
616.111	250.44
616.318	274.44
616.526	247.44
616.733	242.44
616.941	236.44
617.148	244.44
617.356	277.44
617.563	269.44
617.771	247.44
617.978	264.44
618.185	256.44
618.393	251.44
618.6	253.44
618.807	265.44
619.015	247.44
619.222	250.44
619.429	247.44
619.637	243.44
619.844	254.44
620.051	237.44
620.258	237.44
620.466	247.44
620.673	235.44
620.88	226.44
621.087	244.44
621.294	240.44
621.501	245.44
621.708	249.44
621.915	229.44
622.122	239.44
622.329	248.44
622.536	266.44
622.743	240.44
622.95	247.44
623.157	238.44
623.364	242.44
623.571	235.44
623.778	215.44
623.985	258.44
624.192	232.44
624.399	231.44
624.606	239.44
624.812	226.44
625.019	237.44
625.226	228.44
625.433	238.44
625.639	217.44
625.846	223.44
626.053	235.44
626.259	222.44
626.466	214.44
626.673	222.44
626.879	236.44
627.086	219.44
627.293	229.44
627.499	227.44
627.706	231.44
627.912	223.44
628.119	223.44
628.325	217.44
628.532	224.44
628.738	218.44
628.945	228.44
629.151	206.44
629.357	200.44
629.564	201.44
629.77	218.44
629.976	203.44
630.183	198.44
630.389	218.44
630.595	205.44
630.802	202.44
631.008	224.44
631.214	216.44
631.42	203.44
631.627	213.44
631.833	217.44
632.039	199.44
632.245	215.44
632.451	202.44
632.657	198.44
632.863	224.44
633.069	191.44
633.275	204.44
633.481	183.44
633.688	198.44
633.893	188.44
634.099	213.44
634.305	207.44
634.511	197.44
634.717	198.44
634.923	196.44
635.129	199.44
635.335	186.44
635.541	200.44
635.747	207.44
635.952	197.44
636.158	192.44
636.364	189.44
636.57	200.44
636.775	207.44
636.981	191.44
637.187	196.44
637.392	189.44
637.598	189.44
637.804	185.44
638.009	185.44
638.215	185.44
638.421	192.44
638.626	195.44
638.832	189.44
639.037	182.44
639.243	193.44
639.448	181.44
639.654	195.44
639.859	191.44
640.065	200.44
640.27	191.44
640.475	198.44
640.681	198.44
640.886	183.44
641.091	185.44
641.297	193.44
641.502	180.44
641.707	183.44
641.913	194.44
642.118	178.44
642.323	178.44
642.528	196.44
642.733	194.44
642.939	175.44
643.144	178.44
643.349	198.44
643.554	189.44
643.759	184.44
643.964	171.44
644.169	160.44
644.374	173.44
644.579	183.44
644.784	175.44
644.989	180.44
645.194	184.44
645.399	178.44
645.604	167.44
645.809	167.44
646.014	173.44
646.219	182.44
646.423	184.44
646.628	164.44
646.833	199.44
647.038	196.44
647.243	170.44
647.447	184.44
647.652	167.44
647.857	182.44
648.062	177.44
648.266	180.44
648.471	171.44
648.676	195.44
648.88	180.44
649.085	191.44
649.289	195.44
649.494	188.44
649.698	203.44
649.903	196.44
650.107	178.44
650.312	184.44
650.516	173.44
650.721	178.44
650.925	172.44
651.13	148.44
651.334	160.44
651.539	171.44
651.743	156.44
651.947	147.44
652.152	170.44
652.356	164.44
652.56	169.44
652.764	156.44
652.969	174.44
653.173	159.44
653.377	168.44
653.581	146.44
653.785	143.44
653.99	134.44
654.194	158.44
654.398	150.44
654.602	158.44
654.806	156.44
655.01	130.44
655.214	142.44
655.418	152.44
655.622	140.44
655.826	143.44
656.03	148.44
656.234	148.44
656.438	147.44
656.642	144.44
656.846	135.44
657.049	150.44
657.253	137.44
657.457	128.44
657.661	128.44
657.865	117.44
658.068	134.44
658.272	127.44
658.476	114.44
658.68	114.44
658.883	120.44
659.087	104.44
659.291	107.44
659.494	96.44
659.698	100.44
659.901	101.44
660.105	103.44
660.309	94.44
660.512	101.44
660.716	84.44
660.919	90.44
661.123	100.44
661.326	99.44
661.53	91.44
661.733	84.44
661.936	84.44
662.14	97.44
662.343	75.44
662.546	80.44
662.75	94.44
662.953	100.44
663.156	92.44
663.36	88.44
663.563	83.44
663.766	79.44
663.969	84.44
664.173	101.44
664.376	71.44
664.579	87.44
664.782	91.44
664.985	82.44
665.188	95.44
665.391	89.44
665.594	88.44
665.797	78.44
666	72.44
666.203	85.44
666.406	81.44
666.609	83.44
666.812	86.44
667.015	81.44
667.218	82.44
667.421	86.44
667.624	89.44
667.827	90.44
668.03	85.44
668.232	90.44
668.435	86.44
668.638	75.44
668.841	83.44
669.043	72.44
669.246	88.44
669.449	73.44
669.651	89.44
669.854	84.44
670.057	83.44
670.259	72.44
670.462	84.44
670.665	82.44
670.867	92.44
671.07	85.44
671.272	84.44
671.475	79.44
671.677	79.44
671.88	100.44
672.082	90.44
672.284	85.44
672.487	89.44
672.689	70.44
672.892	69.44
