Data from 1975.PennyLincolnUp.Lamp.En5.5.200Scan.071719.P1.Changed Mount._HRD10591_15-58-16-859.txt Node
Date: Thu Jul 18 15:58:16 EDT 2019
User: cochatt
Spectrometer: HR+D1059
Trigger mode: 1
Integration Time (sec): 1.000000E-1
Scans to average: 1
Electric dark correction enabled: true
Nonlinearity correction enabled: false
Boxcar width: 0
XAxis mode: Wavelengths
Number of Pixels in Spectrum: 2048
>>>>>Begin Spectral Data<<<<<
223.165	-18.75
223.4	-18.75
223.635	-18.75
223.869	-9.75
224.104	-8.75
224.338	-12.75
224.573	-28.75
224.808	-24.75
225.042	-15.75
225.277	2.25
225.511	2.25
225.746	-0.75
225.98	6.25
226.215	20.25
226.449	16.25
226.683	15.25
226.918	19.25
227.152	38.25
227.387	44.25
227.621	34.25
227.856	42.25
228.09	53.25
228.324	42.25
228.559	39.25
228.793	79.25
229.027	101.25
229.262	116.25
229.496	119.25
229.73	133.25
229.964	156.25
230.199	119.25
230.433	107.25
230.667	105.25
230.901	111.25
231.136	105.25
231.37	122.25
231.604	108.25
231.838	120.25
232.072	126.25
232.306	115.25
232.541	102.25
232.775	121.25
233.009	104.25
233.243	109.25
233.477	117.25
233.711	126.25
233.945	122.25
234.179	117.25
234.413	119.25
234.647	134.25
234.881	123.25
235.115	128.25
235.349	118.25
235.583	111.25
235.817	128.25
236.051	128.25
236.285	145.25
236.519	130.25
236.753	138.25
236.987	155.25
237.221	178.25
237.455	243.25
237.689	196.25
237.922	151.25
238.156	130.25
238.39	132.25
238.624	132.25
238.858	138.25
239.091	127.25
239.325	126.25
239.559	134.25
239.793	122.25
240.027	141.25
240.26	135.25
240.494	158.25
240.728	164.25
240.961	154.25
241.195	144.25
241.429	142.25
241.662	137.25
241.896	129.25
242.13	142.25
242.363	141.25
242.597	148.25
242.83	125.25
243.064	138.25
243.298	130.25
243.531	147.25
243.765	152.25
243.998	136.25
244.232	145.25
244.465	141.25
244.699	156.25
244.932	156.25
245.166	150.25
245.399	137.25
245.633	152.25
245.866	161.25
246.099	163.25
246.333	145.25
246.566	151.25
246.8	153.25
247.033	158.25
247.266	158.25
247.5	174.25
247.733	175.25
247.966	165.25
248.2	192.25
248.433	188.25
248.666	186.25
248.899	196.25
249.133	196.25
249.366	211.25
249.599	194.25
249.832	187.25
250.066	197.25
250.299	208.25
250.532	191.25
250.765	221.25
250.998	220.25
251.231	235.25
251.465	210.25
251.698	221.25
251.931	207.25
252.164	212.25
252.397	197.25
252.63	224.25
252.863	208.25
253.096	251.25
253.329	237.25
253.562	250.25
253.795	237.25
254.028	224.25
254.261	229.25
254.494	232.25
254.727	267.25
254.96	288.25
255.193	288.25
255.426	265.25
255.659	242.25
255.892	232.25
256.124	249.25
256.357	251.25
256.59	240.25
256.823	239.25
257.056	236.25
257.289	218.25
257.521	213.25
257.754	227.25
257.987	229.25
258.22	239.25
258.452	211.25
258.685	215.25
258.918	208.25
259.151	225.25
259.383	231.25
259.616	208.25
259.849	226.25
260.081	246.25
260.314	271.25
260.547	270.25
260.779	269.25
261.012	229.25
261.244	236.25
261.477	235.25
261.71	228.25
261.942	225.25
262.175	252.25
262.407	243.25
262.64	218.25
262.872	231.25
263.105	241.25
263.337	235.25
263.57	236.25
263.802	213.25
264.035	226.25
264.267	220.25
264.499	228.25
264.732	234.25
264.964	237.25
265.197	243.25
265.429	222.25
265.661	233.25
265.894	225.25
266.126	234.25
266.358	229.25
266.591	221.25
266.823	238.25
267.055	228.25
267.287	244.25
267.52	243.25
267.752	240.25
267.984	228.25
268.216	254.25
268.448	243.25
268.681	239.25
268.913	250.25
269.145	276.25
269.377	279.25
269.609	298.25
269.841	278.25
270.073	288.25
270.306	302.25
270.538	347.25
270.77	307.25
271.002	311.25
271.234	307.25
271.466	308.25
271.698	330.25
271.93	338.25
272.162	337.25
272.394	334.25
272.626	324.25
272.858	299.25
273.09	308.25
273.322	281.25
273.553	291.25
273.785	279.25
274.017	290.25
274.249	296.25
274.481	273.25
274.713	268.25
274.945	299.25
275.176	272.25
275.408	307.25
275.64	303.25
275.872	283.25
276.104	293.25
276.335	280.25
276.567	273.25
276.799	291.25
277.031	313.25
277.262	331.25
277.494	335.25
277.726	340.25
277.957	303.25
278.189	301.25
278.421	302.25
278.652	280.25
278.884	282.25
279.115	268.25
279.347	279.25
279.579	299.25
279.81	302.25
280.042	282.25
280.273	298.25
280.505	294.25
280.736	276.25
280.968	296.25
281.199	291.25
281.431	290.25
281.662	297.25
281.894	298.25
282.125	312.25
282.356	313.25
282.588	338.25
282.819	320.25
283.051	316.25
283.282	303.25
283.513	310.25
283.745	302.25
283.976	300.25
284.207	319.25
284.439	303.25
284.67	322.25
284.901	296.25
285.132	304.25
285.364	295.25
285.595	313.25
285.826	313.25
286.057	329.25
286.288	289.25
286.52	319.25
286.751	288.25
286.982	300.25
287.213	300.25
287.444	321.25
287.675	322.25
287.906	311.25
288.138	326.25
288.369	341.25
288.6	335.25
288.831	327.25
289.062	324.25
289.293	317.25
289.524	319.25
289.755	320.25
289.986	312.25
290.217	304.25
290.448	323.25
290.679	309.25
290.91	313.25
291.141	318.25
291.371	308.25
291.602	307.25
291.833	321.25
292.064	302.25
292.295	310.25
292.526	327.25
292.757	314.25
292.987	318.25
293.218	310.25
293.449	324.25
293.68	314.25
293.91	329.25
294.141	334.25
294.372	336.25
294.603	316.25
294.833	321.25
295.064	308.25
295.295	320.25
295.525	318.25
295.756	307.25
295.987	329.25
296.217	346.25
296.448	354.25
296.679	330.25
296.909	323.25
297.14	306.25
297.37	342.25
297.601	328.25
297.831	326.25
298.062	331.25
298.292	330.25
298.523	330.25
298.753	336.25
298.984	334.25
299.214	340.25
299.445	351.25
299.675	333.25
299.905	330.25
300.136	343.25
300.366	351.25
300.597	346.25
300.827	334.25
301.057	351.25
301.288	376.25
301.518	376.25
301.748	347.25
301.979	357.25
302.209	370.25
302.439	364.25
302.669	339.25
302.9	364.25
303.13	349.25
303.36	376.25
303.59	372.25
303.82	371.25
304.051	360.25
304.281	358.25
304.511	351.25
304.741	359.25
304.971	378.25
305.201	340.25
305.431	359.25
305.661	375.25
305.891	358.25
306.121	365.25
306.352	364.25
306.582	361.25
306.812	350.25
307.042	367.25
307.272	367.25
307.502	371.25
307.731	380.25
307.961	362.25
308.191	364.25
308.421	385.25
308.651	365.25
308.881	363.25
309.111	365.25
309.341	344.25
309.571	383.25
309.8	383.25
310.03	395.25
310.26	388.25
310.49	395.25
310.72	386.25
310.949	386.25
311.179	431.25
311.409	406.25
311.639	392.25
311.868	406.25
312.098	394.25
312.328	398.25
312.557	425.25
312.787	429.25
313.017	440.25
313.246	376.25
313.476	405.25
313.706	395.25
313.935	405.25
314.165	424.25
314.394	434.25
314.624	408.25
314.853	408.25
315.083	405.25
315.312	415.25
315.542	390.25
315.771	421.25
316.001	390.25
316.23	398.25
316.46	390.25
316.689	394.25
316.919	382.25
317.148	420.25
317.377	431.25
317.607	408.25
317.836	407.25
318.065	382.25
318.295	394.25
318.524	389.25
318.753	406.25
318.983	398.25
319.212	403.25
319.441	400.25
319.67	401.25
319.9	395.25
320.129	399.25
320.358	400.25
320.587	410.25
320.816	402.25
321.046	417.25
321.275	410.25
321.504	404.25
321.733	406.25
321.962	440.25
322.191	421.25
322.42	445.25
322.649	461.25
322.878	467.25
323.108	463.25
323.337	469.25
323.566	492.25
323.795	504.25
324.024	558.25
324.253	631.25
324.482	900.25
324.71	1340.25
324.939	1973.25
325.168	1768.25
325.397	881.25
325.626	634.25
325.855	544.25
326.084	500.25
326.313	502.25
326.542	517.25
326.77	553.25
326.999	611.25
327.228	804.25
327.457	1217.25
327.686	1531.25
327.914	1022.25
328.143	672.25
328.372	603.25
328.6	558.25
328.829	546.25
329.058	566.25
329.287	564.25
329.515	552.25
329.744	524.25
329.972	543.25
330.201	533.25
330.43	580.25
330.658	601.25
330.887	604.25
331.115	591.25
331.344	525.25
331.572	520.25
331.801	520.25
332.03	515.25
332.258	496.25
332.486	482.25
332.715	484.25
332.943	485.25
333.172	486.25
333.4	504.25
333.629	520.25
333.857	537.25
334.085	540.25
334.314	543.25
334.542	576.25
334.771	584.25
334.999	551.25
335.227	528.25
335.455	515.25
335.684	481.25
335.912	510.25
336.14	474.25
336.369	500.25
336.597	517.25
336.825	500.25
337.053	486.25
337.281	479.25
337.51	474.25
337.738	471.25
337.966	472.25
338.194	480.25
338.422	463.25
338.65	456.25
338.878	478.25
339.106	467.25
339.334	468.25
339.562	474.25
339.79	465.25
340.018	453.25
340.246	472.25
340.474	482.25
340.702	456.25
340.93	454.25
341.158	459.25
341.386	472.25
341.614	473.25
341.842	448.25
342.07	459.25
342.298	456.25
342.526	469.25
342.754	438.25
342.981	442.25
343.209	431.25
343.437	485.25
343.665	471.25
343.893	470.25
344.12	489.25
344.348	492.25
344.576	483.25
344.804	485.25
345.031	494.25
345.259	483.25
345.487	485.25
345.714	459.25
345.942	463.25
346.17	462.25
346.397	439.25
346.625	442.25
346.853	445.25
347.08	422.25
347.308	440.25
347.535	441.25
347.763	443.25
347.99	469.25
348.218	434.25
348.445	460.25
348.673	454.25
348.9	463.25
349.128	438.25
349.355	429.25
349.583	425.25
349.81	440.25
350.037	448.25
350.265	434.25
350.492	436.25
350.72	449.25
350.947	435.25
351.174	466.25
351.402	438.25
351.629	444.25
351.856	443.25
352.083	474.25
352.311	450.25
352.538	452.25
352.765	431.25
352.992	457.25
353.22	435.25
353.447	443.25
353.674	437.25
353.901	441.25
354.128	412.25
354.355	438.25
354.583	415.25
354.81	417.25
355.037	416.25
355.264	432.25
355.491	419.25
355.718	420.25
355.945	431.25
356.172	429.25
356.399	422.25
356.626	420.25
356.853	404.25
357.08	426.25
357.307	421.25
357.534	413.25
357.761	432.25
357.988	431.25
358.215	434.25
358.441	416.25
358.668	419.25
358.895	438.25
359.122	434.25
359.349	444.25
359.576	452.25
359.802	451.25
360.029	461.25
360.256	482.25
360.483	471.25
360.709	451.25
360.936	464.25
361.163	447.25
361.39	440.25
361.616	457.25
361.843	445.25
362.07	445.25
362.296	464.25
362.523	455.25
362.749	462.25
362.976	437.25
363.203	440.25
363.429	424.25
363.656	420.25
363.882	439.25
364.109	438.25
364.335	430.25
364.562	414.25
364.788	422.25
365.015	421.25
365.241	421.25
365.468	436.25
365.694	451.25
365.92	420.25
366.147	436.25
366.373	429.25
366.599	441.25
366.826	427.25
367.052	421.25
367.278	414.25
367.505	417.25
367.731	441.25
367.957	426.25
368.184	420.25
368.41	429.25
368.636	459.25
368.862	464.25
369.089	439.25
369.315	425.25
369.541	445.25
369.767	442.25
369.993	448.25
370.219	430.25
370.445	429.25
370.672	419.25
370.898	424.25
371.124	431.25
371.35	460.25
371.576	427.25
371.802	435.25
372.028	442.25
372.254	443.25
372.48	435.25
372.706	446.25
372.932	440.25
373.158	429.25
373.384	450.25
373.61	436.25
373.835	445.25
374.061	453.25
374.287	440.25
374.513	456.25
374.739	437.25
374.965	451.25
375.191	440.25
375.416	455.25
375.642	456.25
375.868	444.25
376.094	450.25
376.319	435.25
376.545	444.25
376.771	426.25
376.997	429.25
377.222	428.25
377.448	410.25
377.674	437.25
377.899	438.25
378.125	437.25
378.35	448.25
378.576	466.25
378.802	443.25
379.027	449.25
379.253	434.25
379.478	424.25
379.704	437.25
379.929	439.25
380.155	425.25
380.38	425.25
380.606	452.25
380.831	445.25
381.057	454.25
381.282	447.25
381.507	447.25
381.733	431.25
381.958	439.25
382.184	453.25
382.409	459.25
382.634	454.25
382.86	450.25
383.085	447.25
383.31	460.25
383.535	452.25
383.761	459.25
383.986	469.25
384.211	478.25
384.436	472.25
384.662	469.25
384.887	494.25
385.112	470.25
385.337	487.25
385.562	482.25
385.787	496.25
386.013	494.25
386.238	503.25
386.463	510.25
386.688	483.25
386.913	491.25
387.138	485.25
387.363	505.25
387.588	477.25
387.813	504.25
388.038	484.25
388.263	492.25
388.488	501.25
388.713	502.25
388.938	497.25
389.163	495.25
389.387	493.25
389.612	512.25
389.837	517.25
390.062	481.25
390.287	493.25
390.512	488.25
390.736	482.25
390.961	496.25
391.186	486.25
391.411	512.25
391.636	504.25
391.86	514.25
392.085	520.25
392.31	521.25
392.534	512.25
392.759	532.25
392.984	509.25
393.208	489.25
393.433	504.25
393.658	488.25
393.882	524.25
394.107	507.25
394.331	494.25
394.556	513.25
394.78	505.25
395.005	514.25
395.229	495.25
395.454	511.25
395.678	523.25
395.903	561.25
396.127	542.25
396.352	552.25
396.576	530.25
396.801	518.25
397.025	518.25
397.249	536.25
397.474	550.25
397.698	550.25
397.922	559.25
398.147	573.25
398.371	569.25
398.595	550.25
398.82	564.25
399.044	589.25
399.268	586.25
399.492	663.25
399.717	717.25
399.941	738.25
400.165	731.25
400.389	730.25
400.613	667.25
400.837	605.25
401.062	607.25
401.286	578.25
401.51	596.25
401.734	570.25
401.958	579.25
402.182	602.25
402.406	587.25
402.63	596.25
402.854	585.25
403.078	592.25
403.302	605.25
403.526	624.25
403.75	600.25
403.974	607.25
404.198	604.25
404.422	595.25
404.645	619.25
404.869	639.25
405.093	646.25
405.317	704.25
405.541	742.25
405.765	710.25
405.988	632.25
406.212	656.25
406.436	661.25
406.66	687.25
406.883	668.25
407.107	659.25
407.331	714.25
407.555	789.25
407.778	802.25
408.002	713.25
408.226	682.25
408.449	686.25
408.673	663.25
408.896	696.25
409.12	721.25
409.344	692.25
409.567	623.25
409.791	613.25
410.014	604.25
410.238	627.25
410.461	617.25
410.685	602.25
410.908	616.25
411.132	646.25
411.355	698.25
411.578	687.25
411.802	630.25
412.025	610.25
412.249	628.25
412.472	632.25
412.695	686.25
412.919	668.25
413.142	615.25
413.365	592.25
413.589	614.25
413.812	604.25
414.035	601.25
414.258	571.25
414.482	599.25
414.705	589.25
414.928	580.25
415.151	591.25
415.374	581.25
415.597	566.25
415.821	578.25
416.044	559.25
416.267	574.25
416.49	570.25
416.713	564.25
416.936	564.25
417.159	563.25
417.382	571.25
417.605	591.25
417.828	587.25
418.051	591.25
418.274	575.25
418.497	584.25
418.72	563.25
418.943	580.25
419.166	601.25
419.389	634.25
419.611	622.25
419.834	617.25
420.057	607.25
420.28	596.25
420.503	586.25
420.726	609.25
420.948	623.25
421.171	661.25
421.394	690.25
421.617	619.25
421.839	594.25
422.062	586.25
422.285	588.25
422.507	671.25
422.73	745.25
422.953	711.25
423.175	644.25
423.398	632.25
423.621	606.25
423.843	642.25
424.066	653.25
424.288	650.25
424.511	660.25
424.733	708.25
424.956	821.25
425.178	780.25
425.401	754.25
425.623	786.25
425.846	684.25
426.068	651.25
426.291	623.25
426.513	617.25
426.735	621.25
426.958	661.25
427.18	743.25
427.402	873.25
427.625	957.25
427.847	836.25
428.069	733.25
428.292	670.25
428.514	595.25
428.736	616.25
428.958	594.25
429.181	564.25
429.403	589.25
429.625	582.25
429.847	609.25
430.069	686.25
430.292	684.25
430.514	608.25
430.736	578.25
430.958	560.25
431.18	526.25
431.402	557.25
431.624	553.25
431.846	540.25
432.068	568.25
432.29	575.25
432.512	564.25
432.734	586.25
432.956	578.25
433.178	582.25
433.4	549.25
433.622	552.25
433.844	565.25
434.066	555.25
434.287	570.25
434.509	584.25
434.731	604.25
434.953	598.25
435.175	597.25
435.397	642.25
435.618	639.25
435.84	652.25
436.062	779.25
436.284	839.25
436.505	692.25
436.727	627.25
436.949	599.25
437.17	574.25
437.392	571.25
437.614	599.25
437.835	611.25
438.057	742.25
438.278	830.25
438.5	837.25
438.721	897.25
438.943	903.25
439.165	674.25
439.386	650.25
439.608	605.25
439.829	650.25
440.05	660.25
440.272	674.25
440.493	654.25
440.715	602.25
440.936	591.25
441.158	581.25
441.379	583.25
441.6	621.25
441.822	636.25
442.043	644.25
442.264	756.25
442.486	801.25
442.707	698.25
442.928	635.25
443.149	655.25
443.371	685.25
443.592	722.25
443.813	808.25
444.034	895.25
444.255	718.25
444.476	655.25
444.698	646.25
444.919	669.25
445.14	784.25
445.361	697.25
445.582	687.25
445.803	732.25
446.024	847.25
446.245	837.25
446.466	775.25
446.687	668.25
446.908	604.25
447.129	574.25
447.35	565.25
447.571	572.25
447.792	577.25
448.013	580.25
448.234	590.25
448.455	661.25
448.675	743.25
448.896	884.25
449.117	745.25
449.338	710.25
449.559	828.25
449.779	927.25
450	742.25
450.221	605.25
450.442	577.25
450.662	562.25
450.883	559.25
451.104	565.25
451.324	550.25
451.545	555.25
451.766	527.25
451.986	503.25
452.207	501.25
452.428	507.25
452.648	528.25
452.869	527.25
453.089	532.25
453.31	525.25
453.53	513.25
453.751	504.25
453.971	498.25
454.192	538.25
454.412	500.25
454.633	506.25
454.853	507.25
455.073	503.25
455.294	528.25
455.514	587.25
455.734	597.25
455.955	509.25
456.175	512.25
456.395	489.25
456.616	470.25
456.836	498.25
457.056	483.25
457.276	488.25
457.497	487.25
457.717	452.25
457.937	487.25
458.157	474.25
458.377	517.25
458.598	532.25
458.818	570.25
459.038	646.25
459.258	679.25
459.478	610.25
459.698	536.25
459.918	567.25
460.138	566.25
460.358	567.25
460.578	568.25
460.798	592.25
461.018	581.25
461.238	595.25
461.458	586.25
461.678	571.25
461.898	582.25
462.118	570.25
462.338	596.25
462.558	604.25
462.777	633.25
462.997	618.25
463.217	631.25
463.437	703.25
463.657	619.25
463.876	629.25
464.096	620.25
464.316	630.25
464.536	632.25
464.755	647.25
464.975	596.25
465.195	655.25
465.414	680.25
465.634	621.25
465.854	588.25
466.073	566.25
466.293	546.25
466.512	550.25
466.732	518.25
466.951	523.25
467.171	534.25
467.391	545.25
467.61	552.25
467.829	555.25
468.049	548.25
468.268	552.25
468.488	522.25
468.707	528.25
468.927	528.25
469.146	526.25
469.365	526.25
469.585	504.25
469.804	498.25
470.023	550.25
470.243	539.25
470.462	526.25
470.681	554.25
470.901	538.25
471.12	565.25
471.339	536.25
471.558	537.25
471.777	525.25
471.997	537.25
472.216	555.25
472.435	578.25
472.654	572.25
472.873	533.25
473.092	528.25
473.311	522.25
473.53	525.25
473.749	555.25
473.968	579.25
474.187	678.25
474.406	698.25
474.625	589.25
474.844	551.25
475.063	538.25
475.282	528.25
475.501	551.25
475.72	543.25
475.939	552.25
476.158	547.25
476.377	541.25
476.596	567.25
476.814	568.25
477.033	569.25
477.252	566.25
477.471	598.25
477.69	574.25
477.908	584.25
478.127	594.25
478.346	594.25
478.564	605.25
478.783	606.25
479.002	622.25
479.22	611.25
479.439	618.25
479.658	645.25
479.876	642.25
480.095	639.25
480.313	674.25
480.532	684.25
480.751	686.25
480.969	704.25
481.188	736.25
481.406	757.25
481.624	690.25
481.843	655.25
482.061	631.25
482.28	620.25
482.498	616.25
482.717	601.25
482.935	630.25
483.153	626.25
483.372	629.25
483.59	603.25
483.808	613.25
484.027	603.25
484.245	630.25
484.463	623.25
484.681	636.25
484.9	638.25
485.118	635.25
485.336	647.25
485.554	655.25
485.772	653.25
485.99	642.25
486.209	644.25
486.427	675.25
486.645	678.25
486.863	673.25
487.081	670.25
487.299	660.25
487.517	662.25
487.735	664.25
487.953	652.25
488.171	687.25
488.389	664.25
488.607	676.25
488.825	680.25
489.043	657.25
489.261	673.25
489.479	687.25
489.696	701.25
489.914	690.25
490.132	704.25
490.35	725.25
490.568	695.25
490.786	694.25
491.003	727.25
491.221	743.25
491.439	725.25
491.657	743.25
491.874	766.25
492.092	790.25
492.31	811.25
492.527	786.25
492.745	764.25
492.963	793.25
493.18	806.25
493.398	818.25
493.615	791.25
493.833	809.25
494.05	784.25
494.268	798.25
494.485	791.25
494.703	778.25
494.92	827.25
495.138	802.25
495.355	786.25
495.573	794.25
495.79	798.25
496.008	800.25
496.225	809.25
496.442	797.25
496.66	800.25
496.877	815.25
497.094	808.25
497.312	820.25
497.529	852.25
497.746	833.25
497.963	856.25
498.181	864.25
498.398	895.25
498.615	889.25
498.832	910.25
499.049	923.25
499.267	987.25
499.484	1030.25
499.701	1066.25
499.918	1130.25
500.135	1206.25
500.352	1238.25
500.569	1291.25
500.786	1305.25
501.003	1238.25
501.22	1201.25
501.437	1138.25
501.654	1092.25
501.871	1036.25
502.088	1039.25
502.305	988.25
502.522	960.25
502.739	946.25
502.956	886.25
503.172	869.25
503.389	849.25
503.606	844.25
503.823	812.25
504.04	815.25
504.256	821.25
504.473	836.25
504.69	806.25
504.907	825.25
505.123	820.25
505.34	774.25
505.557	781.25
505.773	776.25
505.99	764.25
506.207	790.25
506.423	755.25
506.64	735.25
506.856	735.25
507.073	735.25
507.289	718.25
507.506	741.25
507.722	728.25
507.939	743.25
508.155	697.25
508.372	712.25
508.588	718.25
508.805	707.25
509.021	686.25
509.238	720.25
509.454	730.25
509.67	712.25
509.887	693.25
510.103	725.25
510.319	707.25
510.536	777.25
510.752	1128.25
510.968	975.25
511.184	694.25
511.401	665.25
511.617	660.25
511.833	649.25
512.049	665.25
512.265	649.25
512.481	653.25
512.698	628.25
512.914	656.25
513.13	655.25
513.346	678.25
513.562	643.25
513.778	628.25
513.994	667.25
514.21	680.25
514.426	674.25
514.642	694.25
514.858	728.25
515.074	754.25
515.29	848.25
515.506	1150.25
515.721	970.25
515.937	758.25
516.153	714.25
516.369	718.25
516.585	682.25
516.801	698.25
517.016	693.25
517.232	713.25
517.448	730.25
517.664	716.25
517.879	696.25
518.095	727.25
518.311	699.25
518.527	725.25
518.742	692.25
518.958	680.25
519.173	680.25
519.389	667.25
519.605	679.25
519.82	667.25
520.036	690.25
520.251	678.25
520.467	710.25
520.682	698.25
520.898	703.25
521.113	722.25
521.329	728.25
521.544	786.25
521.76	913.25
521.975	1380.25
522.19	1370.25
522.406	856.25
522.621	703.25
522.836	637.25
523.052	646.25
523.267	629.25
523.482	632.25
523.698	587.25
523.913	588.25
524.128	602.25
524.343	589.25
524.559	586.25
524.774	578.25
524.989	571.25
525.204	581.25
525.419	572.25
525.634	563.25
525.849	549.25
526.064	565.25
526.28	553.25
526.495	524.25
526.71	556.25
526.925	537.25
527.14	538.25
527.355	551.25
527.57	529.25
527.785	544.25
527.999	560.25
528.214	554.25
528.429	544.25
528.644	569.25
528.859	546.25
529.074	559.25
529.289	563.25
529.503	631.25
529.718	615.25
529.933	568.25
530.148	568.25
530.363	554.25
530.577	546.25
530.792	529.25
531.007	534.25
531.221	548.25
531.436	550.25
531.651	535.25
531.865	553.25
532.08	525.25
532.295	535.25
532.509	538.25
532.724	537.25
532.938	524.25
533.153	537.25
533.367	536.25
533.582	520.25
533.796	540.25
534.011	523.25
534.225	520.25
534.44	506.25
534.654	518.25
534.868	521.25
535.083	514.25
535.297	519.25
535.511	517.25
535.726	527.25
535.94	530.25
536.154	513.25
536.369	506.25
536.583	516.25
536.797	516.25
537.011	520.25
537.225	499.25
537.44	498.25
537.654	522.25
537.868	508.25
538.082	506.25
538.296	492.25
538.51	499.25
538.724	525.25
538.938	504.25
539.153	468.25
539.367	510.25
539.581	534.25
539.795	515.25
540.009	526.25
540.222	501.25
540.436	498.25
540.65	500.25
540.864	533.25
541.078	502.25
541.292	508.25
541.506	504.25
541.72	499.25
541.934	495.25
542.147	517.25
542.361	486.25
542.575	514.25
542.789	496.25
543.002	513.25
543.216	511.25
543.43	486.25
543.644	491.25
543.857	505.25
544.071	515.25
544.285	503.25
544.498	494.25
544.712	483.25
544.925	476.25
545.139	488.25
545.352	506.25
545.566	489.25
545.779	493.25
545.993	485.25
546.206	500.25
546.42	486.25
546.633	496.25
546.847	498.25
547.06	502.25
547.274	488.25
547.487	483.25
547.7	487.25
547.914	479.25
548.127	487.25
548.34	486.25
548.554	482.25
548.767	490.25
548.98	500.25
549.193	502.25
549.407	471.25
549.62	484.25
549.833	488.25
550.046	498.25
550.259	499.25
550.473	486.25
550.686	485.25
550.899	477.25
551.112	496.25
551.325	485.25
551.538	471.25
551.751	460.25
551.964	472.25
552.177	474.25
552.39	496.25
552.603	487.25
552.816	510.25
553.029	522.25
553.242	492.25
553.455	505.25
553.667	514.25
553.88	518.25
554.093	526.25
554.306	512.25
554.519	485.25
554.732	520.25
554.944	487.25
555.157	469.25
555.37	472.25
555.583	462.25
555.795	468.25
556.008	444.25
556.221	442.25
556.433	439.25
556.646	446.25
556.859	469.25
557.071	440.25
557.284	423.25
557.496	469.25
557.709	455.25
557.921	446.25
558.134	453.25
558.346	445.25
558.559	438.25
558.771	432.25
558.984	422.25
559.196	442.25
559.409	429.25
559.621	425.25
559.833	440.25
560.046	426.25
560.258	431.25
560.47	439.25
560.683	423.25
560.895	444.25
561.107	452.25
561.32	439.25
561.532	459.25
561.744	440.25
561.956	433.25
562.168	437.25
562.381	439.25
562.593	447.25
562.805	423.25
563.017	449.25
563.229	448.25
563.441	428.25
563.653	452.25
563.865	427.25
564.077	456.25
564.289	440.25
564.501	466.25
564.713	450.25
564.925	470.25
565.137	462.25
565.349	473.25
565.561	471.25
565.773	481.25
565.985	495.25
566.197	500.25
566.408	544.25
566.62	552.25
566.832	551.25
567.044	579.25
567.255	609.25
567.467	613.25
567.679	604.25
567.891	607.25
568.102	603.25
568.314	606.25
568.526	574.25
568.737	541.25
568.949	532.25
569.161	528.25
569.372	472.25
569.584	475.25
569.795	469.25
570.007	460.25
570.218	485.25
570.43	464.25
570.641	444.25
570.853	424.25
571.064	466.25
571.276	453.25
571.487	429.25
571.698	432.25
571.91	409.25
572.121	402.25
572.333	396.25
572.544	414.25
572.755	398.25
572.966	398.25
573.178	386.25
573.389	371.25
573.6	391.25
573.811	385.25
574.023	380.25
574.234	386.25
574.445	370.25
574.656	382.25
574.867	373.25
575.078	374.25
575.289	375.25
575.501	394.25
575.712	370.25
575.923	376.25
576.134	374.25
576.345	365.25
576.556	370.25
576.767	359.25
576.978	365.25
577.188	367.25
577.399	385.25
577.61	347.25
577.821	360.25
578.032	382.25
578.243	384.25
578.454	498.25
578.665	427.25
578.875	348.25
579.086	357.25
579.297	348.25
579.508	332.25
579.718	332.25
579.929	359.25
580.14	351.25
580.35	346.25
580.561	348.25
580.772	340.25
580.982	340.25
581.193	338.25
581.403	345.25
581.614	335.25
581.825	335.25
582.035	346.25
582.246	356.25
582.456	333.25
582.667	325.25
582.877	339.25
583.087	324.25
583.298	333.25
583.508	327.25
583.719	331.25
583.929	330.25
584.139	324.25
584.35	307.25
584.56	334.25
584.77	318.25
584.981	347.25
585.191	351.25
585.401	333.25
585.611	339.25
585.821	328.25
586.032	328.25
586.242	329.25
586.452	333.25
586.662	322.25
586.872	316.25
587.082	325.25
587.292	336.25
587.502	339.25
587.713	344.25
587.923	334.25
588.133	340.25
588.343	322.25
588.553	342.25
588.762	330.25
588.972	318.25
589.182	340.25
589.392	339.25
589.602	330.25
589.812	314.25
590.022	322.25
590.232	322.25
590.441	315.25
590.651	337.25
590.861	328.25
591.071	318.25
591.281	318.25
591.49	330.25
591.7	325.25
591.91	321.25
592.119	323.25
592.329	347.25
592.539	361.25
592.748	357.25
592.958	346.25
593.167	338.25
593.377	348.25
593.587	368.25
593.796	366.25
594.006	381.25
594.215	367.25
594.424	370.25
594.634	357.25
594.843	348.25
595.053	365.25
595.262	344.25
595.472	348.25
595.681	332.25
595.89	319.25
596.1	318.25
596.309	322.25
596.518	324.25
596.727	303.25
596.937	316.25
597.146	294.25
597.355	310.25
597.564	312.25
597.774	312.25
597.983	302.25
598.192	297.25
598.401	301.25
598.61	298.25
598.819	308.25
599.028	277.25
599.237	290.25
599.446	293.25
599.655	290.25
599.864	286.25
600.073	281.25
600.282	295.25
600.491	279.25
600.7	284.25
600.909	300.25
601.118	298.25
601.327	293.25
601.536	286.25
601.745	282.25
601.953	284.25
602.162	294.25
602.371	297.25
602.58	303.25
602.789	276.25
602.997	278.25
603.206	275.25
603.415	280.25
603.623	282.25
603.832	288.25
604.041	278.25
604.249	265.25
604.458	268.25
604.666	253.25
604.875	266.25
605.084	269.25
605.292	286.25
605.501	276.25
605.709	291.25
605.918	270.25
606.126	284.25
606.334	273.25
606.543	272.25
606.751	285.25
606.96	274.25
607.168	282.25
607.376	258.25
607.585	278.25
607.793	263.25
608.001	284.25
608.21	257.25
608.418	273.25
608.626	270.25
608.834	276.25
609.043	267.25
609.251	263.25
609.459	264.25
609.667	284.25
609.875	271.25
610.083	264.25
610.291	275.25
610.499	249.25
610.707	262.25
610.916	275.25
611.124	279.25
611.332	258.25
611.54	269.25
611.748	271.25
611.955	264.25
612.163	269.25
612.371	253.25
612.579	251.25
612.787	246.25
612.995	246.25
613.203	259.25
613.411	255.25
613.618	262.25
613.826	272.25
614.034	265.25
614.242	273.25
614.449	268.25
614.657	276.25
614.865	246.25
615.072	258.25
615.28	247.25
615.488	252.25
615.695	279.25
615.903	264.25
616.111	278.25
616.318	279.25
616.526	268.25
616.733	275.25
616.941	247.25
617.148	277.25
617.356	269.25
617.563	254.25
617.771	278.25
617.978	259.25
618.185	252.25
618.393	239.25
618.6	256.25
618.807	268.25
619.015	243.25
619.222	264.25
619.429	266.25
619.637	261.25
619.844	248.25
620.051	247.25
620.258	244.25
620.466	246.25
620.673	233.25
620.88	235.25
621.087	242.25
621.294	248.25
621.501	233.25
621.708	246.25
621.915	244.25
622.122	265.25
622.329	255.25
622.536	253.25
622.743	228.25
622.95	244.25
623.157	261.25
623.364	239.25
623.571	246.25
623.778	237.25
623.985	232.25
624.192	252.25
624.399	238.25
624.606	243.25
624.812	231.25
625.019	226.25
625.226	233.25
625.433	228.25
625.639	215.25
625.846	228.25
626.053	235.25
626.259	218.25
626.466	217.25
626.673	226.25
626.879	222.25
627.086	231.25
627.293	229.25
627.499	235.25
627.706	227.25
627.912	237.25
628.119	225.25
628.325	211.25
628.532	207.25
628.738	218.25
628.945	227.25
629.151	198.25
629.357	205.25
629.564	214.25
629.77	216.25
629.976	206.25
630.183	215.25
630.389	215.25
630.595	198.25
630.802	222.25
631.008	216.25
631.214	219.25
631.42	208.25
631.627	221.25
631.833	208.25
632.039	209.25
632.245	206.25
632.451	199.25
632.657	207.25
632.863	194.25
633.069	191.25
633.275	203.25
633.481	212.25
633.688	204.25
633.893	210.25
634.099	203.25
634.305	212.25
634.511	208.25
634.717	203.25
634.923	199.25
635.129	208.25
635.335	194.25
635.541	189.25
635.747	206.25
635.952	205.25
636.158	194.25
636.364	199.25
636.57	201.25
636.775	220.25
636.981	198.25
637.187	200.25
637.392	196.25
637.598	207.25
637.804	210.25
638.009	194.25
638.215	200.25
638.421	196.25
638.626	192.25
638.832	195.25
639.037	194.25
639.243	194.25
639.448	189.25
639.654	182.25
639.859	179.25
640.065	185.25
640.27	187.25
640.475	198.25
640.681	180.25
640.886	217.25
641.091	178.25
641.297	187.25
641.502	190.25
641.707	194.25
641.913	205.25
642.118	190.25
642.323	172.25
642.528	185.25
642.733	180.25
642.939	183.25
643.144	171.25
643.349	190.25
643.554	183.25
643.759	179.25
643.964	165.25
644.169	186.25
644.374	179.25
644.579	190.25
644.784	188.25
644.989	179.25
645.194	169.25
645.399	183.25
645.604	182.25
645.809	190.25
646.014	181.25
646.219	189.25
646.423	180.25
646.628	192.25
646.833	178.25
647.038	170.25
647.243	179.25
647.447	192.25
647.652	181.25
647.857	176.25
648.062	187.25
648.266	194.25
648.471	176.25
648.676	175.25
648.88	178.25
649.085	189.25
649.289	181.25
649.494	193.25
649.698	201.25
649.903	195.25
650.107	203.25
650.312	168.25
650.516	167.25
650.721	174.25
650.925	172.25
651.13	170.25
651.334	152.25
651.539	150.25
651.743	173.25
651.947	153.25
652.152	165.25
652.356	144.25
652.56	162.25
652.764	142.25
652.969	143.25
653.173	163.25
653.377	146.25
653.581	162.25
653.785	158.25
653.99	156.25
654.194	154.25
654.398	147.25
654.602	138.25
654.806	153.25
655.01	140.25
655.214	133.25
655.418	146.25
655.622	144.25
655.826	150.25
656.03	144.25
656.234	145.25
656.438	152.25
656.642	157.25
656.846	142.25
657.049	128.25
657.253	142.25
657.457	138.25
657.661	125.25
657.865	135.25
658.068	115.25
658.272	103.25
658.476	109.25
658.68	106.25
658.883	120.25
659.087	116.25
659.291	107.25
659.494	95.25
659.698	91.25
659.901	99.25
660.105	107.25
660.309	110.25
660.512	93.25
660.716	89.25
660.919	90.25
661.123	100.25
661.326	100.25
661.53	83.25
661.733	90.25
661.936	95.25
662.14	80.25
662.343	90.25
662.546	98.25
662.75	90.25
662.953	89.25
663.156	89.25
663.36	79.25
663.563	85.25
663.766	91.25
663.969	94.25
664.173	85.25
664.376	98.25
664.579	81.25
664.782	79.25
664.985	88.25
665.188	83.25
665.391	81.25
665.594	87.25
665.797	69.25
666	84.25
666.203	97.25
666.406	86.25
666.609	89.25
666.812	90.25
667.015	88.25
667.218	89.25
667.421	86.25
667.624	82.25
667.827	79.25
668.03	80.25
668.232	78.25
668.435	82.25
668.638	86.25
668.841	87.25
669.043	91.25
669.246	75.25
669.449	82.25
669.651	77.25
669.854	76.25
670.057	76.25
670.259	86.25
670.462	80.25
670.665	86.25
670.867	94.25
671.07	92.25
671.272	79.25
671.475	74.25
671.677	86.25
671.88	94.25
672.082	99.25
672.284	74.25
672.487	92.25
672.689	80.25
672.892	95.25
