Data from 1975.PennyLincolnUp.Lamp.En5.5.200Scan.071719.P1.Changed Mount._HRD10591_15-55-35-858.txt Node
Date: Thu Jul 18 15:55:35 EDT 2019
User: cochatt
Spectrometer: HR+D1059
Trigger mode: 1
Integration Time (sec): 1.000000E-1
Scans to average: 1
Electric dark correction enabled: true
Nonlinearity correction enabled: false
Boxcar width: 0
XAxis mode: Wavelengths
Number of Pixels in Spectrum: 2048
>>>>>Begin Spectral Data<<<<<
223.165	-4.19
223.4	-4.19
223.635	-4.19
223.869	-6.19
224.104	-32.19
224.338	-31.19
224.573	-21.19
224.808	-8.19
225.042	-9.19
225.277	-3.19
225.511	1.81
225.746	0.81
225.98	6.81
226.215	1.81
226.449	28.81
226.683	12.81
226.918	22.81
227.152	39.81
227.387	27.81
227.621	43.81
227.856	32.81
228.09	35.81
228.324	51.81
228.559	53.81
228.793	64.81
229.027	76.81
229.262	97.81
229.496	99.81
229.73	125.81
229.964	124.81
230.199	128.81
230.433	109.81
230.667	91.81
230.901	110.81
231.136	96.81
231.37	110.81
231.604	104.81
231.838	100.81
232.072	107.81
232.306	107.81
232.541	107.81
232.775	109.81
233.009	97.81
233.243	117.81
233.477	98.81
233.711	119.81
233.945	109.81
234.179	101.81
234.413	121.81
234.647	118.81
234.881	111.81
235.115	109.81
235.349	110.81
235.583	115.81
235.817	111.81
236.051	121.81
236.285	114.81
236.519	123.81
236.753	105.81
236.987	120.81
237.221	170.81
237.455	200.81
237.689	162.81
237.922	134.81
238.156	126.81
238.39	116.81
238.624	132.81
238.858	100.81
239.091	112.81
239.325	121.81
239.559	134.81
239.793	126.81
240.027	123.81
240.26	127.81
240.494	153.81
240.728	142.81
240.961	135.81
241.195	150.81
241.429	125.81
241.662	128.81
241.896	124.81
242.13	141.81
242.363	131.81
242.597	134.81
242.83	138.81
243.064	128.81
243.298	134.81
243.531	147.81
243.765	151.81
243.998	131.81
244.232	141.81
244.465	126.81
244.699	138.81
244.932	148.81
245.166	138.81
245.399	151.81
245.633	127.81
245.866	148.81
246.099	142.81
246.333	151.81
246.566	144.81
246.8	165.81
247.033	152.81
247.266	149.81
247.5	162.81
247.733	155.81
247.966	180.81
248.2	159.81
248.433	164.81
248.666	157.81
248.899	173.81
249.133	189.81
249.366	195.81
249.599	180.81
249.832	186.81
250.066	158.81
250.299	180.81
250.532	178.81
250.765	194.81
250.998	199.81
251.231	207.81
251.465	183.81
251.698	185.81
251.931	196.81
252.164	186.81
252.397	184.81
252.63	195.81
252.863	186.81
253.096	205.81
253.329	213.81
253.562	205.81
253.795	199.81
254.028	221.81
254.261	200.81
254.494	216.81
254.727	234.81
254.96	242.81
255.193	243.81
255.426	220.81
255.659	208.81
255.892	210.81
256.124	222.81
256.357	219.81
256.59	194.81
256.823	212.81
257.056	191.81
257.289	197.81
257.521	196.81
257.754	179.81
257.987	199.81
258.22	213.81
258.452	191.81
258.685	190.81
258.918	211.81
259.151	203.81
259.383	207.81
259.616	214.81
259.849	203.81
260.081	217.81
260.314	214.81
260.547	222.81
260.779	217.81
261.012	203.81
261.244	213.81
261.477	219.81
261.71	203.81
261.942	207.81
262.175	202.81
262.407	225.81
262.64	199.81
262.872	197.81
263.105	202.81
263.337	207.81
263.57	199.81
263.802	202.81
264.035	204.81
264.267	189.81
264.499	194.81
264.732	192.81
264.964	206.81
265.197	201.81
265.429	217.81
265.661	186.81
265.894	199.81
266.126	200.81
266.358	198.81
266.591	215.81
266.823	221.81
267.055	207.81
267.287	207.81
267.52	217.81
267.752	222.81
267.984	215.81
268.216	224.81
268.448	214.81
268.681	233.81
268.913	229.81
269.145	219.81
269.377	247.81
269.609	259.81
269.841	246.81
270.073	244.81
270.306	267.81
270.538	281.81
270.77	274.81
271.002	268.81
271.234	266.81
271.466	271.81
271.698	275.81
271.93	285.81
272.162	278.81
272.394	288.81
272.626	276.81
272.858	258.81
273.09	251.81
273.322	262.81
273.553	245.81
273.785	254.81
274.017	240.81
274.249	263.81
274.481	264.81
274.713	253.81
274.945	261.81
275.176	258.81
275.408	247.81
275.64	251.81
275.872	240.81
276.104	246.81
276.335	241.81
276.567	253.81
276.799	270.81
277.031	294.81
277.262	273.81
277.494	289.81
277.726	279.81
277.957	260.81
278.189	264.81
278.421	284.81
278.652	269.81
278.884	267.81
279.115	266.81
279.347	264.81
279.579	268.81
279.81	271.81
280.042	263.81
280.273	262.81
280.505	268.81
280.736	259.81
280.968	257.81
281.199	265.81
281.431	260.81
281.662	265.81
281.894	269.81
282.125	255.81
282.356	265.81
282.588	265.81
282.819	263.81
283.051	271.81
283.282	263.81
283.513	257.81
283.745	271.81
283.976	269.81
284.207	278.81
284.439	273.81
284.67	266.81
284.901	254.81
285.132	264.81
285.364	264.81
285.595	277.81
285.826	262.81
286.057	282.81
286.288	261.81
286.52	271.81
286.751	276.81
286.982	278.81
287.213	272.81
287.444	258.81
287.675	274.81
287.906	278.81
288.138	280.81
288.369	295.81
288.6	289.81
288.831	296.81
289.062	278.81
289.293	288.81
289.524	285.81
289.755	271.81
289.986	272.81
290.217	291.81
290.448	265.81
290.679	283.81
290.91	295.81
291.141	280.81
291.371	287.81
291.602	294.81
291.833	290.81
292.064	278.81
292.295	271.81
292.526	284.81
292.757	297.81
292.987	279.81
293.218	280.81
293.449	278.81
293.68	282.81
293.91	262.81
294.141	275.81
294.372	290.81
294.603	278.81
294.833	304.81
295.064	291.81
295.295	297.81
295.525	296.81
295.756	270.81
295.987	279.81
296.217	272.81
296.448	311.81
296.679	314.81
296.909	278.81
297.14	284.81
297.37	291.81
297.601	281.81
297.831	295.81
298.062	281.81
298.292	309.81
298.523	294.81
298.753	323.81
298.984	289.81
299.214	285.81
299.445	314.81
299.675	308.81
299.905	314.81
300.136	307.81
300.366	282.81
300.597	304.81
300.827	298.81
301.057	303.81
301.288	316.81
301.518	298.81
301.748	318.81
301.979	308.81
302.209	304.81
302.439	320.81
302.669	308.81
302.9	296.81
303.13	330.81
303.36	312.81
303.59	310.81
303.82	326.81
304.051	312.81
304.281	315.81
304.511	296.81
304.741	319.81
304.971	317.81
305.201	319.81
305.431	311.81
305.661	313.81
305.891	299.81
306.121	315.81
306.352	323.81
306.582	323.81
306.812	308.81
307.042	309.81
307.272	310.81
307.502	321.81
307.731	325.81
307.961	314.81
308.191	311.81
308.421	308.81
308.651	326.81
308.881	319.81
309.111	316.81
309.341	303.81
309.571	321.81
309.8	329.81
310.03	324.81
310.26	340.81
310.49	335.81
310.72	338.81
310.949	356.81
311.179	358.81
311.409	350.81
311.639	350.81
311.868	340.81
312.098	332.81
312.328	340.81
312.557	362.81
312.787	371.81
313.017	358.81
313.246	350.81
313.476	349.81
313.706	356.81
313.935	338.81
314.165	346.81
314.394	358.81
314.624	348.81
314.853	351.81
315.083	347.81
315.312	344.81
315.542	343.81
315.771	348.81
316.001	332.81
316.23	355.81
316.46	360.81
316.689	342.81
316.919	360.81
317.148	355.81
317.377	349.81
317.607	351.81
317.836	350.81
318.065	340.81
318.295	347.81
318.524	345.81
318.753	355.81
318.983	360.81
319.212	352.81
319.441	341.81
319.67	352.81
319.9	351.81
320.129	357.81
320.358	357.81
320.587	358.81
320.816	356.81
321.046	355.81
321.275	356.81
321.504	360.81
321.733	355.81
321.962	367.81
322.191	367.81
322.42	377.81
322.649	380.81
322.878	408.81
323.108	381.81
323.337	401.81
323.566	414.81
323.795	423.81
324.024	451.81
324.253	519.81
324.482	660.81
324.71	1013.81
324.939	1500.81
325.168	1328.81
325.397	673.81
325.626	480.81
325.855	425.81
326.084	398.81
326.313	404.81
326.542	427.81
326.77	455.81
326.999	516.81
327.228	638.81
327.457	926.81
327.686	1155.81
327.914	776.81
328.143	528.81
328.372	474.81
328.6	455.81
328.829	462.81
329.058	446.81
329.287	453.81
329.515	458.81
329.744	432.81
329.972	426.81
330.201	443.81
330.43	450.81
330.658	465.81
330.887	494.81
331.115	484.81
331.344	464.81
331.572	449.81
331.801	443.81
332.03	430.81
332.258	428.81
332.486	420.81
332.715	430.81
332.943	424.81
333.172	439.81
333.4	440.81
333.629	440.81
333.857	447.81
334.085	448.81
334.314	461.81
334.542	473.81
334.771	469.81
334.999	458.81
335.227	437.81
335.455	456.81
335.684	450.81
335.912	435.81
336.14	424.81
336.369	432.81
336.597	419.81
336.825	424.81
337.053	425.81
337.281	418.81
337.51	409.81
337.738	426.81
337.966	427.81
338.194	408.81
338.422	421.81
338.65	404.81
338.878	407.81
339.106	409.81
339.334	427.81
339.562	408.81
339.79	397.81
340.018	410.81
340.246	415.81
340.474	420.81
340.702	416.81
340.93	411.81
341.158	408.81
341.386	435.81
341.614	416.81
341.842	387.81
342.07	402.81
342.298	398.81
342.526	408.81
342.754	409.81
342.981	384.81
343.209	407.81
343.437	404.81
343.665	393.81
343.893	424.81
344.12	446.81
344.348	428.81
344.576	418.81
344.804	437.81
345.031	414.81
345.259	427.81
345.487	402.81
345.714	399.81
345.942	394.81
346.17	379.81
346.397	388.81
346.625	380.81
346.853	401.81
347.08	364.81
347.308	400.81
347.535	395.81
347.763	406.81
347.99	382.81
348.218	382.81
348.445	408.81
348.673	388.81
348.9	403.81
349.128	381.81
349.355	372.81
349.583	370.81
349.81	373.81
350.037	379.81
350.265	378.81
350.492	371.81
350.72	365.81
350.947	384.81
351.174	388.81
351.402	407.81
351.629	385.81
351.856	391.81
352.083	382.81
352.311	393.81
352.538	386.81
352.765	414.81
352.992	395.81
353.22	378.81
353.447	380.81
353.674	393.81
353.901	397.81
354.128	389.81
354.355	384.81
354.583	397.81
354.81	382.81
355.037	401.81
355.264	376.81
355.491	361.81
355.718	378.81
355.945	365.81
356.172	392.81
356.399	387.81
356.626	396.81
356.853	373.81
357.08	378.81
357.307	378.81
357.534	378.81
357.761	377.81
357.988	355.81
358.215	382.81
358.441	390.81
358.668	397.81
358.895	380.81
359.122	381.81
359.349	386.81
359.576	386.81
359.802	408.81
360.029	409.81
360.256	420.81
360.483	400.81
360.709	401.81
360.936	392.81
361.163	401.81
361.39	410.81
361.616	395.81
361.843	372.81
362.07	400.81
362.296	386.81
362.523	400.81
362.749	388.81
362.976	395.81
363.203	391.81
363.429	363.81
363.656	386.81
363.882	381.81
364.109	370.81
364.335	391.81
364.562	352.81
364.788	380.81
365.015	387.81
365.241	373.81
365.468	390.81
365.694	370.81
365.92	392.81
366.147	392.81
366.373	379.81
366.599	391.81
366.826	377.81
367.052	382.81
367.278	391.81
367.505	384.81
367.731	395.81
367.957	394.81
368.184	399.81
368.41	401.81
368.636	394.81
368.862	367.81
369.089	378.81
369.315	388.81
369.541	395.81
369.767	382.81
369.993	394.81
370.219	389.81
370.445	385.81
370.672	404.81
370.898	404.81
371.124	372.81
371.35	391.81
371.576	404.81
371.802	390.81
372.028	408.81
372.254	383.81
372.48	389.81
372.706	404.81
372.932	415.81
373.158	392.81
373.384	424.81
373.61	395.81
373.835	406.81
374.061	416.81
374.287	396.81
374.513	408.81
374.739	407.81
374.965	411.81
375.191	400.81
375.416	392.81
375.642	396.81
375.868	432.81
376.094	405.81
376.319	402.81
376.545	421.81
376.771	391.81
376.997	391.81
377.222	398.81
377.448	409.81
377.674	408.81
377.899	394.81
378.125	407.81
378.35	404.81
378.576	394.81
378.802	394.81
379.027	396.81
379.253	420.81
379.478	405.81
379.704	396.81
379.929	413.81
380.155	410.81
380.38	403.81
380.606	384.81
380.831	400.81
381.057	400.81
381.282	396.81
381.507	412.81
381.733	415.81
381.958	405.81
382.184	401.81
382.409	411.81
382.634	412.81
382.86	420.81
383.085	404.81
383.31	438.81
383.535	418.81
383.761	432.81
383.986	447.81
384.211	430.81
384.436	448.81
384.662	432.81
384.887	450.81
385.112	469.81
385.337	458.81
385.562	456.81
385.787	466.81
386.013	460.81
386.238	495.81
386.463	466.81
386.688	472.81
386.913	467.81
387.138	465.81
387.363	464.81
387.588	468.81
387.813	461.81
388.038	463.81
388.263	459.81
388.488	472.81
388.713	463.81
388.938	449.81
389.163	442.81
389.387	463.81
389.612	455.81
389.837	440.81
390.062	431.81
390.287	440.81
390.512	446.81
390.736	439.81
390.961	428.81
391.186	445.81
391.411	463.81
391.636	469.81
391.86	468.81
392.085	454.81
392.31	473.81
392.534	466.81
392.759	474.81
392.984	451.81
393.208	454.81
393.433	458.81
393.658	472.81
393.882	454.81
394.107	463.81
394.331	447.81
394.556	455.81
394.78	471.81
395.005	461.81
395.229	479.81
395.454	462.81
395.678	470.81
395.903	476.81
396.127	480.81
396.352	499.81
396.576	483.81
396.801	470.81
397.025	466.81
397.249	476.81
397.474	477.81
397.698	465.81
397.922	496.81
398.147	517.81
398.371	536.81
398.595	515.81
398.82	513.81
399.044	530.81
399.268	536.81
399.492	599.81
399.717	622.81
399.941	642.81
400.165	642.81
400.389	651.81
400.613	569.81
400.837	564.81
401.062	533.81
401.286	516.81
401.51	508.81
401.734	523.81
401.958	494.81
402.182	518.81
402.406	546.81
402.63	560.81
402.854	524.81
403.078	539.81
403.302	524.81
403.526	540.81
403.75	550.81
403.974	550.81
404.198	535.81
404.422	544.81
404.645	557.81
404.869	552.81
405.093	590.81
405.317	586.81
405.541	647.81
405.765	588.81
405.988	575.81
406.212	577.81
406.436	556.81
406.66	585.81
406.883	578.81
407.107	598.81
407.331	640.81
407.555	739.81
407.778	694.81
408.002	654.81
408.226	614.81
408.449	582.81
408.673	598.81
408.896	621.81
409.12	648.81
409.344	598.81
409.567	562.81
409.791	544.81
410.014	547.81
410.238	561.81
410.461	548.81
410.685	557.81
410.908	566.81
411.132	614.81
411.355	613.81
411.578	602.81
411.802	532.81
412.025	550.81
412.249	581.81
412.472	584.81
412.695	589.81
412.919	566.81
413.142	552.81
413.365	538.81
413.589	522.81
413.812	540.81
414.035	506.81
414.258	527.81
414.482	510.81
414.705	514.81
414.928	511.81
415.151	528.81
415.374	538.81
415.597	502.81
415.821	517.81
416.044	528.81
416.267	501.81
416.49	499.81
416.713	511.81
416.936	539.81
417.159	514.81
417.382	491.81
417.605	500.81
417.828	522.81
418.051	539.81
418.274	541.81
418.497	502.81
418.72	522.81
418.943	518.81
419.166	534.81
419.389	575.81
419.611	568.81
419.834	552.81
420.057	568.81
420.28	562.81
420.503	556.81
420.726	536.81
420.948	547.81
421.171	552.81
421.394	605.81
421.617	536.81
421.839	532.81
422.062	532.81
422.285	551.81
422.507	580.81
422.73	652.81
422.953	640.81
423.175	570.81
423.398	557.81
423.621	538.81
423.843	566.81
424.066	559.81
424.288	589.81
424.511	581.81
424.733	623.81
424.956	686.81
425.178	646.81
425.401	662.81
425.623	676.81
425.846	588.81
426.068	552.81
426.291	549.81
426.513	545.81
426.735	536.81
426.958	591.81
427.18	686.81
427.402	778.81
427.625	845.81
427.847	738.81
428.069	636.81
428.292	572.81
428.514	538.81
428.736	522.81
428.958	529.81
429.181	504.81
429.403	490.81
429.625	503.81
429.847	546.81
430.069	616.81
430.292	580.81
430.514	518.81
430.736	514.81
430.958	509.81
431.18	502.81
431.402	493.81
431.624	480.81
431.846	494.81
432.068	509.81
432.29	485.81
432.512	499.81
432.734	492.81
432.956	502.81
433.178	524.81
433.4	489.81
433.622	518.81
433.844	474.81
434.066	483.81
434.287	493.81
434.509	509.81
434.731	499.81
434.953	530.81
435.175	523.81
435.397	566.81
435.618	558.81
435.84	576.81
436.062	662.81
436.284	714.81
436.505	598.81
436.727	550.81
436.949	529.81
437.17	524.81
437.392	526.81
437.614	527.81
437.835	525.81
438.057	618.81
438.278	700.81
438.5	703.81
438.721	778.81
438.943	746.81
439.165	602.81
439.386	550.81
439.608	532.81
439.829	552.81
440.05	580.81
440.272	584.81
440.493	570.81
440.715	556.81
440.936	524.81
441.158	541.81
441.379	532.81
441.6	546.81
441.822	552.81
442.043	571.81
442.264	610.81
442.486	694.81
442.707	596.81
442.928	552.81
443.149	556.81
443.371	594.81
443.592	612.81
443.813	731.81
444.034	754.81
444.255	651.81
444.476	582.81
444.698	586.81
444.919	567.81
445.14	693.81
445.361	640.81
445.582	582.81
445.803	646.81
446.024	724.81
446.245	740.81
446.466	655.81
446.687	567.81
446.908	548.81
447.129	518.81
447.35	516.81
447.571	496.81
447.792	490.81
448.013	503.81
448.234	493.81
448.455	536.81
448.675	660.81
448.896	790.81
449.117	646.81
449.338	595.81
449.559	715.81
449.779	795.81
450	655.81
450.221	544.81
450.442	486.81
450.662	488.81
450.883	470.81
451.104	498.81
451.324	502.81
451.545	454.81
451.766	446.81
451.986	454.81
452.207	464.81
452.428	464.81
452.648	464.81
452.869	450.81
453.089	451.81
453.31	481.81
453.53	450.81
453.751	477.81
453.971	459.81
454.192	473.81
454.412	437.81
454.633	445.81
454.853	440.81
455.073	435.81
455.294	461.81
455.514	513.81
455.734	524.81
455.955	468.81
456.175	427.81
456.395	423.81
456.616	451.81
456.836	430.81
457.056	428.81
457.276	424.81
457.497	437.81
457.717	428.81
457.937	430.81
458.157	434.81
458.377	455.81
458.598	463.81
458.818	500.81
459.038	561.81
459.258	600.81
459.478	532.81
459.698	495.81
459.918	491.81
460.138	506.81
460.358	510.81
460.578	527.81
460.798	520.81
461.018	507.81
461.238	519.81
461.458	528.81
461.678	524.81
461.898	519.81
462.118	503.81
462.338	526.81
462.558	540.81
462.777	573.81
462.997	572.81
463.217	573.81
463.437	589.81
463.657	599.81
463.876	581.81
464.096	567.81
464.316	556.81
464.536	592.81
464.755	546.81
464.975	558.81
465.195	562.81
465.414	591.81
465.634	538.81
465.854	500.81
466.073	496.81
466.293	512.81
466.512	494.81
466.732	478.81
466.951	504.81
467.171	472.81
467.391	482.81
467.61	480.81
467.829	469.81
468.049	478.81
468.268	475.81
468.488	483.81
468.707	464.81
468.927	452.81
469.146	463.81
469.365	487.81
469.585	474.81
469.804	456.81
470.023	500.81
470.243	474.81
470.462	468.81
470.681	510.81
470.901	495.81
471.12	483.81
471.339	485.81
471.558	483.81
471.777	499.81
471.997	470.81
472.216	470.81
472.435	501.81
472.654	501.81
472.873	450.81
473.092	477.81
473.311	462.81
473.53	460.81
473.749	490.81
473.968	507.81
474.187	594.81
474.406	610.81
474.625	519.81
474.844	491.81
475.063	485.81
475.282	500.81
475.501	480.81
475.72	508.81
475.939	477.81
476.158	495.81
476.377	499.81
476.596	498.81
476.814	514.81
477.033	511.81
477.252	508.81
477.471	504.81
477.69	489.81
477.908	527.81
478.127	516.81
478.346	516.81
478.564	552.81
478.783	562.81
479.002	546.81
479.22	563.81
479.439	575.81
479.658	566.81
479.876	597.81
480.095	573.81
480.313	621.81
480.532	597.81
480.751	586.81
480.969	595.81
481.188	649.81
481.406	636.81
481.624	611.81
481.843	586.81
482.061	553.81
482.28	562.81
482.498	578.81
482.717	546.81
482.935	583.81
483.153	566.81
483.372	552.81
483.59	579.81
483.808	580.81
484.027	573.81
484.245	573.81
484.463	555.81
484.681	589.81
484.9	583.81
485.118	586.81
485.336	594.81
485.554	588.81
485.772	586.81
485.99	588.81
486.209	587.81
486.427	588.81
486.645	597.81
486.863	610.81
487.081	610.81
487.299	621.81
487.517	602.81
487.735	615.81
487.953	605.81
488.171	609.81
488.389	593.81
488.607	600.81
488.825	601.81
489.043	599.81
489.261	616.81
489.479	607.81
489.696	628.81
489.914	597.81
490.132	610.81
490.35	624.81
490.568	635.81
490.786	635.81
491.003	686.81
491.221	673.81
491.439	711.81
491.657	690.81
491.874	686.81
492.092	703.81
492.31	711.81
492.527	690.81
492.745	684.81
492.963	692.81
493.18	712.81
493.398	715.81
493.615	701.81
493.833	702.81
494.05	711.81
494.268	717.81
494.485	683.81
494.703	687.81
494.92	670.81
495.138	707.81
495.355	702.81
495.573	726.81
495.79	704.81
496.008	719.81
496.225	728.81
496.442	714.81
496.66	733.81
496.877	725.81
497.094	727.81
497.312	722.81
497.529	734.81
497.746	731.81
497.963	759.81
498.181	739.81
498.398	795.81
498.615	796.81
498.832	821.81
499.049	842.81
499.267	877.81
499.484	925.81
499.701	949.81
499.918	990.81
500.135	1064.81
500.352	1156.81
500.569	1127.81
500.786	1160.81
501.003	1151.81
501.22	1104.81
501.437	1014.81
501.654	967.81
501.871	968.81
502.088	886.81
502.305	876.81
502.522	845.81
502.739	832.81
502.956	801.81
503.172	761.81
503.389	744.81
503.606	730.81
503.823	738.81
504.04	730.81
504.256	705.81
504.473	710.81
504.69	712.81
504.907	738.81
505.123	710.81
505.34	698.81
505.557	712.81
505.773	683.81
505.99	679.81
506.207	663.81
506.423	662.81
506.64	660.81
506.856	666.81
507.073	645.81
507.289	642.81
507.506	639.81
507.722	644.81
507.939	630.81
508.155	639.81
508.372	614.81
508.588	608.81
508.805	603.81
509.021	618.81
509.238	638.81
509.454	629.81
509.67	613.81
509.887	621.81
510.103	616.81
510.319	627.81
510.536	650.81
510.752	834.81
510.968	760.81
511.184	599.81
511.401	598.81
511.617	591.81
511.833	583.81
512.049	594.81
512.265	592.81
512.481	593.81
512.698	589.81
512.914	602.81
513.13	581.81
513.346	570.81
513.562	559.81
513.778	590.81
513.994	592.81
514.21	575.81
514.426	583.81
514.642	604.81
514.858	640.81
515.074	649.81
515.29	706.81
515.506	848.81
515.721	765.81
515.937	641.81
516.153	608.81
516.369	637.81
516.585	598.81
516.801	616.81
517.016	633.81
517.232	638.81
517.448	620.81
517.664	652.81
517.879	648.81
518.095	662.81
518.311	634.81
518.527	622.81
518.742	620.81
518.958	615.81
519.173	603.81
519.389	587.81
519.605	602.81
519.82	619.81
520.036	578.81
520.251	612.81
520.467	595.81
520.682	603.81
520.898	608.81
521.113	614.81
521.329	609.81
521.544	637.81
521.76	705.81
521.975	1016.81
522.19	1006.81
522.406	700.81
522.621	602.81
522.836	586.81
523.052	575.81
523.267	532.81
523.482	541.81
523.698	532.81
523.913	543.81
524.128	529.81
524.343	542.81
524.559	527.81
524.774	542.81
524.989	494.81
525.204	506.81
525.419	502.81
525.634	498.81
525.849	514.81
526.064	500.81
526.28	489.81
526.495	490.81
526.71	492.81
526.925	487.81
527.14	504.81
527.355	485.81
527.57	459.81
527.785	508.81
527.999	490.81
528.214	500.81
528.429	498.81
528.644	502.81
528.859	490.81
529.074	525.81
529.289	478.81
529.503	536.81
529.718	541.81
529.933	518.81
530.148	500.81
530.363	495.81
530.577	491.81
530.792	476.81
531.007	498.81
531.221	505.81
531.436	501.81
531.651	468.81
531.865	492.81
532.08	494.81
532.295	487.81
532.509	483.81
532.724	488.81
532.938	472.81
533.153	485.81
533.367	488.81
533.582	485.81
533.796	452.81
534.011	455.81
534.225	455.81
534.44	461.81
534.654	464.81
534.868	460.81
535.083	470.81
535.297	469.81
535.511	478.81
535.726	487.81
535.94	462.81
536.154	468.81
536.369	452.81
536.583	451.81
536.797	463.81
537.011	448.81
537.225	448.81
537.44	468.81
537.654	463.81
537.868	458.81
538.082	451.81
538.296	480.81
538.51	487.81
538.724	463.81
538.938	473.81
539.153	464.81
539.367	443.81
539.581	474.81
539.795	446.81
540.009	451.81
540.222	442.81
540.436	446.81
540.65	442.81
540.864	477.81
541.078	454.81
541.292	456.81
541.506	452.81
541.72	444.81
541.934	452.81
542.147	473.81
542.361	481.81
542.575	460.81
542.789	427.81
543.002	459.81
543.216	472.81
543.43	452.81
543.644	455.81
543.857	459.81
544.071	463.81
544.285	463.81
544.498	459.81
544.712	451.81
544.925	457.81
545.139	468.81
545.352	468.81
545.566	450.81
545.779	444.81
545.993	462.81
546.206	459.81
546.42	454.81
546.633	446.81
546.847	479.81
547.06	463.81
547.274	468.81
547.487	453.81
547.7	435.81
547.914	447.81
548.127	479.81
548.34	448.81
548.554	459.81
548.767	463.81
548.98	452.81
549.193	450.81
549.407	471.81
549.62	462.81
549.833	450.81
550.046	463.81
550.259	446.81
550.473	447.81
550.686	442.81
550.899	439.81
551.112	442.81
551.325	464.81
551.538	428.81
551.751	444.81
551.964	430.81
552.177	457.81
552.39	444.81
552.603	459.81
552.816	473.81
553.029	490.81
553.242	463.81
553.455	455.81
553.667	461.81
553.88	482.81
554.093	455.81
554.306	446.81
554.519	430.81
554.732	445.81
554.944	452.81
555.157	440.81
555.37	439.81
555.583	427.81
555.795	437.81
556.008	410.81
556.221	402.81
556.433	410.81
556.646	423.81
556.859	414.81
557.071	403.81
557.284	436.81
557.496	426.81
557.709	430.81
557.921	406.81
558.134	411.81
558.346	413.81
558.559	416.81
558.771	403.81
558.984	406.81
559.196	406.81
559.409	403.81
559.621	408.81
559.833	398.81
560.046	405.81
560.258	406.81
560.47	388.81
560.683	402.81
560.895	421.81
561.107	412.81
561.32	398.81
561.532	402.81
561.744	406.81
561.956	377.81
562.168	391.81
562.381	392.81
562.593	398.81
562.805	418.81
563.017	396.81
563.229	397.81
563.441	410.81
563.653	407.81
563.865	423.81
564.077	419.81
564.289	416.81
564.501	422.81
564.713	428.81
564.925	433.81
565.137	444.81
565.349	440.81
565.561	454.81
565.773	468.81
565.985	477.81
566.197	463.81
566.408	496.81
566.62	515.81
566.832	523.81
567.044	541.81
567.255	562.81
567.467	537.81
567.679	558.81
567.891	580.81
568.102	562.81
568.314	558.81
568.526	543.81
568.737	510.81
568.949	471.81
569.161	462.81
569.372	450.81
569.584	441.81
569.795	411.81
570.007	415.81
570.218	432.81
570.43	421.81
570.641	409.81
570.853	393.81
571.064	407.81
571.276	415.81
571.487	394.81
571.698	390.81
571.91	391.81
572.121	392.81
572.333	386.81
572.544	388.81
572.755	379.81
572.966	376.81
573.178	362.81
573.389	350.81
573.6	355.81
573.811	364.81
574.023	356.81
574.234	336.81
574.445	349.81
574.656	348.81
574.867	348.81
575.078	359.81
575.289	326.81
575.501	336.81
575.712	334.81
575.923	350.81
576.134	342.81
576.345	347.81
576.556	359.81
576.767	341.81
576.978	340.81
577.188	326.81
577.399	322.81
577.61	336.81
577.821	343.81
578.032	322.81
578.243	357.81
578.454	427.81
578.665	388.81
578.875	330.81
579.086	336.81
579.297	324.81
579.508	335.81
579.718	330.81
579.929	304.81
580.14	327.81
580.35	326.81
580.561	310.81
580.772	326.81
580.982	320.81
581.193	322.81
581.403	319.81
581.614	317.81
581.825	319.81
582.035	329.81
582.246	307.81
582.456	318.81
582.667	306.81
582.877	314.81
583.087	324.81
583.298	324.81
583.508	312.81
583.719	315.81
583.929	322.81
584.139	307.81
584.35	314.81
584.56	324.81
584.77	303.81
584.981	323.81
585.191	318.81
585.401	311.81
585.611	339.81
585.821	310.81
586.032	310.81
586.242	303.81
586.452	307.81
586.662	303.81
586.872	308.81
587.082	317.81
587.292	314.81
587.502	304.81
587.713	306.81
587.923	308.81
588.133	288.81
588.343	310.81
588.553	301.81
588.762	317.81
588.972	285.81
589.182	328.81
589.392	297.81
589.602	319.81
589.812	314.81
590.022	332.81
590.232	318.81
590.441	296.81
590.651	318.81
590.861	307.81
591.071	326.81
591.281	325.81
591.49	335.81
591.7	322.81
591.91	314.81
592.119	315.81
592.329	312.81
592.539	331.81
592.748	338.81
592.958	320.81
593.167	335.81
593.377	362.81
593.587	367.81
593.796	348.81
594.006	333.81
594.215	359.81
594.424	345.81
594.634	350.81
594.843	334.81
595.053	310.81
595.262	335.81
595.472	333.81
595.681	314.81
595.89	321.81
596.1	326.81
596.309	299.81
596.518	298.81
596.727	296.81
596.937	312.81
597.146	276.81
597.355	280.81
597.564	303.81
597.774	285.81
597.983	296.81
598.192	275.81
598.401	292.81
598.61	280.81
598.819	277.81
599.028	287.81
599.237	270.81
599.446	268.81
599.655	279.81
599.864	288.81
600.073	277.81
600.282	277.81
600.491	278.81
600.7	270.81
600.909	279.81
601.118	260.81
601.327	251.81
601.536	277.81
601.745	267.81
601.953	290.81
602.162	269.81
602.371	252.81
602.58	270.81
602.789	276.81
602.997	255.81
603.206	267.81
603.415	253.81
603.623	262.81
603.832	276.81
604.041	292.81
604.249	273.81
604.458	261.81
604.666	275.81
604.875	269.81
605.084	253.81
605.292	248.81
605.501	260.81
605.709	254.81
605.918	258.81
606.126	270.81
606.334	267.81
606.543	270.81
606.751	276.81
606.96	265.81
607.168	258.81
607.376	252.81
607.585	265.81
607.793	256.81
608.001	252.81
608.21	243.81
608.418	262.81
608.626	252.81
608.834	261.81
609.043	269.81
609.251	263.81
609.459	252.81
609.667	260.81
609.875	239.81
610.083	246.81
610.291	227.81
610.499	264.81
610.707	251.81
610.916	257.81
611.124	263.81
611.332	286.81
611.54	278.81
611.748	242.81
611.955	278.81
612.163	251.81
612.371	259.81
612.579	267.81
612.787	243.81
612.995	242.81
613.203	279.81
613.411	250.81
613.618	216.81
613.826	267.81
614.034	267.81
614.242	258.81
614.449	247.81
614.657	264.81
614.865	252.81
615.072	263.81
615.28	250.81
615.488	247.81
615.695	259.81
615.903	247.81
616.111	254.81
616.318	252.81
616.526	260.81
616.733	253.81
616.941	266.81
617.148	242.81
617.356	268.81
617.563	265.81
617.771	242.81
617.978	237.81
618.185	263.81
618.393	241.81
618.6	249.81
618.807	255.81
619.015	271.81
619.222	237.81
619.429	242.81
619.637	265.81
619.844	246.81
620.051	244.81
620.258	223.81
620.466	244.81
620.673	235.81
620.88	224.81
621.087	232.81
621.294	228.81
621.501	225.81
621.708	222.81
621.915	254.81
622.122	229.81
622.329	234.81
622.536	248.81
622.743	250.81
622.95	239.81
623.157	210.81
623.364	231.81
623.571	225.81
623.778	238.81
623.985	238.81
624.192	220.81
624.399	231.81
624.606	226.81
624.812	216.81
625.019	221.81
625.226	233.81
625.433	239.81
625.639	202.81
625.846	214.81
626.053	226.81
626.259	222.81
626.466	217.81
626.673	226.81
626.879	228.81
627.086	238.81
627.293	211.81
627.499	205.81
627.706	215.81
627.912	203.81
628.119	211.81
628.325	234.81
628.532	202.81
628.738	216.81
628.945	220.81
629.151	220.81
629.357	203.81
629.564	212.81
629.77	212.81
629.976	219.81
630.183	218.81
630.389	214.81
630.595	195.81
630.802	218.81
631.008	208.81
631.214	213.81
631.42	218.81
631.627	216.81
631.833	199.81
632.039	209.81
632.245	200.81
632.451	200.81
632.657	219.81
632.863	208.81
633.069	211.81
633.275	191.81
633.481	198.81
633.688	199.81
633.893	200.81
634.099	185.81
634.305	192.81
634.511	199.81
634.717	184.81
634.923	181.81
635.129	200.81
635.335	179.81
635.541	179.81
635.747	202.81
635.952	197.81
636.158	195.81
636.364	193.81
636.57	201.81
636.775	198.81
636.981	203.81
637.187	173.81
637.392	198.81
637.598	199.81
637.804	204.81
638.009	199.81
638.215	182.81
638.421	196.81
638.626	182.81
638.832	187.81
639.037	186.81
639.243	180.81
639.448	183.81
639.654	196.81
639.859	184.81
640.065	196.81
640.27	189.81
640.475	180.81
640.681	187.81
640.886	188.81
641.091	183.81
641.297	180.81
641.502	198.81
641.707	202.81
641.913	187.81
642.118	164.81
642.323	183.81
642.528	196.81
642.733	189.81
642.939	176.81
643.144	185.81
643.349	170.81
643.554	170.81
643.759	168.81
643.964	182.81
644.169	181.81
644.374	174.81
644.579	175.81
644.784	176.81
644.989	185.81
645.194	174.81
645.399	184.81
645.604	180.81
645.809	174.81
646.014	197.81
646.219	169.81
646.423	182.81
646.628	175.81
646.833	176.81
647.038	190.81
647.243	188.81
647.447	178.81
647.652	184.81
647.857	163.81
648.062	175.81
648.266	185.81
648.471	190.81
648.676	187.81
648.88	173.81
649.085	178.81
649.289	182.81
649.494	175.81
649.698	204.81
649.903	182.81
650.107	174.81
650.312	179.81
650.516	174.81
650.721	174.81
650.925	168.81
651.13	156.81
651.334	174.81
651.539	155.81
651.743	162.81
651.947	150.81
652.152	156.81
652.356	162.81
652.56	148.81
652.764	162.81
652.969	165.81
653.173	154.81
653.377	154.81
653.581	156.81
653.785	160.81
653.99	149.81
654.194	161.81
654.398	171.81
654.602	153.81
654.806	159.81
655.01	155.81
655.214	153.81
655.418	149.81
655.622	148.81
655.826	154.81
656.03	160.81
656.234	162.81
656.438	174.81
656.642	183.81
656.846	154.81
657.049	146.81
657.253	152.81
657.457	144.81
657.661	151.81
657.865	122.81
658.068	125.81
658.272	126.81
658.476	116.81
658.68	109.81
658.883	108.81
659.087	112.81
659.291	105.81
659.494	102.81
659.698	97.81
659.901	112.81
660.105	111.81
660.309	110.81
660.512	98.81
660.716	93.81
660.919	88.81
661.123	99.81
661.326	87.81
661.53	102.81
661.733	91.81
661.936	98.81
662.14	92.81
662.343	93.81
662.546	81.81
662.75	84.81
662.953	99.81
663.156	98.81
663.36	91.81
663.563	96.81
663.766	85.81
663.969	97.81
664.173	84.81
664.376	70.81
664.579	63.81
664.782	88.81
664.985	87.81
665.188	97.81
665.391	83.81
665.594	73.81
665.797	93.81
666	64.81
666.203	82.81
666.406	77.81
666.609	78.81
666.812	90.81
667.015	98.81
667.218	94.81
667.421	85.81
667.624	81.81
667.827	78.81
668.03	83.81
668.232	74.81
668.435	90.81
668.638	76.81
668.841	73.81
669.043	78.81
669.246	85.81
669.449	70.81
669.651	79.81
669.854	90.81
670.057	83.81
670.259	89.81
670.462	90.81
670.665	77.81
670.867	93.81
671.07	88.81
671.272	87.81
671.475	96.81
671.677	86.81
671.88	74.81
672.082	73.81
672.284	84.81
672.487	87.81
672.689	86.81
672.892	71.81
