Data from 1975.PennyLincolnUp.Lamp.En5.5.200Scan.071719.P1.Changed Mount._HRD10591_15-57-45-859.txt Node
Date: Thu Jul 18 15:57:45 EDT 2019
User: cochatt
Spectrometer: HR+D1059
Trigger mode: 1
Integration Time (sec): 1.000000E-1
Scans to average: 1
Electric dark correction enabled: true
Nonlinearity correction enabled: false
Boxcar width: 0
XAxis mode: Wavelengths
Number of Pixels in Spectrum: 2048
>>>>>Begin Spectral Data<<<<<
223.165	-9.62
223.4	-9.62
223.635	-9.62
223.869	-10.62
224.104	-20.62
224.338	-5.62
224.573	-14.62
224.808	-17.62
225.042	-12.62
225.277	-9.62
225.511	-4.62
225.746	0.38
225.98	0.38
226.215	25.38
226.449	19.38
226.683	18.38
226.918	19.38
227.152	22.38
227.387	34.38
227.621	31.38
227.856	48.38
228.09	53.38
228.324	54.38
228.559	65.38
228.793	62.38
229.027	89.38
229.262	99.38
229.496	106.38
229.73	141.38
229.964	146.38
230.199	126.38
230.433	100.38
230.667	107.38
230.901	115.38
231.136	114.38
231.37	116.38
231.604	110.38
231.838	103.38
232.072	104.38
232.306	112.38
232.541	114.38
232.775	123.38
233.009	116.38
233.243	121.38
233.477	128.38
233.711	117.38
233.945	118.38
234.179	116.38
234.413	124.38
234.647	122.38
234.881	138.38
235.115	129.38
235.349	111.38
235.583	107.38
235.817	119.38
236.051	125.38
236.285	124.38
236.519	123.38
236.753	132.38
236.987	142.38
237.221	178.38
237.455	222.38
237.689	167.38
237.922	150.38
238.156	138.38
238.39	135.38
238.624	111.38
238.858	131.38
239.091	121.38
239.325	134.38
239.559	122.38
239.793	114.38
240.027	134.38
240.26	146.38
240.494	162.38
240.728	173.38
240.961	158.38
241.195	139.38
241.429	141.38
241.662	136.38
241.896	132.38
242.13	144.38
242.363	142.38
242.597	121.38
242.83	146.38
243.064	137.38
243.298	142.38
243.531	132.38
243.765	144.38
243.998	155.38
244.232	138.38
244.465	143.38
244.699	140.38
244.932	162.38
245.166	151.38
245.399	155.38
245.633	140.38
245.866	132.38
246.099	155.38
246.333	163.38
246.566	151.38
246.8	158.38
247.033	155.38
247.266	145.38
247.5	158.38
247.733	168.38
247.966	161.38
248.2	165.38
248.433	162.38
248.666	170.38
248.899	184.38
249.133	186.38
249.366	218.38
249.599	203.38
249.832	178.38
250.066	172.38
250.299	195.38
250.532	199.38
250.765	207.38
250.998	230.38
251.231	226.38
251.465	204.38
251.698	200.38
251.931	204.38
252.164	207.38
252.397	174.38
252.63	208.38
252.863	206.38
253.096	204.38
253.329	240.38
253.562	218.38
253.795	200.38
254.028	204.38
254.261	221.38
254.494	240.38
254.727	274.38
254.96	274.38
255.193	269.38
255.426	241.38
255.659	234.38
255.892	226.38
256.124	235.38
256.357	227.38
256.59	230.38
256.823	210.38
257.056	217.38
257.289	196.38
257.521	223.38
257.754	214.38
257.987	225.38
258.22	219.38
258.452	207.38
258.685	216.38
258.918	213.38
259.151	200.38
259.383	219.38
259.616	219.38
259.849	226.38
260.081	235.38
260.314	273.38
260.547	258.38
260.779	249.38
261.012	238.38
261.244	206.38
261.477	216.38
261.71	229.38
261.942	220.38
262.175	234.38
262.407	231.38
262.64	219.38
262.872	222.38
263.105	228.38
263.337	219.38
263.57	225.38
263.802	210.38
264.035	210.38
264.267	226.38
264.499	208.38
264.732	201.38
264.964	219.38
265.197	223.38
265.429	215.38
265.661	232.38
265.894	232.38
266.126	217.38
266.358	228.38
266.591	211.38
266.823	240.38
267.055	222.38
267.287	242.38
267.52	222.38
267.752	220.38
267.984	231.38
268.216	243.38
268.448	234.38
268.681	233.38
268.913	238.38
269.145	274.38
269.377	275.38
269.609	269.38
269.841	267.38
270.073	267.38
270.306	278.38
270.538	306.38
270.77	304.38
271.002	314.38
271.234	297.38
271.466	290.38
271.698	316.38
271.93	311.38
272.162	319.38
272.394	303.38
272.626	309.38
272.858	295.38
273.09	280.38
273.322	280.38
273.553	273.38
273.785	274.38
274.017	263.38
274.249	260.38
274.481	264.38
274.713	267.38
274.945	298.38
275.176	258.38
275.408	293.38
275.64	273.38
275.872	278.38
276.104	255.38
276.335	278.38
276.567	291.38
276.799	299.38
277.031	282.38
277.262	324.38
277.494	327.38
277.726	293.38
277.957	308.38
278.189	287.38
278.421	273.38
278.652	282.38
278.884	280.38
279.115	260.38
279.347	279.38
279.579	303.38
279.81	257.38
280.042	279.38
280.273	294.38
280.505	273.38
280.736	293.38
280.968	279.38
281.199	267.38
281.431	280.38
281.662	278.38
281.894	291.38
282.125	276.38
282.356	305.38
282.588	318.38
282.819	320.38
283.051	282.38
283.282	288.38
283.513	298.38
283.745	301.38
283.976	282.38
284.207	284.38
284.439	276.38
284.67	293.38
284.901	288.38
285.132	279.38
285.364	293.38
285.595	288.38
285.826	279.38
286.057	293.38
286.288	295.38
286.52	304.38
286.751	281.38
286.982	299.38
287.213	293.38
287.444	292.38
287.675	289.38
287.906	297.38
288.138	291.38
288.369	311.38
288.6	308.38
288.831	326.38
289.062	326.38
289.293	304.38
289.524	305.38
289.755	296.38
289.986	288.38
290.217	303.38
290.448	307.38
290.679	316.38
290.91	314.38
291.141	302.38
291.371	306.38
291.602	315.38
291.833	288.38
292.064	292.38
292.295	303.38
292.526	310.38
292.757	303.38
292.987	301.38
293.218	302.38
293.449	292.38
293.68	305.38
293.91	283.38
294.141	307.38
294.372	290.38
294.603	302.38
294.833	313.38
295.064	306.38
295.295	305.38
295.525	310.38
295.756	297.38
295.987	313.38
296.217	329.38
296.448	329.38
296.679	326.38
296.909	290.38
297.14	319.38
297.37	312.38
297.601	311.38
297.831	295.38
298.062	309.38
298.292	322.38
298.523	299.38
298.753	315.38
298.984	314.38
299.214	298.38
299.445	311.38
299.675	324.38
299.905	332.38
300.136	329.38
300.366	320.38
300.597	313.38
300.827	316.38
301.057	338.38
301.288	344.38
301.518	346.38
301.748	320.38
301.979	341.38
302.209	350.38
302.439	345.38
302.669	352.38
302.9	331.38
303.13	327.38
303.36	340.38
303.59	340.38
303.82	346.38
304.051	344.38
304.281	350.38
304.511	332.38
304.741	338.38
304.971	340.38
305.201	339.38
305.431	361.38
305.661	343.38
305.891	344.38
306.121	334.38
306.352	349.38
306.582	327.38
306.812	338.38
307.042	335.38
307.272	345.38
307.502	351.38
307.731	332.38
307.961	338.38
308.191	330.38
308.421	339.38
308.651	339.38
308.881	345.38
309.111	363.38
309.341	359.38
309.571	362.38
309.8	361.38
310.03	362.38
310.26	359.38
310.49	386.38
310.72	377.38
310.949	400.38
311.179	384.38
311.409	378.38
311.639	357.38
311.868	392.38
312.098	376.38
312.328	373.38
312.557	395.38
312.787	397.38
313.017	397.38
313.246	404.38
313.476	396.38
313.706	384.38
313.935	377.38
314.165	399.38
314.394	393.38
314.624	397.38
314.853	382.38
315.083	373.38
315.312	391.38
315.542	395.38
315.771	368.38
316.001	368.38
316.23	388.38
316.46	378.38
316.689	379.38
316.919	376.38
317.148	378.38
317.377	389.38
317.607	391.38
317.836	380.38
318.065	400.38
318.295	366.38
318.524	361.38
318.753	362.38
318.983	376.38
319.212	368.38
319.441	372.38
319.67	390.38
319.9	397.38
320.129	386.38
320.358	387.38
320.587	386.38
320.816	412.38
321.046	391.38
321.275	376.38
321.504	397.38
321.733	400.38
321.962	424.38
322.191	409.38
322.42	426.38
322.649	423.38
322.878	438.38
323.108	454.38
323.337	450.38
323.566	454.38
323.795	487.38
324.024	522.38
324.253	605.38
324.482	840.38
324.71	1216.38
324.939	1888.38
325.168	1660.38
325.397	829.38
325.626	578.38
325.855	502.38
326.084	491.38
326.313	464.38
326.542	479.38
326.77	500.38
326.999	599.38
327.228	776.38
327.457	1142.38
327.686	1410.38
327.914	954.38
328.143	644.38
328.372	578.38
328.6	536.38
328.829	522.38
329.058	546.38
329.287	534.38
329.515	527.38
329.744	500.38
329.972	480.38
330.201	502.38
330.43	542.38
330.658	542.38
330.887	568.38
331.115	577.38
331.344	515.38
331.572	481.38
331.801	472.38
332.03	492.38
332.258	488.38
332.486	481.38
332.715	473.38
332.943	450.38
333.172	469.38
333.4	474.38
333.629	507.38
333.857	500.38
334.085	515.38
334.314	529.38
334.542	575.38
334.771	585.38
334.999	498.38
335.227	489.38
335.455	466.38
335.684	468.38
335.912	497.38
336.14	455.38
336.369	464.38
336.597	481.38
336.825	472.38
337.053	455.38
337.281	455.38
337.51	442.38
337.738	470.38
337.966	435.38
338.194	449.38
338.422	459.38
338.65	477.38
338.878	450.38
339.106	442.38
339.334	422.38
339.562	430.38
339.79	440.38
340.018	439.38
340.246	439.38
340.474	444.38
340.702	449.38
340.93	453.38
341.158	452.38
341.386	444.38
341.614	454.38
341.842	442.38
342.07	428.38
342.298	444.38
342.526	440.38
342.754	440.38
342.981	418.38
343.209	423.38
343.437	441.38
343.665	453.38
343.893	470.38
344.12	463.38
344.348	455.38
344.576	486.38
344.804	467.38
345.031	439.38
345.259	454.38
345.487	459.38
345.714	462.38
345.942	433.38
346.17	449.38
346.397	434.38
346.625	452.38
346.853	418.38
347.08	427.38
347.308	422.38
347.535	434.38
347.763	441.38
347.99	428.38
348.218	433.38
348.445	445.38
348.673	440.38
348.9	438.38
349.128	427.38
349.355	445.38
349.583	425.38
349.81	424.38
350.037	423.38
350.265	408.38
350.492	432.38
350.72	404.38
350.947	423.38
351.174	427.38
351.402	443.38
351.629	432.38
351.856	430.38
352.083	423.38
352.311	431.38
352.538	422.38
352.765	432.38
352.992	435.38
353.22	434.38
353.447	420.38
353.674	412.38
353.901	425.38
354.128	410.38
354.355	405.38
354.583	406.38
354.81	394.38
355.037	412.38
355.264	387.38
355.491	379.38
355.718	406.38
355.945	397.38
356.172	405.38
356.399	394.38
356.626	411.38
356.853	406.38
357.08	415.38
357.307	402.38
357.534	404.38
357.761	406.38
357.988	408.38
358.215	394.38
358.441	389.38
358.668	405.38
358.895	402.38
359.122	402.38
359.349	402.38
359.576	440.38
359.802	445.38
360.029	457.38
360.256	464.38
360.483	451.38
360.709	424.38
360.936	444.38
361.163	435.38
361.39	430.38
361.616	441.38
361.843	435.38
362.07	428.38
362.296	437.38
362.523	427.38
362.749	441.38
362.976	404.38
363.203	442.38
363.429	400.38
363.656	431.38
363.882	428.38
364.109	423.38
364.335	403.38
364.562	394.38
364.788	417.38
365.015	414.38
365.241	389.38
365.468	415.38
365.694	420.38
365.92	421.38
366.147	428.38
366.373	419.38
366.599	410.38
366.826	417.38
367.052	418.38
367.278	419.38
367.505	424.38
367.731	430.38
367.957	403.38
368.184	409.38
368.41	423.38
368.636	432.38
368.862	444.38
369.089	402.38
369.315	417.38
369.541	425.38
369.767	423.38
369.993	418.38
370.219	418.38
370.445	417.38
370.672	433.38
370.898	420.38
371.124	410.38
371.35	444.38
371.576	418.38
371.802	431.38
372.028	429.38
372.254	408.38
372.48	422.38
372.706	415.38
372.932	430.38
373.158	451.38
373.384	430.38
373.61	424.38
373.835	428.38
374.061	418.38
374.287	421.38
374.513	430.38
374.739	436.38
374.965	415.38
375.191	454.38
375.416	434.38
375.642	436.38
375.868	443.38
376.094	450.38
376.319	415.38
376.545	417.38
376.771	435.38
376.997	432.38
377.222	425.38
377.448	425.38
377.674	422.38
377.899	435.38
378.125	412.38
378.35	406.38
378.576	418.38
378.802	428.38
379.027	418.38
379.253	421.38
379.478	436.38
379.704	418.38
379.929	427.38
380.155	418.38
380.38	430.38
380.606	412.38
380.831	431.38
381.057	426.38
381.282	432.38
381.507	440.38
381.733	447.38
381.958	425.38
382.184	446.38
382.409	450.38
382.634	445.38
382.86	428.38
383.085	423.38
383.31	442.38
383.535	460.38
383.761	454.38
383.986	454.38
384.211	449.38
384.436	430.38
384.662	474.38
384.887	478.38
385.112	472.38
385.337	467.38
385.562	475.38
385.787	456.38
386.013	482.38
386.238	475.38
386.463	456.38
386.688	478.38
386.913	456.38
387.138	462.38
387.363	481.38
387.588	487.38
387.813	471.38
388.038	470.38
388.263	470.38
388.488	495.38
388.713	506.38
388.938	473.38
389.163	466.38
389.387	481.38
389.612	461.38
389.837	478.38
390.062	476.38
390.287	465.38
390.512	467.38
390.736	486.38
390.961	476.38
391.186	486.38
391.411	481.38
391.636	481.38
391.86	504.38
392.085	504.38
392.31	491.38
392.534	479.38
392.759	484.38
392.984	502.38
393.208	478.38
393.433	478.38
393.658	453.38
393.882	467.38
394.107	472.38
394.331	496.38
394.556	490.38
394.78	484.38
395.005	487.38
395.229	480.38
395.454	513.38
395.678	475.38
395.903	510.38
396.127	507.38
396.352	506.38
396.576	524.38
396.801	498.38
397.025	522.38
397.249	525.38
397.474	499.38
397.698	516.38
397.922	521.38
398.147	560.38
398.371	544.38
398.595	532.38
398.82	551.38
399.044	560.38
399.268	616.38
399.492	615.38
399.717	692.38
399.941	695.38
400.165	697.38
400.389	684.38
400.613	650.38
400.837	595.38
401.062	562.38
401.286	584.38
401.51	552.38
401.734	549.38
401.958	562.38
402.182	546.38
402.406	553.38
402.63	570.38
402.854	572.38
403.078	576.38
403.302	581.38
403.526	574.38
403.75	588.38
403.974	589.38
404.198	566.38
404.422	603.38
404.645	569.38
404.869	607.38
405.093	610.38
405.317	656.38
405.541	687.38
405.765	649.38
405.988	634.38
406.212	623.38
406.436	651.38
406.66	653.38
406.883	603.38
407.107	648.38
407.331	707.38
407.555	798.38
407.778	770.38
408.002	721.38
408.226	650.38
408.449	646.38
408.673	619.38
408.896	650.38
409.12	706.38
409.344	693.38
409.567	607.38
409.791	611.38
410.014	578.38
410.238	564.38
410.461	580.38
410.685	585.38
410.908	574.38
411.132	612.38
411.355	660.38
411.578	619.38
411.802	601.38
412.025	576.38
412.249	571.38
412.472	625.38
412.695	649.38
412.919	649.38
413.142	594.38
413.365	565.38
413.589	565.38
413.812	570.38
414.035	553.38
414.258	522.38
414.482	546.38
414.705	560.38
414.928	548.38
415.151	537.38
415.374	556.38
415.597	555.38
415.821	550.38
416.044	547.38
416.267	547.38
416.49	571.38
416.713	566.38
416.936	522.38
417.159	547.38
417.382	549.38
417.605	553.38
417.828	578.38
418.051	563.38
418.274	567.38
418.497	549.38
418.72	561.38
418.943	532.38
419.166	599.38
419.389	619.38
419.611	591.38
419.834	595.38
420.057	589.38
420.28	572.38
420.503	587.38
420.726	586.38
420.948	571.38
421.171	648.38
421.394	650.38
421.617	611.38
421.839	571.38
422.062	565.38
422.285	601.38
422.507	658.38
422.73	723.38
422.953	686.38
423.175	601.38
423.398	608.38
423.621	590.38
423.843	624.38
424.066	644.38
424.288	599.38
424.511	648.38
424.733	691.38
424.956	753.38
425.178	736.38
425.401	727.38
425.623	758.38
425.846	664.38
426.068	615.38
426.291	608.38
426.513	604.38
426.735	588.38
426.958	642.38
427.18	717.38
427.402	843.38
427.625	937.38
427.847	801.38
428.069	706.38
428.292	649.38
428.514	588.38
428.736	572.38
428.958	594.38
429.181	554.38
429.403	563.38
429.625	566.38
429.847	589.38
430.069	652.38
430.292	670.38
430.514	567.38
430.736	574.38
430.958	538.38
431.18	531.38
431.402	547.38
431.624	524.38
431.846	522.38
432.068	530.38
432.29	543.38
432.512	524.38
432.734	534.38
432.956	517.38
433.178	561.38
433.4	521.38
433.622	546.38
433.844	534.38
434.066	536.38
434.287	547.38
434.509	532.38
434.731	551.38
434.953	595.38
435.175	591.38
435.397	595.38
435.618	617.38
435.84	656.38
436.062	715.38
436.284	793.38
436.505	652.38
436.727	608.38
436.949	583.38
437.17	560.38
437.392	524.38
437.614	578.38
437.835	584.38
438.057	666.38
438.278	784.38
438.5	783.38
438.721	865.38
438.943	832.38
439.165	672.38
439.386	623.38
439.608	604.38
439.829	609.38
440.05	632.38
440.272	656.38
440.493	642.38
440.715	594.38
440.936	576.38
441.158	583.38
441.379	570.38
441.6	603.38
441.822	601.38
442.043	634.38
442.264	708.38
442.486	756.38
442.707	667.38
442.928	613.38
443.149	639.38
443.371	646.38
443.592	690.38
443.813	787.38
444.034	839.38
444.255	689.38
444.476	638.38
444.698	630.38
444.919	640.38
445.14	767.38
445.361	676.38
445.582	639.38
445.803	682.38
446.024	780.38
446.245	801.38
446.466	742.38
446.687	632.38
446.908	615.38
447.129	582.38
447.35	563.38
447.571	552.38
447.792	545.38
448.013	543.38
448.234	563.38
448.455	602.38
448.675	735.38
448.896	848.38
449.117	714.38
449.338	669.38
449.559	780.38
449.779	913.38
450	710.38
450.221	593.38
450.442	538.38
450.662	528.38
450.883	515.38
451.104	542.38
451.324	546.38
451.545	502.38
451.766	515.38
451.986	502.38
452.207	489.38
452.428	487.38
452.648	495.38
452.869	479.38
453.089	488.38
453.31	532.38
453.53	509.38
453.751	490.38
453.971	494.38
454.192	508.38
454.412	486.38
454.633	488.38
454.853	490.38
455.073	490.38
455.294	528.38
455.514	584.38
455.734	562.38
455.955	516.38
456.175	497.38
456.395	480.38
456.616	475.38
456.836	461.38
457.056	477.38
457.276	449.38
457.497	447.38
457.717	470.38
457.937	485.38
458.157	483.38
458.377	502.38
458.598	507.38
458.818	549.38
459.038	621.38
459.258	658.38
459.478	582.38
459.698	539.38
459.918	549.38
460.138	528.38
460.358	546.38
460.578	571.38
460.798	554.38
461.018	551.38
461.238	554.38
461.458	579.38
461.678	534.38
461.898	561.38
462.118	545.38
462.338	579.38
462.558	585.38
462.777	592.38
462.997	608.38
463.217	617.38
463.437	625.38
463.657	617.38
463.876	602.38
464.096	631.38
464.316	594.38
464.536	603.38
464.755	603.38
464.975	595.38
465.195	614.38
465.414	641.38
465.634	563.38
465.854	576.38
466.073	549.38
466.293	529.38
466.512	546.38
466.732	516.38
466.951	495.38
467.171	485.38
467.391	523.38
467.61	514.38
467.829	545.38
468.049	522.38
468.268	495.38
468.488	516.38
468.707	501.38
468.927	483.38
469.146	490.38
469.365	494.38
469.585	506.38
469.804	505.38
470.023	534.38
470.243	513.38
470.462	506.38
470.681	530.38
470.901	540.38
471.12	535.38
471.339	529.38
471.558	529.38
471.777	532.38
471.997	542.38
472.216	524.38
472.435	545.38
472.654	529.38
472.873	524.38
473.092	514.38
473.311	505.38
473.53	519.38
473.749	505.38
473.968	554.38
474.187	655.38
474.406	660.38
474.625	564.38
474.844	524.38
475.063	516.38
475.282	496.38
475.501	518.38
475.72	525.38
475.939	522.38
476.158	506.38
476.377	517.38
476.596	526.38
476.814	539.38
477.033	536.38
477.252	567.38
477.471	553.38
477.69	562.38
477.908	560.38
478.127	570.38
478.346	583.38
478.564	586.38
478.783	578.38
479.002	578.38
479.22	612.38
479.439	632.38
479.658	609.38
479.876	616.38
480.095	624.38
480.313	664.38
480.532	665.38
480.751	645.38
480.969	657.38
481.188	677.38
481.406	703.38
481.624	648.38
481.843	634.38
482.061	621.38
482.28	609.38
482.498	609.38
482.717	605.38
482.935	630.38
483.153	613.38
483.372	603.38
483.59	592.38
483.808	590.38
484.027	626.38
484.245	588.38
484.463	611.38
484.681	634.38
484.9	632.38
485.118	623.38
485.336	623.38
485.554	650.38
485.772	634.38
485.99	614.38
486.209	645.38
486.427	626.38
486.645	635.38
486.863	647.38
487.081	644.38
487.299	635.38
487.517	615.38
487.735	652.38
487.953	655.38
488.171	630.38
488.389	651.38
488.607	663.38
488.825	653.38
489.043	648.38
489.261	658.38
489.479	646.38
489.696	660.38
489.914	646.38
490.132	660.38
490.35	688.38
490.568	707.38
490.786	694.38
491.003	668.38
491.221	712.38
491.439	721.38
491.657	722.38
491.874	736.38
492.092	705.38
492.31	763.38
492.527	727.38
492.745	738.38
492.963	746.38
493.18	755.38
493.398	763.38
493.615	772.38
493.833	767.38
494.05	755.38
494.268	769.38
494.485	756.38
494.703	747.38
494.92	744.38
495.138	763.38
495.355	740.38
495.573	737.38
495.79	766.38
496.008	759.38
496.225	772.38
496.442	774.38
496.66	768.38
496.877	766.38
497.094	825.38
497.312	784.38
497.529	828.38
497.746	803.38
497.963	806.38
498.181	843.38
498.398	860.38
498.615	883.38
498.832	931.38
499.049	913.38
499.267	947.38
499.484	998.38
499.701	1054.38
499.918	1070.38
500.135	1155.38
500.352	1194.38
500.569	1259.38
500.786	1272.38
501.003	1222.38
501.22	1136.38
501.437	1110.38
501.654	1071.38
501.871	1048.38
502.088	986.38
502.305	928.38
502.522	900.38
502.739	880.38
502.956	869.38
503.172	830.38
503.389	786.38
503.606	812.38
503.823	824.38
504.04	811.38
504.256	769.38
504.473	784.38
504.69	791.38
504.907	785.38
505.123	774.38
505.34	735.38
505.557	767.38
505.773	736.38
505.99	717.38
506.207	730.38
506.423	723.38
506.64	673.38
506.856	694.38
507.073	712.38
507.289	704.38
507.506	695.38
507.722	699.38
507.939	705.38
508.155	693.38
508.372	687.38
508.588	680.38
508.805	698.38
509.021	683.38
509.238	688.38
509.454	697.38
509.67	660.38
509.887	685.38
510.103	658.38
510.319	660.38
510.536	726.38
510.752	1084.38
510.968	928.38
511.184	674.38
511.401	638.38
511.617	624.38
511.833	631.38
512.049	641.38
512.265	640.38
512.481	661.38
512.698	640.38
512.914	618.38
513.13	652.38
513.346	651.38
513.562	666.38
513.778	626.38
513.994	625.38
514.21	632.38
514.426	688.38
514.642	694.38
514.858	716.38
515.074	741.38
515.29	824.38
515.506	1052.38
515.721	930.38
515.937	724.38
516.153	690.38
516.369	650.38
516.585	670.38
516.801	667.38
517.016	656.38
517.232	696.38
517.448	682.38
517.664	693.38
517.879	682.38
518.095	671.38
518.311	685.38
518.527	676.38
518.742	650.38
518.958	662.38
519.173	636.38
519.389	633.38
519.605	625.38
519.82	659.38
520.036	640.38
520.251	651.38
520.467	668.38
520.682	671.38
520.898	660.38
521.113	680.38
521.329	700.38
521.544	765.38
521.76	908.38
521.975	1293.38
522.19	1313.38
522.406	800.38
522.621	670.38
522.836	608.38
523.052	620.38
523.267	597.38
523.482	570.38
523.698	570.38
523.913	554.38
524.128	587.38
524.343	568.38
524.559	559.38
524.774	566.38
524.989	572.38
525.204	567.38
525.419	567.38
525.634	555.38
525.849	532.38
526.064	534.38
526.28	533.38
526.495	531.38
526.71	530.38
526.925	543.38
527.14	520.38
527.355	523.38
527.57	497.38
527.785	536.38
527.999	534.38
528.214	546.38
528.429	534.38
528.644	560.38
528.859	534.38
529.074	522.38
529.289	562.38
529.503	587.38
529.718	607.38
529.933	564.38
530.148	537.38
530.363	522.38
530.577	532.38
530.792	525.38
531.007	512.38
531.221	532.38
531.436	526.38
531.651	551.38
531.865	503.38
532.08	524.38
532.295	494.38
532.509	518.38
532.724	514.38
532.938	514.38
533.153	496.38
533.367	496.38
533.582	500.38
533.796	531.38
534.011	498.38
534.225	512.38
534.44	515.38
534.654	484.38
534.868	492.38
535.083	497.38
535.297	515.38
535.511	512.38
535.726	498.38
535.94	506.38
536.154	499.38
536.369	489.38
536.583	492.38
536.797	487.38
537.011	489.38
537.225	474.38
537.44	490.38
537.654	483.38
537.868	487.38
538.082	501.38
538.296	490.38
538.51	472.38
538.724	486.38
538.938	482.38
539.153	487.38
539.367	489.38
539.581	518.38
539.795	490.38
540.009	471.38
540.222	489.38
540.436	477.38
540.65	492.38
540.864	495.38
541.078	483.38
541.292	488.38
541.506	514.38
541.72	497.38
541.934	488.38
542.147	484.38
542.361	472.38
542.575	459.38
542.789	472.38
543.002	484.38
543.216	462.38
543.43	476.38
543.644	480.38
543.857	489.38
544.071	492.38
544.285	487.38
544.498	488.38
544.712	494.38
544.925	492.38
545.139	469.38
545.352	485.38
545.566	504.38
545.779	455.38
545.993	470.38
546.206	476.38
546.42	503.38
546.633	469.38
546.847	483.38
547.06	462.38
547.274	466.38
547.487	481.38
547.7	479.38
547.914	483.38
548.127	480.38
548.34	474.38
548.554	470.38
548.767	475.38
548.98	460.38
549.193	479.38
549.407	499.38
549.62	478.38
549.833	487.38
550.046	467.38
550.259	457.38
550.473	453.38
550.686	455.38
550.899	466.38
551.112	456.38
551.325	447.38
551.538	441.38
551.751	452.38
551.964	464.38
552.177	470.38
552.39	487.38
552.603	470.38
552.816	478.38
553.029	477.38
553.242	478.38
553.455	504.38
553.667	508.38
553.88	519.38
554.093	481.38
554.306	484.38
554.519	482.38
554.732	499.38
554.944	466.38
555.157	442.38
555.37	456.38
555.583	448.38
555.795	451.38
556.008	449.38
556.221	436.38
556.433	433.38
556.646	411.38
556.859	420.38
557.071	437.38
557.284	433.38
557.496	426.38
557.709	428.38
557.921	442.38
558.134	437.38
558.346	421.38
558.559	415.38
558.771	405.38
558.984	434.38
559.196	421.38
559.409	419.38
559.621	414.38
559.833	416.38
560.046	409.38
560.258	418.38
560.47	412.38
560.683	410.38
560.895	410.38
561.107	409.38
561.32	426.38
561.532	420.38
561.744	417.38
561.956	400.38
562.168	430.38
562.381	426.38
562.593	434.38
562.805	430.38
563.017	423.38
563.229	449.38
563.441	430.38
563.653	417.38
563.865	420.38
564.077	443.38
564.289	432.38
564.501	432.38
564.713	434.38
564.925	441.38
565.137	458.38
565.349	445.38
565.561	481.38
565.773	461.38
565.985	473.38
566.197	464.38
566.408	508.38
566.62	538.38
566.832	543.38
567.044	555.38
567.255	571.38
567.467	571.38
567.679	566.38
567.891	576.38
568.102	570.38
568.314	560.38
568.526	561.38
568.737	521.38
568.949	498.38
569.161	489.38
569.372	467.38
569.584	448.38
569.795	459.38
570.007	461.38
570.218	468.38
570.43	458.38
570.641	419.38
570.853	437.38
571.064	427.38
571.276	416.38
571.487	434.38
571.698	426.38
571.91	383.38
572.121	399.38
572.333	371.38
572.544	397.38
572.755	375.38
572.966	371.38
573.178	377.38
573.389	384.38
573.6	370.38
573.811	370.38
574.023	363.38
574.234	357.38
574.445	360.38
574.656	363.38
574.867	369.38
575.078	364.38
575.289	364.38
575.501	357.38
575.712	350.38
575.923	351.38
576.134	368.38
576.345	372.38
576.556	360.38
576.767	338.38
576.978	359.38
577.188	341.38
577.399	339.38
577.61	336.38
577.821	339.38
578.032	350.38
578.243	374.38
578.454	482.38
578.665	416.38
578.875	348.38
579.086	333.38
579.297	323.38
579.508	322.38
579.718	328.38
579.929	332.38
580.14	339.38
580.35	314.38
580.561	348.38
580.772	312.38
580.982	318.38
581.193	308.38
581.403	314.38
581.614	329.38
581.825	330.38
582.035	339.38
582.246	308.38
582.456	328.38
582.667	322.38
582.877	323.38
583.087	320.38
583.298	322.38
583.508	319.38
583.719	348.38
583.929	322.38
584.139	299.38
584.35	314.38
584.56	326.38
584.77	315.38
584.981	304.38
585.191	318.38
585.401	315.38
585.611	320.38
585.821	338.38
586.032	292.38
586.242	311.38
586.452	314.38
586.662	316.38
586.872	330.38
587.082	309.38
587.292	320.38
587.502	314.38
587.713	311.38
587.923	309.38
588.133	312.38
588.343	314.38
588.553	318.38
588.762	317.38
588.972	307.38
589.182	326.38
589.392	316.38
589.602	322.38
589.812	320.38
590.022	311.38
590.232	314.38
590.441	308.38
590.651	326.38
590.861	297.38
591.071	297.38
591.281	315.38
591.49	302.38
591.7	314.38
591.91	335.38
592.119	333.38
592.329	318.38
592.539	340.38
592.748	338.38
592.958	327.38
593.167	344.38
593.377	348.38
593.587	351.38
593.796	340.38
594.006	359.38
594.215	351.38
594.424	354.38
594.634	346.38
594.843	336.38
595.053	323.38
595.262	324.38
595.472	336.38
595.681	319.38
595.89	312.38
596.1	329.38
596.309	310.38
596.518	311.38
596.727	302.38
596.937	298.38
597.146	289.38
597.355	280.38
597.564	297.38
597.774	300.38
597.983	286.38
598.192	284.38
598.401	298.38
598.61	272.38
598.819	278.38
599.028	308.38
599.237	283.38
599.446	271.38
599.655	291.38
599.864	292.38
600.073	262.38
600.282	283.38
600.491	265.38
600.7	284.38
600.909	297.38
601.118	270.38
601.327	259.38
601.536	261.38
601.745	275.38
601.953	270.38
602.162	254.38
602.371	284.38
602.58	284.38
602.789	296.38
602.997	272.38
603.206	275.38
603.415	260.38
603.623	273.38
603.832	270.38
604.041	266.38
604.249	243.38
604.458	263.38
604.666	263.38
604.875	270.38
605.084	262.38
605.292	269.38
605.501	272.38
605.709	252.38
605.918	266.38
606.126	267.38
606.334	258.38
606.543	254.38
606.751	252.38
606.96	276.38
607.168	282.38
607.376	263.38
607.585	264.38
607.793	256.38
608.001	265.38
608.21	259.38
608.418	260.38
608.626	253.38
608.834	274.38
609.043	259.38
609.251	255.38
609.459	260.38
609.667	258.38
609.875	268.38
610.083	265.38
610.291	258.38
610.499	265.38
610.707	265.38
610.916	257.38
611.124	241.38
611.332	280.38
611.54	260.38
611.748	266.38
611.955	259.38
612.163	252.38
612.371	246.38
612.579	263.38
612.787	248.38
612.995	233.38
613.203	245.38
613.411	256.38
613.618	258.38
613.826	250.38
614.034	267.38
614.242	264.38
614.449	244.38
614.657	266.38
614.865	240.38
615.072	258.38
615.28	259.38
615.488	258.38
615.695	238.38
615.903	250.38
616.111	263.38
616.318	251.38
616.526	264.38
616.733	246.38
616.941	267.38
617.148	250.38
617.356	246.38
617.563	245.38
617.771	258.38
617.978	241.38
618.185	258.38
618.393	238.38
618.6	252.38
618.807	258.38
619.015	239.38
619.222	244.38
619.429	237.38
619.637	224.38
619.844	246.38
620.051	256.38
620.258	234.38
620.466	240.38
620.673	220.38
620.88	224.38
621.087	222.38
621.294	234.38
621.501	225.38
621.708	236.38
621.915	225.38
622.122	235.38
622.329	229.38
622.536	240.38
622.743	243.38
622.95	242.38
623.157	230.38
623.364	218.38
623.571	238.38
623.778	233.38
623.985	217.38
624.192	251.38
624.399	223.38
624.606	235.38
624.812	223.38
625.019	221.38
625.226	217.38
625.433	224.38
625.639	243.38
625.846	226.38
626.053	219.38
626.259	219.38
626.466	232.38
626.673	223.38
626.879	210.38
627.086	212.38
627.293	219.38
627.499	209.38
627.706	220.38
627.912	232.38
628.119	212.38
628.325	209.38
628.532	201.38
628.738	220.38
628.945	214.38
629.151	201.38
629.357	209.38
629.564	216.38
629.77	209.38
629.976	209.38
630.183	194.38
630.389	196.38
630.595	201.38
630.802	205.38
631.008	198.38
631.214	204.38
631.42	214.38
631.627	204.38
631.833	195.38
632.039	194.38
632.245	189.38
632.451	206.38
632.657	212.38
632.863	200.38
633.069	184.38
633.275	199.38
633.481	186.38
633.688	196.38
633.893	194.38
634.099	208.38
634.305	194.38
634.511	194.38
634.717	183.38
634.923	187.38
635.129	201.38
635.335	194.38
635.541	185.38
635.747	181.38
635.952	204.38
636.158	191.38
636.364	186.38
636.57	199.38
636.775	181.38
636.981	181.38
637.187	190.38
637.392	202.38
637.598	194.38
637.804	213.38
638.009	197.38
638.215	187.38
638.421	177.38
638.626	170.38
638.832	181.38
639.037	174.38
639.243	175.38
639.448	186.38
639.654	190.38
639.859	184.38
640.065	182.38
640.27	178.38
640.475	163.38
640.681	176.38
640.886	176.38
641.091	186.38
641.297	184.38
641.502	186.38
641.707	183.38
641.913	182.38
642.118	159.38
642.323	174.38
642.528	178.38
642.733	176.38
642.939	165.38
643.144	165.38
643.349	178.38
643.554	192.38
643.759	177.38
643.964	176.38
644.169	184.38
644.374	166.38
644.579	189.38
644.784	167.38
644.989	167.38
645.194	163.38
645.399	177.38
645.604	188.38
645.809	170.38
646.014	180.38
646.219	169.38
646.423	182.38
646.628	167.38
646.833	157.38
647.038	187.38
647.243	184.38
647.447	183.38
647.652	187.38
647.857	172.38
648.062	176.38
648.266	177.38
648.471	169.38
648.676	195.38
648.88	166.38
649.085	188.38
649.289	174.38
649.494	176.38
649.698	194.38
649.903	200.38
650.107	182.38
650.312	182.38
650.516	176.38
650.721	163.38
650.925	174.38
651.13	161.38
651.334	168.38
651.539	158.38
651.743	146.38
651.947	153.38
652.152	160.38
652.356	161.38
652.56	156.38
652.764	156.38
652.969	132.38
653.173	150.38
653.377	136.38
653.581	150.38
653.785	150.38
653.99	150.38
654.194	139.38
654.398	132.38
654.602	151.38
654.806	139.38
655.01	139.38
655.214	148.38
655.418	153.38
655.622	141.38
655.826	164.38
656.03	147.38
656.234	145.38
656.438	143.38
656.642	142.38
656.846	140.38
657.049	129.38
657.253	135.38
657.457	125.38
657.661	137.38
657.865	134.38
658.068	114.38
658.272	116.38
658.476	95.38
658.68	102.38
658.883	107.38
659.087	88.38
659.291	116.38
659.494	103.38
659.698	105.38
659.901	99.38
660.105	118.38
660.309	96.38
660.512	100.38
660.716	92.38
660.919	89.38
661.123	80.38
661.326	92.38
661.53	82.38
661.733	82.38
661.936	72.38
662.14	90.38
662.343	97.38
662.546	99.38
662.75	83.38
662.953	80.38
663.156	82.38
663.36	77.38
663.563	88.38
663.766	77.38
663.969	81.38
664.173	90.38
664.376	80.38
664.579	71.38
664.782	92.38
664.985	82.38
665.188	90.38
665.391	78.38
665.594	79.38
665.797	92.38
666	83.38
666.203	88.38
666.406	68.38
666.609	93.38
666.812	99.38
667.015	80.38
667.218	83.38
667.421	80.38
667.624	81.38
667.827	84.38
668.03	74.38
668.232	80.38
668.435	79.38
668.638	80.38
668.841	83.38
669.043	80.38
669.246	89.38
669.449	76.38
669.651	84.38
669.854	83.38
670.057	76.38
670.259	71.38
670.462	95.38
670.665	67.38
670.867	76.38
671.07	74.38
671.272	86.38
671.475	84.38
671.677	86.38
671.88	81.38
672.082	81.38
672.284	81.38
672.487	77.38
672.689	72.38
672.892	64.38
