Data from 1975.PennyLincolnUp.Lamp.En5.5.200Scan.071719.P1.Changed Mount._HRD10591_15-57-47-859.txt Node
Date: Thu Jul 18 15:57:47 EDT 2019
User: cochatt
Spectrometer: HR+D1059
Trigger mode: 1
Integration Time (sec): 1.000000E-1
Scans to average: 1
Electric dark correction enabled: true
Nonlinearity correction enabled: false
Boxcar width: 0
XAxis mode: Wavelengths
Number of Pixels in Spectrum: 2048
>>>>>Begin Spectral Data<<<<<
223.165	-12.44
223.4	-12.44
223.635	-12.44
223.869	-10.44
224.104	-10.44
224.338	-9.44
224.573	-12.44
224.808	-18.44
225.042	-0.44
225.277	-12.44
225.511	-22.44
225.746	0.56
225.98	-7.44
226.215	6.56
226.449	19.56
226.683	31.56
226.918	33.56
227.152	24.56
227.387	30.56
227.621	32.56
227.856	36.56
228.09	34.56
228.324	42.56
228.559	57.56
228.793	70.56
229.027	120.56
229.262	122.56
229.496	122.56
229.73	131.56
229.964	152.56
230.199	130.56
230.433	102.56
230.667	104.56
230.901	93.56
231.136	114.56
231.37	100.56
231.604	119.56
231.838	113.56
232.072	119.56
232.306	118.56
232.541	120.56
232.775	98.56
233.009	106.56
233.243	116.56
233.477	115.56
233.711	125.56
233.945	122.56
234.179	105.56
234.413	121.56
234.647	120.56
234.881	128.56
235.115	120.56
235.349	117.56
235.583	132.56
235.817	131.56
236.051	118.56
236.285	130.56
236.519	117.56
236.753	134.56
236.987	128.56
237.221	175.56
237.455	222.56
237.689	192.56
237.922	150.56
238.156	139.56
238.39	124.56
238.624	140.56
238.858	137.56
239.091	131.56
239.325	135.56
239.559	131.56
239.793	126.56
240.027	138.56
240.26	147.56
240.494	161.56
240.728	140.56
240.961	161.56
241.195	160.56
241.429	147.56
241.662	142.56
241.896	121.56
242.13	152.56
242.363	128.56
242.597	135.56
242.83	132.56
243.064	132.56
243.298	153.56
243.531	144.56
243.765	145.56
243.998	151.56
244.232	140.56
244.465	147.56
244.699	159.56
244.932	148.56
245.166	164.56
245.399	146.56
245.633	163.56
245.866	159.56
246.099	124.56
246.333	151.56
246.566	156.56
246.8	160.56
247.033	161.56
247.266	156.56
247.5	153.56
247.733	181.56
247.966	172.56
248.2	175.56
248.433	177.56
248.666	186.56
248.899	176.56
249.133	199.56
249.366	224.56
249.599	209.56
249.832	188.56
250.066	185.56
250.299	198.56
250.532	194.56
250.765	201.56
250.998	236.56
251.231	229.56
251.465	220.56
251.698	212.56
251.931	197.56
252.164	197.56
252.397	210.56
252.63	208.56
252.863	206.56
253.096	219.56
253.329	242.56
253.562	215.56
253.795	217.56
254.028	225.56
254.261	208.56
254.494	232.56
254.727	262.56
254.96	290.56
255.193	279.56
255.426	255.56
255.659	245.56
255.892	257.56
256.124	232.56
256.357	268.56
256.59	220.56
256.823	220.56
257.056	215.56
257.289	207.56
257.521	226.56
257.754	202.56
257.987	217.56
258.22	212.56
258.452	213.56
258.685	221.56
258.918	223.56
259.151	217.56
259.383	214.56
259.616	226.56
259.849	220.56
260.081	236.56
260.314	255.56
260.547	259.56
260.779	264.56
261.012	242.56
261.244	237.56
261.477	230.56
261.71	230.56
261.942	232.56
262.175	240.56
262.407	227.56
262.64	227.56
262.872	232.56
263.105	224.56
263.337	213.56
263.57	211.56
263.802	226.56
264.035	225.56
264.267	229.56
264.499	220.56
264.732	215.56
264.964	202.56
265.197	216.56
265.429	228.56
265.661	213.56
265.894	216.56
266.126	222.56
266.358	227.56
266.591	257.56
266.823	236.56
267.055	250.56
267.287	243.56
267.52	236.56
267.752	249.56
267.984	236.56
268.216	233.56
268.448	237.56
268.681	264.56
268.913	248.56
269.145	280.56
269.377	297.56
269.609	272.56
269.841	274.56
270.073	284.56
270.306	303.56
270.538	332.56
270.77	324.56
271.002	323.56
271.234	300.56
271.466	303.56
271.698	313.56
271.93	335.56
272.162	341.56
272.394	346.56
272.626	314.56
272.858	307.56
273.09	274.56
273.322	293.56
273.553	279.56
273.785	280.56
274.017	291.56
274.249	265.56
274.481	292.56
274.713	277.56
274.945	265.56
275.176	303.56
275.408	268.56
275.64	267.56
275.872	270.56
276.104	275.56
276.335	275.56
276.567	283.56
276.799	287.56
277.031	312.56
277.262	348.56
277.494	340.56
277.726	311.56
277.957	321.56
278.189	298.56
278.421	286.56
278.652	272.56
278.884	284.56
279.115	290.56
279.347	282.56
279.579	282.56
279.81	269.56
280.042	280.56
280.273	279.56
280.505	298.56
280.736	287.56
280.968	292.56
281.199	299.56
281.431	276.56
281.662	308.56
281.894	292.56
282.125	291.56
282.356	309.56
282.588	320.56
282.819	303.56
283.051	309.56
283.282	288.56
283.513	288.56
283.745	286.56
283.976	308.56
284.207	309.56
284.439	297.56
284.67	319.56
284.901	299.56
285.132	313.56
285.364	295.56
285.595	301.56
285.826	290.56
286.057	293.56
286.288	309.56
286.52	307.56
286.751	319.56
286.982	316.56
287.213	319.56
287.444	298.56
287.675	310.56
287.906	317.56
288.138	330.56
288.369	335.56
288.6	313.56
288.831	316.56
289.062	313.56
289.293	316.56
289.524	327.56
289.755	325.56
289.986	297.56
290.217	305.56
290.448	320.56
290.679	307.56
290.91	316.56
291.141	316.56
291.371	322.56
291.602	301.56
291.833	314.56
292.064	309.56
292.295	327.56
292.526	319.56
292.757	313.56
292.987	288.56
293.218	324.56
293.449	325.56
293.68	308.56
293.91	307.56
294.141	314.56
294.372	307.56
294.603	318.56
294.833	323.56
295.064	343.56
295.295	317.56
295.525	321.56
295.756	322.56
295.987	335.56
296.217	365.56
296.448	345.56
296.679	323.56
296.909	322.56
297.14	327.56
297.37	335.56
297.601	328.56
297.831	315.56
298.062	309.56
298.292	321.56
298.523	335.56
298.753	327.56
298.984	329.56
299.214	355.56
299.445	315.56
299.675	339.56
299.905	319.56
300.136	348.56
300.366	325.56
300.597	328.56
300.827	335.56
301.057	337.56
301.288	355.56
301.518	347.56
301.748	353.56
301.979	365.56
302.209	362.56
302.439	328.56
302.669	338.56
302.9	348.56
303.13	340.56
303.36	342.56
303.59	336.56
303.82	351.56
304.051	355.56
304.281	355.56
304.511	334.56
304.741	340.56
304.971	348.56
305.201	340.56
305.431	349.56
305.661	359.56
305.891	336.56
306.121	359.56
306.352	386.56
306.582	349.56
306.812	343.56
307.042	353.56
307.272	347.56
307.502	340.56
307.731	357.56
307.961	358.56
308.191	356.56
308.421	352.56
308.651	346.56
308.881	364.56
309.111	361.56
309.341	371.56
309.571	379.56
309.8	382.56
310.03	364.56
310.26	389.56
310.49	358.56
310.72	396.56
310.949	396.56
311.179	389.56
311.409	402.56
311.639	397.56
311.868	391.56
312.098	396.56
312.328	397.56
312.557	406.56
312.787	407.56
313.017	426.56
313.246	403.56
313.476	385.56
313.706	385.56
313.935	390.56
314.165	400.56
314.394	395.56
314.624	429.56
314.853	398.56
315.083	411.56
315.312	401.56
315.542	413.56
315.771	390.56
316.001	379.56
316.23	394.56
316.46	385.56
316.689	390.56
316.919	393.56
317.148	408.56
317.377	415.56
317.607	407.56
317.836	395.56
318.065	386.56
318.295	376.56
318.524	395.56
318.753	416.56
318.983	379.56
319.212	396.56
319.441	403.56
319.67	407.56
319.9	395.56
320.129	383.56
320.358	404.56
320.587	396.56
320.816	394.56
321.046	413.56
321.275	403.56
321.504	427.56
321.733	409.56
321.962	423.56
322.191	440.56
322.42	447.56
322.649	470.56
322.878	439.56
323.108	449.56
323.337	444.56
323.566	480.56
323.795	507.56
324.024	529.56
324.253	617.56
324.482	837.56
324.71	1276.56
324.939	1914.56
325.168	1713.56
325.397	872.56
325.626	602.56
325.855	515.56
326.084	487.56
326.313	484.56
326.542	488.56
326.77	515.56
326.999	612.56
327.228	800.56
327.457	1201.56
327.686	1541.56
327.914	1003.56
328.143	679.56
328.372	588.56
328.6	557.56
328.829	541.56
329.058	547.56
329.287	580.56
329.515	537.56
329.744	492.56
329.972	507.56
330.201	511.56
330.43	569.56
330.658	573.56
330.887	615.56
331.115	567.56
331.344	528.56
331.572	506.56
331.801	520.56
332.03	500.56
332.258	498.56
332.486	484.56
332.715	473.56
332.943	474.56
333.172	481.56
333.4	486.56
333.629	480.56
333.857	524.56
334.085	527.56
334.314	535.56
334.542	585.56
334.771	583.56
334.999	544.56
335.227	519.56
335.455	486.56
335.684	491.56
335.912	482.56
336.14	489.56
336.369	472.56
336.597	482.56
336.825	499.56
337.053	503.56
337.281	446.56
337.51	461.56
337.738	475.56
337.966	486.56
338.194	457.56
338.422	451.56
338.65	448.56
338.878	458.56
339.106	438.56
339.334	470.56
339.562	458.56
339.79	438.56
340.018	461.56
340.246	453.56
340.474	456.56
340.702	469.56
340.93	443.56
341.158	460.56
341.386	456.56
341.614	468.56
341.842	445.56
342.07	444.56
342.298	439.56
342.526	430.56
342.754	447.56
342.981	451.56
343.209	451.56
343.437	456.56
343.665	454.56
343.893	483.56
344.12	499.56
344.348	471.56
344.576	483.56
344.804	481.56
345.031	481.56
345.259	474.56
345.487	464.56
345.714	460.56
345.942	469.56
346.17	428.56
346.397	459.56
346.625	453.56
346.853	441.56
347.08	442.56
347.308	441.56
347.535	440.56
347.763	465.56
347.99	438.56
348.218	449.56
348.445	447.56
348.673	448.56
348.9	441.56
349.128	440.56
349.355	404.56
349.583	439.56
349.81	424.56
350.037	432.56
350.265	427.56
350.492	428.56
350.72	421.56
350.947	423.56
351.174	446.56
351.402	433.56
351.629	445.56
351.856	436.56
352.083	433.56
352.311	441.56
352.538	466.56
352.765	465.56
352.992	446.56
353.22	447.56
353.447	412.56
353.674	416.56
353.901	406.56
354.128	433.56
354.355	422.56
354.583	415.56
354.81	417.56
355.037	426.56
355.264	426.56
355.491	419.56
355.718	413.56
355.945	408.56
356.172	430.56
356.399	411.56
356.626	408.56
356.853	404.56
357.08	412.56
357.307	435.56
357.534	415.56
357.761	427.56
357.988	397.56
358.215	406.56
358.441	409.56
358.668	432.56
358.895	416.56
359.122	407.56
359.349	433.56
359.576	459.56
359.802	461.56
360.029	468.56
360.256	477.56
360.483	472.56
360.709	441.56
360.936	448.56
361.163	445.56
361.39	443.56
361.616	445.56
361.843	426.56
362.07	429.56
362.296	436.56
362.523	431.56
362.749	439.56
362.976	413.56
363.203	421.56
363.429	423.56
363.656	432.56
363.882	417.56
364.109	433.56
364.335	457.56
364.562	425.56
364.788	441.56
365.015	418.56
365.241	420.56
365.468	442.56
365.694	435.56
365.92	434.56
366.147	421.56
366.373	440.56
366.599	412.56
366.826	422.56
367.052	423.56
367.278	435.56
367.505	408.56
367.731	443.56
367.957	445.56
368.184	460.56
368.41	432.56
368.636	450.56
368.862	444.56
369.089	419.56
369.315	431.56
369.541	432.56
369.767	431.56
369.993	432.56
370.219	394.56
370.445	421.56
370.672	448.56
370.898	417.56
371.124	414.56
371.35	428.56
371.576	444.56
371.802	435.56
372.028	421.56
372.254	435.56
372.48	433.56
372.706	446.56
372.932	447.56
373.158	435.56
373.384	448.56
373.61	450.56
373.835	441.56
374.061	433.56
374.287	447.56
374.513	448.56
374.739	456.56
374.965	429.56
375.191	454.56
375.416	451.56
375.642	466.56
375.868	431.56
376.094	445.56
376.319	434.56
376.545	442.56
376.771	453.56
376.997	444.56
377.222	435.56
377.448	445.56
377.674	439.56
377.899	431.56
378.125	438.56
378.35	455.56
378.576	436.56
378.802	459.56
379.027	445.56
379.253	443.56
379.478	423.56
379.704	438.56
379.929	445.56
380.155	407.56
380.38	436.56
380.606	414.56
380.831	431.56
381.057	437.56
381.282	440.56
381.507	447.56
381.733	467.56
381.958	452.56
382.184	442.56
382.409	435.56
382.634	467.56
382.86	456.56
383.085	434.56
383.31	465.56
383.535	447.56
383.761	461.56
383.986	464.56
384.211	475.56
384.436	470.56
384.662	476.56
384.887	464.56
385.112	467.56
385.337	499.56
385.562	499.56
385.787	469.56
386.013	497.56
386.238	484.56
386.463	482.56
386.688	474.56
386.913	484.56
387.138	483.56
387.363	489.56
387.588	499.56
387.813	472.56
388.038	501.56
388.263	471.56
388.488	494.56
388.713	480.56
388.938	464.56
389.163	484.56
389.387	471.56
389.612	482.56
389.837	492.56
390.062	472.56
390.287	504.56
390.512	503.56
390.736	479.56
390.961	475.56
391.186	490.56
391.411	477.56
391.636	511.56
391.86	516.56
392.085	515.56
392.31	506.56
392.534	499.56
392.759	506.56
392.984	504.56
393.208	500.56
393.433	486.56
393.658	488.56
393.882	496.56
394.107	492.56
394.331	506.56
394.556	518.56
394.78	505.56
395.005	502.56
395.229	503.56
395.454	514.56
395.678	488.56
395.903	525.56
396.127	547.56
396.352	541.56
396.576	516.56
396.801	510.56
397.025	531.56
397.249	511.56
397.474	519.56
397.698	537.56
397.922	551.56
398.147	564.56
398.371	556.56
398.595	559.56
398.82	563.56
399.044	592.56
399.268	600.56
399.492	632.56
399.717	697.56
399.941	767.56
400.165	732.56
400.389	731.56
400.613	656.56
400.837	612.56
401.062	586.56
401.286	603.56
401.51	567.56
401.734	561.56
401.958	594.56
402.182	585.56
402.406	579.56
402.63	583.56
402.854	587.56
403.078	579.56
403.302	608.56
403.526	609.56
403.75	602.56
403.974	593.56
404.198	586.56
404.422	609.56
404.645	613.56
404.869	634.56
405.093	656.56
405.317	685.56
405.541	743.56
405.765	683.56
405.988	633.56
406.212	628.56
406.436	647.56
406.66	642.56
406.883	642.56
407.107	664.56
407.331	720.56
407.555	775.56
407.778	775.56
408.002	739.56
408.226	689.56
408.449	659.56
408.673	669.56
408.896	657.56
409.12	724.56
409.344	675.56
409.567	601.56
409.791	607.56
410.014	597.56
410.238	600.56
410.461	597.56
410.685	611.56
410.908	592.56
411.132	639.56
411.355	701.56
411.578	668.56
411.802	617.56
412.025	595.56
412.249	617.56
412.472	636.56
412.695	679.56
412.919	651.56
413.142	617.56
413.365	611.56
413.589	615.56
413.812	578.56
414.035	572.56
414.258	557.56
414.482	566.56
414.705	549.56
414.928	554.56
415.151	573.56
415.374	576.56
415.597	540.56
415.821	556.56
416.044	563.56
416.267	550.56
416.49	541.56
416.713	559.56
416.936	541.56
417.159	551.56
417.382	548.56
417.605	563.56
417.828	588.56
418.051	595.56
418.274	568.56
418.497	559.56
418.72	567.56
418.943	577.56
419.166	594.56
419.389	633.56
419.611	630.56
419.834	613.56
420.057	619.56
420.28	580.56
420.503	582.56
420.726	604.56
420.948	581.56
421.171	634.56
421.394	679.56
421.617	600.56
421.839	607.56
422.062	579.56
422.285	603.56
422.507	666.56
422.73	743.56
422.953	706.56
423.175	639.56
423.398	611.56
423.621	621.56
423.843	639.56
424.066	671.56
424.288	614.56
424.511	654.56
424.733	721.56
424.956	797.56
425.178	756.56
425.401	734.56
425.623	785.56
425.846	667.56
426.068	639.56
426.291	620.56
426.513	617.56
426.735	630.56
426.958	625.56
427.18	751.56
427.402	895.56
427.625	961.56
427.847	848.56
428.069	709.56
428.292	661.56
428.514	595.56
428.736	579.56
428.958	599.56
429.181	589.56
429.403	568.56
429.625	570.56
429.847	593.56
430.069	676.56
430.292	668.56
430.514	605.56
430.736	577.56
430.958	579.56
431.18	555.56
431.402	554.56
431.624	540.56
431.846	546.56
432.068	530.56
432.29	564.56
432.512	541.56
432.734	546.56
432.956	559.56
433.178	549.56
433.4	549.56
433.622	548.56
433.844	554.56
434.066	565.56
434.287	547.56
434.509	555.56
434.731	554.56
434.953	580.56
435.175	572.56
435.397	605.56
435.618	620.56
435.84	665.56
436.062	741.56
436.284	822.56
436.505	692.56
436.727	626.56
436.949	598.56
437.17	580.56
437.392	595.56
437.614	590.56
437.835	614.56
438.057	680.56
438.278	792.56
438.5	805.56
438.721	909.56
438.943	872.56
439.165	687.56
439.386	625.56
439.608	621.56
439.829	618.56
440.05	631.56
440.272	655.56
440.493	635.56
440.715	601.56
440.936	552.56
441.158	605.56
441.379	573.56
441.6	613.56
441.822	617.56
442.043	657.56
442.264	776.56
442.486	807.56
442.707	682.56
442.928	641.56
443.149	640.56
443.371	661.56
443.592	687.56
443.813	809.56
444.034	875.56
444.255	757.56
444.476	663.56
444.698	651.56
444.919	636.56
445.14	775.56
445.361	723.56
445.582	674.56
445.803	727.56
446.024	834.56
446.245	847.56
446.466	763.56
446.687	639.56
446.908	618.56
447.129	576.56
447.35	573.56
447.571	568.56
447.792	556.56
448.013	549.56
448.234	580.56
448.455	628.56
448.675	753.56
448.896	883.56
449.117	720.56
449.338	698.56
449.559	792.56
449.779	910.56
450	728.56
450.221	604.56
450.442	556.56
450.662	569.56
450.883	538.56
451.104	556.56
451.324	534.56
451.545	523.56
451.766	502.56
451.986	502.56
452.207	494.56
452.428	538.56
452.648	512.56
452.869	490.56
453.089	537.56
453.31	540.56
453.53	519.56
453.751	508.56
453.971	481.56
454.192	510.56
454.412	489.56
454.633	488.56
454.853	487.56
455.073	502.56
455.294	510.56
455.514	608.56
455.734	593.56
455.955	506.56
456.175	486.56
456.395	483.56
456.616	481.56
456.836	491.56
457.056	481.56
457.276	472.56
457.497	493.56
457.717	485.56
457.937	480.56
458.157	493.56
458.377	509.56
458.598	503.56
458.818	561.56
459.038	628.56
459.258	671.56
459.478	598.56
459.698	541.56
459.918	531.56
460.138	568.56
460.358	541.56
460.578	567.56
460.798	564.56
461.018	594.56
461.238	565.56
461.458	551.56
461.678	562.56
461.898	587.56
462.118	572.56
462.338	593.56
462.558	617.56
462.777	577.56
462.997	618.56
463.217	636.56
463.437	649.56
463.657	648.56
463.876	601.56
464.096	626.56
464.316	625.56
464.536	639.56
464.755	608.56
464.975	620.56
465.195	622.56
465.414	699.56
465.634	595.56
465.854	588.56
466.073	548.56
466.293	543.56
466.512	517.56
466.732	519.56
466.951	517.56
467.171	523.56
467.391	521.56
467.61	512.56
467.829	533.56
468.049	523.56
468.268	499.56
468.488	519.56
468.707	488.56
468.927	517.56
469.146	519.56
469.365	521.56
469.585	501.56
469.804	526.56
470.023	527.56
470.243	531.56
470.462	539.56
470.681	527.56
470.901	536.56
471.12	520.56
471.339	521.56
471.558	520.56
471.777	539.56
471.997	548.56
472.216	519.56
472.435	550.56
472.654	536.56
472.873	532.56
473.092	526.56
473.311	527.56
473.53	521.56
473.749	538.56
473.968	581.56
474.187	675.56
474.406	686.56
474.625	581.56
474.844	557.56
475.063	511.56
475.282	531.56
475.501	523.56
475.72	536.56
475.939	526.56
476.158	530.56
476.377	549.56
476.596	530.56
476.814	554.56
477.033	546.56
477.252	544.56
477.471	567.56
477.69	574.56
477.908	586.56
478.127	584.56
478.346	591.56
478.564	589.56
478.783	584.56
479.002	629.56
479.22	611.56
479.439	613.56
479.658	610.56
479.876	620.56
480.095	645.56
480.313	665.56
480.532	671.56
480.751	670.56
480.969	664.56
481.188	711.56
481.406	732.56
481.624	655.56
481.843	634.56
482.061	641.56
482.28	633.56
482.498	613.56
482.717	616.56
482.935	625.56
483.153	598.56
483.372	615.56
483.59	623.56
483.808	587.56
484.027	597.56
484.245	618.56
484.463	617.56
484.681	625.56
484.9	635.56
485.118	625.56
485.336	612.56
485.554	645.56
485.772	659.56
485.99	641.56
486.209	640.56
486.427	638.56
486.645	653.56
486.863	646.56
487.081	662.56
487.299	671.56
487.517	660.56
487.735	643.56
487.953	653.56
488.171	654.56
488.389	643.56
488.607	636.56
488.825	667.56
489.043	662.56
489.261	685.56
489.479	679.56
489.696	698.56
489.914	680.56
490.132	677.56
490.35	691.56
490.568	705.56
490.786	691.56
491.003	708.56
491.221	733.56
491.439	736.56
491.657	738.56
491.874	761.56
492.092	748.56
492.31	761.56
492.527	769.56
492.745	774.56
492.963	790.56
493.18	784.56
493.398	782.56
493.615	772.56
493.833	781.56
494.05	762.56
494.268	795.56
494.485	772.56
494.703	786.56
494.92	789.56
495.138	770.56
495.355	766.56
495.573	803.56
495.79	796.56
496.008	823.56
496.225	776.56
496.442	795.56
496.66	808.56
496.877	795.56
497.094	808.56
497.312	810.56
497.529	822.56
497.746	811.56
497.963	846.56
498.181	874.56
498.398	882.56
498.615	889.56
498.832	908.56
499.049	961.56
499.267	974.56
499.484	1016.56
499.701	1073.56
499.918	1101.56
500.135	1195.56
500.352	1235.56
500.569	1267.56
500.786	1292.56
501.003	1233.56
501.22	1177.56
501.437	1120.56
501.654	1090.56
501.871	1048.56
502.088	1015.56
502.305	954.56
502.522	921.56
502.739	889.56
502.956	874.56
503.172	832.56
503.389	840.56
503.606	824.56
503.823	812.56
504.04	796.56
504.256	778.56
504.473	815.56
504.69	819.56
504.907	816.56
505.123	792.56
505.34	760.56
505.557	740.56
505.773	773.56
505.99	744.56
506.207	772.56
506.423	743.56
506.64	742.56
506.856	724.56
507.073	727.56
507.289	736.56
507.506	700.56
507.722	729.56
507.939	730.56
508.155	712.56
508.372	694.56
508.588	711.56
508.805	694.56
509.021	716.56
509.238	706.56
509.454	725.56
509.67	693.56
509.887	685.56
510.103	681.56
510.319	682.56
510.536	734.56
510.752	1129.56
510.968	938.56
511.184	663.56
511.401	643.56
511.617	675.56
511.833	622.56
512.049	636.56
512.265	667.56
512.481	632.56
512.698	635.56
512.914	648.56
513.13	650.56
513.346	643.56
513.562	622.56
513.778	627.56
513.994	668.56
514.21	662.56
514.426	652.56
514.642	698.56
514.858	727.56
515.074	743.56
515.29	826.56
515.506	1117.56
515.721	978.56
515.937	753.56
516.153	701.56
516.369	686.56
516.585	698.56
516.801	684.56
517.016	701.56
517.232	705.56
517.448	716.56
517.664	683.56
517.879	735.56
518.095	702.56
518.311	707.56
518.527	714.56
518.742	685.56
518.958	689.56
519.173	687.56
519.389	658.56
519.605	664.56
519.82	659.56
520.036	683.56
520.251	676.56
520.467	698.56
520.682	678.56
520.898	684.56
521.113	682.56
521.329	723.56
521.544	777.56
521.76	919.56
521.975	1339.56
522.19	1350.56
522.406	826.56
522.621	679.56
522.836	612.56
523.052	630.56
523.267	620.56
523.482	584.56
523.698	573.56
523.913	592.56
524.128	581.56
524.343	575.56
524.559	567.56
524.774	566.56
524.989	580.56
525.204	573.56
525.419	575.56
525.634	561.56
525.849	565.56
526.064	547.56
526.28	552.56
526.495	549.56
526.71	519.56
526.925	532.56
527.14	522.56
527.355	543.56
527.57	565.56
527.785	516.56
527.999	519.56
528.214	524.56
528.429	534.56
528.644	564.56
528.859	563.56
529.074	540.56
529.289	553.56
529.503	600.56
529.718	600.56
529.933	592.56
530.148	548.56
530.363	536.56
530.577	520.56
530.792	511.56
531.007	517.56
531.221	523.56
531.436	518.56
531.651	496.56
531.865	536.56
532.08	533.56
532.295	515.56
532.509	504.56
532.724	511.56
532.938	518.56
533.153	517.56
533.367	522.56
533.582	534.56
533.796	523.56
534.011	523.56
534.225	518.56
534.44	507.56
534.654	520.56
534.868	512.56
535.083	525.56
535.297	513.56
535.511	521.56
535.726	540.56
535.94	522.56
536.154	495.56
536.369	493.56
536.583	510.56
536.797	499.56
537.011	523.56
537.225	521.56
537.44	469.56
537.654	493.56
537.868	500.56
538.082	515.56
538.296	513.56
538.51	525.56
538.724	492.56
538.938	491.56
539.153	486.56
539.367	511.56
539.581	514.56
539.795	492.56
540.009	500.56
540.222	491.56
540.436	513.56
540.65	493.56
540.864	501.56
541.078	522.56
541.292	516.56
541.506	515.56
541.72	523.56
541.934	502.56
542.147	496.56
542.361	508.56
542.575	479.56
542.789	471.56
543.002	489.56
543.216	489.56
543.43	511.56
543.644	496.56
543.857	498.56
544.071	494.56
544.285	496.56
544.498	485.56
544.712	491.56
544.925	497.56
545.139	502.56
545.352	497.56
545.566	515.56
545.779	502.56
545.993	500.56
546.206	479.56
546.42	478.56
546.633	491.56
546.847	490.56
547.06	485.56
547.274	500.56
547.487	473.56
547.7	497.56
547.914	481.56
548.127	478.56
548.34	505.56
548.554	492.56
548.767	495.56
548.98	492.56
549.193	501.56
549.407	483.56
549.62	493.56
549.833	468.56
550.046	463.56
550.259	489.56
550.473	460.56
550.686	484.56
550.899	472.56
551.112	478.56
551.325	468.56
551.538	461.56
551.751	471.56
551.964	443.56
552.177	484.56
552.39	468.56
552.603	478.56
552.816	472.56
553.029	508.56
553.242	497.56
553.455	513.56
553.667	522.56
553.88	516.56
554.093	501.56
554.306	499.56
554.519	493.56
554.732	487.56
554.944	491.56
555.157	460.56
555.37	471.56
555.583	462.56
555.795	457.56
556.008	450.56
556.221	449.56
556.433	426.56
556.646	431.56
556.859	423.56
557.071	437.56
557.284	421.56
557.496	451.56
557.709	452.56
557.921	444.56
558.134	428.56
558.346	437.56
558.559	449.56
558.771	420.56
558.984	404.56
559.196	417.56
559.409	411.56
559.621	441.56
559.833	434.56
560.046	427.56
560.258	400.56
560.47	405.56
560.683	413.56
560.895	410.56
561.107	424.56
561.32	434.56
561.532	440.56
561.744	439.56
561.956	438.56
562.168	420.56
562.381	421.56
562.593	464.56
562.805	435.56
563.017	435.56
563.229	442.56
563.441	446.56
563.653	431.56
563.865	433.56
564.077	445.56
564.289	447.56
564.501	453.56
564.713	439.56
564.925	456.56
565.137	477.56
565.349	455.56
565.561	474.56
565.773	483.56
565.985	506.56
566.197	515.56
566.408	521.56
566.62	555.56
566.832	543.56
567.044	581.56
567.255	568.56
567.467	575.56
567.679	600.56
567.891	620.56
568.102	603.56
568.314	585.56
568.526	568.56
568.737	546.56
568.949	495.56
569.161	502.56
569.372	476.56
569.584	453.56
569.795	449.56
570.007	451.56
570.218	476.56
570.43	474.56
570.641	465.56
570.853	446.56
571.064	434.56
571.276	425.56
571.487	428.56
571.698	397.56
571.91	406.56
572.121	407.56
572.333	403.56
572.544	386.56
572.755	385.56
572.966	381.56
573.178	371.56
573.389	389.56
573.6	378.56
573.811	369.56
574.023	378.56
574.234	384.56
574.445	388.56
574.656	355.56
574.867	367.56
575.078	374.56
575.289	365.56
575.501	363.56
575.712	363.56
575.923	371.56
576.134	356.56
576.345	360.56
576.556	364.56
576.767	361.56
576.978	374.56
577.188	353.56
577.399	361.56
577.61	348.56
577.821	350.56
578.032	374.56
578.243	380.56
578.454	548.56
578.665	423.56
578.875	351.56
579.086	344.56
579.297	337.56
579.508	340.56
579.718	346.56
579.929	341.56
580.14	358.56
580.35	333.56
580.561	336.56
580.772	348.56
580.982	339.56
581.193	346.56
581.403	342.56
581.614	330.56
581.825	345.56
582.035	330.56
582.246	324.56
582.456	322.56
582.667	348.56
582.877	334.56
583.087	331.56
583.298	333.56
583.508	322.56
583.719	339.56
583.929	336.56
584.139	337.56
584.35	336.56
584.56	342.56
584.77	323.56
584.981	324.56
585.191	337.56
585.401	315.56
585.611	325.56
585.821	322.56
586.032	320.56
586.242	326.56
586.452	314.56
586.662	313.56
586.872	320.56
587.082	327.56
587.292	318.56
587.502	324.56
587.713	325.56
587.923	333.56
588.133	330.56
588.343	330.56
588.553	320.56
588.762	319.56
588.972	326.56
589.182	320.56
589.392	305.56
589.602	324.56
589.812	315.56
590.022	325.56
590.232	311.56
590.441	319.56
590.651	310.56
590.861	308.56
591.071	329.56
591.281	348.56
591.49	311.56
591.7	315.56
591.91	334.56
592.119	322.56
592.329	360.56
592.539	348.56
592.748	347.56
592.958	343.56
593.167	341.56
593.377	360.56
593.587	359.56
593.796	345.56
594.006	363.56
594.215	365.56
594.424	361.56
594.634	359.56
594.843	347.56
595.053	349.56
595.262	346.56
595.472	342.56
595.681	328.56
595.89	335.56
596.1	322.56
596.309	327.56
596.518	328.56
596.727	298.56
596.937	310.56
597.146	319.56
597.355	308.56
597.564	287.56
597.774	291.56
597.983	289.56
598.192	307.56
598.401	290.56
598.61	311.56
598.819	303.56
599.028	281.56
599.237	286.56
599.446	291.56
599.655	261.56
599.864	289.56
600.073	283.56
600.282	294.56
600.491	287.56
600.7	278.56
600.909	273.56
601.118	265.56
601.327	280.56
601.536	283.56
601.745	294.56
601.953	292.56
602.162	279.56
602.371	261.56
602.58	291.56
602.789	274.56
602.997	278.56
603.206	277.56
603.415	288.56
603.623	284.56
603.832	285.56
604.041	271.56
604.249	273.56
604.458	269.56
604.666	284.56
604.875	247.56
605.084	267.56
605.292	255.56
605.501	279.56
605.709	275.56
605.918	274.56
606.126	272.56
606.334	254.56
606.543	288.56
606.751	269.56
606.96	278.56
607.168	259.56
607.376	263.56
607.585	270.56
607.793	267.56
608.001	257.56
608.21	254.56
608.418	247.56
608.626	265.56
608.834	268.56
609.043	258.56
609.251	276.56
609.459	257.56
609.667	269.56
609.875	258.56
610.083	247.56
610.291	268.56
610.499	268.56
610.707	247.56
610.916	256.56
611.124	262.56
611.332	271.56
611.54	275.56
611.748	272.56
611.955	260.56
612.163	248.56
612.371	247.56
612.579	270.56
612.787	256.56
612.995	261.56
613.203	267.56
613.411	248.56
613.618	261.56
613.826	247.56
614.034	263.56
614.242	275.56
614.449	253.56
614.657	264.56
614.865	263.56
615.072	253.56
615.28	267.56
615.488	262.56
615.695	252.56
615.903	244.56
616.111	273.56
616.318	256.56
616.526	258.56
616.733	249.56
616.941	264.56
617.148	240.56
617.356	255.56
617.563	237.56
617.771	266.56
617.978	273.56
618.185	248.56
618.393	245.56
618.6	249.56
618.807	254.56
619.015	264.56
619.222	254.56
619.429	256.56
619.637	254.56
619.844	259.56
620.051	248.56
620.258	256.56
620.466	231.56
620.673	236.56
620.88	231.56
621.087	245.56
621.294	239.56
621.501	229.56
621.708	235.56
621.915	247.56
622.122	226.56
622.329	245.56
622.536	229.56
622.743	225.56
622.95	240.56
623.157	227.56
623.364	239.56
623.571	228.56
623.778	227.56
623.985	236.56
624.192	227.56
624.399	231.56
624.606	224.56
624.812	243.56
625.019	223.56
625.226	243.56
625.433	236.56
625.639	227.56
625.846	220.56
626.053	236.56
626.259	227.56
626.466	211.56
626.673	214.56
626.879	204.56
627.086	228.56
627.293	232.56
627.499	217.56
627.706	224.56
627.912	215.56
628.119	219.56
628.325	216.56
628.532	214.56
628.738	208.56
628.945	218.56
629.151	216.56
629.357	223.56
629.564	212.56
629.77	224.56
629.976	200.56
630.183	221.56
630.389	197.56
630.595	212.56
630.802	216.56
631.008	216.56
631.214	209.56
631.42	213.56
631.627	208.56
631.833	203.56
632.039	208.56
632.245	208.56
632.451	212.56
632.657	208.56
632.863	184.56
633.069	201.56
633.275	198.56
633.481	202.56
633.688	196.56
633.893	203.56
634.099	197.56
634.305	200.56
634.511	196.56
634.717	200.56
634.923	198.56
635.129	196.56
635.335	202.56
635.541	190.56
635.747	200.56
635.952	196.56
636.158	193.56
636.364	197.56
636.57	220.56
636.775	191.56
636.981	203.56
637.187	199.56
637.392	194.56
637.598	176.56
637.804	204.56
638.009	197.56
638.215	195.56
638.421	199.56
638.626	188.56
638.832	197.56
639.037	199.56
639.243	179.56
639.448	207.56
639.654	194.56
639.859	196.56
640.065	180.56
640.27	188.56
640.475	174.56
640.681	177.56
640.886	176.56
641.091	192.56
641.297	181.56
641.502	183.56
641.707	177.56
641.913	180.56
642.118	175.56
642.323	179.56
642.528	180.56
642.733	180.56
642.939	182.56
643.144	169.56
643.349	177.56
643.554	164.56
643.759	169.56
643.964	172.56
644.169	194.56
644.374	177.56
644.579	166.56
644.784	173.56
644.989	175.56
645.194	171.56
645.399	179.56
645.604	177.56
645.809	178.56
646.014	171.56
646.219	186.56
646.423	193.56
646.628	182.56
646.833	188.56
647.038	169.56
647.243	183.56
647.447	189.56
647.652	176.56
647.857	191.56
648.062	175.56
648.266	175.56
648.471	179.56
648.676	176.56
648.88	174.56
649.085	194.56
649.289	186.56
649.494	182.56
649.698	198.56
649.903	194.56
650.107	192.56
650.312	173.56
650.516	179.56
650.721	162.56
650.925	165.56
651.13	173.56
651.334	157.56
651.539	166.56
651.743	171.56
651.947	160.56
652.152	160.56
652.356	144.56
652.56	159.56
652.764	153.56
652.969	170.56
653.173	140.56
653.377	159.56
653.581	136.56
653.785	149.56
653.99	162.56
654.194	153.56
654.398	152.56
654.602	153.56
654.806	155.56
655.01	153.56
655.214	144.56
655.418	138.56
655.622	136.56
655.826	143.56
656.03	147.56
656.234	132.56
656.438	140.56
656.642	155.56
656.846	145.56
657.049	140.56
657.253	123.56
657.457	119.56
657.661	113.56
657.865	131.56
658.068	123.56
658.272	115.56
658.476	108.56
658.68	103.56
658.883	107.56
659.087	101.56
659.291	99.56
659.494	103.56
659.698	111.56
659.901	79.56
660.105	95.56
660.309	104.56
660.512	103.56
660.716	98.56
660.919	104.56
661.123	91.56
661.326	92.56
661.53	81.56
661.733	90.56
661.936	87.56
662.14	86.56
662.343	88.56
662.546	90.56
662.75	84.56
662.953	94.56
663.156	93.56
663.36	83.56
663.563	95.56
663.766	80.56
663.969	87.56
664.173	85.56
664.376	90.56
664.579	86.56
664.782	92.56
664.985	86.56
665.188	80.56
665.391	68.56
665.594	82.56
665.797	85.56
666	78.56
666.203	80.56
666.406	84.56
666.609	81.56
666.812	75.56
667.015	75.56
667.218	73.56
667.421	90.56
667.624	80.56
667.827	88.56
668.03	93.56
668.232	87.56
668.435	73.56
668.638	79.56
668.841	91.56
669.043	77.56
669.246	85.56
669.449	73.56
669.651	100.56
669.854	84.56
670.057	70.56
670.259	86.56
670.462	82.56
670.665	72.56
670.867	79.56
671.07	91.56
671.272	63.56
671.475	87.56
671.677	76.56
671.88	90.56
672.082	73.56
672.284	71.56
672.487	80.56
672.689	84.56
672.892	77.56
