Data from 1975.PennyLincolnUp.Lamp.En5.5.200Scan.071719.P1.Changed Mount._HRD10591_15-58-19-859.txt Node
Date: Thu Jul 18 15:58:19 EDT 2019
User: cochatt
Spectrometer: HR+D1059
Trigger mode: 1
Integration Time (sec): 1.000000E-1
Scans to average: 1
Electric dark correction enabled: true
Nonlinearity correction enabled: false
Boxcar width: 0
XAxis mode: Wavelengths
Number of Pixels in Spectrum: 2048
>>>>>Begin Spectral Data<<<<<
223.165	-10.31
223.4	-10.31
223.635	-10.31
223.869	-27.31
224.104	-26.31
224.338	1.69
224.573	-21.31
224.808	-4.31
225.042	-4.31
225.277	-10.31
225.511	6.69
225.746	6.69
225.98	9.69
226.215	10.69
226.449	11.69
226.683	8.69
226.918	20.69
227.152	27.69
227.387	19.69
227.621	40.69
227.856	33.69
228.09	58.69
228.324	54.69
228.559	48.69
228.793	62.69
229.027	93.69
229.262	94.69
229.496	111.69
229.73	122.69
229.964	148.69
230.199	133.69
230.433	110.69
230.667	119.69
230.901	107.69
231.136	103.69
231.37	117.69
231.604	108.69
231.838	123.69
232.072	116.69
232.306	118.69
232.541	106.69
232.775	124.69
233.009	112.69
233.243	128.69
233.477	116.69
233.711	107.69
233.945	114.69
234.179	120.69
234.413	108.69
234.647	122.69
234.881	121.69
235.115	105.69
235.349	116.69
235.583	120.69
235.817	128.69
236.051	114.69
236.285	141.69
236.519	116.69
236.753	133.69
236.987	133.69
237.221	173.69
237.455	214.69
237.689	186.69
237.922	134.69
238.156	140.69
238.39	130.69
238.624	133.69
238.858	121.69
239.091	130.69
239.325	129.69
239.559	109.69
239.793	140.69
240.027	119.69
240.26	144.69
240.494	154.69
240.728	154.69
240.961	148.69
241.195	157.69
241.429	124.69
241.662	130.69
241.896	126.69
242.13	132.69
242.363	124.69
242.597	128.69
242.83	148.69
243.064	134.69
243.298	138.69
243.531	160.69
243.765	145.69
243.998	156.69
244.232	146.69
244.465	141.69
244.699	147.69
244.932	150.69
245.166	144.69
245.399	132.69
245.633	155.69
245.866	160.69
246.099	154.69
246.333	163.69
246.566	136.69
246.8	151.69
247.033	157.69
247.266	155.69
247.5	160.69
247.733	176.69
247.966	159.69
248.2	178.69
248.433	173.69
248.666	182.69
248.899	174.69
249.133	197.69
249.366	204.69
249.599	191.69
249.832	200.69
250.066	178.69
250.299	191.69
250.532	185.69
250.765	189.69
250.998	222.69
251.231	229.69
251.465	209.69
251.698	186.69
251.931	216.69
252.164	177.69
252.397	190.69
252.63	189.69
252.863	202.69
253.096	188.69
253.329	219.69
253.562	217.69
253.795	200.69
254.028	206.69
254.261	214.69
254.494	221.69
254.727	251.69
254.96	266.69
255.193	260.69
255.426	242.69
255.659	228.69
255.892	224.69
256.124	249.69
256.357	244.69
256.59	239.69
256.823	226.69
257.056	211.69
257.289	211.69
257.521	212.69
257.754	229.69
257.987	210.69
258.22	214.69
258.452	205.69
258.685	213.69
258.918	204.69
259.151	204.69
259.383	224.69
259.616	227.69
259.849	236.69
260.081	242.69
260.314	258.69
260.547	254.69
260.779	265.69
261.012	251.69
261.244	233.69
261.477	240.69
261.71	214.69
261.942	214.69
262.175	216.69
262.407	252.69
262.64	216.69
262.872	215.69
263.105	212.69
263.337	204.69
263.57	244.69
263.802	229.69
264.035	214.69
264.267	211.69
264.499	195.69
264.732	208.69
264.964	212.69
265.197	210.69
265.429	230.69
265.661	229.69
265.894	220.69
266.126	211.69
266.358	228.69
266.591	230.69
266.823	235.69
267.055	221.69
267.287	233.69
267.52	226.69
267.752	223.69
267.984	226.69
268.216	230.69
268.448	231.69
268.681	233.69
268.913	234.69
269.145	230.69
269.377	282.69
269.609	273.69
269.841	277.69
270.073	260.69
270.306	288.69
270.538	307.69
270.77	326.69
271.002	300.69
271.234	315.69
271.466	292.69
271.698	322.69
271.93	301.69
272.162	310.69
272.394	328.69
272.626	322.69
272.858	285.69
273.09	270.69
273.322	277.69
273.553	274.69
273.785	266.69
274.017	270.69
274.249	263.69
274.481	278.69
274.713	281.69
274.945	301.69
275.176	281.69
275.408	274.69
275.64	278.69
275.872	264.69
276.104	283.69
276.335	263.69
276.567	278.69
276.799	280.69
277.031	306.69
277.262	324.69
277.494	323.69
277.726	327.69
277.957	298.69
278.189	292.69
278.421	278.69
278.652	283.69
278.884	277.69
279.115	285.69
279.347	268.69
279.579	278.69
279.81	282.69
280.042	269.69
280.273	284.69
280.505	266.69
280.736	283.69
280.968	286.69
281.199	282.69
281.431	292.69
281.662	289.69
281.894	297.69
282.125	287.69
282.356	309.69
282.588	314.69
282.819	301.69
283.051	283.69
283.282	270.69
283.513	282.69
283.745	322.69
283.976	276.69
284.207	316.69
284.439	314.69
284.67	281.69
284.901	292.69
285.132	306.69
285.364	282.69
285.595	292.69
285.826	270.69
286.057	288.69
286.288	297.69
286.52	291.69
286.751	304.69
286.982	292.69
287.213	264.69
287.444	299.69
287.675	293.69
287.906	298.69
288.138	317.69
288.369	325.69
288.6	317.69
288.831	324.69
289.062	309.69
289.293	326.69
289.524	309.69
289.755	299.69
289.986	297.69
290.217	299.69
290.448	295.69
290.679	294.69
290.91	284.69
291.141	297.69
291.371	282.69
291.602	306.69
291.833	293.69
292.064	295.69
292.295	296.69
292.526	301.69
292.757	284.69
292.987	318.69
293.218	316.69
293.449	308.69
293.68	299.69
293.91	292.69
294.141	284.69
294.372	312.69
294.603	286.69
294.833	311.69
295.064	304.69
295.295	307.69
295.525	308.69
295.756	302.69
295.987	303.69
296.217	328.69
296.448	339.69
296.679	314.69
296.909	310.69
297.14	302.69
297.37	321.69
297.601	307.69
297.831	308.69
298.062	325.69
298.292	317.69
298.523	328.69
298.753	321.69
298.984	325.69
299.214	308.69
299.445	320.69
299.675	319.69
299.905	326.69
300.136	341.69
300.366	326.69
300.597	334.69
300.827	340.69
301.057	339.69
301.288	325.69
301.518	341.69
301.748	333.69
301.979	333.69
302.209	348.69
302.439	345.69
302.669	354.69
302.9	334.69
303.13	337.69
303.36	339.69
303.59	342.69
303.82	355.69
304.051	344.69
304.281	329.69
304.511	327.69
304.741	339.69
304.971	324.69
305.201	341.69
305.431	346.69
305.661	335.69
305.891	339.69
306.121	343.69
306.352	331.69
306.582	347.69
306.812	340.69
307.042	345.69
307.272	335.69
307.502	356.69
307.731	340.69
307.961	334.69
308.191	353.69
308.421	363.69
308.651	345.69
308.881	348.69
309.111	342.69
309.341	346.69
309.571	332.69
309.8	370.69
310.03	340.69
310.26	382.69
310.49	371.69
310.72	381.69
310.949	387.69
311.179	393.69
311.409	371.69
311.639	371.69
311.868	379.69
312.098	403.69
312.328	389.69
312.557	390.69
312.787	378.69
313.017	414.69
313.246	387.69
313.476	394.69
313.706	366.69
313.935	392.69
314.165	408.69
314.394	386.69
314.624	413.69
314.853	392.69
315.083	390.69
315.312	370.69
315.542	382.69
315.771	391.69
316.001	386.69
316.23	377.69
316.46	391.69
316.689	405.69
316.919	395.69
317.148	409.69
317.377	390.69
317.607	372.69
317.836	377.69
318.065	388.69
318.295	378.69
318.524	388.69
318.753	371.69
318.983	376.69
319.212	374.69
319.441	385.69
319.67	390.69
319.9	418.69
320.129	392.69
320.358	379.69
320.587	390.69
320.816	395.69
321.046	404.69
321.275	393.69
321.504	401.69
321.733	402.69
321.962	389.69
322.191	398.69
322.42	422.69
322.649	426.69
322.878	422.69
323.108	434.69
323.337	457.69
323.566	461.69
323.795	482.69
324.024	508.69
324.253	583.69
324.482	812.69
324.71	1256.69
324.939	1834.69
325.168	1640.69
325.397	834.69
325.626	589.69
325.855	503.69
326.084	500.69
326.313	473.69
326.542	479.69
326.77	499.69
326.999	576.69
327.228	754.69
327.457	1150.69
327.686	1457.69
327.914	960.69
328.143	631.69
328.372	567.69
328.6	529.69
328.829	506.69
329.058	535.69
329.287	540.69
329.515	510.69
329.744	507.69
329.972	484.69
330.201	515.69
330.43	535.69
330.658	551.69
330.887	579.69
331.115	571.69
331.344	480.69
331.572	489.69
331.801	494.69
332.03	475.69
332.258	466.69
332.486	472.69
332.715	459.69
332.943	470.69
333.172	469.69
333.4	484.69
333.629	488.69
333.857	513.69
334.085	509.69
334.314	496.69
334.542	568.69
334.771	562.69
334.999	523.69
335.227	505.69
335.455	479.69
335.684	448.69
335.912	464.69
336.14	486.69
336.369	467.69
336.597	467.69
336.825	481.69
337.053	467.69
337.281	456.69
337.51	450.69
337.738	475.69
337.966	452.69
338.194	457.69
338.422	455.69
338.65	442.69
338.878	441.69
339.106	426.69
339.334	456.69
339.562	456.69
339.79	440.69
340.018	445.69
340.246	408.69
340.474	447.69
340.702	441.69
340.93	461.69
341.158	459.69
341.386	437.69
341.614	432.69
341.842	453.69
342.07	440.69
342.298	424.69
342.526	445.69
342.754	423.69
342.981	407.69
343.209	423.69
343.437	422.69
343.665	429.69
343.893	455.69
344.12	485.69
344.348	469.69
344.576	456.69
344.804	468.69
345.031	476.69
345.259	454.69
345.487	453.69
345.714	441.69
345.942	448.69
346.17	444.69
346.397	434.69
346.625	423.69
346.853	419.69
347.08	429.69
347.308	415.69
347.535	442.69
347.763	422.69
347.99	457.69
348.218	449.69
348.445	442.69
348.673	419.69
348.9	426.69
349.128	405.69
349.355	427.69
349.583	414.69
349.81	419.69
350.037	419.69
350.265	413.69
350.492	414.69
350.72	439.69
350.947	440.69
351.174	420.69
351.402	420.69
351.629	425.69
351.856	422.69
352.083	443.69
352.311	413.69
352.538	433.69
352.765	429.69
352.992	430.69
353.22	409.69
353.447	424.69
353.674	418.69
353.901	417.69
354.128	392.69
354.355	408.69
354.583	381.69
354.81	426.69
355.037	422.69
355.264	396.69
355.491	414.69
355.718	405.69
355.945	415.69
356.172	414.69
356.399	398.69
356.626	404.69
356.853	410.69
357.08	399.69
357.307	423.69
357.534	418.69
357.761	418.69
357.988	405.69
358.215	422.69
358.441	416.69
358.668	411.69
358.895	400.69
359.122	422.69
359.349	403.69
359.576	429.69
359.802	447.69
360.029	459.69
360.256	465.69
360.483	464.69
360.709	444.69
360.936	426.69
361.163	438.69
361.39	437.69
361.616	430.69
361.843	410.69
362.07	421.69
362.296	426.69
362.523	421.69
362.749	422.69
362.976	426.69
363.203	418.69
363.429	402.69
363.656	406.69
363.882	419.69
364.109	395.69
364.335	417.69
364.562	423.69
364.788	419.69
365.015	427.69
365.241	426.69
365.468	404.69
365.694	428.69
365.92	423.69
366.147	420.69
366.373	411.69
366.599	437.69
366.826	417.69
367.052	444.69
367.278	432.69
367.505	397.69
367.731	410.69
367.957	388.69
368.184	436.69
368.41	433.69
368.636	438.69
368.862	446.69
369.089	437.69
369.315	403.69
369.541	422.69
369.767	431.69
369.993	412.69
370.219	415.69
370.445	424.69
370.672	417.69
370.898	410.69
371.124	398.69
371.35	421.69
371.576	419.69
371.802	417.69
372.028	432.69
372.254	439.69
372.48	417.69
372.706	432.69
372.932	454.69
373.158	427.69
373.384	428.69
373.61	416.69
373.835	409.69
374.061	420.69
374.287	427.69
374.513	418.69
374.739	437.69
374.965	437.69
375.191	439.69
375.416	441.69
375.642	412.69
375.868	438.69
376.094	420.69
376.319	419.69
376.545	405.69
376.771	446.69
376.997	417.69
377.222	416.69
377.448	405.69
377.674	421.69
377.899	414.69
378.125	419.69
378.35	406.69
378.576	434.69
378.802	428.69
379.027	411.69
379.253	417.69
379.478	428.69
379.704	416.69
379.929	413.69
380.155	413.69
380.38	424.69
380.606	410.69
380.831	406.69
381.057	425.69
381.282	423.69
381.507	453.69
381.733	434.69
381.958	414.69
382.184	425.69
382.409	432.69
382.634	432.69
382.86	433.69
383.085	456.69
383.31	438.69
383.535	435.69
383.761	444.69
383.986	455.69
384.211	464.69
384.436	454.69
384.662	477.69
384.887	464.69
385.112	470.69
385.337	473.69
385.562	473.69
385.787	460.69
386.013	465.69
386.238	476.69
386.463	464.69
386.688	467.69
386.913	464.69
387.138	466.69
387.363	481.69
387.588	462.69
387.813	471.69
388.038	481.69
388.263	474.69
388.488	472.69
388.713	479.69
388.938	480.69
389.163	469.69
389.387	464.69
389.612	470.69
389.837	453.69
390.062	494.69
390.287	460.69
390.512	462.69
390.736	475.69
390.961	475.69
391.186	472.69
391.411	497.69
391.636	508.69
391.86	497.69
392.085	506.69
392.31	491.69
392.534	501.69
392.759	472.69
392.984	471.69
393.208	472.69
393.433	500.69
393.658	477.69
393.882	456.69
394.107	467.69
394.331	468.69
394.556	468.69
394.78	489.69
395.005	501.69
395.229	491.69
395.454	509.69
395.678	483.69
395.903	501.69
396.127	526.69
396.352	522.69
396.576	512.69
396.801	491.69
397.025	481.69
397.249	473.69
397.474	499.69
397.698	502.69
397.922	561.69
398.147	531.69
398.371	540.69
398.595	538.69
398.82	563.69
399.044	587.69
399.268	577.69
399.492	633.69
399.717	669.69
399.941	707.69
400.165	710.69
400.389	691.69
400.613	615.69
400.837	581.69
401.062	582.69
401.286	557.69
401.51	547.69
401.734	548.69
401.958	569.69
402.182	557.69
402.406	563.69
402.63	581.69
402.854	565.69
403.078	584.69
403.302	576.69
403.526	582.69
403.75	590.69
403.974	574.69
404.198	568.69
404.422	626.69
404.645	605.69
404.869	580.69
405.093	630.69
405.317	677.69
405.541	676.69
405.765	647.69
405.988	598.69
406.212	600.69
406.436	619.69
406.66	627.69
406.883	635.69
407.107	643.69
407.331	682.69
407.555	779.69
407.778	767.69
408.002	704.69
408.226	670.69
408.449	656.69
408.673	630.69
408.896	644.69
409.12	725.69
409.344	651.69
409.567	604.69
409.791	587.69
410.014	592.69
410.238	575.69
410.461	594.69
410.685	584.69
410.908	604.69
411.132	622.69
411.355	654.69
411.578	638.69
411.802	609.69
412.025	576.69
412.249	574.69
412.472	607.69
412.695	662.69
412.919	636.69
413.142	599.69
413.365	587.69
413.589	567.69
413.812	547.69
414.035	534.69
414.258	556.69
414.482	555.69
414.705	565.69
414.928	550.69
415.151	531.69
415.374	552.69
415.597	526.69
415.821	524.69
416.044	572.69
416.267	534.69
416.49	529.69
416.713	541.69
416.936	530.69
417.159	530.69
417.382	528.69
417.605	540.69
417.828	565.69
418.051	587.69
418.274	565.69
418.497	581.69
418.72	541.69
418.943	556.69
419.166	598.69
419.389	598.69
419.611	554.69
419.834	572.69
420.057	606.69
420.28	581.69
420.503	584.69
420.726	579.69
420.948	580.69
421.171	617.69
421.394	661.69
421.617	582.69
421.839	554.69
422.062	567.69
422.285	555.69
422.507	633.69
422.73	689.69
422.953	698.69
423.175	597.69
423.398	603.69
423.621	594.69
423.843	600.69
424.066	609.69
424.288	620.69
424.511	622.69
424.733	655.69
424.956	738.69
425.178	715.69
425.401	723.69
425.623	756.69
425.846	644.69
426.068	601.69
426.291	592.69
426.513	582.69
426.735	609.69
426.958	626.69
427.18	697.69
427.402	838.69
427.625	927.69
427.847	788.69
428.069	734.69
428.292	629.69
428.514	600.69
428.736	552.69
428.958	564.69
429.181	523.69
429.403	533.69
429.625	557.69
429.847	578.69
430.069	666.69
430.292	634.69
430.514	561.69
430.736	576.69
430.958	551.69
431.18	532.69
431.402	539.69
431.624	537.69
431.846	519.69
432.068	516.69
432.29	525.69
432.512	513.69
432.734	541.69
432.956	543.69
433.178	547.69
433.4	550.69
433.622	542.69
433.844	522.69
434.066	512.69
434.287	527.69
434.509	552.69
434.731	547.69
434.953	571.69
435.175	588.69
435.397	599.69
435.618	604.69
435.84	649.69
436.062	716.69
436.284	813.69
436.505	667.69
436.727	611.69
436.949	576.69
437.17	581.69
437.392	555.69
437.614	576.69
437.835	576.69
438.057	658.69
438.278	770.69
438.5	784.69
438.721	850.69
438.943	838.69
439.165	650.69
439.386	585.69
439.608	592.69
439.829	582.69
440.05	614.69
440.272	673.69
440.493	655.69
440.715	595.69
440.936	569.69
441.158	538.69
441.379	565.69
441.6	576.69
441.822	594.69
442.043	620.69
442.264	711.69
442.486	746.69
442.707	673.69
442.928	635.69
443.149	628.69
443.371	614.69
443.592	671.69
443.813	776.69
444.034	846.69
444.255	715.69
444.476	637.69
444.698	625.69
444.919	595.69
445.14	741.69
445.361	682.69
445.582	629.69
445.803	668.69
446.024	798.69
446.245	792.69
446.466	742.69
446.687	614.69
446.908	598.69
447.129	567.69
447.35	553.69
447.571	567.69
447.792	547.69
448.013	544.69
448.234	551.69
448.455	605.69
448.675	692.69
448.896	840.69
449.117	708.69
449.338	657.69
449.559	771.69
449.779	870.69
450	713.69
450.221	600.69
450.442	566.69
450.662	538.69
450.883	541.69
451.104	532.69
451.324	540.69
451.545	526.69
451.766	497.69
451.986	510.69
452.207	501.69
452.428	490.69
452.648	494.69
452.869	497.69
453.089	488.69
453.31	528.69
453.53	494.69
453.751	465.69
453.971	479.69
454.192	509.69
454.412	504.69
454.633	486.69
454.853	459.69
455.073	477.69
455.294	498.69
455.514	576.69
455.734	567.69
455.955	484.69
456.175	490.69
456.395	446.69
456.616	466.69
456.836	443.69
457.056	443.69
457.276	460.69
457.497	478.69
457.717	474.69
457.937	462.69
458.157	461.69
458.377	479.69
458.598	490.69
458.818	534.69
459.038	618.69
459.258	655.69
459.478	579.69
459.698	542.69
459.918	530.69
460.138	527.69
460.358	551.69
460.578	543.69
460.798	560.69
461.018	572.69
461.238	568.69
461.458	540.69
461.678	515.69
461.898	546.69
462.118	546.69
462.338	547.69
462.558	585.69
462.777	601.69
462.997	616.69
463.217	633.69
463.437	618.69
463.657	587.69
463.876	594.69
464.096	598.69
464.316	596.69
464.536	605.69
464.755	570.69
464.975	568.69
465.195	625.69
465.414	629.69
465.634	589.69
465.854	567.69
466.073	544.69
466.293	549.69
466.512	523.69
466.732	512.69
466.951	509.69
467.171	488.69
467.391	510.69
467.61	534.69
467.829	518.69
468.049	520.69
468.268	515.69
468.488	494.69
468.707	516.69
468.927	464.69
469.146	485.69
469.365	499.69
469.585	488.69
469.804	481.69
470.023	533.69
470.243	509.69
470.462	494.69
470.681	526.69
470.901	528.69
471.12	535.69
471.339	530.69
471.558	508.69
471.777	512.69
471.997	519.69
472.216	531.69
472.435	528.69
472.654	532.69
472.873	507.69
473.092	513.69
473.311	512.69
473.53	515.69
473.749	486.69
473.968	546.69
474.187	643.69
474.406	679.69
474.625	569.69
474.844	529.69
475.063	510.69
475.282	514.69
475.501	509.69
475.72	507.69
475.939	516.69
476.158	521.69
476.377	529.69
476.596	535.69
476.814	536.69
477.033	537.69
477.252	539.69
477.471	558.69
477.69	563.69
477.908	558.69
478.127	560.69
478.346	591.69
478.564	604.69
478.783	577.69
479.002	583.69
479.22	596.69
479.439	618.69
479.658	630.69
479.876	650.69
480.095	627.69
480.313	651.69
480.532	657.69
480.751	638.69
480.969	632.69
481.188	707.69
481.406	721.69
481.624	648.69
481.843	632.69
482.061	610.69
482.28	595.69
482.498	588.69
482.717	560.69
482.935	602.69
483.153	596.69
483.372	591.69
483.59	598.69
483.808	596.69
484.027	595.69
484.245	599.69
484.463	636.69
484.681	604.69
484.9	629.69
485.118	622.69
485.336	598.69
485.554	616.69
485.772	631.69
485.99	609.69
486.209	625.69
486.427	622.69
486.645	636.69
486.863	653.69
487.081	669.69
487.299	635.69
487.517	674.69
487.735	642.69
487.953	646.69
488.171	648.69
488.389	651.69
488.607	650.69
488.825	641.69
489.043	646.69
489.261	644.69
489.479	651.69
489.696	663.69
489.914	646.69
490.132	659.69
490.35	664.69
490.568	679.69
490.786	695.69
491.003	701.69
491.221	695.69
491.439	734.69
491.657	717.69
491.874	731.69
492.092	756.69
492.31	757.69
492.527	757.69
492.745	728.69
492.963	775.69
493.18	763.69
493.398	764.69
493.615	755.69
493.833	771.69
494.05	754.69
494.268	741.69
494.485	743.69
494.703	765.69
494.92	772.69
495.138	790.69
495.355	771.69
495.573	757.69
495.79	757.69
496.008	767.69
496.225	756.69
496.442	762.69
496.66	770.69
496.877	763.69
497.094	772.69
497.312	762.69
497.529	789.69
497.746	817.69
497.963	816.69
498.181	838.69
498.398	854.69
498.615	824.69
498.832	885.69
499.049	896.69
499.267	919.69
499.484	972.69
499.701	1060.69
499.918	1088.69
500.135	1124.69
500.352	1210.69
500.569	1241.69
500.786	1242.69
501.003	1231.69
501.22	1139.69
501.437	1096.69
501.654	1050.69
501.871	1028.69
502.088	967.69
502.305	927.69
502.522	886.69
502.739	892.69
502.956	847.69
503.172	832.69
503.389	798.69
503.606	813.69
503.823	780.69
504.04	756.69
504.256	801.69
504.473	790.69
504.69	769.69
504.907	787.69
505.123	764.69
505.34	757.69
505.557	727.69
505.773	727.69
505.99	744.69
506.207	720.69
506.423	704.69
506.64	689.69
506.856	690.69
507.073	692.69
507.289	704.69
507.506	707.69
507.722	699.69
507.939	723.69
508.155	716.69
508.372	676.69
508.588	674.69
508.805	669.69
509.021	681.69
509.238	693.69
509.454	662.69
509.67	678.69
509.887	675.69
510.103	653.69
510.319	674.69
510.536	771.69
510.752	1088.69
510.968	912.69
511.184	657.69
511.401	652.69
511.617	654.69
511.833	627.69
512.049	636.69
512.265	629.69
512.481	628.69
512.698	634.69
512.914	641.69
513.13	610.69
513.346	622.69
513.562	610.69
513.778	628.69
513.994	632.69
514.21	612.69
514.426	668.69
514.642	684.69
514.858	709.69
515.074	693.69
515.29	798.69
515.506	1087.69
515.721	948.69
515.937	695.69
516.153	672.69
516.369	664.69
516.585	677.69
516.801	657.69
517.016	664.69
517.232	667.69
517.448	673.69
517.664	696.69
517.879	682.69
518.095	680.69
518.311	700.69
518.527	676.69
518.742	654.69
518.958	673.69
519.173	660.69
519.389	646.69
519.605	597.69
519.82	650.69
520.036	643.69
520.251	644.69
520.467	663.69
520.682	673.69
520.898	667.69
521.113	651.69
521.329	675.69
521.544	748.69
521.76	877.69
521.975	1281.69
522.19	1306.69
522.406	801.69
522.621	670.69
522.836	598.69
523.052	620.69
523.267	608.69
523.482	588.69
523.698	594.69
523.913	569.69
524.128	560.69
524.343	564.69
524.559	564.69
524.774	542.69
524.989	538.69
525.204	568.69
525.419	547.69
525.634	531.69
525.849	547.69
526.064	534.69
526.28	530.69
526.495	520.69
526.71	515.69
526.925	538.69
527.14	535.69
527.355	531.69
527.57	525.69
527.785	521.69
527.999	517.69
528.214	504.69
528.429	522.69
528.644	523.69
528.859	507.69
529.074	532.69
529.289	531.69
529.503	571.69
529.718	572.69
529.933	563.69
530.148	550.69
530.363	530.69
530.577	509.69
530.792	522.69
531.007	506.69
531.221	535.69
531.436	523.69
531.651	521.69
531.865	500.69
532.08	490.69
532.295	499.69
532.509	518.69
532.724	487.69
532.938	491.69
533.153	500.69
533.367	476.69
533.582	516.69
533.796	530.69
534.011	517.69
534.225	477.69
534.44	509.69
534.654	492.69
534.868	496.69
535.083	506.69
535.297	518.69
535.511	529.69
535.726	523.69
535.94	518.69
536.154	516.69
536.369	469.69
536.583	488.69
536.797	486.69
537.011	478.69
537.225	486.69
537.44	486.69
537.654	503.69
537.868	480.69
538.082	486.69
538.296	490.69
538.51	484.69
538.724	492.69
538.938	477.69
539.153	473.69
539.367	475.69
539.581	493.69
539.795	466.69
540.009	487.69
540.222	476.69
540.436	484.69
540.65	481.69
540.864	490.69
541.078	496.69
541.292	489.69
541.506	508.69
541.72	470.69
541.934	479.69
542.147	476.69
542.361	492.69
542.575	474.69
542.789	490.69
543.002	454.69
543.216	470.69
543.43	475.69
543.644	476.69
543.857	494.69
544.071	494.69
544.285	497.69
544.498	481.69
544.712	468.69
544.925	488.69
545.139	492.69
545.352	490.69
545.566	478.69
545.779	474.69
545.993	476.69
546.206	491.69
546.42	490.69
546.633	503.69
546.847	478.69
547.06	490.69
547.274	481.69
547.487	473.69
547.7	499.69
547.914	490.69
548.127	462.69
548.34	458.69
548.554	458.69
548.767	455.69
548.98	474.69
549.193	481.69
549.407	466.69
549.62	476.69
549.833	465.69
550.046	479.69
550.259	472.69
550.473	449.69
550.686	479.69
550.899	468.69
551.112	470.69
551.325	465.69
551.538	480.69
551.751	438.69
551.964	462.69
552.177	466.69
552.39	472.69
552.603	467.69
552.816	483.69
553.029	480.69
553.242	481.69
553.455	501.69
553.667	459.69
553.88	502.69
554.093	490.69
554.306	456.69
554.519	485.69
554.732	466.69
554.944	466.69
555.157	486.69
555.37	475.69
555.583	467.69
555.795	460.69
556.008	428.69
556.221	441.69
556.433	439.69
556.646	430.69
556.859	439.69
557.071	448.69
557.284	420.69
557.496	420.69
557.709	445.69
557.921	414.69
558.134	420.69
558.346	425.69
558.559	446.69
558.771	419.69
558.984	416.69
559.196	412.69
559.409	419.69
559.621	411.69
559.833	424.69
560.046	418.69
560.258	390.69
560.47	415.69
560.683	415.69
560.895	425.69
561.107	418.69
561.32	421.69
561.532	419.69
561.744	395.69
561.956	407.69
562.168	422.69
562.381	416.69
562.593	416.69
562.805	433.69
563.017	414.69
563.229	404.69
563.441	428.69
563.653	436.69
563.865	434.69
564.077	424.69
564.289	424.69
564.501	435.69
564.713	437.69
564.925	443.69
565.137	468.69
565.349	473.69
565.561	474.69
565.773	494.69
565.985	489.69
566.197	488.69
566.408	484.69
566.62	531.69
566.832	543.69
567.044	538.69
567.255	570.69
567.467	554.69
567.679	572.69
567.891	571.69
568.102	571.69
568.314	570.69
568.526	547.69
568.737	528.69
568.949	500.69
569.161	462.69
569.372	483.69
569.584	463.69
569.795	438.69
570.007	438.69
570.218	465.69
570.43	452.69
570.641	428.69
570.853	430.69
571.064	436.69
571.276	417.69
571.487	428.69
571.698	392.69
571.91	389.69
572.121	395.69
572.333	400.69
572.544	383.69
572.755	359.69
572.966	378.69
573.178	378.69
573.389	362.69
573.6	376.69
573.811	378.69
574.023	374.69
574.234	368.69
574.445	358.69
574.656	376.69
574.867	358.69
575.078	356.69
575.289	351.69
575.501	352.69
575.712	353.69
575.923	367.69
576.134	356.69
576.345	360.69
576.556	363.69
576.767	359.69
576.978	365.69
577.188	372.69
577.399	372.69
577.61	341.69
577.821	328.69
578.032	352.69
578.243	373.69
578.454	512.69
578.665	402.69
578.875	353.69
579.086	325.69
579.297	341.69
579.508	345.69
579.718	315.69
579.929	346.69
580.14	325.69
580.35	332.69
580.561	334.69
580.772	332.69
580.982	331.69
581.193	312.69
581.403	342.69
581.614	320.69
581.825	323.69
582.035	317.69
582.246	337.69
582.456	333.69
582.667	329.69
582.877	330.69
583.087	322.69
583.298	326.69
583.508	312.69
583.719	300.69
583.929	332.69
584.139	326.69
584.35	315.69
584.56	316.69
584.77	317.69
584.981	322.69
585.191	325.69
585.401	322.69
585.611	304.69
585.821	320.69
586.032	326.69
586.242	319.69
586.452	314.69
586.662	320.69
586.872	312.69
587.082	315.69
587.292	301.69
587.502	307.69
587.713	304.69
587.923	321.69
588.133	318.69
588.343	288.69
588.553	310.69
588.762	314.69
588.972	327.69
589.182	321.69
589.392	308.69
589.602	325.69
589.812	311.69
590.022	308.69
590.232	300.69
590.441	315.69
590.651	325.69
590.861	320.69
591.071	296.69
591.281	321.69
591.49	316.69
591.7	339.69
591.91	327.69
592.119	296.69
592.329	314.69
592.539	340.69
592.748	349.69
592.958	351.69
593.167	345.69
593.377	342.69
593.587	341.69
593.796	364.69
594.006	356.69
594.215	340.69
594.424	358.69
594.634	351.69
594.843	344.69
595.053	335.69
595.262	325.69
595.472	333.69
595.681	322.69
595.89	328.69
596.1	313.69
596.309	294.69
596.518	295.69
596.727	308.69
596.937	290.69
597.146	314.69
597.355	287.69
597.564	283.69
597.774	268.69
597.983	292.69
598.192	298.69
598.401	280.69
598.61	283.69
598.819	276.69
599.028	280.69
599.237	295.69
599.446	270.69
599.655	288.69
599.864	270.69
600.073	269.69
600.282	277.69
600.491	277.69
600.7	262.69
600.909	269.69
601.118	288.69
601.327	289.69
601.536	266.69
601.745	274.69
601.953	259.69
602.162	262.69
602.371	271.69
602.58	261.69
602.789	257.69
602.997	266.69
603.206	276.69
603.415	263.69
603.623	269.69
603.832	265.69
604.041	263.69
604.249	269.69
604.458	276.69
604.666	268.69
604.875	234.69
605.084	264.69
605.292	276.69
605.501	264.69
605.709	266.69
605.918	260.69
606.126	256.69
606.334	283.69
606.543	246.69
606.751	249.69
606.96	272.69
607.168	256.69
607.376	254.69
607.585	268.69
607.793	267.69
608.001	269.69
608.21	260.69
608.418	258.69
608.626	257.69
608.834	278.69
609.043	261.69
609.251	263.69
609.459	271.69
609.667	275.69
609.875	258.69
610.083	274.69
610.291	255.69
610.499	268.69
610.707	243.69
610.916	241.69
611.124	246.69
611.332	254.69
611.54	274.69
611.748	259.69
611.955	278.69
612.163	260.69
612.371	245.69
612.579	243.69
612.787	247.69
612.995	255.69
613.203	254.69
613.411	248.69
613.618	224.69
613.826	255.69
614.034	244.69
614.242	249.69
614.449	266.69
614.657	242.69
614.865	260.69
615.072	246.69
615.28	244.69
615.488	254.69
615.695	242.69
615.903	254.69
616.111	244.69
616.318	265.69
616.526	261.69
616.733	248.69
616.941	265.69
617.148	264.69
617.356	280.69
617.563	250.69
617.771	271.69
617.978	240.69
618.185	237.69
618.393	260.69
618.6	252.69
618.807	253.69
619.015	249.69
619.222	243.69
619.429	259.69
619.637	250.69
619.844	238.69
620.051	229.69
620.258	240.69
620.466	226.69
620.673	227.69
620.88	246.69
621.087	244.69
621.294	234.69
621.501	245.69
621.708	245.69
621.915	253.69
622.122	223.69
622.329	244.69
622.536	236.69
622.743	215.69
622.95	237.69
623.157	237.69
623.364	229.69
623.571	239.69
623.778	228.69
623.985	224.69
624.192	223.69
624.399	226.69
624.606	215.69
624.812	228.69
625.019	225.69
625.226	211.69
625.433	229.69
625.639	226.69
625.846	213.69
626.053	239.69
626.259	214.69
626.466	229.69
626.673	230.69
626.879	221.69
627.086	233.69
627.293	220.69
627.499	226.69
627.706	234.69
627.912	210.69
628.119	197.69
628.325	223.69
628.532	212.69
628.738	192.69
628.945	208.69
629.151	202.69
629.357	221.69
629.564	205.69
629.77	218.69
629.976	204.69
630.183	203.69
630.389	213.69
630.595	205.69
630.802	222.69
631.008	202.69
631.214	210.69
631.42	210.69
631.627	228.69
631.833	206.69
632.039	202.69
632.245	187.69
632.451	192.69
632.657	212.69
632.863	214.69
633.069	200.69
633.275	184.69
633.481	196.69
633.688	198.69
633.893	205.69
634.099	196.69
634.305	198.69
634.511	188.69
634.717	189.69
634.923	182.69
635.129	189.69
635.335	190.69
635.541	189.69
635.747	192.69
635.952	176.69
636.158	187.69
636.364	194.69
636.57	206.69
636.775	189.69
636.981	205.69
637.187	192.69
637.392	190.69
637.598	179.69
637.804	189.69
638.009	198.69
638.215	175.69
638.421	186.69
638.626	172.69
638.832	172.69
639.037	193.69
639.243	181.69
639.448	190.69
639.654	171.69
639.859	181.69
640.065	169.69
640.27	192.69
640.475	177.69
640.681	184.69
640.886	191.69
641.091	180.69
641.297	187.69
641.502	176.69
641.707	184.69
641.913	182.69
642.118	179.69
642.323	165.69
642.528	165.69
642.733	174.69
642.939	155.69
643.144	171.69
643.349	166.69
643.554	177.69
643.759	180.69
643.964	180.69
644.169	186.69
644.374	185.69
644.579	165.69
644.784	182.69
644.989	173.69
645.194	165.69
645.399	166.69
645.604	178.69
645.809	179.69
646.014	182.69
646.219	182.69
646.423	182.69
646.628	172.69
646.833	163.69
647.038	171.69
647.243	181.69
647.447	162.69
647.652	179.69
647.857	180.69
648.062	174.69
648.266	178.69
648.471	184.69
648.676	177.69
648.88	180.69
649.085	191.69
649.289	164.69
649.494	178.69
649.698	190.69
649.903	193.69
650.107	194.69
650.312	173.69
650.516	170.69
650.721	148.69
650.925	154.69
651.13	163.69
651.334	153.69
651.539	154.69
651.743	155.69
651.947	156.69
652.152	170.69
652.356	155.69
652.56	137.69
652.764	155.69
652.969	146.69
653.173	147.69
653.377	141.69
653.581	151.69
653.785	149.69
653.99	140.69
654.194	126.69
654.398	138.69
654.602	137.69
654.806	150.69
655.01	140.69
655.214	144.69
655.418	139.69
655.622	143.69
655.826	146.69
656.03	141.69
656.234	144.69
656.438	142.69
656.642	142.69
656.846	134.69
657.049	125.69
657.253	143.69
657.457	126.69
657.661	115.69
657.865	124.69
658.068	123.69
658.272	114.69
658.476	115.69
658.68	119.69
658.883	87.69
659.087	122.69
659.291	108.69
659.494	95.69
659.698	105.69
659.901	102.69
660.105	101.69
660.309	96.69
660.512	97.69
660.716	105.69
660.919	94.69
661.123	100.69
661.326	94.69
661.53	86.69
661.733	91.69
661.936	93.69
662.14	84.69
662.343	87.69
662.546	95.69
662.75	94.69
662.953	87.69
663.156	100.69
663.36	78.69
663.563	85.69
663.766	89.69
663.969	91.69
664.173	73.69
664.376	93.69
664.579	104.69
664.782	79.69
664.985	90.69
665.188	75.69
665.391	83.69
665.594	86.69
665.797	81.69
666	85.69
666.203	80.69
666.406	74.69
666.609	75.69
666.812	88.69
667.015	86.69
667.218	77.69
667.421	88.69
667.624	74.69
667.827	84.69
668.03	86.69
668.232	79.69
668.435	90.69
668.638	79.69
668.841	81.69
669.043	88.69
669.246	69.69
669.449	79.69
669.651	81.69
669.854	85.69
670.057	73.69
670.259	85.69
670.462	92.69
670.665	83.69
670.867	78.69
671.07	70.69
671.272	95.69
671.475	88.69
671.677	79.69
671.88	76.69
672.082	84.69
672.284	95.69
672.487	82.69
672.689	77.69
672.892	96.69
