Data from 1975.PennyLincolnUp.Lamp.En5.5.200Scan.071719.P1.Changed Mount._HRD10591_15-58-27-860.txt Node
Date: Thu Jul 18 15:58:27 EDT 2019
User: cochatt
Spectrometer: HR+D1059
Trigger mode: 1
Integration Time (sec): 1.000000E-1
Scans to average: 1
Electric dark correction enabled: true
Nonlinearity correction enabled: false
Boxcar width: 0
XAxis mode: Wavelengths
Number of Pixels in Spectrum: 2048
>>>>>Begin Spectral Data<<<<<
223.165	-9.12
223.4	-9.12
223.635	-9.12
223.869	-13.12
224.104	-16.12
224.338	-26.12
224.573	-10.12
224.808	-2.12
225.042	-9.12
225.277	-14.12
225.511	-1.12
225.746	6.88
225.98	12.88
226.215	4.88
226.449	27.88
226.683	10.88
226.918	13.88
227.152	23.88
227.387	33.88
227.621	33.88
227.856	59.88
228.09	49.88
228.324	51.88
228.559	47.88
228.793	73.88
229.027	92.88
229.262	106.88
229.496	124.88
229.73	114.88
229.964	151.88
230.199	120.88
230.433	105.88
230.667	119.88
230.901	110.88
231.136	95.88
231.37	117.88
231.604	116.88
231.838	118.88
232.072	118.88
232.306	116.88
232.541	118.88
232.775	118.88
233.009	120.88
233.243	120.88
233.477	114.88
233.711	113.88
233.945	108.88
234.179	113.88
234.413	96.88
234.647	114.88
234.881	112.88
235.115	121.88
235.349	135.88
235.583	112.88
235.817	129.88
236.051	134.88
236.285	116.88
236.519	126.88
236.753	129.88
236.987	151.88
237.221	170.88
237.455	227.88
237.689	192.88
237.922	159.88
238.156	131.88
238.39	132.88
238.624	126.88
238.858	138.88
239.091	122.88
239.325	135.88
239.559	126.88
239.793	118.88
240.027	128.88
240.26	143.88
240.494	149.88
240.728	158.88
240.961	157.88
241.195	165.88
241.429	140.88
241.662	136.88
241.896	148.88
242.13	146.88
242.363	145.88
242.597	143.88
242.83	140.88
243.064	129.88
243.298	130.88
243.531	132.88
243.765	138.88
243.998	137.88
244.232	150.88
244.465	152.88
244.699	148.88
244.932	146.88
245.166	151.88
245.399	137.88
245.633	149.88
245.866	162.88
246.099	128.88
246.333	125.88
246.566	144.88
246.8	147.88
247.033	146.88
247.266	169.88
247.5	161.88
247.733	186.88
247.966	180.88
248.2	175.88
248.433	175.88
248.666	186.88
248.899	195.88
249.133	203.88
249.366	220.88
249.599	225.88
249.832	192.88
250.066	188.88
250.299	181.88
250.532	192.88
250.765	226.88
250.998	225.88
251.231	231.88
251.465	234.88
251.698	209.88
251.931	199.88
252.164	206.88
252.397	202.88
252.63	210.88
252.863	199.88
253.096	219.88
253.329	242.88
253.562	226.88
253.795	211.88
254.028	210.88
254.261	212.88
254.494	229.88
254.727	258.88
254.96	286.88
255.193	274.88
255.426	267.88
255.659	213.88
255.892	233.88
256.124	226.88
256.357	250.88
256.59	235.88
256.823	227.88
257.056	215.88
257.289	208.88
257.521	212.88
257.754	215.88
257.987	207.88
258.22	210.88
258.452	210.88
258.685	218.88
258.918	211.88
259.151	225.88
259.383	235.88
259.616	222.88
259.849	226.88
260.081	234.88
260.314	247.88
260.547	277.88
260.779	268.88
261.012	243.88
261.244	226.88
261.477	235.88
261.71	231.88
261.942	226.88
262.175	240.88
262.407	224.88
262.64	236.88
262.872	216.88
263.105	212.88
263.337	229.88
263.57	230.88
263.802	238.88
264.035	217.88
264.267	217.88
264.499	221.88
264.732	239.88
264.964	216.88
265.197	219.88
265.429	226.88
265.661	226.88
265.894	240.88
266.126	237.88
266.358	222.88
266.591	233.88
266.823	239.88
267.055	240.88
267.287	223.88
267.52	243.88
267.752	230.88
267.984	243.88
268.216	253.88
268.448	258.88
268.681	255.88
268.913	253.88
269.145	264.88
269.377	275.88
269.609	288.88
269.841	265.88
270.073	274.88
270.306	302.88
270.538	316.88
270.77	319.88
271.002	302.88
271.234	298.88
271.466	306.88
271.698	299.88
271.93	322.88
272.162	308.88
272.394	323.88
272.626	299.88
272.858	296.88
273.09	279.88
273.322	269.88
273.553	271.88
273.785	281.88
274.017	265.88
274.249	284.88
274.481	270.88
274.713	267.88
274.945	291.88
275.176	295.88
275.408	295.88
275.64	271.88
275.872	278.88
276.104	276.88
276.335	286.88
276.567	288.88
276.799	298.88
277.031	323.88
277.262	330.88
277.494	344.88
277.726	325.88
277.957	303.88
278.189	290.88
278.421	280.88
278.652	284.88
278.884	303.88
279.115	284.88
279.347	263.88
279.579	259.88
279.81	275.88
280.042	295.88
280.273	276.88
280.505	275.88
280.736	274.88
280.968	284.88
281.199	294.88
281.431	292.88
281.662	280.88
281.894	284.88
282.125	284.88
282.356	281.88
282.588	300.88
282.819	310.88
283.051	299.88
283.282	278.88
283.513	287.88
283.745	285.88
283.976	287.88
284.207	305.88
284.439	295.88
284.67	308.88
284.901	307.88
285.132	316.88
285.364	288.88
285.595	304.88
285.826	309.88
286.057	310.88
286.288	304.88
286.52	288.88
286.751	311.88
286.982	295.88
287.213	319.88
287.444	287.88
287.675	316.88
287.906	296.88
288.138	330.88
288.369	318.88
288.6	322.88
288.831	330.88
289.062	316.88
289.293	307.88
289.524	294.88
289.755	309.88
289.986	316.88
290.217	303.88
290.448	310.88
290.679	315.88
290.91	329.88
291.141	312.88
291.371	308.88
291.602	312.88
291.833	315.88
292.064	327.88
292.295	323.88
292.526	322.88
292.757	321.88
292.987	328.88
293.218	334.88
293.449	315.88
293.68	331.88
293.91	315.88
294.141	295.88
294.372	309.88
294.603	327.88
294.833	336.88
295.064	315.88
295.295	319.88
295.525	324.88
295.756	322.88
295.987	322.88
296.217	340.88
296.448	359.88
296.679	329.88
296.909	322.88
297.14	320.88
297.37	330.88
297.601	343.88
297.831	334.88
298.062	327.88
298.292	323.88
298.523	313.88
298.753	322.88
298.984	322.88
299.214	331.88
299.445	353.88
299.675	324.88
299.905	348.88
300.136	327.88
300.366	333.88
300.597	336.88
300.827	327.88
301.057	350.88
301.288	356.88
301.518	356.88
301.748	378.88
301.979	350.88
302.209	342.88
302.439	344.88
302.669	359.88
302.9	343.88
303.13	344.88
303.36	343.88
303.59	354.88
303.82	381.88
304.051	353.88
304.281	354.88
304.511	349.88
304.741	333.88
304.971	341.88
305.201	352.88
305.431	343.88
305.661	350.88
305.891	354.88
306.121	354.88
306.352	355.88
306.582	361.88
306.812	337.88
307.042	367.88
307.272	329.88
307.502	345.88
307.731	357.88
307.961	348.88
308.191	362.88
308.421	353.88
308.651	339.88
308.881	342.88
309.111	348.88
309.341	362.88
309.571	376.88
309.8	354.88
310.03	368.88
310.26	399.88
310.49	390.88
310.72	394.88
310.949	400.88
311.179	427.88
311.409	391.88
311.639	404.88
311.868	402.88
312.098	407.88
312.328	390.88
312.557	396.88
312.787	419.88
313.017	417.88
313.246	410.88
313.476	395.88
313.706	384.88
313.935	411.88
314.165	406.88
314.394	403.88
314.624	427.88
314.853	417.88
315.083	399.88
315.312	368.88
315.542	397.88
315.771	382.88
316.001	385.88
316.23	384.88
316.46	380.88
316.689	408.88
316.919	399.88
317.148	387.88
317.377	390.88
317.607	396.88
317.836	395.88
318.065	409.88
318.295	404.88
318.524	404.88
318.753	385.88
318.983	400.88
319.212	399.88
319.441	396.88
319.67	389.88
319.9	391.88
320.129	397.88
320.358	382.88
320.587	376.88
320.816	408.88
321.046	414.88
321.275	408.88
321.504	411.88
321.733	401.88
321.962	425.88
322.191	406.88
322.42	440.88
322.649	459.88
322.878	451.88
323.108	442.88
323.337	459.88
323.566	480.88
323.795	483.88
324.024	558.88
324.253	638.88
324.482	849.88
324.71	1346.88
324.939	1982.88
325.168	1737.88
325.397	890.88
325.626	628.88
325.855	530.88
326.084	497.88
326.313	491.88
326.542	498.88
326.77	531.88
326.999	603.88
327.228	815.88
327.457	1221.88
327.686	1523.88
327.914	1012.88
328.143	657.88
328.372	588.88
328.6	566.88
328.829	554.88
329.058	559.88
329.287	543.88
329.515	536.88
329.744	528.88
329.972	505.88
330.201	508.88
330.43	559.88
330.658	583.88
330.887	618.88
331.115	566.88
331.344	515.88
331.572	505.88
331.801	507.88
332.03	508.88
332.258	484.88
332.486	470.88
332.715	482.88
332.943	486.88
333.172	503.88
333.4	479.88
333.629	507.88
333.857	535.88
334.085	526.88
334.314	553.88
334.542	580.88
334.771	580.88
334.999	555.88
335.227	521.88
335.455	493.88
335.684	499.88
335.912	506.88
336.14	476.88
336.369	483.88
336.597	505.88
336.825	468.88
337.053	481.88
337.281	459.88
337.51	481.88
337.738	448.88
337.966	471.88
338.194	469.88
338.422	494.88
338.65	466.88
338.878	460.88
339.106	456.88
339.334	453.88
339.562	453.88
339.79	446.88
340.018	467.88
340.246	467.88
340.474	469.88
340.702	463.88
340.93	457.88
341.158	431.88
341.386	446.88
341.614	425.88
341.842	454.88
342.07	441.88
342.298	456.88
342.526	447.88
342.754	435.88
342.981	442.88
343.209	449.88
343.437	447.88
343.665	461.88
343.893	491.88
344.12	487.88
344.348	500.88
344.576	482.88
344.804	481.88
345.031	486.88
345.259	488.88
345.487	472.88
345.714	449.88
345.942	450.88
346.17	456.88
346.397	434.88
346.625	442.88
346.853	458.88
347.08	434.88
347.308	450.88
347.535	455.88
347.763	434.88
347.99	438.88
348.218	425.88
348.445	446.88
348.673	454.88
348.9	452.88
349.128	445.88
349.355	424.88
349.583	435.88
349.81	427.88
350.037	418.88
350.265	435.88
350.492	428.88
350.72	419.88
350.947	414.88
351.174	443.88
351.402	435.88
351.629	450.88
351.856	431.88
352.083	457.88
352.311	451.88
352.538	451.88
352.765	441.88
352.992	426.88
353.22	440.88
353.447	440.88
353.674	442.88
353.901	418.88
354.128	407.88
354.355	408.88
354.583	424.88
354.81	430.88
355.037	420.88
355.264	410.88
355.491	406.88
355.718	427.88
355.945	404.88
356.172	416.88
356.399	428.88
356.626	439.88
356.853	428.88
357.08	414.88
357.307	403.88
357.534	422.88
357.761	412.88
357.988	415.88
358.215	412.88
358.441	429.88
358.668	399.88
358.895	441.88
359.122	447.88
359.349	430.88
359.576	434.88
359.802	473.88
360.029	494.88
360.256	496.88
360.483	449.88
360.709	446.88
360.936	460.88
361.163	441.88
361.39	429.88
361.616	449.88
361.843	440.88
362.07	431.88
362.296	449.88
362.523	447.88
362.749	430.88
362.976	422.88
363.203	425.88
363.429	428.88
363.656	418.88
363.882	424.88
364.109	443.88
364.335	423.88
364.562	412.88
364.788	423.88
365.015	432.88
365.241	432.88
365.468	432.88
365.694	449.88
365.92	429.88
366.147	407.88
366.373	427.88
366.599	429.88
366.826	418.88
367.052	430.88
367.278	434.88
367.505	427.88
367.731	436.88
367.957	431.88
368.184	420.88
368.41	439.88
368.636	456.88
368.862	419.88
369.089	426.88
369.315	426.88
369.541	414.88
369.767	418.88
369.993	439.88
370.219	432.88
370.445	435.88
370.672	429.88
370.898	421.88
371.124	421.88
371.35	430.88
371.576	436.88
371.802	432.88
372.028	420.88
372.254	447.88
372.48	430.88
372.706	440.88
372.932	439.88
373.158	455.88
373.384	425.88
373.61	430.88
373.835	440.88
374.061	461.88
374.287	444.88
374.513	447.88
374.739	438.88
374.965	450.88
375.191	457.88
375.416	460.88
375.642	453.88
375.868	451.88
376.094	453.88
376.319	430.88
376.545	442.88
376.771	428.88
376.997	432.88
377.222	448.88
377.448	418.88
377.674	435.88
377.899	420.88
378.125	428.88
378.35	432.88
378.576	427.88
378.802	444.88
379.027	453.88
379.253	427.88
379.478	428.88
379.704	439.88
379.929	435.88
380.155	441.88
380.38	430.88
380.606	427.88
380.831	434.88
381.057	451.88
381.282	463.88
381.507	455.88
381.733	474.88
381.958	470.88
382.184	436.88
382.409	426.88
382.634	468.88
382.86	453.88
383.085	438.88
383.31	449.88
383.535	462.88
383.761	478.88
383.986	440.88
384.211	467.88
384.436	444.88
384.662	470.88
384.887	459.88
385.112	451.88
385.337	473.88
385.562	497.88
385.787	470.88
386.013	503.88
386.238	504.88
386.463	492.88
386.688	490.88
386.913	491.88
387.138	471.88
387.363	474.88
387.588	477.88
387.813	503.88
388.038	474.88
388.263	487.88
388.488	506.88
388.713	483.88
388.938	491.88
389.163	492.88
389.387	528.88
389.612	516.88
389.837	486.88
390.062	489.88
390.287	465.88
390.512	483.88
390.736	486.88
390.961	495.88
391.186	482.88
391.411	490.88
391.636	502.88
391.86	508.88
392.085	533.88
392.31	499.88
392.534	507.88
392.759	496.88
392.984	510.88
393.208	476.88
393.433	479.88
393.658	467.88
393.882	482.88
394.107	489.88
394.331	488.88
394.556	510.88
394.78	496.88
395.005	506.88
395.229	489.88
395.454	505.88
395.678	519.88
395.903	523.88
396.127	543.88
396.352	555.88
396.576	519.88
396.801	517.88
397.025	533.88
397.249	520.88
397.474	515.88
397.698	537.88
397.922	558.88
398.147	574.88
398.371	568.88
398.595	567.88
398.82	551.88
399.044	581.88
399.268	600.88
399.492	663.88
399.717	675.88
399.941	713.88
400.165	724.88
400.389	684.88
400.613	662.88
400.837	609.88
401.062	604.88
401.286	568.88
401.51	595.88
401.734	597.88
401.958	588.88
402.182	546.88
402.406	600.88
402.63	596.88
402.854	599.88
403.078	618.88
403.302	611.88
403.526	611.88
403.75	592.88
403.974	603.88
404.198	598.88
404.422	595.88
404.645	624.88
404.869	608.88
405.093	630.88
405.317	682.88
405.541	728.88
405.765	675.88
405.988	617.88
406.212	633.88
406.436	632.88
406.66	649.88
406.883	637.88
407.107	677.88
407.331	713.88
407.555	798.88
407.778	801.88
408.002	727.88
408.226	673.88
408.449	656.88
408.673	661.88
408.896	693.88
409.12	722.88
409.344	699.88
409.567	628.88
409.791	627.88
410.014	611.88
410.238	615.88
410.461	586.88
410.685	640.88
410.908	624.88
411.132	670.88
411.355	686.88
411.578	649.88
411.802	627.88
412.025	597.88
412.249	608.88
412.472	642.88
412.695	675.88
412.919	659.88
413.142	607.88
413.365	611.88
413.589	582.88
413.812	560.88
414.035	564.88
414.258	577.88
414.482	580.88
414.705	580.88
414.928	583.88
415.151	583.88
415.374	540.88
415.597	562.88
415.821	572.88
416.044	568.88
416.267	567.88
416.49	561.88
416.713	582.88
416.936	554.88
417.159	572.88
417.382	566.88
417.605	570.88
417.828	568.88
418.051	583.88
418.274	570.88
418.497	566.88
418.72	561.88
418.943	568.88
419.166	574.88
419.389	615.88
419.611	612.88
419.834	630.88
420.057	611.88
420.28	598.88
420.503	588.88
420.726	606.88
420.948	598.88
421.171	647.88
421.394	698.88
421.617	607.88
421.839	605.88
422.062	612.88
422.285	607.88
422.507	648.88
422.73	759.88
422.953	729.88
423.175	634.88
423.398	638.88
423.621	592.88
423.843	622.88
424.066	636.88
424.288	641.88
424.511	644.88
424.733	696.88
424.956	797.88
425.178	750.88
425.401	736.88
425.623	759.88
425.846	667.88
426.068	624.88
426.291	602.88
426.513	640.88
426.735	616.88
426.958	643.88
427.18	761.88
427.402	887.88
427.625	983.88
427.847	821.88
428.069	717.88
428.292	666.88
428.514	582.88
428.736	585.88
428.958	595.88
429.181	566.88
429.403	571.88
429.625	599.88
429.847	620.88
430.069	682.88
430.292	688.88
430.514	598.88
430.736	583.88
430.958	554.88
431.18	558.88
431.402	572.88
431.624	542.88
431.846	533.88
432.068	536.88
432.29	548.88
432.512	539.88
432.734	563.88
432.956	537.88
433.178	564.88
433.4	561.88
433.622	549.88
433.844	565.88
434.066	549.88
434.287	547.88
434.509	552.88
434.731	578.88
434.953	569.88
435.175	578.88
435.397	627.88
435.618	627.88
435.84	671.88
436.062	769.88
436.284	834.88
436.505	702.88
436.727	615.88
436.949	588.88
437.17	558.88
437.392	574.88
437.614	586.88
437.835	624.88
438.057	704.88
438.278	788.88
438.5	817.88
438.721	891.88
438.943	865.88
439.165	697.88
439.386	646.88
439.608	612.88
439.829	636.88
440.05	640.88
440.272	694.88
440.493	650.88
440.715	593.88
440.936	598.88
441.158	592.88
441.379	567.88
441.6	594.88
441.822	602.88
442.043	657.88
442.264	746.88
442.486	795.88
442.707	684.88
442.928	631.88
443.149	626.88
443.371	642.88
443.592	709.88
443.813	815.88
444.034	894.88
444.255	731.88
444.476	683.88
444.698	662.88
444.919	659.88
445.14	790.88
445.361	727.88
445.582	677.88
445.803	725.88
446.024	820.88
446.245	830.88
446.466	725.88
446.687	660.88
446.908	614.88
447.129	604.88
447.35	593.88
447.571	570.88
447.792	558.88
448.013	563.88
448.234	570.88
448.455	638.88
448.675	770.88
448.896	891.88
449.117	760.88
449.338	690.88
449.559	823.88
449.779	955.88
450	716.88
450.221	615.88
450.442	566.88
450.662	559.88
450.883	561.88
451.104	555.88
451.324	547.88
451.545	523.88
451.766	532.88
451.986	502.88
452.207	507.88
452.428	506.88
452.648	515.88
452.869	487.88
453.089	515.88
453.31	533.88
453.53	503.88
453.751	515.88
453.971	498.88
454.192	514.88
454.412	492.88
454.633	524.88
454.853	499.88
455.073	476.88
455.294	532.88
455.514	617.88
455.734	577.88
455.955	512.88
456.175	488.88
456.395	462.88
456.616	459.88
456.836	462.88
457.056	471.88
457.276	459.88
457.497	482.88
457.717	488.88
457.937	489.88
458.157	470.88
458.377	527.88
458.598	511.88
458.818	545.88
459.038	636.88
459.258	652.88
459.478	587.88
459.698	560.88
459.918	554.88
460.138	548.88
460.358	566.88
460.578	563.88
460.798	578.88
461.018	572.88
461.238	565.88
461.458	575.88
461.678	547.88
461.898	578.88
462.118	582.88
462.338	603.88
462.558	592.88
462.777	601.88
462.997	612.88
463.217	662.88
463.437	655.88
463.657	614.88
463.876	614.88
464.096	629.88
464.316	615.88
464.536	632.88
464.755	618.88
464.975	602.88
465.195	646.88
465.414	648.88
465.634	614.88
465.854	594.88
466.073	553.88
466.293	531.88
466.512	555.88
466.732	530.88
466.951	550.88
467.171	508.88
467.391	526.88
467.61	523.88
467.829	538.88
468.049	516.88
468.268	535.88
468.488	536.88
468.707	516.88
468.927	490.88
469.146	498.88
469.365	528.88
469.585	508.88
469.804	517.88
470.023	509.88
470.243	519.88
470.462	538.88
470.681	547.88
470.901	548.88
471.12	548.88
471.339	535.88
471.558	532.88
471.777	543.88
471.997	522.88
472.216	530.88
472.435	548.88
472.654	533.88
472.873	524.88
473.092	532.88
473.311	525.88
473.53	518.88
473.749	528.88
473.968	584.88
474.187	690.88
474.406	706.88
474.625	609.88
474.844	544.88
475.063	536.88
475.282	550.88
475.501	517.88
475.72	535.88
475.939	538.88
476.158	532.88
476.377	545.88
476.596	537.88
476.814	555.88
477.033	537.88
477.252	551.88
477.471	560.88
477.69	592.88
477.908	581.88
478.127	588.88
478.346	591.88
478.564	603.88
478.783	582.88
479.002	610.88
479.22	615.88
479.439	626.88
479.658	644.88
479.876	658.88
480.095	655.88
480.313	681.88
480.532	668.88
480.751	664.88
480.969	670.88
481.188	702.88
481.406	752.88
481.624	698.88
481.843	662.88
482.061	621.88
482.28	613.88
482.498	640.88
482.717	632.88
482.935	623.88
483.153	640.88
483.372	608.88
483.59	613.88
483.808	618.88
484.027	629.88
484.245	610.88
484.463	622.88
484.681	604.88
484.9	625.88
485.118	633.88
485.336	616.88
485.554	646.88
485.772	634.88
485.99	632.88
486.209	626.88
486.427	639.88
486.645	659.88
486.863	662.88
487.081	658.88
487.299	666.88
487.517	649.88
487.735	654.88
487.953	668.88
488.171	652.88
488.389	673.88
488.607	641.88
488.825	655.88
489.043	666.88
489.261	671.88
489.479	677.88
489.696	663.88
489.914	688.88
490.132	714.88
490.35	698.88
490.568	694.88
490.786	726.88
491.003	720.88
491.221	709.88
491.439	729.88
491.657	773.88
491.874	751.88
492.092	791.88
492.31	777.88
492.527	774.88
492.745	777.88
492.963	795.88
493.18	780.88
493.398	791.88
493.615	788.88
493.833	783.88
494.05	778.88
494.268	790.88
494.485	792.88
494.703	779.88
494.92	791.88
495.138	808.88
495.355	795.88
495.573	769.88
495.79	805.88
496.008	785.88
496.225	780.88
496.442	777.88
496.66	786.88
496.877	787.88
497.094	796.88
497.312	796.88
497.529	803.88
497.746	801.88
497.963	852.88
498.181	884.88
498.398	887.88
498.615	895.88
498.832	924.88
499.049	936.88
499.267	958.88
499.484	1031.88
499.701	1072.88
499.918	1070.88
500.135	1202.88
500.352	1246.88
500.569	1277.88
500.786	1295.88
501.003	1247.88
501.22	1179.88
501.437	1156.88
501.654	1106.88
501.871	1038.88
502.088	1029.88
502.305	954.88
502.522	926.88
502.739	916.88
502.956	885.88
503.172	846.88
503.389	835.88
503.606	836.88
503.823	796.88
504.04	829.88
504.256	825.88
504.473	807.88
504.69	819.88
504.907	814.88
505.123	770.88
505.34	766.88
505.557	759.88
505.773	760.88
505.99	758.88
506.207	747.88
506.423	731.88
506.64	742.88
506.856	690.88
507.073	733.88
507.289	706.88
507.506	719.88
507.722	719.88
507.939	742.88
508.155	734.88
508.372	707.88
508.588	689.88
508.805	688.88
509.021	699.88
509.238	695.88
509.454	719.88
509.67	690.88
509.887	685.88
510.103	680.88
510.319	697.88
510.536	748.88
510.752	1088.88
510.968	946.88
511.184	673.88
511.401	652.88
511.617	667.88
511.833	635.88
512.049	652.88
512.265	628.88
512.481	652.88
512.698	641.88
512.914	662.88
513.13	638.88
513.346	637.88
513.562	630.88
513.778	653.88
513.994	642.88
514.21	640.88
514.426	683.88
514.642	716.88
514.858	706.88
515.074	745.88
515.29	809.88
515.506	1113.88
515.721	981.88
515.937	744.88
516.153	691.88
516.369	672.88
516.585	672.88
516.801	667.88
517.016	687.88
517.232	675.88
517.448	708.88
517.664	729.88
517.879	712.88
518.095	708.88
518.311	701.88
518.527	688.88
518.742	677.88
518.958	659.88
519.173	686.88
519.389	675.88
519.605	676.88
519.82	660.88
520.036	672.88
520.251	681.88
520.467	698.88
520.682	664.88
520.898	682.88
521.113	652.88
521.329	747.88
521.544	798.88
521.76	904.88
521.975	1378.88
522.19	1335.88
522.406	835.88
522.621	664.88
522.836	640.88
523.052	631.88
523.267	618.88
523.482	592.88
523.698	578.88
523.913	596.88
524.128	599.88
524.343	582.88
524.559	559.88
524.774	572.88
524.989	566.88
525.204	583.88
525.419	587.88
525.634	582.88
525.849	567.88
526.064	555.88
526.28	527.88
526.495	538.88
526.71	558.88
526.925	534.88
527.14	550.88
527.355	533.88
527.57	554.88
527.785	566.88
527.999	522.88
528.214	544.88
528.429	547.88
528.644	544.88
528.859	536.88
529.074	548.88
529.289	563.88
529.503	580.88
529.718	600.88
529.933	558.88
530.148	572.88
530.363	568.88
530.577	529.88
530.792	535.88
531.007	525.88
531.221	538.88
531.436	540.88
531.651	528.88
531.865	543.88
532.08	520.88
532.295	528.88
532.509	522.88
532.724	517.88
532.938	559.88
533.153	514.88
533.367	505.88
533.582	514.88
533.796	530.88
534.011	542.88
534.225	518.88
534.44	496.88
534.654	508.88
534.868	514.88
535.083	499.88
535.297	514.88
535.511	509.88
535.726	512.88
535.94	522.88
536.154	519.88
536.369	507.88
536.583	487.88
536.797	484.88
537.011	496.88
537.225	501.88
537.44	493.88
537.654	521.88
537.868	492.88
538.082	502.88
538.296	514.88
538.51	487.88
538.724	498.88
538.938	520.88
539.153	499.88
539.367	505.88
539.581	494.88
539.795	512.88
540.009	501.88
540.222	480.88
540.436	507.88
540.65	500.88
540.864	499.88
541.078	491.88
541.292	524.88
541.506	522.88
541.72	530.88
541.934	521.88
542.147	520.88
542.361	482.88
542.575	499.88
542.789	489.88
543.002	488.88
543.216	480.88
543.43	497.88
543.644	512.88
543.857	522.88
544.071	503.88
544.285	487.88
544.498	497.88
544.712	498.88
544.925	499.88
545.139	480.88
545.352	482.88
545.566	492.88
545.779	495.88
545.993	503.88
546.206	498.88
546.42	494.88
546.633	487.88
546.847	494.88
547.06	488.88
547.274	487.88
547.487	483.88
547.7	496.88
547.914	484.88
548.127	473.88
548.34	483.88
548.554	497.88
548.767	478.88
548.98	501.88
549.193	481.88
549.407	486.88
549.62	495.88
549.833	504.88
550.046	491.88
550.259	489.88
550.473	481.88
550.686	491.88
550.899	478.88
551.112	470.88
551.325	472.88
551.538	478.88
551.751	465.88
551.964	475.88
552.177	487.88
552.39	467.88
552.603	463.88
552.816	498.88
553.029	488.88
553.242	518.88
553.455	492.88
553.667	499.88
553.88	518.88
554.093	513.88
554.306	503.88
554.519	499.88
554.732	482.88
554.944	490.88
555.157	484.88
555.37	483.88
555.583	470.88
555.795	454.88
556.008	452.88
556.221	451.88
556.433	446.88
556.646	456.88
556.859	427.88
557.071	446.88
557.284	425.88
557.496	434.88
557.709	454.88
557.921	434.88
558.134	421.88
558.346	417.88
558.559	438.88
558.771	409.88
558.984	429.88
559.196	424.88
559.409	451.88
559.621	443.88
559.833	437.88
560.046	419.88
560.258	420.88
560.47	408.88
560.683	406.88
560.895	426.88
561.107	430.88
561.32	406.88
561.532	434.88
561.744	428.88
561.956	416.88
562.168	409.88
562.381	466.88
562.593	435.88
562.805	430.88
563.017	418.88
563.229	445.88
563.441	415.88
563.653	449.88
563.865	426.88
564.077	426.88
564.289	439.88
564.501	440.88
564.713	436.88
564.925	460.88
565.137	454.88
565.349	473.88
565.561	479.88
565.773	489.88
565.985	500.88
566.197	506.88
566.408	510.88
566.62	552.88
566.832	560.88
567.044	569.88
567.255	571.88
567.467	587.88
567.679	579.88
567.891	614.88
568.102	624.88
568.314	581.88
568.526	548.88
568.737	530.88
568.949	514.88
569.161	505.88
569.372	487.88
569.584	434.88
569.795	452.88
570.007	450.88
570.218	474.88
570.43	459.88
570.641	453.88
570.853	420.88
571.064	428.88
571.276	457.88
571.487	407.88
571.698	415.88
571.91	420.88
572.121	393.88
572.333	383.88
572.544	386.88
572.755	386.88
572.966	406.88
573.178	392.88
573.389	377.88
573.6	386.88
573.811	371.88
574.023	388.88
574.234	350.88
574.445	358.88
574.656	380.88
574.867	388.88
575.078	358.88
575.289	379.88
575.501	368.88
575.712	373.88
575.923	380.88
576.134	360.88
576.345	373.88
576.556	364.88
576.767	353.88
576.978	394.88
577.188	359.88
577.399	374.88
577.61	386.88
577.821	346.88
578.032	378.88
578.243	368.88
578.454	529.88
578.665	444.88
578.875	344.88
579.086	353.88
579.297	352.88
579.508	352.88
579.718	318.88
579.929	347.88
580.14	318.88
580.35	326.88
580.561	361.88
580.772	335.88
580.982	329.88
581.193	329.88
581.403	337.88
581.614	314.88
581.825	343.88
582.035	334.88
582.246	336.88
582.456	321.88
582.667	330.88
582.877	322.88
583.087	313.88
583.298	310.88
583.508	342.88
583.719	316.88
583.929	335.88
584.139	343.88
584.35	330.88
584.56	334.88
584.77	324.88
584.981	316.88
585.191	334.88
585.401	327.88
585.611	328.88
585.821	322.88
586.032	330.88
586.242	320.88
586.452	328.88
586.662	322.88
586.872	309.88
587.082	326.88
587.292	317.88
587.502	323.88
587.713	321.88
587.923	299.88
588.133	310.88
588.343	296.88
588.553	330.88
588.762	314.88
588.972	319.88
589.182	324.88
589.392	318.88
589.602	316.88
589.812	308.88
590.022	320.88
590.232	311.88
590.441	318.88
590.651	312.88
590.861	325.88
591.071	314.88
591.281	323.88
591.49	339.88
591.7	324.88
591.91	314.88
592.119	335.88
592.329	330.88
592.539	349.88
592.748	331.88
592.958	358.88
593.167	343.88
593.377	350.88
593.587	356.88
593.796	378.88
594.006	370.88
594.215	360.88
594.424	362.88
594.634	352.88
594.843	356.88
595.053	354.88
595.262	337.88
595.472	320.88
595.681	314.88
595.89	322.88
596.1	322.88
596.309	310.88
596.518	303.88
596.727	319.88
596.937	326.88
597.146	312.88
597.355	310.88
597.564	293.88
597.774	286.88
597.983	296.88
598.192	307.88
598.401	310.88
598.61	294.88
598.819	286.88
599.028	297.88
599.237	287.88
599.446	294.88
599.655	294.88
599.864	304.88
600.073	284.88
600.282	281.88
600.491	292.88
600.7	289.88
600.909	270.88
601.118	292.88
601.327	262.88
601.536	255.88
601.745	285.88
601.953	286.88
602.162	289.88
602.371	294.88
602.58	289.88
602.789	265.88
602.997	267.88
603.206	292.88
603.415	286.88
603.623	264.88
603.832	272.88
604.041	279.88
604.249	282.88
604.458	279.88
604.666	277.88
604.875	276.88
605.084	251.88
605.292	259.88
605.501	249.88
605.709	267.88
605.918	277.88
606.126	259.88
606.334	258.88
606.543	262.88
606.751	256.88
606.96	276.88
607.168	260.88
607.376	263.88
607.585	264.88
607.793	250.88
608.001	281.88
608.21	257.88
608.418	254.88
608.626	253.88
608.834	261.88
609.043	246.88
609.251	266.88
609.459	263.88
609.667	259.88
609.875	267.88
610.083	265.88
610.291	265.88
610.499	265.88
610.707	270.88
610.916	250.88
611.124	263.88
611.332	268.88
611.54	260.88
611.748	264.88
611.955	279.88
612.163	263.88
612.371	261.88
612.579	256.88
612.787	251.88
612.995	246.88
613.203	270.88
613.411	239.88
613.618	252.88
613.826	258.88
614.034	261.88
614.242	251.88
614.449	260.88
614.657	254.88
614.865	267.88
615.072	266.88
615.28	255.88
615.488	248.88
615.695	265.88
615.903	259.88
616.111	256.88
616.318	268.88
616.526	267.88
616.733	263.88
616.941	231.88
617.148	265.88
617.356	272.88
617.563	272.88
617.771	251.88
617.978	259.88
618.185	248.88
618.393	252.88
618.6	256.88
618.807	266.88
619.015	259.88
619.222	257.88
619.429	248.88
619.637	256.88
619.844	248.88
620.051	243.88
620.258	236.88
620.466	236.88
620.673	257.88
620.88	242.88
621.087	243.88
621.294	239.88
621.501	255.88
621.708	251.88
621.915	254.88
622.122	233.88
622.329	232.88
622.536	243.88
622.743	246.88
622.95	235.88
623.157	232.88
623.364	248.88
623.571	235.88
623.778	238.88
623.985	244.88
624.192	229.88
624.399	235.88
624.606	233.88
624.812	230.88
625.019	263.88
625.226	238.88
625.433	225.88
625.639	210.88
625.846	221.88
626.053	210.88
626.259	217.88
626.466	234.88
626.673	240.88
626.879	226.88
627.086	224.88
627.293	209.88
627.499	225.88
627.706	220.88
627.912	223.88
628.119	212.88
628.325	205.88
628.532	218.88
628.738	220.88
628.945	209.88
629.151	226.88
629.357	216.88
629.564	212.88
629.77	226.88
629.976	198.88
630.183	206.88
630.389	210.88
630.595	204.88
630.802	210.88
631.008	217.88
631.214	190.88
631.42	206.88
631.627	214.88
631.833	235.88
632.039	217.88
632.245	197.88
632.451	194.88
632.657	203.88
632.863	184.88
633.069	205.88
633.275	211.88
633.481	202.88
633.688	204.88
633.893	219.88
634.099	216.88
634.305	209.88
634.511	208.88
634.717	194.88
634.923	206.88
635.129	206.88
635.335	196.88
635.541	193.88
635.747	197.88
635.952	195.88
636.158	196.88
636.364	208.88
636.57	206.88
636.775	188.88
636.981	186.88
637.187	194.88
637.392	188.88
637.598	209.88
637.804	187.88
638.009	182.88
638.215	193.88
638.421	182.88
638.626	190.88
638.832	202.88
639.037	183.88
639.243	178.88
639.448	191.88
639.654	210.88
639.859	198.88
640.065	182.88
640.27	193.88
640.475	179.88
640.681	172.88
640.886	178.88
641.091	178.88
641.297	165.88
641.502	191.88
641.707	180.88
641.913	194.88
642.118	180.88
642.323	189.88
642.528	179.88
642.733	181.88
642.939	182.88
643.144	182.88
643.349	193.88
643.554	186.88
643.759	178.88
643.964	183.88
644.169	182.88
644.374	178.88
644.579	188.88
644.784	172.88
644.989	188.88
645.194	170.88
645.399	182.88
645.604	188.88
645.809	173.88
646.014	170.88
646.219	190.88
646.423	171.88
646.628	162.88
646.833	177.88
647.038	186.88
647.243	192.88
647.447	176.88
647.652	178.88
647.857	195.88
648.062	187.88
648.266	196.88
648.471	194.88
648.676	195.88
648.88	168.88
649.085	193.88
649.289	182.88
649.494	190.88
649.698	204.88
649.903	196.88
650.107	190.88
650.312	164.88
650.516	164.88
650.721	167.88
650.925	176.88
651.13	166.88
651.334	160.88
651.539	163.88
651.743	171.88
651.947	166.88
652.152	163.88
652.356	141.88
652.56	150.88
652.764	142.88
652.969	149.88
653.173	154.88
653.377	144.88
653.581	151.88
653.785	152.88
653.99	149.88
654.194	152.88
654.398	156.88
654.602	133.88
654.806	147.88
655.01	138.88
655.214	139.88
655.418	150.88
655.622	154.88
655.826	144.88
656.03	123.88
656.234	144.88
656.438	131.88
656.642	148.88
656.846	137.88
657.049	149.88
657.253	130.88
657.457	142.88
657.661	126.88
657.865	125.88
658.068	130.88
658.272	130.88
658.476	107.88
658.68	104.88
658.883	119.88
659.087	100.88
659.291	96.88
659.494	99.88
659.698	116.88
659.901	114.88
660.105	103.88
660.309	96.88
660.512	101.88
660.716	98.88
660.919	97.88
661.123	91.88
661.326	91.88
661.53	87.88
661.733	80.88
661.936	83.88
662.14	90.88
662.343	102.88
662.546	80.88
662.75	94.88
662.953	85.88
663.156	94.88
663.36	73.88
663.563	81.88
663.766	84.88
663.969	84.88
664.173	70.88
664.376	81.88
664.579	84.88
664.782	94.88
664.985	94.88
665.188	75.88
665.391	82.88
665.594	89.88
665.797	93.88
666	78.88
666.203	90.88
666.406	87.88
666.609	90.88
666.812	69.88
667.015	74.88
667.218	85.88
667.421	75.88
667.624	91.88
667.827	86.88
668.03	88.88
668.232	75.88
668.435	91.88
668.638	91.88
668.841	79.88
669.043	103.88
669.246	98.88
669.449	88.88
669.651	67.88
669.854	62.88
670.057	88.88
670.259	74.88
670.462	70.88
670.665	81.88
670.867	84.88
671.07	81.88
671.272	88.88
671.475	80.88
671.677	84.88
671.88	80.88
672.082	78.88
672.284	90.88
672.487	88.88
672.689	83.88
672.892	68.88
