Data from 1975.PennyLincolnUp.Lamp.En5.5.200Scan.071719.P1.Changed Mount._HRD10591_15-55-37-858.txt Node
Date: Thu Jul 18 15:55:37 EDT 2019
User: cochatt
Spectrometer: HR+D1059
Trigger mode: 1
Integration Time (sec): 1.000000E-1
Scans to average: 1
Electric dark correction enabled: true
Nonlinearity correction enabled: false
Boxcar width: 0
XAxis mode: Wavelengths
Number of Pixels in Spectrum: 2048
>>>>>Begin Spectral Data<<<<<
223.165	-11.94
223.4	-11.94
223.635	-11.94
223.869	-19.94
224.104	-9.94
224.338	-15.94
224.573	-13.94
224.808	-13.94
225.042	-7.94
225.277	-0.94
225.511	0.06
225.746	1.06
225.98	1.06
226.215	13.06
226.449	7.06
226.683	20.06
226.918	23.06
227.152	29.06
227.387	23.06
227.621	31.06
227.856	39.06
228.09	32.06
228.324	34.06
228.559	51.06
228.793	49.06
229.027	92.06
229.262	95.06
229.496	83.06
229.73	105.06
229.964	146.06
230.199	119.06
230.433	111.06
230.667	106.06
230.901	105.06
231.136	101.06
231.37	105.06
231.604	101.06
231.838	111.06
232.072	107.06
232.306	124.06
232.541	110.06
232.775	99.06
233.009	105.06
233.243	133.06
233.477	103.06
233.711	112.06
233.945	107.06
234.179	119.06
234.413	105.06
234.647	117.06
234.881	130.06
235.115	107.06
235.349	110.06
235.583	105.06
235.817	100.06
236.051	112.06
236.285	121.06
236.519	119.06
236.753	127.06
236.987	122.06
237.221	148.06
237.455	195.06
237.689	160.06
237.922	133.06
238.156	108.06
238.39	118.06
238.624	118.06
238.858	119.06
239.091	127.06
239.325	128.06
239.559	120.06
239.793	126.06
240.027	135.06
240.26	126.06
240.494	122.06
240.728	127.06
240.961	141.06
241.195	137.06
241.429	128.06
241.662	121.06
241.896	128.06
242.13	126.06
242.363	135.06
242.597	124.06
242.83	122.06
243.064	139.06
243.298	134.06
243.531	120.06
243.765	134.06
243.998	138.06
244.232	136.06
244.465	138.06
244.699	132.06
244.932	114.06
245.166	136.06
245.399	128.06
245.633	134.06
245.866	138.06
246.099	151.06
246.333	139.06
246.566	151.06
246.8	134.06
247.033	129.06
247.266	147.06
247.5	151.06
247.733	136.06
247.966	161.06
248.2	172.06
248.433	151.06
248.666	164.06
248.899	171.06
249.133	171.06
249.366	178.06
249.599	190.06
249.832	168.06
250.066	151.06
250.299	162.06
250.532	167.06
250.765	186.06
250.998	188.06
251.231	208.06
251.465	194.06
251.698	173.06
251.931	192.06
252.164	163.06
252.397	176.06
252.63	163.06
252.863	193.06
253.096	204.06
253.329	200.06
253.562	199.06
253.795	206.06
254.028	183.06
254.261	190.06
254.494	200.06
254.727	214.06
254.96	238.06
255.193	238.06
255.426	202.06
255.659	187.06
255.892	192.06
256.124	206.06
256.357	203.06
256.59	196.06
256.823	203.06
257.056	193.06
257.289	188.06
257.521	198.06
257.754	197.06
257.987	185.06
258.22	201.06
258.452	182.06
258.685	180.06
258.918	196.06
259.151	198.06
259.383	187.06
259.616	183.06
259.849	201.06
260.081	195.06
260.314	217.06
260.547	226.06
260.779	208.06
261.012	194.06
261.244	201.06
261.477	207.06
261.71	202.06
261.942	195.06
262.175	208.06
262.407	204.06
262.64	202.06
262.872	207.06
263.105	200.06
263.337	195.06
263.57	204.06
263.802	204.06
264.035	201.06
264.267	185.06
264.499	192.06
264.732	188.06
264.964	199.06
265.197	194.06
265.429	185.06
265.661	199.06
265.894	202.06
266.126	198.06
266.358	192.06
266.591	214.06
266.823	212.06
267.055	209.06
267.287	217.06
267.52	217.06
267.752	201.06
267.984	216.06
268.216	208.06
268.448	216.06
268.681	222.06
268.913	221.06
269.145	241.06
269.377	246.06
269.609	255.06
269.841	238.06
270.073	222.06
270.306	223.06
270.538	253.06
270.77	269.06
271.002	254.06
271.234	263.06
271.466	265.06
271.698	276.06
271.93	278.06
272.162	271.06
272.394	281.06
272.626	251.06
272.858	246.06
273.09	232.06
273.322	239.06
273.553	239.06
273.785	249.06
274.017	226.06
274.249	250.06
274.481	244.06
274.713	249.06
274.945	249.06
275.176	237.06
275.408	241.06
275.64	236.06
275.872	242.06
276.104	243.06
276.335	225.06
276.567	244.06
276.799	243.06
277.031	265.06
277.262	283.06
277.494	271.06
277.726	265.06
277.957	262.06
278.189	261.06
278.421	228.06
278.652	261.06
278.884	259.06
279.115	256.06
279.347	260.06
279.579	249.06
279.81	255.06
280.042	242.06
280.273	242.06
280.505	264.06
280.736	242.06
280.968	253.06
281.199	251.06
281.431	231.06
281.662	248.06
281.894	238.06
282.125	251.06
282.356	253.06
282.588	265.06
282.819	264.06
283.051	266.06
283.282	246.06
283.513	257.06
283.745	254.06
283.976	263.06
284.207	262.06
284.439	252.06
284.67	268.06
284.901	264.06
285.132	265.06
285.364	258.06
285.595	261.06
285.826	269.06
286.057	281.06
286.288	268.06
286.52	254.06
286.751	274.06
286.982	278.06
287.213	243.06
287.444	261.06
287.675	276.06
287.906	294.06
288.138	280.06
288.369	280.06
288.6	303.06
288.831	263.06
289.062	266.06
289.293	281.06
289.524	279.06
289.755	262.06
289.986	280.06
290.217	248.06
290.448	283.06
290.679	276.06
290.91	287.06
291.141	255.06
291.371	277.06
291.602	272.06
291.833	279.06
292.064	265.06
292.295	285.06
292.526	278.06
292.757	254.06
292.987	289.06
293.218	266.06
293.449	258.06
293.68	267.06
293.91	286.06
294.141	260.06
294.372	267.06
294.603	295.06
294.833	273.06
295.064	278.06
295.295	275.06
295.525	273.06
295.756	289.06
295.987	272.06
296.217	300.06
296.448	284.06
296.679	302.06
296.909	268.06
297.14	279.06
297.37	269.06
297.601	280.06
297.831	286.06
298.062	287.06
298.292	303.06
298.523	282.06
298.753	295.06
298.984	290.06
299.214	283.06
299.445	290.06
299.675	286.06
299.905	291.06
300.136	296.06
300.366	297.06
300.597	293.06
300.827	309.06
301.057	296.06
301.288	310.06
301.518	293.06
301.748	322.06
301.979	290.06
302.209	298.06
302.439	313.06
302.669	314.06
302.9	300.06
303.13	314.06
303.36	306.06
303.59	306.06
303.82	302.06
304.051	310.06
304.281	298.06
304.511	274.06
304.741	295.06
304.971	295.06
305.201	314.06
305.431	322.06
305.661	299.06
305.891	313.06
306.121	292.06
306.352	301.06
306.582	297.06
306.812	287.06
307.042	306.06
307.272	302.06
307.502	313.06
307.731	310.06
307.961	319.06
308.191	302.06
308.421	307.06
308.651	321.06
308.881	318.06
309.111	308.06
309.341	294.06
309.571	320.06
309.8	328.06
310.03	310.06
310.26	326.06
310.49	316.06
310.72	344.06
310.949	347.06
311.179	339.06
311.409	319.06
311.639	327.06
311.868	355.06
312.098	323.06
312.328	328.06
312.557	345.06
312.787	359.06
313.017	343.06
313.246	346.06
313.476	324.06
313.706	330.06
313.935	318.06
314.165	346.06
314.394	371.06
314.624	347.06
314.853	318.06
315.083	363.06
315.312	352.06
315.542	327.06
315.771	328.06
316.001	336.06
316.23	343.06
316.46	333.06
316.689	329.06
316.919	348.06
317.148	350.06
317.377	347.06
317.607	356.06
317.836	355.06
318.065	345.06
318.295	353.06
318.524	359.06
318.753	370.06
318.983	352.06
319.212	318.06
319.441	326.06
319.67	357.06
319.9	330.06
320.129	351.06
320.358	348.06
320.587	335.06
320.816	341.06
321.046	339.06
321.275	335.06
321.504	353.06
321.733	360.06
321.962	338.06
322.191	358.06
322.42	371.06
322.649	361.06
322.878	366.06
323.108	390.06
323.337	408.06
323.566	414.06
323.795	420.06
324.024	439.06
324.253	488.06
324.482	629.06
324.71	968.06
324.939	1435.06
325.168	1266.06
325.397	642.06
325.626	478.06
325.855	407.06
326.084	409.06
326.313	397.06
326.542	410.06
326.77	440.06
326.999	481.06
327.228	615.06
327.457	908.06
327.686	1098.06
327.914	705.06
328.143	483.06
328.372	458.06
328.6	452.06
328.829	451.06
329.058	450.06
329.287	455.06
329.515	441.06
329.744	412.06
329.972	436.06
330.201	430.06
330.43	432.06
330.658	468.06
330.887	470.06
331.115	467.06
331.344	448.06
331.572	418.06
331.801	415.06
332.03	406.06
332.258	426.06
332.486	410.06
332.715	406.06
332.943	412.06
333.172	416.06
333.4	436.06
333.629	430.06
333.857	427.06
334.085	445.06
334.314	430.06
334.542	475.06
334.771	473.06
334.999	439.06
335.227	438.06
335.455	414.06
335.684	424.06
335.912	425.06
336.14	423.06
336.369	405.06
336.597	399.06
336.825	393.06
337.053	423.06
337.281	393.06
337.51	418.06
337.738	401.06
337.966	411.06
338.194	432.06
338.422	394.06
338.65	407.06
338.878	396.06
339.106	374.06
339.334	389.06
339.562	399.06
339.79	402.06
340.018	404.06
340.246	399.06
340.474	386.06
340.702	379.06
340.93	403.06
341.158	389.06
341.386	396.06
341.614	394.06
341.842	392.06
342.07	378.06
342.298	391.06
342.526	386.06
342.754	392.06
342.981	381.06
343.209	380.06
343.437	380.06
343.665	431.06
343.893	416.06
344.12	419.06
344.348	412.06
344.576	404.06
344.804	414.06
345.031	409.06
345.259	406.06
345.487	404.06
345.714	394.06
345.942	377.06
346.17	374.06
346.397	384.06
346.625	378.06
346.853	378.06
347.08	369.06
347.308	397.06
347.535	376.06
347.763	384.06
347.99	382.06
348.218	374.06
348.445	375.06
348.673	391.06
348.9	415.06
349.128	370.06
349.355	372.06
349.583	340.06
349.81	370.06
350.037	372.06
350.265	374.06
350.492	376.06
350.72	357.06
350.947	368.06
351.174	375.06
351.402	383.06
351.629	357.06
351.856	382.06
352.083	378.06
352.311	371.06
352.538	391.06
352.765	385.06
352.992	348.06
353.22	378.06
353.447	356.06
353.674	370.06
353.901	372.06
354.128	382.06
354.355	368.06
354.583	361.06
354.81	353.06
355.037	365.06
355.264	361.06
355.491	372.06
355.718	357.06
355.945	370.06
356.172	352.06
356.399	374.06
356.626	375.06
356.853	384.06
357.08	364.06
357.307	366.06
357.534	345.06
357.761	370.06
357.988	368.06
358.215	373.06
358.441	369.06
358.668	371.06
358.895	393.06
359.122	370.06
359.349	366.06
359.576	396.06
359.802	383.06
360.029	392.06
360.256	411.06
360.483	402.06
360.709	378.06
360.936	372.06
361.163	353.06
361.39	362.06
361.616	382.06
361.843	382.06
362.07	385.06
362.296	378.06
362.523	371.06
362.749	373.06
362.976	384.06
363.203	381.06
363.429	384.06
363.656	380.06
363.882	368.06
364.109	362.06
364.335	378.06
364.562	390.06
364.788	375.06
365.015	370.06
365.241	366.06
365.468	370.06
365.694	367.06
365.92	363.06
366.147	382.06
366.373	379.06
366.599	380.06
366.826	369.06
367.052	375.06
367.278	369.06
367.505	380.06
367.731	361.06
367.957	374.06
368.184	376.06
368.41	382.06
368.636	400.06
368.862	397.06
369.089	378.06
369.315	388.06
369.541	390.06
369.767	363.06
369.993	370.06
370.219	382.06
370.445	360.06
370.672	382.06
370.898	376.06
371.124	378.06
371.35	389.06
371.576	386.06
371.802	393.06
372.028	382.06
372.254	394.06
372.48	399.06
372.706	389.06
372.932	400.06
373.158	386.06
373.384	375.06
373.61	386.06
373.835	382.06
374.061	396.06
374.287	386.06
374.513	406.06
374.739	392.06
374.965	415.06
375.191	399.06
375.416	410.06
375.642	409.06
375.868	409.06
376.094	399.06
376.319	385.06
376.545	386.06
376.771	366.06
376.997	397.06
377.222	394.06
377.448	386.06
377.674	382.06
377.899	397.06
378.125	400.06
378.35	379.06
378.576	394.06
378.802	389.06
379.027	388.06
379.253	394.06
379.478	389.06
379.704	398.06
379.929	388.06
380.155	373.06
380.38	394.06
380.606	382.06
380.831	379.06
381.057	387.06
381.282	402.06
381.507	384.06
381.733	391.06
381.958	398.06
382.184	407.06
382.409	417.06
382.634	405.06
382.86	418.06
383.085	404.06
383.31	404.06
383.535	401.06
383.761	402.06
383.986	390.06
384.211	442.06
384.436	444.06
384.662	434.06
384.887	446.06
385.112	439.06
385.337	446.06
385.562	445.06
385.787	424.06
386.013	450.06
386.238	448.06
386.463	444.06
386.688	457.06
386.913	422.06
387.138	435.06
387.363	455.06
387.588	431.06
387.813	439.06
388.038	441.06
388.263	442.06
388.488	447.06
388.713	451.06
388.938	454.06
389.163	440.06
389.387	440.06
389.612	417.06
389.837	435.06
390.062	422.06
390.287	434.06
390.512	446.06
390.736	420.06
390.961	426.06
391.186	434.06
391.411	416.06
391.636	457.06
391.86	450.06
392.085	452.06
392.31	422.06
392.534	454.06
392.759	446.06
392.984	439.06
393.208	441.06
393.433	443.06
393.658	442.06
393.882	445.06
394.107	430.06
394.331	439.06
394.556	451.06
394.78	437.06
395.005	437.06
395.229	425.06
395.454	459.06
395.678	463.06
395.903	480.06
396.127	469.06
396.352	461.06
396.576	461.06
396.801	442.06
397.025	469.06
397.249	473.06
397.474	469.06
397.698	472.06
397.922	488.06
398.147	491.06
398.371	498.06
398.595	499.06
398.82	508.06
399.044	506.06
399.268	538.06
399.492	576.06
399.717	602.06
399.941	611.06
400.165	634.06
400.389	654.06
400.613	548.06
400.837	540.06
401.062	523.06
401.286	496.06
401.51	508.06
401.734	515.06
401.958	508.06
402.182	523.06
402.406	497.06
402.63	504.06
402.854	507.06
403.078	519.06
403.302	522.06
403.526	534.06
403.75	541.06
403.974	522.06
404.198	534.06
404.422	543.06
404.645	547.06
404.869	568.06
405.093	559.06
405.317	591.06
405.541	636.06
405.765	561.06
405.988	564.06
406.212	580.06
406.436	540.06
406.66	579.06
406.883	580.06
407.107	579.06
407.331	601.06
407.555	684.06
407.778	692.06
408.002	605.06
408.226	563.06
408.449	586.06
408.673	586.06
408.896	587.06
409.12	615.06
409.344	588.06
409.567	542.06
409.791	547.06
410.014	520.06
410.238	529.06
410.461	521.06
410.685	529.06
410.908	535.06
411.132	580.06
411.355	605.06
411.578	558.06
411.802	536.06
412.025	530.06
412.249	542.06
412.472	537.06
412.695	579.06
412.919	568.06
413.142	548.06
413.365	513.06
413.589	517.06
413.812	514.06
414.035	522.06
414.258	494.06
414.482	514.06
414.705	491.06
414.928	496.06
415.151	514.06
415.374	525.06
415.597	480.06
415.821	483.06
416.044	481.06
416.267	491.06
416.49	510.06
416.713	468.06
416.936	504.06
417.159	489.06
417.382	481.06
417.605	489.06
417.828	524.06
418.051	517.06
418.274	512.06
418.497	495.06
418.72	482.06
418.943	492.06
419.166	542.06
419.389	545.06
419.611	522.06
419.834	547.06
420.057	530.06
420.28	545.06
420.503	527.06
420.726	524.06
420.948	544.06
421.171	560.06
421.394	607.06
421.617	540.06
421.839	523.06
422.062	503.06
422.285	528.06
422.507	578.06
422.73	629.06
422.953	615.06
423.175	560.06
423.398	534.06
423.621	506.06
423.843	551.06
424.066	560.06
424.288	558.06
424.511	551.06
424.733	590.06
424.956	653.06
425.178	641.06
425.401	643.06
425.623	639.06
425.846	550.06
426.068	512.06
426.291	528.06
426.513	512.06
426.735	534.06
426.958	586.06
427.18	634.06
427.402	758.06
427.625	825.06
427.847	682.06
428.069	598.06
428.292	553.06
428.514	516.06
428.736	498.06
428.958	511.06
429.181	506.06
429.403	490.06
429.625	511.06
429.847	516.06
430.069	571.06
430.292	573.06
430.514	515.06
430.736	497.06
430.958	489.06
431.18	475.06
431.402	480.06
431.624	470.06
431.846	462.06
432.068	474.06
432.29	470.06
432.512	467.06
432.734	485.06
432.956	462.06
433.178	485.06
433.4	482.06
433.622	485.06
433.844	475.06
434.066	489.06
434.287	488.06
434.509	455.06
434.731	485.06
434.953	529.06
435.175	534.06
435.397	527.06
435.618	534.06
435.84	581.06
436.062	622.06
436.284	696.06
436.505	575.06
436.727	544.06
436.949	510.06
437.17	510.06
437.392	500.06
437.614	484.06
437.835	528.06
438.057	600.06
438.278	678.06
438.5	658.06
438.721	762.06
438.943	731.06
439.165	569.06
439.386	543.06
439.608	522.06
439.829	518.06
440.05	546.06
440.272	582.06
440.493	571.06
440.715	533.06
440.936	496.06
441.158	500.06
441.379	488.06
441.6	536.06
441.822	518.06
442.043	581.06
442.264	622.06
442.486	692.06
442.707	594.06
442.928	554.06
443.149	543.06
443.371	562.06
443.592	580.06
443.813	668.06
444.034	754.06
444.255	639.06
444.476	580.06
444.698	566.06
444.919	564.06
445.14	706.06
445.361	617.06
445.582	585.06
445.803	634.06
446.024	683.06
446.245	691.06
446.466	637.06
446.687	562.06
446.908	526.06
447.129	511.06
447.35	486.06
447.571	502.06
447.792	481.06
448.013	477.06
448.234	488.06
448.455	537.06
448.675	624.06
448.896	736.06
449.117	623.06
449.338	584.06
449.559	678.06
449.779	804.06
450	643.06
450.221	523.06
450.442	480.06
450.662	481.06
450.883	472.06
451.104	465.06
451.324	474.06
451.545	456.06
451.766	436.06
451.986	452.06
452.207	433.06
452.428	408.06
452.648	436.06
452.869	464.06
453.089	448.06
453.31	455.06
453.53	435.06
453.751	444.06
453.971	426.06
454.192	457.06
454.412	435.06
454.633	435.06
454.853	434.06
455.073	422.06
455.294	430.06
455.514	500.06
455.734	501.06
455.955	453.06
456.175	416.06
456.395	416.06
456.616	436.06
456.836	434.06
457.056	423.06
457.276	406.06
457.497	413.06
457.717	432.06
457.937	390.06
458.157	438.06
458.377	420.06
458.598	450.06
458.818	469.06
459.038	534.06
459.258	574.06
459.478	508.06
459.698	486.06
459.918	475.06
460.138	499.06
460.358	482.06
460.578	488.06
460.798	506.06
461.018	477.06
461.238	502.06
461.458	498.06
461.678	509.06
461.898	516.06
462.118	516.06
462.338	532.06
462.558	555.06
462.777	532.06
462.997	554.06
463.217	576.06
463.437	603.06
463.657	560.06
463.876	567.06
464.096	553.06
464.316	555.06
464.536	555.06
464.755	539.06
464.975	536.06
465.195	553.06
465.414	576.06
465.634	520.06
465.854	499.06
466.073	494.06
466.293	473.06
466.512	465.06
466.732	481.06
466.951	486.06
467.171	460.06
467.391	471.06
467.61	458.06
467.829	463.06
468.049	487.06
468.268	471.06
468.488	455.06
468.707	455.06
468.927	464.06
469.146	448.06
469.365	434.06
469.585	445.06
469.804	457.06
470.023	466.06
470.243	478.06
470.462	466.06
470.681	473.06
470.901	488.06
471.12	469.06
471.339	473.06
471.558	468.06
471.777	468.06
471.997	464.06
472.216	460.06
472.435	479.06
472.654	483.06
472.873	458.06
473.092	455.06
473.311	448.06
473.53	458.06
473.749	475.06
473.968	505.06
474.187	564.06
474.406	600.06
474.625	499.06
474.844	480.06
475.063	465.06
475.282	466.06
475.501	470.06
475.72	473.06
475.939	451.06
476.158	468.06
476.377	487.06
476.596	471.06
476.814	467.06
477.033	501.06
477.252	498.06
477.471	504.06
477.69	502.06
477.908	482.06
478.127	511.06
478.346	537.06
478.564	518.06
478.783	547.06
479.002	531.06
479.22	549.06
479.439	543.06
479.658	553.06
479.876	550.06
480.095	550.06
480.313	592.06
480.532	589.06
480.751	565.06
480.969	567.06
481.188	619.06
481.406	633.06
481.624	588.06
481.843	550.06
482.061	563.06
482.28	554.06
482.498	523.06
482.717	534.06
482.935	533.06
483.153	532.06
483.372	548.06
483.59	541.06
483.808	560.06
484.027	542.06
484.245	552.06
484.463	555.06
484.681	556.06
484.9	550.06
485.118	571.06
485.336	572.06
485.554	555.06
485.772	577.06
485.99	548.06
486.209	586.06
486.427	558.06
486.645	570.06
486.863	588.06
487.081	620.06
487.299	572.06
487.517	587.06
487.735	577.06
487.953	587.06
488.171	571.06
488.389	571.06
488.607	598.06
488.825	612.06
489.043	572.06
489.261	604.06
489.479	573.06
489.696	585.06
489.914	599.06
490.132	599.06
490.35	614.06
490.568	615.06
490.786	622.06
491.003	652.06
491.221	645.06
491.439	628.06
491.657	674.06
491.874	648.06
492.092	659.06
492.31	689.06
492.527	663.06
492.745	697.06
492.963	662.06
493.18	670.06
493.398	677.06
493.615	706.06
493.833	690.06
494.05	672.06
494.268	682.06
494.485	686.06
494.703	663.06
494.92	676.06
495.138	658.06
495.355	691.06
495.573	683.06
495.79	692.06
496.008	684.06
496.225	688.06
496.442	694.06
496.66	692.06
496.877	706.06
497.094	699.06
497.312	704.06
497.529	686.06
497.746	726.06
497.963	751.06
498.181	770.06
498.398	768.06
498.615	801.06
498.832	820.06
499.049	847.06
499.267	855.06
499.484	914.06
499.701	950.06
499.918	1007.06
500.135	1056.06
500.352	1126.06
500.569	1157.06
500.786	1141.06
501.003	1097.06
501.22	1099.06
501.437	977.06
501.654	962.06
501.871	921.06
502.088	918.06
502.305	857.06
502.522	837.06
502.739	795.06
502.956	771.06
503.172	734.06
503.389	735.06
503.606	701.06
503.823	713.06
504.04	716.06
504.256	700.06
504.473	678.06
504.69	698.06
504.907	712.06
505.123	695.06
505.34	663.06
505.557	666.06
505.773	667.06
505.99	647.06
506.207	640.06
506.423	643.06
506.64	622.06
506.856	638.06
507.073	630.06
507.289	644.06
507.506	619.06
507.722	616.06
507.939	642.06
508.155	623.06
508.372	603.06
508.588	596.06
508.805	583.06
509.021	603.06
509.238	617.06
509.454	615.06
509.67	584.06
509.887	608.06
510.103	604.06
510.319	576.06
510.536	633.06
510.752	819.06
510.968	715.06
511.184	601.06
511.401	607.06
511.617	576.06
511.833	546.06
512.049	545.06
512.265	562.06
512.481	578.06
512.698	574.06
512.914	553.06
513.13	562.06
513.346	536.06
513.562	562.06
513.778	569.06
513.994	557.06
514.21	573.06
514.426	564.06
514.642	597.06
514.858	631.06
515.074	613.06
515.29	665.06
515.506	808.06
515.721	739.06
515.937	614.06
516.153	573.06
516.369	572.06
516.585	580.06
516.801	614.06
517.016	612.06
517.232	631.06
517.448	614.06
517.664	646.06
517.879	631.06
518.095	629.06
518.311	633.06
518.527	589.06
518.742	582.06
518.958	596.06
519.173	578.06
519.389	567.06
519.605	580.06
519.82	580.06
520.036	564.06
520.251	555.06
520.467	578.06
520.682	581.06
520.898	592.06
521.113	570.06
521.329	596.06
521.544	622.06
521.76	726.06
521.975	973.06
522.19	930.06
522.406	668.06
522.621	582.06
522.836	542.06
523.052	521.06
523.267	512.06
523.482	515.06
523.698	530.06
523.913	491.06
524.128	526.06
524.343	504.06
524.559	482.06
524.774	486.06
524.989	504.06
525.204	489.06
525.419	487.06
525.634	489.06
525.849	479.06
526.064	484.06
526.28	483.06
526.495	475.06
526.71	475.06
526.925	499.06
527.14	466.06
527.355	466.06
527.57	471.06
527.785	472.06
527.999	474.06
528.214	475.06
528.429	488.06
528.644	498.06
528.859	453.06
529.074	482.06
529.289	501.06
529.503	521.06
529.718	520.06
529.933	472.06
530.148	476.06
530.363	485.06
530.577	470.06
530.792	475.06
531.007	480.06
531.221	463.06
531.436	456.06
531.651	478.06
531.865	469.06
532.08	479.06
532.295	469.06
532.509	456.06
532.724	466.06
532.938	437.06
533.153	464.06
533.367	452.06
533.582	453.06
533.796	476.06
534.011	470.06
534.225	462.06
534.44	458.06
534.654	451.06
534.868	450.06
535.083	469.06
535.297	452.06
535.511	441.06
535.726	472.06
535.94	463.06
536.154	482.06
536.369	444.06
536.583	445.06
536.797	473.06
537.011	448.06
537.225	436.06
537.44	422.06
537.654	458.06
537.868	451.06
538.082	456.06
538.296	425.06
538.51	432.06
538.724	464.06
538.938	444.06
539.153	439.06
539.367	450.06
539.581	448.06
539.795	436.06
540.009	447.06
540.222	439.06
540.436	451.06
540.65	443.06
540.864	454.06
541.078	438.06
541.292	466.06
541.506	461.06
541.72	450.06
541.934	428.06
542.147	428.06
542.361	442.06
542.575	454.06
542.789	440.06
543.002	439.06
543.216	461.06
543.43	475.06
543.644	452.06
543.857	474.06
544.071	463.06
544.285	472.06
544.498	435.06
544.712	445.06
544.925	453.06
545.139	460.06
545.352	406.06
545.566	427.06
545.779	440.06
545.993	462.06
546.206	431.06
546.42	441.06
546.633	449.06
546.847	448.06
547.06	430.06
547.274	436.06
547.487	440.06
547.7	457.06
547.914	454.06
548.127	458.06
548.34	437.06
548.554	438.06
548.767	436.06
548.98	432.06
549.193	447.06
549.407	453.06
549.62	454.06
549.833	431.06
550.046	462.06
550.259	448.06
550.473	443.06
550.686	447.06
550.899	442.06
551.112	452.06
551.325	447.06
551.538	426.06
551.751	448.06
551.964	436.06
552.177	436.06
552.39	420.06
552.603	437.06
552.816	434.06
553.029	456.06
553.242	466.06
553.455	452.06
553.667	467.06
553.88	492.06
554.093	458.06
554.306	461.06
554.519	440.06
554.732	440.06
554.944	449.06
555.157	417.06
555.37	428.06
555.583	445.06
555.795	422.06
556.008	427.06
556.221	397.06
556.433	392.06
556.646	410.06
556.859	390.06
557.071	412.06
557.284	393.06
557.496	402.06
557.709	396.06
557.921	405.06
558.134	367.06
558.346	399.06
558.559	384.06
558.771	390.06
558.984	380.06
559.196	382.06
559.409	375.06
559.621	378.06
559.833	400.06
560.046	389.06
560.258	396.06
560.47	379.06
560.683	383.06
560.895	396.06
561.107	387.06
561.32	378.06
561.532	379.06
561.744	394.06
561.956	393.06
562.168	385.06
562.381	382.06
562.593	388.06
562.805	402.06
563.017	397.06
563.229	402.06
563.441	410.06
563.653	396.06
563.865	401.06
564.077	404.06
564.289	389.06
564.501	408.06
564.713	420.06
564.925	423.06
565.137	427.06
565.349	425.06
565.561	424.06
565.773	463.06
565.985	469.06
566.197	474.06
566.408	467.06
566.62	516.06
566.832	510.06
567.044	520.06
567.255	515.06
567.467	559.06
567.679	544.06
567.891	541.06
568.102	571.06
568.314	558.06
568.526	517.06
568.737	539.06
568.949	484.06
569.161	446.06
569.372	419.06
569.584	425.06
569.795	441.06
570.007	415.06
570.218	401.06
570.43	397.06
570.641	401.06
570.853	401.06
571.064	422.06
571.276	383.06
571.487	377.06
571.698	376.06
571.91	384.06
572.121	377.06
572.333	376.06
572.544	362.06
572.755	356.06
572.966	356.06
573.178	345.06
573.389	348.06
573.6	350.06
573.811	335.06
574.023	348.06
574.234	343.06
574.445	343.06
574.656	333.06
574.867	331.06
575.078	358.06
575.289	336.06
575.501	351.06
575.712	333.06
575.923	337.06
576.134	345.06
576.345	347.06
576.556	340.06
576.767	342.06
576.978	323.06
577.188	326.06
577.399	330.06
577.61	321.06
577.821	330.06
578.032	342.06
578.243	345.06
578.454	444.06
578.665	374.06
578.875	332.06
579.086	318.06
579.297	323.06
579.508	314.06
579.718	307.06
579.929	323.06
580.14	302.06
580.35	304.06
580.561	315.06
580.772	312.06
580.982	316.06
581.193	307.06
581.403	328.06
581.614	322.06
581.825	300.06
582.035	312.06
582.246	299.06
582.456	310.06
582.667	298.06
582.877	310.06
583.087	318.06
583.298	308.06
583.508	296.06
583.719	296.06
583.929	326.06
584.139	294.06
584.35	294.06
584.56	308.06
584.77	314.06
584.981	306.06
585.191	304.06
585.401	306.06
585.611	307.06
585.821	292.06
586.032	288.06
586.242	294.06
586.452	293.06
586.662	310.06
586.872	305.06
587.082	306.06
587.292	305.06
587.502	287.06
587.713	296.06
587.923	295.06
588.133	306.06
588.343	282.06
588.553	299.06
588.762	308.06
588.972	298.06
589.182	311.06
589.392	306.06
589.602	302.06
589.812	309.06
590.022	291.06
590.232	289.06
590.441	292.06
590.651	304.06
590.861	294.06
591.071	285.06
591.281	314.06
591.49	298.06
591.7	298.06
591.91	299.06
592.119	303.06
592.329	332.06
592.539	316.06
592.748	350.06
592.958	320.06
593.167	329.06
593.377	332.06
593.587	350.06
593.796	325.06
594.006	320.06
594.215	344.06
594.424	334.06
594.634	328.06
594.843	327.06
595.053	332.06
595.262	330.06
595.472	316.06
595.681	295.06
595.89	294.06
596.1	291.06
596.309	283.06
596.518	283.06
596.727	293.06
596.937	285.06
597.146	289.06
597.355	285.06
597.564	290.06
597.774	299.06
597.983	284.06
598.192	278.06
598.401	286.06
598.61	257.06
598.819	259.06
599.028	268.06
599.237	270.06
599.446	270.06
599.655	263.06
599.864	275.06
600.073	263.06
600.282	269.06
600.491	260.06
600.7	264.06
600.909	269.06
601.118	276.06
601.327	284.06
601.536	261.06
601.745	244.06
601.953	273.06
602.162	258.06
602.371	257.06
602.58	247.06
602.789	264.06
602.997	270.06
603.206	256.06
603.415	251.06
603.623	264.06
603.832	273.06
604.041	266.06
604.249	238.06
604.458	250.06
604.666	255.06
604.875	256.06
605.084	252.06
605.292	252.06
605.501	252.06
605.709	258.06
605.918	253.06
606.126	255.06
606.334	242.06
606.543	242.06
606.751	256.06
606.96	254.06
607.168	256.06
607.376	259.06
607.585	246.06
607.793	247.06
608.001	254.06
608.21	245.06
608.418	243.06
608.626	258.06
608.834	258.06
609.043	247.06
609.251	274.06
609.459	257.06
609.667	258.06
609.875	244.06
610.083	247.06
610.291	264.06
610.499	258.06
610.707	234.06
610.916	258.06
611.124	270.06
611.332	261.06
611.54	279.06
611.748	258.06
611.955	260.06
612.163	251.06
612.371	250.06
612.579	238.06
612.787	242.06
612.995	248.06
613.203	252.06
613.411	254.06
613.618	236.06
613.826	256.06
614.034	241.06
614.242	238.06
614.449	228.06
614.657	238.06
614.865	245.06
615.072	234.06
615.28	231.06
615.488	234.06
615.695	221.06
615.903	243.06
616.111	240.06
616.318	242.06
616.526	242.06
616.733	237.06
616.941	247.06
617.148	258.06
617.356	235.06
617.563	251.06
617.771	238.06
617.978	234.06
618.185	249.06
618.393	228.06
618.6	235.06
618.807	235.06
619.015	232.06
619.222	227.06
619.429	227.06
619.637	226.06
619.844	230.06
620.051	232.06
620.258	249.06
620.466	242.06
620.673	234.06
620.88	230.06
621.087	227.06
621.294	209.06
621.501	228.06
621.708	249.06
621.915	235.06
622.122	228.06
622.329	216.06
622.536	225.06
622.743	224.06
622.95	224.06
623.157	206.06
623.364	218.06
623.571	226.06
623.778	232.06
623.985	230.06
624.192	227.06
624.399	219.06
624.606	220.06
624.812	223.06
625.019	200.06
625.226	221.06
625.433	212.06
625.639	194.06
625.846	215.06
626.053	218.06
626.259	199.06
626.466	213.06
626.673	209.06
626.879	194.06
627.086	207.06
627.293	230.06
627.499	210.06
627.706	209.06
627.912	219.06
628.119	213.06
628.325	208.06
628.532	217.06
628.738	219.06
628.945	215.06
629.151	193.06
629.357	195.06
629.564	209.06
629.77	202.06
629.976	214.06
630.183	202.06
630.389	199.06
630.595	201.06
630.802	200.06
631.008	213.06
631.214	186.06
631.42	190.06
631.627	204.06
631.833	202.06
632.039	191.06
632.245	203.06
632.451	198.06
632.657	174.06
632.863	201.06
633.069	186.06
633.275	191.06
633.481	199.06
633.688	196.06
633.893	176.06
634.099	216.06
634.305	200.06
634.511	187.06
634.717	181.06
634.923	171.06
635.129	187.06
635.335	177.06
635.541	195.06
635.747	188.06
635.952	196.06
636.158	198.06
636.364	205.06
636.57	195.06
636.775	184.06
636.981	184.06
637.187	186.06
637.392	196.06
637.598	197.06
637.804	190.06
638.009	189.06
638.215	188.06
638.421	180.06
638.626	170.06
638.832	204.06
639.037	179.06
639.243	182.06
639.448	174.06
639.654	191.06
639.859	187.06
640.065	195.06
640.27	183.06
640.475	176.06
640.681	180.06
640.886	185.06
641.091	192.06
641.297	176.06
641.502	156.06
641.707	167.06
641.913	178.06
642.118	173.06
642.323	167.06
642.528	183.06
642.733	184.06
642.939	181.06
643.144	168.06
643.349	182.06
643.554	170.06
643.759	164.06
643.964	182.06
644.169	169.06
644.374	170.06
644.579	168.06
644.784	172.06
644.989	179.06
645.194	169.06
645.399	171.06
645.604	163.06
645.809	165.06
646.014	171.06
646.219	172.06
646.423	181.06
646.628	174.06
646.833	178.06
647.038	185.06
647.243	182.06
647.447	172.06
647.652	174.06
647.857	166.06
648.062	177.06
648.266	188.06
648.471	179.06
648.676	190.06
648.88	191.06
649.085	180.06
649.289	183.06
649.494	187.06
649.698	199.06
649.903	180.06
650.107	179.06
650.312	178.06
650.516	170.06
650.721	168.06
650.925	166.06
651.13	155.06
651.334	141.06
651.539	167.06
651.743	162.06
651.947	166.06
652.152	133.06
652.356	156.06
652.56	159.06
652.764	146.06
652.969	151.06
653.173	147.06
653.377	136.06
653.581	150.06
653.785	124.06
653.99	136.06
654.194	151.06
654.398	149.06
654.602	150.06
654.806	129.06
655.01	171.06
655.214	147.06
655.418	152.06
655.622	137.06
655.826	163.06
656.03	139.06
656.234	158.06
656.438	151.06
656.642	160.06
656.846	149.06
657.049	150.06
657.253	145.06
657.457	138.06
657.661	133.06
657.865	121.06
658.068	123.06
658.272	126.06
658.476	108.06
658.68	112.06
658.883	103.06
659.087	112.06
659.291	105.06
659.494	108.06
659.698	92.06
659.901	100.06
660.105	94.06
660.309	108.06
660.512	102.06
660.716	102.06
660.919	95.06
661.123	81.06
661.326	89.06
661.53	83.06
661.733	72.06
661.936	82.06
662.14	77.06
662.343	81.06
662.546	86.06
662.75	78.06
662.953	102.06
663.156	82.06
663.36	86.06
663.563	75.06
663.766	80.06
663.969	79.06
664.173	82.06
664.376	103.06
664.579	73.06
664.782	85.06
664.985	76.06
665.188	96.06
665.391	71.06
665.594	83.06
665.797	73.06
666	77.06
666.203	93.06
666.406	88.06
666.609	78.06
666.812	80.06
667.015	70.06
667.218	83.06
667.421	84.06
667.624	72.06
667.827	72.06
668.03	86.06
668.232	88.06
668.435	79.06
668.638	83.06
668.841	75.06
669.043	63.06
669.246	76.06
669.449	77.06
669.651	96.06
669.854	84.06
670.057	83.06
670.259	84.06
670.462	81.06
670.665	84.06
670.867	84.06
671.07	100.06
671.272	86.06
671.475	85.06
671.677	85.06
671.88	69.06
672.082	85.06
672.284	82.06
672.487	69.06
672.689	80.06
672.892	75.06
