Data from 1975.PennyLincolnUp.Lamp.En5.5.200Scan.071719.P1.Changed Mount._HRD10591_15-56-28-859.txt Node
Date: Thu Jul 18 15:56:28 EDT 2019
User: cochatt
Spectrometer: HR+D1059
Trigger mode: 1
Integration Time (sec): 1.000000E-1
Scans to average: 1
Electric dark correction enabled: true
Nonlinearity correction enabled: false
Boxcar width: 0
XAxis mode: Wavelengths
Number of Pixels in Spectrum: 2048
>>>>>Begin Spectral Data<<<<<
223.165	-20.12
223.4	-20.12
223.635	-20.12
223.869	-17.12
224.104	-17.12
224.338	-4.12
224.573	1.88
224.808	-12.12
225.042	-17.12
225.277	-24.12
225.511	-13.12
225.746	2.88
225.98	7.88
226.215	5.88
226.449	27.88
226.683	20.88
226.918	19.88
227.152	37.88
227.387	45.88
227.621	45.88
227.856	47.88
228.09	42.88
228.324	41.88
228.559	63.88
228.793	65.88
229.027	90.88
229.262	101.88
229.496	101.88
229.73	131.88
229.964	148.88
230.199	118.88
230.433	103.88
230.667	127.88
230.901	111.88
231.136	108.88
231.37	97.88
231.604	110.88
231.838	114.88
232.072	113.88
232.306	121.88
232.541	123.88
232.775	98.88
233.009	113.88
233.243	107.88
233.477	106.88
233.711	117.88
233.945	110.88
234.179	104.88
234.413	109.88
234.647	121.88
234.881	108.88
235.115	117.88
235.349	120.88
235.583	130.88
235.817	107.88
236.051	129.88
236.285	122.88
236.519	125.88
236.753	140.88
236.987	152.88
237.221	164.88
237.455	214.88
237.689	183.88
237.922	126.88
238.156	127.88
238.39	130.88
238.624	125.88
238.858	129.88
239.091	120.88
239.325	122.88
239.559	126.88
239.793	137.88
240.027	131.88
240.26	140.88
240.494	149.88
240.728	146.88
240.961	158.88
241.195	150.88
241.429	125.88
241.662	134.88
241.896	140.88
242.13	145.88
242.363	128.88
242.597	129.88
242.83	140.88
243.064	157.88
243.298	143.88
243.531	140.88
243.765	142.88
243.998	129.88
244.232	145.88
244.465	146.88
244.699	149.88
244.932	147.88
245.166	152.88
245.399	136.88
245.633	168.88
245.866	139.88
246.099	142.88
246.333	159.88
246.566	161.88
246.8	147.88
247.033	164.88
247.266	162.88
247.5	161.88
247.733	176.88
247.966	174.88
248.2	169.88
248.433	169.88
248.666	168.88
248.899	186.88
249.133	181.88
249.366	200.88
249.599	194.88
249.832	169.88
250.066	185.88
250.299	167.88
250.532	191.88
250.765	195.88
250.998	224.88
251.231	235.88
251.465	226.88
251.698	213.88
251.931	201.88
252.164	182.88
252.397	221.88
252.63	201.88
252.863	209.88
253.096	215.88
253.329	222.88
253.562	228.88
253.795	221.88
254.028	204.88
254.261	212.88
254.494	226.88
254.727	248.88
254.96	279.88
255.193	279.88
255.426	232.88
255.659	228.88
255.892	231.88
256.124	229.88
256.357	233.88
256.59	235.88
256.823	229.88
257.056	202.88
257.289	196.88
257.521	205.88
257.754	214.88
257.987	202.88
258.22	208.88
258.452	212.88
258.685	207.88
258.918	218.88
259.151	213.88
259.383	225.88
259.616	216.88
259.849	237.88
260.081	220.88
260.314	256.88
260.547	279.88
260.779	254.88
261.012	226.88
261.244	231.88
261.477	234.88
261.71	219.88
261.942	234.88
262.175	227.88
262.407	226.88
262.64	208.88
262.872	209.88
263.105	223.88
263.337	203.88
263.57	221.88
263.802	213.88
264.035	209.88
264.267	206.88
264.499	204.88
264.732	220.88
264.964	214.88
265.197	216.88
265.429	213.88
265.661	224.88
265.894	214.88
266.126	218.88
266.358	226.88
266.591	219.88
266.823	224.88
267.055	222.88
267.287	233.88
267.52	225.88
267.752	226.88
267.984	246.88
268.216	229.88
268.448	241.88
268.681	245.88
268.913	252.88
269.145	265.88
269.377	276.88
269.609	263.88
269.841	262.88
270.073	281.88
270.306	290.88
270.538	318.88
270.77	309.88
271.002	289.88
271.234	277.88
271.466	295.88
271.698	293.88
271.93	309.88
272.162	321.88
272.394	326.88
272.626	302.88
272.858	292.88
273.09	290.88
273.322	259.88
273.553	261.88
273.785	264.88
274.017	275.88
274.249	272.88
274.481	254.88
274.713	254.88
274.945	273.88
275.176	255.88
275.408	262.88
275.64	266.88
275.872	261.88
276.104	267.88
276.335	276.88
276.567	271.88
276.799	266.88
277.031	291.88
277.262	317.88
277.494	316.88
277.726	292.88
277.957	280.88
278.189	282.88
278.421	260.88
278.652	269.88
278.884	274.88
279.115	281.88
279.347	284.88
279.579	275.88
279.81	269.88
280.042	272.88
280.273	262.88
280.505	274.88
280.736	266.88
280.968	272.88
281.199	256.88
281.431	298.88
281.662	286.88
281.894	271.88
282.125	267.88
282.356	298.88
282.588	307.88
282.819	297.88
283.051	282.88
283.282	279.88
283.513	284.88
283.745	282.88
283.976	291.88
284.207	291.88
284.439	290.88
284.67	283.88
284.901	273.88
285.132	282.88
285.364	273.88
285.595	282.88
285.826	273.88
286.057	297.88
286.288	286.88
286.52	270.88
286.751	297.88
286.982	283.88
287.213	292.88
287.444	294.88
287.675	303.88
287.906	309.88
288.138	282.88
288.369	312.88
288.6	310.88
288.831	297.88
289.062	311.88
289.293	289.88
289.524	285.88
289.755	292.88
289.986	301.88
290.217	307.88
290.448	290.88
290.679	292.88
290.91	293.88
291.141	284.88
291.371	299.88
291.602	301.88
291.833	299.88
292.064	281.88
292.295	289.88
292.526	292.88
292.757	276.88
292.987	301.88
293.218	308.88
293.449	301.88
293.68	305.88
293.91	302.88
294.141	329.88
294.372	303.88
294.603	309.88
294.833	297.88
295.064	283.88
295.295	312.88
295.525	308.88
295.756	299.88
295.987	299.88
296.217	311.88
296.448	298.88
296.679	327.88
296.909	317.88
297.14	306.88
297.37	318.88
297.601	314.88
297.831	321.88
298.062	318.88
298.292	329.88
298.523	326.88
298.753	333.88
298.984	312.88
299.214	331.88
299.445	317.88
299.675	330.88
299.905	321.88
300.136	304.88
300.366	311.88
300.597	322.88
300.827	305.88
301.057	319.88
301.288	298.88
301.518	334.88
301.748	320.88
301.979	325.88
302.209	338.88
302.439	323.88
302.669	342.88
302.9	333.88
303.13	345.88
303.36	340.88
303.59	348.88
303.82	337.88
304.051	338.88
304.281	359.88
304.511	339.88
304.741	324.88
304.971	315.88
305.201	319.88
305.431	316.88
305.661	326.88
305.891	321.88
306.121	321.88
306.352	341.88
306.582	326.88
306.812	340.88
307.042	328.88
307.272	341.88
307.502	342.88
307.731	331.88
307.961	345.88
308.191	344.88
308.421	354.88
308.651	348.88
308.881	346.88
309.111	342.88
309.341	346.88
309.571	346.88
309.8	354.88
310.03	356.88
310.26	347.88
310.49	354.88
310.72	366.88
310.949	371.88
311.179	393.88
311.409	363.88
311.639	374.88
311.868	351.88
312.098	367.88
312.328	366.88
312.557	395.88
312.787	397.88
313.017	393.88
313.246	382.88
313.476	383.88
313.706	384.88
313.935	391.88
314.165	389.88
314.394	390.88
314.624	379.88
314.853	378.88
315.083	377.88
315.312	375.88
315.542	344.88
315.771	335.88
316.001	379.88
316.23	380.88
316.46	356.88
316.689	393.88
316.919	381.88
317.148	377.88
317.377	373.88
317.607	383.88
317.836	370.88
318.065	374.88
318.295	382.88
318.524	370.88
318.753	374.88
318.983	365.88
319.212	367.88
319.441	371.88
319.67	371.88
319.9	374.88
320.129	387.88
320.358	389.88
320.587	383.88
320.816	379.88
321.046	370.88
321.275	379.88
321.504	404.88
321.733	389.88
321.962	372.88
322.191	393.88
322.42	396.88
322.649	429.88
322.878	425.88
323.108	449.88
323.337	435.88
323.566	437.88
323.795	471.88
324.024	491.88
324.253	574.88
324.482	786.88
324.71	1168.88
324.939	1735.88
325.168	1517.88
325.397	769.88
325.626	555.88
325.855	471.88
326.084	451.88
326.313	439.88
326.542	446.88
326.77	493.88
326.999	540.88
327.228	747.88
327.457	1103.88
327.686	1406.88
327.914	912.88
328.143	634.88
328.372	532.88
328.6	515.88
328.829	510.88
329.058	485.88
329.287	495.88
329.515	491.88
329.744	461.88
329.972	465.88
330.201	497.88
330.43	505.88
330.658	535.88
330.887	553.88
331.115	557.88
331.344	513.88
331.572	465.88
331.801	459.88
332.03	473.88
332.258	459.88
332.486	464.88
332.715	433.88
332.943	442.88
333.172	471.88
333.4	474.88
333.629	475.88
333.857	488.88
334.085	479.88
334.314	517.88
334.542	537.88
334.771	517.88
334.999	487.88
335.227	491.88
335.455	456.88
335.684	447.88
335.912	455.88
336.14	447.88
336.369	446.88
336.597	449.88
336.825	443.88
337.053	451.88
337.281	437.88
337.51	443.88
337.738	458.88
337.966	455.88
338.194	439.88
338.422	450.88
338.65	450.88
338.878	439.88
339.106	429.88
339.334	435.88
339.562	415.88
339.79	447.88
340.018	426.88
340.246	417.88
340.474	435.88
340.702	444.88
340.93	421.88
341.158	429.88
341.386	437.88
341.614	437.88
341.842	442.88
342.07	413.88
342.298	419.88
342.526	430.88
342.754	408.88
342.981	433.88
343.209	405.88
343.437	408.88
343.665	447.88
343.893	438.88
344.12	454.88
344.348	419.88
344.576	435.88
344.804	411.88
345.031	433.88
345.259	449.88
345.487	432.88
345.714	428.88
345.942	417.88
346.17	409.88
346.397	431.88
346.625	415.88
346.853	412.88
347.08	414.88
347.308	411.88
347.535	433.88
347.763	422.88
347.99	433.88
348.218	421.88
348.445	441.88
348.673	413.88
348.9	409.88
349.128	410.88
349.355	387.88
349.583	409.88
349.81	420.88
350.037	400.88
350.265	399.88
350.492	409.88
350.72	404.88
350.947	423.88
351.174	417.88
351.402	429.88
351.629	409.88
351.856	434.88
352.083	423.88
352.311	421.88
352.538	426.88
352.765	426.88
352.992	431.88
353.22	397.88
353.447	417.88
353.674	423.88
353.901	409.88
354.128	437.88
354.355	391.88
354.583	387.88
354.81	407.88
355.037	418.88
355.264	398.88
355.491	382.88
355.718	393.88
355.945	381.88
356.172	392.88
356.399	394.88
356.626	402.88
356.853	391.88
357.08	375.88
357.307	415.88
357.534	394.88
357.761	389.88
357.988	391.88
358.215	408.88
358.441	393.88
358.668	385.88
358.895	397.88
359.122	385.88
359.349	396.88
359.576	419.88
359.802	447.88
360.029	450.88
360.256	449.88
360.483	439.88
360.709	426.88
360.936	424.88
361.163	413.88
361.39	400.88
361.616	405.88
361.843	408.88
362.07	420.88
362.296	423.88
362.523	421.88
362.749	408.88
362.976	417.88
363.203	411.88
363.429	425.88
363.656	427.88
363.882	411.88
364.109	382.88
364.335	397.88
364.562	394.88
364.788	409.88
365.015	397.88
365.241	421.88
365.468	413.88
365.694	385.88
365.92	403.88
366.147	399.88
366.373	406.88
366.599	407.88
366.826	386.88
367.052	393.88
367.278	401.88
367.505	421.88
367.731	420.88
367.957	413.88
368.184	417.88
368.41	430.88
368.636	435.88
368.862	409.88
369.089	426.88
369.315	421.88
369.541	406.88
369.767	419.88
369.993	412.88
370.219	414.88
370.445	425.88
370.672	402.88
370.898	407.88
371.124	406.88
371.35	424.88
371.576	411.88
371.802	388.88
372.028	408.88
372.254	406.88
372.48	421.88
372.706	411.88
372.932	456.88
373.158	444.88
373.384	422.88
373.61	426.88
373.835	412.88
374.061	424.88
374.287	419.88
374.513	410.88
374.739	428.88
374.965	445.88
375.191	438.88
375.416	441.88
375.642	423.88
375.868	422.88
376.094	404.88
376.319	419.88
376.545	417.88
376.771	413.88
376.997	417.88
377.222	429.88
377.448	421.88
377.674	420.88
377.899	412.88
378.125	393.88
378.35	407.88
378.576	418.88
378.802	411.88
379.027	412.88
379.253	414.88
379.478	432.88
379.704	428.88
379.929	403.88
380.155	411.88
380.38	412.88
380.606	421.88
380.831	411.88
381.057	401.88
381.282	443.88
381.507	427.88
381.733	415.88
381.958	428.88
382.184	419.88
382.409	421.88
382.634	409.88
382.86	428.88
383.085	437.88
383.31	443.88
383.535	439.88
383.761	442.88
383.986	441.88
384.211	462.88
384.436	426.88
384.662	463.88
384.887	442.88
385.112	457.88
385.337	471.88
385.562	472.88
385.787	467.88
386.013	455.88
386.238	465.88
386.463	460.88
386.688	473.88
386.913	473.88
387.138	479.88
387.363	478.88
387.588	445.88
387.813	481.88
388.038	465.88
388.263	469.88
388.488	482.88
388.713	463.88
388.938	472.88
389.163	465.88
389.387	470.88
389.612	443.88
389.837	454.88
390.062	478.88
390.287	455.88
390.512	449.88
390.736	462.88
390.961	450.88
391.186	464.88
391.411	484.88
391.636	473.88
391.86	483.88
392.085	510.88
392.31	480.88
392.534	505.88
392.759	480.88
392.984	470.88
393.208	458.88
393.433	483.88
393.658	472.88
393.882	481.88
394.107	474.88
394.331	478.88
394.556	484.88
394.78	456.88
395.005	490.88
395.229	478.88
395.454	468.88
395.678	490.88
395.903	488.88
396.127	491.88
396.352	516.88
396.576	473.88
396.801	501.88
397.025	499.88
397.249	495.88
397.474	510.88
397.698	501.88
397.922	494.88
398.147	527.88
398.371	518.88
398.595	537.88
398.82	534.88
399.044	543.88
399.268	580.88
399.492	604.88
399.717	671.88
399.941	677.88
400.165	687.88
400.389	671.88
400.613	602.88
400.837	579.88
401.062	551.88
401.286	557.88
401.51	544.88
401.734	526.88
401.958	550.88
402.182	554.88
402.406	569.88
402.63	573.88
402.854	567.88
403.078	541.88
403.302	581.88
403.526	574.88
403.75	575.88
403.974	587.88
404.198	565.88
404.422	569.88
404.645	581.88
404.869	575.88
405.093	581.88
405.317	666.88
405.541	669.88
405.765	634.88
405.988	611.88
406.212	599.88
406.436	591.88
406.66	604.88
406.883	581.88
407.107	616.88
407.331	654.88
407.555	757.88
407.778	746.88
408.002	691.88
408.226	639.88
408.449	622.88
408.673	595.88
408.896	626.88
409.12	712.88
409.344	653.88
409.567	594.88
409.791	611.88
410.014	564.88
410.238	569.88
410.461	579.88
410.685	573.88
410.908	571.88
411.132	606.88
411.355	641.88
411.578	602.88
411.802	573.88
412.025	556.88
412.249	550.88
412.472	589.88
412.695	631.88
412.919	618.88
413.142	565.88
413.365	567.88
413.589	542.88
413.812	553.88
414.035	537.88
414.258	561.88
414.482	541.88
414.705	548.88
414.928	544.88
415.151	559.88
415.374	545.88
415.597	529.88
415.821	520.88
416.044	526.88
416.267	534.88
416.49	527.88
416.713	533.88
416.936	526.88
417.159	533.88
417.382	545.88
417.605	530.88
417.828	535.88
418.051	542.88
418.274	547.88
418.497	525.88
418.72	564.88
418.943	537.88
419.166	573.88
419.389	600.88
419.611	563.88
419.834	557.88
420.057	583.88
420.28	580.88
420.503	549.88
420.726	561.88
420.948	567.88
421.171	590.88
421.394	633.88
421.617	574.88
421.839	555.88
422.062	561.88
422.285	561.88
422.507	628.88
422.73	681.88
422.953	655.88
423.175	610.88
423.398	588.88
423.621	581.88
423.843	597.88
424.066	595.88
424.288	597.88
424.511	594.88
424.733	654.88
424.956	727.88
425.178	696.88
425.401	675.88
425.623	730.88
425.846	634.88
426.068	597.88
426.291	596.88
426.513	603.88
426.735	608.88
426.958	623.88
427.18	719.88
427.402	835.88
427.625	894.88
427.847	791.88
428.069	694.88
428.292	657.88
428.514	561.88
428.736	549.88
428.958	539.88
429.181	527.88
429.403	527.88
429.625	561.88
429.847	589.88
430.069	651.88
430.292	639.88
430.514	562.88
430.736	535.88
430.958	534.88
431.18	541.88
431.402	523.88
431.624	484.88
431.846	497.88
432.068	521.88
432.29	508.88
432.512	529.88
432.734	519.88
432.956	509.88
433.178	517.88
433.4	547.88
433.622	509.88
433.844	508.88
434.066	518.88
434.287	519.88
434.509	534.88
434.731	536.88
434.953	558.88
435.175	561.88
435.397	582.88
435.618	579.88
435.84	611.88
436.062	710.88
436.284	777.88
436.505	642.88
436.727	592.88
436.949	551.88
437.17	562.88
437.392	534.88
437.614	553.88
437.835	582.88
438.057	656.88
438.278	767.88
438.5	758.88
438.721	841.88
438.943	828.88
439.165	661.88
439.386	597.88
439.608	582.88
439.829	576.88
440.05	605.88
440.272	650.88
440.493	602.88
440.715	558.88
440.936	561.88
441.158	555.88
441.379	543.88
441.6	578.88
441.822	568.88
442.043	624.88
442.264	691.88
442.486	761.88
442.707	647.88
442.928	594.88
443.149	595.88
443.371	610.88
443.592	669.88
443.813	777.88
444.034	818.88
444.255	674.88
444.476	631.88
444.698	571.88
444.919	610.88
445.14	712.88
445.361	665.88
445.582	638.88
445.803	659.88
446.024	761.88
446.245	770.88
446.466	691.88
446.687	613.88
446.908	573.88
447.129	536.88
447.35	527.88
447.571	554.88
447.792	511.88
448.013	521.88
448.234	544.88
448.455	589.88
448.675	711.88
448.896	829.88
449.117	691.88
449.338	627.88
449.559	758.88
449.779	891.88
450	711.88
450.221	570.88
450.442	535.88
450.662	531.88
450.883	532.88
451.104	540.88
451.324	519.88
451.545	501.88
451.766	498.88
451.986	477.88
452.207	456.88
452.428	483.88
452.648	456.88
452.869	492.88
453.089	482.88
453.31	488.88
453.53	481.88
453.751	472.88
453.971	469.88
454.192	467.88
454.412	470.88
454.633	477.88
454.853	457.88
455.073	472.88
455.294	475.88
455.514	544.88
455.734	557.88
455.955	450.88
456.175	465.88
456.395	443.88
456.616	466.88
456.836	454.88
457.056	447.88
457.276	430.88
457.497	458.88
457.717	437.88
457.937	467.88
458.157	474.88
458.377	471.88
458.598	477.88
458.818	537.88
459.038	583.88
459.258	616.88
459.478	534.88
459.698	518.88
459.918	501.88
460.138	520.88
460.358	541.88
460.578	543.88
460.798	546.88
461.018	556.88
461.238	564.88
461.458	521.88
461.678	531.88
461.898	546.88
462.118	546.88
462.338	571.88
462.558	550.88
462.777	577.88
462.997	592.88
463.217	604.88
463.437	610.88
463.657	577.88
463.876	598.88
464.096	578.88
464.316	563.88
464.536	556.88
464.755	566.88
464.975	561.88
465.195	610.88
465.414	637.88
465.634	567.88
465.854	538.88
466.073	536.88
466.293	516.88
466.512	526.88
466.732	499.88
466.951	498.88
467.171	498.88
467.391	497.88
467.61	517.88
467.829	491.88
468.049	514.88
468.268	499.88
468.488	469.88
468.707	460.88
468.927	481.88
469.146	459.88
469.365	480.88
469.585	490.88
469.804	510.88
470.023	495.88
470.243	494.88
470.462	489.88
470.681	528.88
470.901	540.88
471.12	518.88
471.339	500.88
471.558	500.88
471.777	481.88
471.997	513.88
472.216	486.88
472.435	529.88
472.654	517.88
472.873	521.88
473.092	490.88
473.311	493.88
473.53	490.88
473.749	525.88
473.968	539.88
474.187	628.88
474.406	657.88
474.625	545.88
474.844	522.88
475.063	483.88
475.282	522.88
475.501	497.88
475.72	542.88
475.939	521.88
476.158	520.88
476.377	535.88
476.596	519.88
476.814	512.88
477.033	519.88
477.252	526.88
477.471	540.88
477.69	547.88
477.908	544.88
478.127	547.88
478.346	561.88
478.564	581.88
478.783	565.88
479.002	561.88
479.22	597.88
479.439	575.88
479.658	590.88
479.876	597.88
480.095	619.88
480.313	629.88
480.532	632.88
480.751	640.88
480.969	638.88
481.188	655.88
481.406	686.88
481.624	630.88
481.843	595.88
482.061	603.88
482.28	609.88
482.498	588.88
482.717	572.88
482.935	583.88
483.153	590.88
483.372	552.88
483.59	585.88
483.808	596.88
484.027	596.88
484.245	588.88
484.463	594.88
484.681	601.88
484.9	603.88
485.118	588.88
485.336	567.88
485.554	604.88
485.772	596.88
485.99	595.88
486.209	603.88
486.427	599.88
486.645	604.88
486.863	625.88
487.081	645.88
487.299	625.88
487.517	646.88
487.735	648.88
487.953	613.88
488.171	632.88
488.389	641.88
488.607	605.88
488.825	633.88
489.043	631.88
489.261	625.88
489.479	658.88
489.696	659.88
489.914	645.88
490.132	655.88
490.35	644.88
490.568	669.88
490.786	700.88
491.003	692.88
491.221	690.88
491.439	738.88
491.657	715.88
491.874	742.88
492.092	740.88
492.31	730.88
492.527	742.88
492.745	745.88
492.963	722.88
493.18	741.88
493.398	766.88
493.615	753.88
493.833	761.88
494.05	759.88
494.268	744.88
494.485	755.88
494.703	735.88
494.92	748.88
495.138	733.88
495.355	777.88
495.573	750.88
495.79	751.88
496.008	758.88
496.225	740.88
496.442	742.88
496.66	746.88
496.877	755.88
497.094	765.88
497.312	762.88
497.529	763.88
497.746	788.88
497.963	805.88
498.181	801.88
498.398	859.88
498.615	883.88
498.832	886.88
499.049	886.88
499.267	906.88
499.484	988.88
499.701	988.88
499.918	1069.88
500.135	1093.88
500.352	1182.88
500.569	1198.88
500.786	1211.88
501.003	1180.88
501.22	1134.88
501.437	1064.88
501.654	1020.88
501.871	995.88
502.088	951.88
502.305	936.88
502.522	885.88
502.739	857.88
502.956	838.88
503.172	799.88
503.389	798.88
503.606	783.88
503.823	792.88
504.04	779.88
504.256	747.88
504.473	742.88
504.69	774.88
504.907	771.88
505.123	753.88
505.34	742.88
505.557	721.88
505.773	724.88
505.99	728.88
506.207	691.88
506.423	697.88
506.64	705.88
506.856	701.88
507.073	703.88
507.289	685.88
507.506	660.88
507.722	671.88
507.939	699.88
508.155	679.88
508.372	670.88
508.588	641.88
508.805	661.88
509.021	641.88
509.238	685.88
509.454	631.88
509.67	671.88
509.887	671.88
510.103	668.88
510.319	643.88
510.536	713.88
510.752	1023.88
510.968	870.88
511.184	634.88
511.401	622.88
511.617	619.88
511.833	622.88
512.049	620.88
512.265	628.88
512.481	618.88
512.698	606.88
512.914	605.88
513.13	640.88
513.346	593.88
513.562	605.88
513.778	634.88
513.994	625.88
514.21	612.88
514.426	628.88
514.642	673.88
514.858	675.88
515.074	703.88
515.29	759.88
515.506	1021.88
515.721	904.88
515.937	699.88
516.153	669.88
516.369	656.88
516.585	670.88
516.801	651.88
517.016	653.88
517.232	652.88
517.448	653.88
517.664	666.88
517.879	674.88
518.095	693.88
518.311	670.88
518.527	657.88
518.742	647.88
518.958	646.88
519.173	609.88
519.389	612.88
519.605	603.88
519.82	613.88
520.036	621.88
520.251	645.88
520.467	662.88
520.682	651.88
520.898	651.88
521.113	642.88
521.329	670.88
521.544	721.88
521.76	827.88
521.975	1234.88
522.19	1210.88
522.406	777.88
522.621	653.88
522.836	604.88
523.052	599.88
523.267	548.88
523.482	571.88
523.698	573.88
523.913	551.88
524.128	548.88
524.343	550.88
524.559	532.88
524.774	515.88
524.989	518.88
525.204	552.88
525.419	528.88
525.634	546.88
525.849	525.88
526.064	507.88
526.28	511.88
526.495	513.88
526.71	517.88
526.925	509.88
527.14	542.88
527.355	511.88
527.57	517.88
527.785	518.88
527.999	525.88
528.214	509.88
528.429	511.88
528.644	501.88
528.859	513.88
529.074	526.88
529.289	522.88
529.503	565.88
529.718	567.88
529.933	546.88
530.148	501.88
530.363	494.88
530.577	502.88
530.792	506.88
531.007	487.88
531.221	506.88
531.436	503.88
531.651	490.88
531.865	521.88
532.08	509.88
532.295	502.88
532.509	508.88
532.724	516.88
532.938	488.88
533.153	489.88
533.367	485.88
533.582	507.88
533.796	505.88
534.011	492.88
534.225	507.88
534.44	482.88
534.654	500.88
534.868	489.88
535.083	459.88
535.297	500.88
535.511	485.88
535.726	497.88
535.94	510.88
536.154	491.88
536.369	477.88
536.583	481.88
536.797	455.88
537.011	466.88
537.225	478.88
537.44	463.88
537.654	455.88
537.868	481.88
538.082	470.88
538.296	463.88
538.51	483.88
538.724	457.88
538.938	469.88
539.153	486.88
539.367	493.88
539.581	481.88
539.795	478.88
540.009	458.88
540.222	471.88
540.436	474.88
540.65	487.88
540.864	497.88
541.078	486.88
541.292	485.88
541.506	485.88
541.72	481.88
541.934	492.88
542.147	467.88
542.361	487.88
542.575	465.88
542.789	468.88
543.002	464.88
543.216	454.88
543.43	480.88
543.644	472.88
543.857	472.88
544.071	465.88
544.285	481.88
544.498	469.88
544.712	469.88
544.925	463.88
545.139	497.88
545.352	472.88
545.566	465.88
545.779	463.88
545.993	477.88
546.206	477.88
546.42	475.88
546.633	468.88
546.847	487.88
547.06	441.88
547.274	493.88
547.487	474.88
547.7	445.88
547.914	480.88
548.127	451.88
548.34	462.88
548.554	459.88
548.767	465.88
548.98	451.88
549.193	483.88
549.407	475.88
549.62	473.88
549.833	485.88
550.046	466.88
550.259	460.88
550.473	455.88
550.686	469.88
550.899	471.88
551.112	461.88
551.325	470.88
551.538	463.88
551.751	459.88
551.964	447.88
552.177	445.88
552.39	460.88
552.603	484.88
552.816	466.88
553.029	463.88
553.242	474.88
553.455	494.88
553.667	482.88
553.88	481.88
554.093	477.88
554.306	472.88
554.519	469.88
554.732	467.88
554.944	474.88
555.157	445.88
555.37	460.88
555.583	442.88
555.795	456.88
556.008	437.88
556.221	439.88
556.433	439.88
556.646	427.88
556.859	424.88
557.071	413.88
557.284	412.88
557.496	427.88
557.709	398.88
557.921	422.88
558.134	408.88
558.346	419.88
558.559	410.88
558.771	419.88
558.984	414.88
559.196	415.88
559.409	413.88
559.621	418.88
559.833	406.88
560.046	391.88
560.258	419.88
560.47	399.88
560.683	413.88
560.895	407.88
561.107	408.88
561.32	398.88
561.532	411.88
561.744	427.88
561.956	430.88
562.168	433.88
562.381	418.88
562.593	417.88
562.805	407.88
563.017	423.88
563.229	416.88
563.441	415.88
563.653	428.88
563.865	444.88
564.077	418.88
564.289	429.88
564.501	425.88
564.713	448.88
564.925	439.88
565.137	448.88
565.349	447.88
565.561	440.88
565.773	461.88
565.985	467.88
566.197	488.88
566.408	494.88
566.62	523.88
566.832	523.88
567.044	543.88
567.255	546.88
567.467	550.88
567.679	581.88
567.891	603.88
568.102	591.88
568.314	575.88
568.526	552.88
568.737	533.88
568.949	483.88
569.161	461.88
569.372	466.88
569.584	434.88
569.795	436.88
570.007	434.88
570.218	446.88
570.43	447.88
570.641	431.88
570.853	408.88
571.064	396.88
571.276	397.88
571.487	414.88
571.698	406.88
571.91	381.88
572.121	386.88
572.333	395.88
572.544	372.88
572.755	373.88
572.966	381.88
573.178	388.88
573.389	366.88
573.6	375.88
573.811	373.88
574.023	374.88
574.234	359.88
574.445	355.88
574.656	364.88
574.867	358.88
575.078	349.88
575.289	353.88
575.501	357.88
575.712	365.88
575.923	345.88
576.134	355.88
576.345	363.88
576.556	347.88
576.767	365.88
576.978	348.88
577.188	346.88
577.399	335.88
577.61	346.88
577.821	360.88
578.032	341.88
578.243	357.88
578.454	473.88
578.665	420.88
578.875	342.88
579.086	329.88
579.297	329.88
579.508	340.88
579.718	335.88
579.929	350.88
580.14	325.88
580.35	337.88
580.561	327.88
580.772	322.88
580.982	326.88
581.193	317.88
581.403	313.88
581.614	333.88
581.825	317.88
582.035	324.88
582.246	335.88
582.456	326.88
582.667	315.88
582.877	323.88
583.087	312.88
583.298	300.88
583.508	338.88
583.719	329.88
583.929	332.88
584.139	312.88
584.35	308.88
584.56	328.88
584.77	323.88
584.981	311.88
585.191	310.88
585.401	323.88
585.611	310.88
585.821	297.88
586.032	311.88
586.242	310.88
586.452	327.88
586.662	321.88
586.872	323.88
587.082	298.88
587.292	311.88
587.502	285.88
587.713	296.88
587.923	309.88
588.133	322.88
588.343	316.88
588.553	307.88
588.762	297.88
588.972	307.88
589.182	293.88
589.392	313.88
589.602	300.88
589.812	299.88
590.022	321.88
590.232	310.88
590.441	303.88
590.651	309.88
590.861	305.88
591.071	313.88
591.281	300.88
591.49	300.88
591.7	321.88
591.91	334.88
592.119	340.88
592.329	320.88
592.539	342.88
592.748	344.88
592.958	334.88
593.167	347.88
593.377	348.88
593.587	354.88
593.796	357.88
594.006	342.88
594.215	334.88
594.424	354.88
594.634	351.88
594.843	334.88
595.053	321.88
595.262	302.88
595.472	326.88
595.681	335.88
595.89	323.88
596.1	315.88
596.309	302.88
596.518	293.88
596.727	308.88
596.937	298.88
597.146	276.88
597.355	275.88
597.564	301.88
597.774	292.88
597.983	302.88
598.192	295.88
598.401	267.88
598.61	300.88
598.819	286.88
599.028	278.88
599.237	283.88
599.446	282.88
599.655	279.88
599.864	287.88
600.073	290.88
600.282	281.88
600.491	282.88
600.7	289.88
600.909	280.88
601.118	282.88
601.327	261.88
601.536	259.88
601.745	270.88
601.953	255.88
602.162	259.88
602.371	257.88
602.58	277.88
602.789	276.88
602.997	249.88
603.206	257.88
603.415	274.88
603.623	271.88
603.832	269.88
604.041	286.88
604.249	269.88
604.458	275.88
604.666	267.88
604.875	247.88
605.084	261.88
605.292	245.88
605.501	281.88
605.709	259.88
605.918	264.88
606.126	265.88
606.334	258.88
606.543	260.88
606.751	263.88
606.96	252.88
607.168	254.88
607.376	258.88
607.585	243.88
607.793	258.88
608.001	251.88
608.21	231.88
608.418	251.88
608.626	267.88
608.834	278.88
609.043	270.88
609.251	261.88
609.459	266.88
609.667	253.88
609.875	232.88
610.083	258.88
610.291	238.88
610.499	261.88
610.707	253.88
610.916	274.88
611.124	271.88
611.332	265.88
611.54	275.88
611.748	262.88
611.955	258.88
612.163	253.88
612.371	223.88
612.579	242.88
612.787	242.88
612.995	252.88
613.203	261.88
613.411	243.88
613.618	251.88
613.826	243.88
614.034	246.88
614.242	244.88
614.449	246.88
614.657	261.88
614.865	247.88
615.072	246.88
615.28	247.88
615.488	249.88
615.695	225.88
615.903	244.88
616.111	253.88
616.318	244.88
616.526	243.88
616.733	241.88
616.941	247.88
617.148	257.88
617.356	257.88
617.563	236.88
617.771	253.88
617.978	245.88
618.185	250.88
618.393	247.88
618.6	243.88
618.807	244.88
619.015	250.88
619.222	235.88
619.429	241.88
619.637	246.88
619.844	237.88
620.051	243.88
620.258	243.88
620.466	246.88
620.673	231.88
620.88	227.88
621.087	222.88
621.294	222.88
621.501	241.88
621.708	241.88
621.915	247.88
622.122	238.88
622.329	227.88
622.536	234.88
622.743	236.88
622.95	239.88
623.157	220.88
623.364	222.88
623.571	217.88
623.778	225.88
623.985	222.88
624.192	224.88
624.399	228.88
624.606	208.88
624.812	227.88
625.019	228.88
625.226	217.88
625.433	234.88
625.639	210.88
625.846	210.88
626.053	214.88
626.259	209.88
626.466	227.88
626.673	241.88
626.879	234.88
627.086	225.88
627.293	223.88
627.499	217.88
627.706	235.88
627.912	224.88
628.119	219.88
628.325	213.88
628.532	202.88
628.738	216.88
628.945	228.88
629.151	204.88
629.357	216.88
629.564	213.88
629.77	208.88
629.976	214.88
630.183	226.88
630.389	215.88
630.595	203.88
630.802	185.88
631.008	203.88
631.214	203.88
631.42	214.88
631.627	212.88
631.833	194.88
632.039	205.88
632.245	193.88
632.451	184.88
632.657	201.88
632.863	198.88
633.069	195.88
633.275	205.88
633.481	200.88
633.688	194.88
633.893	197.88
634.099	181.88
634.305	198.88
634.511	194.88
634.717	189.88
634.923	198.88
635.129	214.88
635.335	193.88
635.541	183.88
635.747	197.88
635.952	177.88
636.158	196.88
636.364	213.88
636.57	205.88
636.775	197.88
636.981	169.88
637.187	203.88
637.392	188.88
637.598	186.88
637.804	185.88
638.009	195.88
638.215	194.88
638.421	198.88
638.626	182.88
638.832	170.88
639.037	183.88
639.243	197.88
639.448	195.88
639.654	179.88
639.859	175.88
640.065	159.88
640.27	192.88
640.475	161.88
640.681	174.88
640.886	193.88
641.091	166.88
641.297	181.88
641.502	185.88
641.707	181.88
641.913	174.88
642.118	181.88
642.323	185.88
642.528	185.88
642.733	184.88
642.939	169.88
643.144	170.88
643.349	180.88
643.554	175.88
643.759	167.88
643.964	170.88
644.169	188.88
644.374	177.88
644.579	174.88
644.784	201.88
644.989	197.88
645.194	178.88
645.399	185.88
645.604	177.88
645.809	184.88
646.014	188.88
646.219	189.88
646.423	167.88
646.628	189.88
646.833	181.88
647.038	161.88
647.243	173.88
647.447	177.88
647.652	183.88
647.857	169.88
648.062	171.88
648.266	183.88
648.471	171.88
648.676	183.88
648.88	171.88
649.085	177.88
649.289	180.88
649.494	171.88
649.698	190.88
649.903	187.88
650.107	168.88
650.312	164.88
650.516	166.88
650.721	169.88
650.925	169.88
651.13	161.88
651.334	155.88
651.539	149.88
651.743	166.88
651.947	162.88
652.152	147.88
652.356	170.88
652.56	155.88
652.764	154.88
652.969	143.88
653.173	153.88
653.377	161.88
653.581	147.88
653.785	158.88
653.99	134.88
654.194	141.88
654.398	151.88
654.602	149.88
654.806	139.88
655.01	149.88
655.214	140.88
655.418	144.88
655.622	135.88
655.826	133.88
656.03	147.88
656.234	130.88
656.438	138.88
656.642	139.88
656.846	145.88
657.049	145.88
657.253	150.88
657.457	130.88
657.661	122.88
657.865	134.88
658.068	121.88
658.272	119.88
658.476	119.88
658.68	110.88
658.883	124.88
659.087	110.88
659.291	97.88
659.494	102.88
659.698	100.88
659.901	99.88
660.105	117.88
660.309	100.88
660.512	99.88
660.716	94.88
660.919	107.88
661.123	103.88
661.326	87.88
661.53	85.88
661.733	95.88
661.936	91.88
662.14	88.88
662.343	82.88
662.546	90.88
662.75	99.88
662.953	85.88
663.156	82.88
663.36	76.88
663.563	77.88
663.766	88.88
663.969	96.88
664.173	84.88
664.376	80.88
664.579	77.88
664.782	90.88
664.985	85.88
665.188	75.88
665.391	81.88
665.594	79.88
665.797	84.88
666	80.88
666.203	90.88
666.406	78.88
666.609	80.88
666.812	95.88
667.015	75.88
667.218	99.88
667.421	85.88
667.624	97.88
667.827	80.88
668.03	70.88
668.232	83.88
668.435	91.88
668.638	98.88
668.841	84.88
669.043	97.88
669.246	66.88
669.449	83.88
669.651	72.88
669.854	77.88
670.057	81.88
670.259	90.88
670.462	86.88
670.665	84.88
670.867	83.88
671.07	86.88
671.272	85.88
671.475	82.88
671.677	90.88
671.88	84.88
672.082	84.88
672.284	99.88
672.487	91.88
672.689	82.88
672.892	88.88
