Data from 1975.PennyLincolnUp.Lamp.En5.5.200Scan.071719.P1.Changed Mount._HRD10591_15-57-49-859.txt Node
Date: Thu Jul 18 15:57:49 EDT 2019
User: cochatt
Spectrometer: HR+D1059
Trigger mode: 1
Integration Time (sec): 1.000000E-1
Scans to average: 1
Electric dark correction enabled: true
Nonlinearity correction enabled: false
Boxcar width: 0
XAxis mode: Wavelengths
Number of Pixels in Spectrum: 2048
>>>>>Begin Spectral Data<<<<<
223.165	-11.12
223.4	-11.12
223.635	-11.12
223.869	-10.12
224.104	-20.12
224.338	-21.12
224.573	0.88
224.808	-10.12
225.042	-14.12
225.277	3.88
225.511	-5.12
225.746	-12.12
225.98	1.88
226.215	8.88
226.449	6.88
226.683	14.88
226.918	27.88
227.152	38.88
227.387	17.88
227.621	47.88
227.856	27.88
228.09	49.88
228.324	48.88
228.559	57.88
228.793	74.88
229.027	88.88
229.262	109.88
229.496	112.88
229.73	107.88
229.964	136.88
230.199	120.88
230.433	122.88
230.667	117.88
230.901	100.88
231.136	105.88
231.37	128.88
231.604	120.88
231.838	122.88
232.072	119.88
232.306	105.88
232.541	107.88
232.775	102.88
233.009	104.88
233.243	130.88
233.477	108.88
233.711	120.88
233.945	122.88
234.179	120.88
234.413	114.88
234.647	114.88
234.881	121.88
235.115	112.88
235.349	101.88
235.583	125.88
235.817	117.88
236.051	112.88
236.285	138.88
236.519	122.88
236.753	128.88
236.987	134.88
237.221	164.88
237.455	226.88
237.689	192.88
237.922	152.88
238.156	126.88
238.39	122.88
238.624	129.88
238.858	119.88
239.091	119.88
239.325	113.88
239.559	144.88
239.793	125.88
240.027	142.88
240.26	141.88
240.494	141.88
240.728	153.88
240.961	161.88
241.195	153.88
241.429	155.88
241.662	134.88
241.896	133.88
242.13	140.88
242.363	122.88
242.597	135.88
242.83	140.88
243.064	152.88
243.298	145.88
243.531	142.88
243.765	136.88
243.998	133.88
244.232	143.88
244.465	141.88
244.699	149.88
244.932	136.88
245.166	146.88
245.399	145.88
245.633	158.88
245.866	157.88
246.099	147.88
246.333	155.88
246.566	147.88
246.8	154.88
247.033	147.88
247.266	152.88
247.5	177.88
247.733	177.88
247.966	172.88
248.2	162.88
248.433	166.88
248.666	169.88
248.899	197.88
249.133	195.88
249.366	208.88
249.599	208.88
249.832	197.88
250.066	180.88
250.299	170.88
250.532	174.88
250.765	203.88
250.998	231.88
251.231	225.88
251.465	229.88
251.698	215.88
251.931	191.88
252.164	201.88
252.397	200.88
252.63	206.88
252.863	196.88
253.096	223.88
253.329	214.88
253.562	228.88
253.795	231.88
254.028	221.88
254.261	218.88
254.494	226.88
254.727	249.88
254.96	267.88
255.193	279.88
255.426	240.88
255.659	237.88
255.892	246.88
256.124	240.88
256.357	245.88
256.59	228.88
256.823	222.88
257.056	205.88
257.289	212.88
257.521	228.88
257.754	216.88
257.987	203.88
258.22	218.88
258.452	222.88
258.685	207.88
258.918	203.88
259.151	197.88
259.383	212.88
259.616	230.88
259.849	220.88
260.081	258.88
260.314	263.88
260.547	259.88
260.779	226.88
261.012	225.88
261.244	231.88
261.477	209.88
261.71	239.88
261.942	229.88
262.175	219.88
262.407	214.88
262.64	213.88
262.872	211.88
263.105	212.88
263.337	223.88
263.57	219.88
263.802	214.88
264.035	214.88
264.267	215.88
264.499	217.88
264.732	231.88
264.964	230.88
265.197	220.88
265.429	220.88
265.661	228.88
265.894	230.88
266.126	208.88
266.358	220.88
266.591	230.88
266.823	232.88
267.055	230.88
267.287	225.88
267.52	225.88
267.752	230.88
267.984	223.88
268.216	235.88
268.448	261.88
268.681	242.88
268.913	243.88
269.145	252.88
269.377	276.88
269.609	282.88
269.841	266.88
270.073	284.88
270.306	300.88
270.538	314.88
270.77	307.88
271.002	296.88
271.234	299.88
271.466	276.88
271.698	315.88
271.93	325.88
272.162	322.88
272.394	335.88
272.626	325.88
272.858	300.88
273.09	292.88
273.322	268.88
273.553	258.88
273.785	296.88
274.017	270.88
274.249	278.88
274.481	268.88
274.713	266.88
274.945	285.88
275.176	282.88
275.408	276.88
275.64	262.88
275.872	273.88
276.104	275.88
276.335	269.88
276.567	280.88
276.799	316.88
277.031	319.88
277.262	312.88
277.494	322.88
277.726	326.88
277.957	303.88
278.189	312.88
278.421	288.88
278.652	278.88
278.884	305.88
279.115	311.88
279.347	280.88
279.579	276.88
279.81	287.88
280.042	280.88
280.273	263.88
280.505	275.88
280.736	274.88
280.968	274.88
281.199	287.88
281.431	275.88
281.662	294.88
281.894	290.88
282.125	297.88
282.356	302.88
282.588	294.88
282.819	314.88
283.051	293.88
283.282	286.88
283.513	311.88
283.745	293.88
283.976	306.88
284.207	273.88
284.439	311.88
284.67	299.88
284.901	278.88
285.132	284.88
285.364	274.88
285.595	302.88
285.826	298.88
286.057	306.88
286.288	304.88
286.52	291.88
286.751	302.88
286.982	294.88
287.213	288.88
287.444	312.88
287.675	316.88
287.906	305.88
288.138	308.88
288.369	325.88
288.6	305.88
288.831	317.88
289.062	324.88
289.293	305.88
289.524	315.88
289.755	325.88
289.986	297.88
290.217	298.88
290.448	310.88
290.679	314.88
290.91	308.88
291.141	306.88
291.371	304.88
291.602	314.88
291.833	285.88
292.064	303.88
292.295	296.88
292.526	300.88
292.757	315.88
292.987	305.88
293.218	290.88
293.449	318.88
293.68	312.88
293.91	320.88
294.141	300.88
294.372	312.88
294.603	280.88
294.833	312.88
295.064	307.88
295.295	312.88
295.525	309.88
295.756	316.88
295.987	316.88
296.217	349.88
296.448	332.88
296.679	341.88
296.909	308.88
297.14	324.88
297.37	304.88
297.601	328.88
297.831	324.88
298.062	346.88
298.292	340.88
298.523	332.88
298.753	323.88
298.984	331.88
299.214	323.88
299.445	323.88
299.675	331.88
299.905	337.88
300.136	320.88
300.366	329.88
300.597	335.88
300.827	337.88
301.057	324.88
301.288	332.88
301.518	336.88
301.748	349.88
301.979	339.88
302.209	358.88
302.439	343.88
302.669	350.88
302.9	333.88
303.13	355.88
303.36	344.88
303.59	345.88
303.82	341.88
304.051	342.88
304.281	351.88
304.511	328.88
304.741	332.88
304.971	356.88
305.201	351.88
305.431	313.88
305.661	320.88
305.891	324.88
306.121	348.88
306.352	359.88
306.582	343.88
306.812	351.88
307.042	351.88
307.272	353.88
307.502	360.88
307.731	357.88
307.961	338.88
308.191	344.88
308.421	368.88
308.651	347.88
308.881	351.88
309.111	343.88
309.341	373.88
309.571	382.88
309.8	377.88
310.03	367.88
310.26	368.88
310.49	373.88
310.72	366.88
310.949	374.88
311.179	399.88
311.409	394.88
311.639	392.88
311.868	375.88
312.098	389.88
312.328	405.88
312.557	389.88
312.787	413.88
313.017	404.88
313.246	413.88
313.476	388.88
313.706	390.88
313.935	394.88
314.165	387.88
314.394	412.88
314.624	414.88
314.853	388.88
315.083	388.88
315.312	386.88
315.542	399.88
315.771	373.88
316.001	356.88
316.23	404.88
316.46	405.88
316.689	408.88
316.919	397.88
317.148	416.88
317.377	399.88
317.607	408.88
317.836	392.88
318.065	391.88
318.295	387.88
318.524	380.88
318.753	387.88
318.983	380.88
319.212	402.88
319.441	381.88
319.67	385.88
319.9	407.88
320.129	384.88
320.358	386.88
320.587	405.88
320.816	398.88
321.046	402.88
321.275	400.88
321.504	395.88
321.733	414.88
321.962	406.88
322.191	422.88
322.42	424.88
322.649	442.88
322.878	443.88
323.108	446.88
323.337	443.88
323.566	515.88
323.795	500.88
324.024	529.88
324.253	592.88
324.482	808.88
324.71	1251.88
324.939	1844.88
325.168	1662.88
325.397	859.88
325.626	581.88
325.855	517.88
326.084	495.88
326.313	466.88
326.542	480.88
326.77	513.88
326.999	594.88
327.228	759.88
327.457	1146.88
327.686	1461.88
327.914	974.88
328.143	667.88
328.372	566.88
328.6	552.88
328.829	537.88
329.058	543.88
329.287	556.88
329.515	539.88
329.744	514.88
329.972	510.88
330.201	515.88
330.43	551.88
330.658	566.88
330.887	612.88
331.115	574.88
331.344	513.88
331.572	498.88
331.801	490.88
332.03	480.88
332.258	474.88
332.486	491.88
332.715	460.88
332.943	469.88
333.172	484.88
333.4	492.88
333.629	508.88
333.857	526.88
334.085	505.88
334.314	545.88
334.542	577.88
334.771	554.88
334.999	534.88
335.227	490.88
335.455	484.88
335.684	504.88
335.912	480.88
336.14	480.88
336.369	456.88
336.597	486.88
336.825	470.88
337.053	482.88
337.281	464.88
337.51	458.88
337.738	456.88
337.966	475.88
338.194	471.88
338.422	464.88
338.65	450.88
338.878	458.88
339.106	450.88
339.334	446.88
339.562	451.88
339.79	442.88
340.018	431.88
340.246	444.88
340.474	464.88
340.702	444.88
340.93	436.88
341.158	455.88
341.386	443.88
341.614	436.88
341.842	457.88
342.07	411.88
342.298	438.88
342.526	424.88
342.754	438.88
342.981	431.88
343.209	451.88
343.437	448.88
343.665	478.88
343.893	486.88
344.12	467.88
344.348	467.88
344.576	457.88
344.804	491.88
345.031	477.88
345.259	460.88
345.487	456.88
345.714	428.88
345.942	440.88
346.17	451.88
346.397	426.88
346.625	434.88
346.853	445.88
347.08	424.88
347.308	424.88
347.535	424.88
347.763	454.88
347.99	428.88
348.218	443.88
348.445	446.88
348.673	423.88
348.9	442.88
349.128	425.88
349.355	435.88
349.583	419.88
349.81	419.88
350.037	415.88
350.265	418.88
350.492	432.88
350.72	439.88
350.947	417.88
351.174	417.88
351.402	447.88
351.629	428.88
351.856	416.88
352.083	428.88
352.311	458.88
352.538	467.88
352.765	438.88
352.992	451.88
353.22	417.88
353.447	438.88
353.674	447.88
353.901	445.88
354.128	410.88
354.355	410.88
354.583	400.88
354.81	393.88
355.037	423.88
355.264	417.88
355.491	403.88
355.718	392.88
355.945	416.88
356.172	432.88
356.399	409.88
356.626	414.88
356.853	410.88
357.08	390.88
357.307	409.88
357.534	404.88
357.761	415.88
357.988	427.88
358.215	415.88
358.441	410.88
358.668	404.88
358.895	418.88
359.122	426.88
359.349	421.88
359.576	436.88
359.802	442.88
360.029	454.88
360.256	454.88
360.483	457.88
360.709	456.88
360.936	456.88
361.163	418.88
361.39	432.88
361.616	441.88
361.843	431.88
362.07	432.88
362.296	425.88
362.523	438.88
362.749	428.88
362.976	427.88
363.203	417.88
363.429	426.88
363.656	441.88
363.882	416.88
364.109	428.88
364.335	428.88
364.562	433.88
364.788	414.88
365.015	424.88
365.241	401.88
365.468	417.88
365.694	414.88
365.92	442.88
366.147	434.88
366.373	423.88
366.599	407.88
366.826	427.88
367.052	421.88
367.278	428.88
367.505	421.88
367.731	426.88
367.957	428.88
368.184	436.88
368.41	410.88
368.636	436.88
368.862	445.88
369.089	423.88
369.315	428.88
369.541	433.88
369.767	416.88
369.993	410.88
370.219	430.88
370.445	428.88
370.672	436.88
370.898	424.88
371.124	425.88
371.35	417.88
371.576	439.88
371.802	434.88
372.028	432.88
372.254	447.88
372.48	401.88
372.706	436.88
372.932	438.88
373.158	422.88
373.384	432.88
373.61	457.88
373.835	402.88
374.061	425.88
374.287	439.88
374.513	442.88
374.739	435.88
374.965	448.88
375.191	448.88
375.416	441.88
375.642	444.88
375.868	408.88
376.094	447.88
376.319	434.88
376.545	428.88
376.771	427.88
376.997	430.88
377.222	434.88
377.448	424.88
377.674	425.88
377.899	426.88
378.125	416.88
378.35	432.88
378.576	420.88
378.802	427.88
379.027	412.88
379.253	437.88
379.478	436.88
379.704	434.88
379.929	426.88
380.155	420.88
380.38	420.88
380.606	418.88
380.831	447.88
381.057	448.88
381.282	428.88
381.507	425.88
381.733	423.88
381.958	436.88
382.184	434.88
382.409	441.88
382.634	444.88
382.86	462.88
383.085	451.88
383.31	451.88
383.535	432.88
383.761	430.88
383.986	463.88
384.211	458.88
384.436	470.88
384.662	424.88
384.887	483.88
385.112	488.88
385.337	465.88
385.562	468.88
385.787	470.88
386.013	507.88
386.238	487.88
386.463	510.88
386.688	490.88
386.913	499.88
387.138	471.88
387.363	489.88
387.588	473.88
387.813	495.88
388.038	468.88
388.263	491.88
388.488	478.88
388.713	470.88
388.938	496.88
389.163	486.88
389.387	489.88
389.612	468.88
389.837	483.88
390.062	492.88
390.287	489.88
390.512	481.88
390.736	478.88
390.961	484.88
391.186	475.88
391.411	473.88
391.636	495.88
391.86	516.88
392.085	492.88
392.31	500.88
392.534	522.88
392.759	514.88
392.984	485.88
393.208	496.88
393.433	512.88
393.658	483.88
393.882	477.88
394.107	500.88
394.331	482.88
394.556	499.88
394.78	478.88
395.005	496.88
395.229	481.88
395.454	490.88
395.678	494.88
395.903	516.88
396.127	540.88
396.352	537.88
396.576	512.88
396.801	518.88
397.025	494.88
397.249	520.88
397.474	515.88
397.698	545.88
397.922	526.88
398.147	529.88
398.371	551.88
398.595	544.88
398.82	561.88
399.044	550.88
399.268	607.88
399.492	658.88
399.717	694.88
399.941	707.88
400.165	704.88
400.389	693.88
400.613	652.88
400.837	619.88
401.062	563.88
401.286	579.88
401.51	588.88
401.734	557.88
401.958	562.88
402.182	576.88
402.406	592.88
402.63	579.88
402.854	566.88
403.078	577.88
403.302	602.88
403.526	613.88
403.75	597.88
403.974	623.88
404.198	592.88
404.422	610.88
404.645	625.88
404.869	596.88
405.093	633.88
405.317	691.88
405.541	710.88
405.765	661.88
405.988	627.88
406.212	629.88
406.436	618.88
406.66	640.88
406.883	622.88
407.107	652.88
407.331	680.88
407.555	780.88
407.778	771.88
408.002	723.88
408.226	688.88
408.449	657.88
408.673	662.88
408.896	674.88
409.12	680.88
409.344	695.88
409.567	592.88
409.791	608.88
410.014	598.88
410.238	581.88
410.461	609.88
410.685	605.88
410.908	607.88
411.132	652.88
411.355	659.88
411.578	637.88
411.802	595.88
412.025	614.88
412.249	583.88
412.472	617.88
412.695	672.88
412.919	666.88
413.142	590.88
413.365	594.88
413.589	584.88
413.812	560.88
414.035	568.88
414.258	572.88
414.482	547.88
414.705	558.88
414.928	548.88
415.151	564.88
415.374	554.88
415.597	564.88
415.821	550.88
416.044	571.88
416.267	556.88
416.49	560.88
416.713	551.88
416.936	556.88
417.159	558.88
417.382	568.88
417.605	571.88
417.828	572.88
418.051	599.88
418.274	574.88
418.497	580.88
418.72	584.88
418.943	561.88
419.166	584.88
419.389	629.88
419.611	594.88
419.834	599.88
420.057	579.88
420.28	602.88
420.503	607.88
420.726	610.88
420.948	613.88
421.171	640.88
421.394	654.88
421.617	624.88
421.839	610.88
422.062	619.88
422.285	595.88
422.507	632.88
422.73	698.88
422.953	715.88
423.175	628.88
423.398	597.88
423.621	600.88
423.843	634.88
424.066	650.88
424.288	642.88
424.511	648.88
424.733	691.88
424.956	744.88
425.178	736.88
425.401	730.88
425.623	743.88
425.846	645.88
426.068	623.88
426.291	596.88
426.513	599.88
426.735	608.88
426.958	643.88
427.18	743.88
427.402	887.88
427.625	971.88
427.847	794.88
428.069	720.88
428.292	658.88
428.514	606.88
428.736	576.88
428.958	558.88
429.181	563.88
429.403	550.88
429.625	569.88
429.847	574.88
430.069	654.88
430.292	668.88
430.514	592.88
430.736	563.88
430.958	551.88
431.18	552.88
431.402	543.88
431.624	547.88
431.846	503.88
432.068	518.88
432.29	564.88
432.512	541.88
432.734	552.88
432.956	534.88
433.178	566.88
433.4	550.88
433.622	552.88
433.844	531.88
434.066	531.88
434.287	536.88
434.509	554.88
434.731	535.88
434.953	558.88
435.175	592.88
435.397	603.88
435.618	592.88
435.84	607.88
436.062	741.88
436.284	816.88
436.505	679.88
436.727	628.88
436.949	582.88
437.17	583.88
437.392	552.88
437.614	586.88
437.835	590.88
438.057	693.88
438.278	787.88
438.5	786.88
438.721	875.88
438.943	851.88
439.165	666.88
439.386	612.88
439.608	621.88
439.829	622.88
440.05	610.88
440.272	686.88
440.493	619.88
440.715	608.88
440.936	606.88
441.158	586.88
441.379	556.88
441.6	598.88
441.822	598.88
442.043	632.88
442.264	739.88
442.486	792.88
442.707	672.88
442.928	634.88
443.149	644.88
443.371	645.88
443.592	688.88
443.813	781.88
444.034	860.88
444.255	732.88
444.476	659.88
444.698	658.88
444.919	655.88
445.14	753.88
445.361	701.88
445.582	653.88
445.803	716.88
446.024	797.88
446.245	812.88
446.466	705.88
446.687	630.88
446.908	609.88
447.129	594.88
447.35	561.88
447.571	548.88
447.792	513.88
448.013	552.88
448.234	594.88
448.455	616.88
448.675	742.88
448.896	847.88
449.117	726.88
449.338	687.88
449.559	782.88
449.779	874.88
450	702.88
450.221	587.88
450.442	553.88
450.662	538.88
450.883	539.88
451.104	543.88
451.324	549.88
451.545	522.88
451.766	533.88
451.986	482.88
452.207	496.88
452.428	483.88
452.648	479.88
452.869	470.88
453.089	509.88
453.31	522.88
453.53	517.88
453.751	511.88
453.971	475.88
454.192	503.88
454.412	483.88
454.633	485.88
454.853	498.88
455.073	486.88
455.294	508.88
455.514	564.88
455.734	582.88
455.955	512.88
456.175	479.88
456.395	470.88
456.616	473.88
456.836	464.88
457.056	455.88
457.276	456.88
457.497	476.88
457.717	456.88
457.937	494.88
458.157	475.88
458.377	481.88
458.598	508.88
458.818	539.88
459.038	610.88
459.258	666.88
459.478	548.88
459.698	547.88
459.918	539.88
460.138	527.88
460.358	538.88
460.578	535.88
460.798	544.88
461.018	575.88
461.238	560.88
461.458	552.88
461.678	549.88
461.898	568.88
462.118	572.88
462.338	592.88
462.558	607.88
462.777	589.88
462.997	623.88
463.217	639.88
463.437	668.88
463.657	640.88
463.876	598.88
464.096	610.88
464.316	615.88
464.536	628.88
464.755	619.88
464.975	612.88
465.195	601.88
465.414	678.88
465.634	614.88
465.854	556.88
466.073	579.88
466.293	538.88
466.512	499.88
466.732	522.88
466.951	515.88
467.171	514.88
467.391	520.88
467.61	518.88
467.829	524.88
468.049	531.88
468.268	531.88
468.488	528.88
468.707	527.88
468.927	506.88
469.146	492.88
469.365	492.88
469.585	523.88
469.804	516.88
470.023	535.88
470.243	543.88
470.462	530.88
470.681	541.88
470.901	565.88
471.12	528.88
471.339	516.88
471.558	522.88
471.777	535.88
471.997	517.88
472.216	516.88
472.435	548.88
472.654	546.88
472.873	517.88
473.092	521.88
473.311	514.88
473.53	530.88
473.749	531.88
473.968	564.88
474.187	660.88
474.406	690.88
474.625	575.88
474.844	528.88
475.063	521.88
475.282	520.88
475.501	530.88
475.72	532.88
475.939	529.88
476.158	569.88
476.377	522.88
476.596	554.88
476.814	542.88
477.033	550.88
477.252	539.88
477.471	555.88
477.69	569.88
477.908	542.88
478.127	580.88
478.346	576.88
478.564	578.88
478.783	585.88
479.002	592.88
479.22	600.88
479.439	606.88
479.658	629.88
479.876	631.88
480.095	629.88
480.313	667.88
480.532	631.88
480.751	650.88
480.969	674.88
481.188	700.88
481.406	728.88
481.624	659.88
481.843	660.88
482.061	595.88
482.28	606.88
482.498	601.88
482.717	619.88
482.935	628.88
483.153	590.88
483.372	622.88
483.59	618.88
483.808	619.88
484.027	606.88
484.245	611.88
484.463	619.88
484.681	613.88
484.9	619.88
485.118	646.88
485.336	626.88
485.554	642.88
485.772	629.88
485.99	634.88
486.209	613.88
486.427	644.88
486.645	596.88
486.863	670.88
487.081	669.88
487.299	643.88
487.517	656.88
487.735	666.88
487.953	650.88
488.171	653.88
488.389	652.88
488.607	645.88
488.825	661.88
489.043	651.88
489.261	654.88
489.479	660.88
489.696	674.88
489.914	667.88
490.132	659.88
490.35	657.88
490.568	694.88
490.786	678.88
491.003	702.88
491.221	712.88
491.439	730.88
491.657	742.88
491.874	740.88
492.092	753.88
492.31	740.88
492.527	770.88
492.745	765.88
492.963	756.88
493.18	800.88
493.398	783.88
493.615	791.88
493.833	777.88
494.05	768.88
494.268	769.88
494.485	780.88
494.703	762.88
494.92	751.88
495.138	776.88
495.355	775.88
495.573	771.88
495.79	768.88
496.008	773.88
496.225	787.88
496.442	783.88
496.66	792.88
496.877	783.88
497.094	804.88
497.312	785.88
497.529	806.88
497.746	825.88
497.963	816.88
498.181	846.88
498.398	856.88
498.615	855.88
498.832	920.88
499.049	908.88
499.267	979.88
499.484	1016.88
499.701	1031.88
499.918	1083.88
500.135	1187.88
500.352	1242.88
500.569	1257.88
500.786	1238.88
501.003	1217.88
501.22	1194.88
501.437	1130.88
501.654	1089.88
501.871	1019.88
502.088	1000.88
502.305	958.88
502.522	900.88
502.739	885.88
502.956	844.88
503.172	827.88
503.389	840.88
503.606	829.88
503.823	841.88
504.04	787.88
504.256	787.88
504.473	810.88
504.69	779.88
504.907	801.88
505.123	799.88
505.34	748.88
505.557	743.88
505.773	763.88
505.99	742.88
506.207	722.88
506.423	725.88
506.64	738.88
506.856	695.88
507.073	721.88
507.289	736.88
507.506	704.88
507.722	708.88
507.939	724.88
508.155	704.88
508.372	672.88
508.588	694.88
508.805	673.88
509.021	682.88
509.238	681.88
509.454	693.88
509.67	678.88
509.887	669.88
510.103	667.88
510.319	666.88
510.536	746.88
510.752	1087.88
510.968	922.88
511.184	667.88
511.401	671.88
511.617	660.88
511.833	652.88
512.049	661.88
512.265	648.88
512.481	643.88
512.698	609.88
512.914	622.88
513.13	661.88
513.346	651.88
513.562	645.88
513.778	619.88
513.994	642.88
514.21	656.88
514.426	659.88
514.642	670.88
514.858	722.88
515.074	750.88
515.29	808.88
515.506	1088.88
515.721	947.88
515.937	724.88
516.153	686.88
516.369	690.88
516.585	654.88
516.801	646.88
517.016	666.88
517.232	671.88
517.448	681.88
517.664	711.88
517.879	704.88
518.095	668.88
518.311	685.88
518.527	688.88
518.742	675.88
518.958	672.88
519.173	639.88
519.389	650.88
519.605	651.88
519.82	633.88
520.036	657.88
520.251	671.88
520.467	681.88
520.682	677.88
520.898	672.88
521.113	669.88
521.329	718.88
521.544	774.88
521.76	889.88
521.975	1314.88
522.19	1289.88
522.406	805.88
522.621	695.88
522.836	624.88
523.052	625.88
523.267	594.88
523.482	609.88
523.698	578.88
523.913	556.88
524.128	578.88
524.343	595.88
524.559	562.88
524.774	551.88
524.989	562.88
525.204	585.88
525.419	588.88
525.634	551.88
525.849	540.88
526.064	554.88
526.28	539.88
526.495	516.88
526.71	520.88
526.925	564.88
527.14	550.88
527.355	534.88
527.57	548.88
527.785	576.88
527.999	515.88
528.214	527.88
528.429	530.88
528.644	539.88
528.859	539.88
529.074	540.88
529.289	558.88
529.503	579.88
529.718	594.88
529.933	570.88
530.148	543.88
530.363	527.88
530.577	520.88
530.792	548.88
531.007	536.88
531.221	528.88
531.436	529.88
531.651	528.88
531.865	527.88
532.08	523.88
532.295	518.88
532.509	512.88
532.724	517.88
532.938	522.88
533.153	531.88
533.367	510.88
533.582	504.88
533.796	531.88
534.011	523.88
534.225	494.88
534.44	496.88
534.654	512.88
534.868	491.88
535.083	520.88
535.297	518.88
535.511	511.88
535.726	506.88
535.94	516.88
536.154	497.88
536.369	507.88
536.583	486.88
536.797	500.88
537.011	486.88
537.225	513.88
537.44	484.88
537.654	486.88
537.868	490.88
538.082	482.88
538.296	493.88
538.51	486.88
538.724	502.88
538.938	478.88
539.153	512.88
539.367	525.88
539.581	512.88
539.795	488.88
540.009	490.88
540.222	478.88
540.436	500.88
540.65	502.88
540.864	504.88
541.078	514.88
541.292	492.88
541.506	484.88
541.72	513.88
541.934	509.88
542.147	487.88
542.361	512.88
542.575	475.88
542.789	478.88
543.002	491.88
543.216	484.88
543.43	494.88
543.644	495.88
543.857	500.88
544.071	484.88
544.285	516.88
544.498	489.88
544.712	480.88
544.925	498.88
545.139	469.88
545.352	494.88
545.566	518.88
545.779	498.88
545.993	489.88
546.206	479.88
546.42	510.88
546.633	485.88
546.847	507.88
547.06	478.88
547.274	468.88
547.487	479.88
547.7	482.88
547.914	471.88
548.127	504.88
548.34	496.88
548.554	472.88
548.767	491.88
548.98	491.88
549.193	486.88
549.407	495.88
549.62	513.88
549.833	463.88
550.046	481.88
550.259	466.88
550.473	478.88
550.686	481.88
550.899	479.88
551.112	463.88
551.325	460.88
551.538	462.88
551.751	478.88
551.964	472.88
552.177	470.88
552.39	474.88
552.603	486.88
552.816	478.88
553.029	472.88
553.242	522.88
553.455	496.88
553.667	506.88
553.88	514.88
554.093	472.88
554.306	494.88
554.519	498.88
554.732	481.88
554.944	479.88
555.157	461.88
555.37	451.88
555.583	472.88
555.795	459.88
556.008	451.88
556.221	446.88
556.433	447.88
556.646	437.88
556.859	435.88
557.071	436.88
557.284	427.88
557.496	436.88
557.709	437.88
557.921	438.88
558.134	445.88
558.346	436.88
558.559	439.88
558.771	420.88
558.984	421.88
559.196	418.88
559.409	440.88
559.621	422.88
559.833	408.88
560.046	435.88
560.258	418.88
560.47	420.88
560.683	410.88
560.895	408.88
561.107	435.88
561.32	423.88
561.532	430.88
561.744	429.88
561.956	431.88
562.168	404.88
562.381	417.88
562.593	423.88
562.805	432.88
563.017	432.88
563.229	437.88
563.441	420.88
563.653	432.88
563.865	430.88
564.077	433.88
564.289	458.88
564.501	428.88
564.713	477.88
564.925	443.88
565.137	446.88
565.349	463.88
565.561	475.88
565.773	469.88
565.985	478.88
566.197	487.88
566.408	537.88
566.62	533.88
566.832	529.88
567.044	564.88
567.255	572.88
567.467	582.88
567.679	587.88
567.891	581.88
568.102	614.88
568.314	586.88
568.526	548.88
568.737	542.88
568.949	495.88
569.161	492.88
569.372	471.88
569.584	471.88
569.795	456.88
570.007	446.88
570.218	467.88
570.43	471.88
570.641	457.88
570.853	424.88
571.064	424.88
571.276	412.88
571.487	404.88
571.698	414.88
571.91	404.88
572.121	401.88
572.333	399.88
572.544	391.88
572.755	409.88
572.966	375.88
573.178	388.88
573.389	395.88
573.6	356.88
573.811	366.88
574.023	363.88
574.234	367.88
574.445	382.88
574.656	358.88
574.867	365.88
575.078	376.88
575.289	367.88
575.501	355.88
575.712	365.88
575.923	362.88
576.134	358.88
576.345	366.88
576.556	357.88
576.767	368.88
576.978	352.88
577.188	359.88
577.399	349.88
577.61	358.88
577.821	353.88
578.032	344.88
578.243	395.88
578.454	508.88
578.665	430.88
578.875	370.88
579.086	331.88
579.297	334.88
579.508	343.88
579.718	338.88
579.929	347.88
580.14	353.88
580.35	335.88
580.561	332.88
580.772	334.88
580.982	331.88
581.193	314.88
581.403	331.88
581.614	318.88
581.825	338.88
582.035	313.88
582.246	335.88
582.456	335.88
582.667	325.88
582.877	337.88
583.087	327.88
583.298	328.88
583.508	318.88
583.719	314.88
583.929	327.88
584.139	308.88
584.35	314.88
584.56	316.88
584.77	319.88
584.981	336.88
585.191	321.88
585.401	322.88
585.611	306.88
585.821	327.88
586.032	326.88
586.242	319.88
586.452	336.88
586.662	333.88
586.872	313.88
587.082	327.88
587.292	331.88
587.502	327.88
587.713	314.88
587.923	303.88
588.133	324.88
588.343	328.88
588.553	323.88
588.762	304.88
588.972	331.88
589.182	317.88
589.392	331.88
589.602	351.88
589.812	307.88
590.022	295.88
590.232	311.88
590.441	330.88
590.651	337.88
590.861	323.88
591.071	313.88
591.281	324.88
591.49	335.88
591.7	314.88
591.91	320.88
592.119	322.88
592.329	331.88
592.539	336.88
592.748	343.88
592.958	362.88
593.167	364.88
593.377	345.88
593.587	340.88
593.796	375.88
594.006	351.88
594.215	345.88
594.424	373.88
594.634	343.88
594.843	335.88
595.053	335.88
595.262	340.88
595.472	364.88
595.681	324.88
595.89	330.88
596.1	312.88
596.309	327.88
596.518	312.88
596.727	318.88
596.937	305.88
597.146	286.88
597.355	299.88
597.564	294.88
597.774	291.88
597.983	282.88
598.192	290.88
598.401	295.88
598.61	279.88
598.819	280.88
599.028	278.88
599.237	284.88
599.446	287.88
599.655	290.88
599.864	291.88
600.073	275.88
600.282	279.88
600.491	292.88
600.7	306.88
600.909	276.88
601.118	274.88
601.327	262.88
601.536	288.88
601.745	289.88
601.953	270.88
602.162	283.88
602.371	275.88
602.58	268.88
602.789	257.88
602.997	264.88
603.206	267.88
603.415	281.88
603.623	290.88
603.832	272.88
604.041	278.88
604.249	272.88
604.458	264.88
604.666	251.88
604.875	266.88
605.084	276.88
605.292	260.88
605.501	277.88
605.709	267.88
605.918	264.88
606.126	265.88
606.334	273.88
606.543	277.88
606.751	254.88
606.96	262.88
607.168	278.88
607.376	251.88
607.585	276.88
607.793	272.88
608.001	254.88
608.21	256.88
608.418	250.88
608.626	258.88
608.834	260.88
609.043	272.88
609.251	258.88
609.459	264.88
609.667	268.88
609.875	262.88
610.083	264.88
610.291	250.88
610.499	272.88
610.707	254.88
610.916	249.88
611.124	260.88
611.332	247.88
611.54	266.88
611.748	279.88
611.955	284.88
612.163	258.88
612.371	262.88
612.579	248.88
612.787	266.88
612.995	265.88
613.203	274.88
613.411	269.88
613.618	276.88
613.826	263.88
614.034	253.88
614.242	259.88
614.449	271.88
614.657	264.88
614.865	271.88
615.072	257.88
615.28	248.88
615.488	249.88
615.695	250.88
615.903	243.88
616.111	267.88
616.318	251.88
616.526	255.88
616.733	254.88
616.941	259.88
617.148	256.88
617.356	263.88
617.563	263.88
617.771	261.88
617.978	251.88
618.185	242.88
618.393	251.88
618.6	248.88
618.807	258.88
619.015	231.88
619.222	261.88
619.429	248.88
619.637	259.88
619.844	244.88
620.051	225.88
620.258	223.88
620.466	240.88
620.673	226.88
620.88	238.88
621.087	239.88
621.294	233.88
621.501	242.88
621.708	238.88
621.915	234.88
622.122	240.88
622.329	241.88
622.536	240.88
622.743	239.88
622.95	227.88
623.157	239.88
623.364	234.88
623.571	235.88
623.778	228.88
623.985	249.88
624.192	232.88
624.399	248.88
624.606	225.88
624.812	230.88
625.019	234.88
625.226	226.88
625.433	230.88
625.639	231.88
625.846	220.88
626.053	218.88
626.259	235.88
626.466	218.88
626.673	223.88
626.879	215.88
627.086	194.88
627.293	222.88
627.499	218.88
627.706	223.88
627.912	217.88
628.119	207.88
628.325	218.88
628.532	202.88
628.738	211.88
628.945	215.88
629.151	210.88
629.357	224.88
629.564	228.88
629.77	216.88
629.976	211.88
630.183	216.88
630.389	233.88
630.595	193.88
630.802	207.88
631.008	194.88
631.214	205.88
631.42	204.88
631.627	223.88
631.833	206.88
632.039	201.88
632.245	195.88
632.451	213.88
632.657	199.88
632.863	202.88
633.069	214.88
633.275	194.88
633.481	200.88
633.688	193.88
633.893	202.88
634.099	177.88
634.305	198.88
634.511	205.88
634.717	200.88
634.923	190.88
635.129	193.88
635.335	188.88
635.541	193.88
635.747	198.88
635.952	194.88
636.158	210.88
636.364	187.88
636.57	200.88
636.775	201.88
636.981	203.88
637.187	197.88
637.392	178.88
637.598	170.88
637.804	203.88
638.009	191.88
638.215	216.88
638.421	171.88
638.626	195.88
638.832	180.88
639.037	194.88
639.243	192.88
639.448	177.88
639.654	176.88
639.859	184.88
640.065	183.88
640.27	190.88
640.475	186.88
640.681	179.88
640.886	198.88
641.091	179.88
641.297	171.88
641.502	177.88
641.707	182.88
641.913	185.88
642.118	174.88
642.323	182.88
642.528	185.88
642.733	171.88
642.939	170.88
643.144	172.88
643.349	173.88
643.554	170.88
643.759	171.88
643.964	183.88
644.169	184.88
644.374	181.88
644.579	181.88
644.784	168.88
644.989	183.88
645.194	178.88
645.399	177.88
645.604	171.88
645.809	176.88
646.014	178.88
646.219	176.88
646.423	178.88
646.628	181.88
646.833	171.88
647.038	160.88
647.243	179.88
647.447	180.88
647.652	182.88
647.857	177.88
648.062	185.88
648.266	184.88
648.471	194.88
648.676	176.88
648.88	175.88
649.085	190.88
649.289	178.88
649.494	191.88
649.698	218.88
649.903	194.88
650.107	184.88
650.312	164.88
650.516	168.88
650.721	177.88
650.925	158.88
651.13	157.88
651.334	164.88
651.539	160.88
651.743	154.88
651.947	152.88
652.152	150.88
652.356	134.88
652.56	142.88
652.764	159.88
652.969	128.88
653.173	138.88
653.377	146.88
653.581	142.88
653.785	136.88
653.99	156.88
654.194	140.88
654.398	140.88
654.602	139.88
654.806	148.88
655.01	146.88
655.214	135.88
655.418	137.88
655.622	148.88
655.826	134.88
656.03	139.88
656.234	135.88
656.438	133.88
656.642	152.88
656.846	146.88
657.049	134.88
657.253	122.88
657.457	131.88
657.661	112.88
657.865	100.88
658.068	119.88
658.272	116.88
658.476	123.88
658.68	102.88
658.883	116.88
659.087	106.88
659.291	107.88
659.494	97.88
659.698	97.88
659.901	85.88
660.105	111.88
660.309	115.88
660.512	101.88
660.716	96.88
660.919	100.88
661.123	87.88
661.326	84.88
661.53	83.88
661.733	91.88
661.936	87.88
662.14	86.88
662.343	85.88
662.546	96.88
662.75	95.88
662.953	91.88
663.156	71.88
663.36	84.88
663.563	82.88
663.766	82.88
663.969	98.88
664.173	75.88
664.376	80.88
664.579	77.88
664.782	88.88
664.985	87.88
665.188	87.88
665.391	93.88
665.594	96.88
665.797	78.88
666	76.88
666.203	87.88
666.406	86.88
666.609	86.88
666.812	76.88
667.015	75.88
667.218	67.88
667.421	75.88
667.624	79.88
667.827	100.88
668.03	90.88
668.232	93.88
668.435	73.88
668.638	79.88
668.841	80.88
669.043	78.88
669.246	91.88
669.449	84.88
669.651	80.88
669.854	79.88
670.057	87.88
670.259	88.88
670.462	84.88
670.665	80.88
670.867	78.88
671.07	79.88
671.272	84.88
671.475	85.88
671.677	66.88
671.88	80.88
672.082	86.88
672.284	74.88
672.487	85.88
672.689	83.88
672.892	70.88
