Data from 1975.PennyLincolnUp.Lamp.En5.5.200Scan.071719.P1.Changed Mount._HRD10591_15-56-16-858.txt Node
Date: Thu Jul 18 15:56:16 EDT 2019
User: cochatt
Spectrometer: HR+D1059
Trigger mode: 1
Integration Time (sec): 1.000000E-1
Scans to average: 1
Electric dark correction enabled: true
Nonlinearity correction enabled: false
Boxcar width: 0
XAxis mode: Wavelengths
Number of Pixels in Spectrum: 2048
>>>>>Begin Spectral Data<<<<<
223.165	1.06
223.4	1.06
223.635	1.06
223.869	-26.94
224.104	-10.94
224.338	-3.94
224.573	-20.94
224.808	-17.94
225.042	-1.94
225.277	-1.94
225.511	-9.94
225.746	5.06
225.98	13.06
226.215	10.06
226.449	14.06
226.683	1.06
226.918	15.06
227.152	35.06
227.387	35.06
227.621	35.06
227.856	50.06
228.09	45.06
228.324	45.06
228.559	70.06
228.793	65.06
229.027	95.06
229.262	115.06
229.496	97.06
229.73	123.06
229.964	141.06
230.199	125.06
230.433	102.06
230.667	116.06
230.901	114.06
231.136	103.06
231.37	113.06
231.604	126.06
231.838	115.06
232.072	106.06
232.306	101.06
232.541	107.06
232.775	113.06
233.009	108.06
233.243	103.06
233.477	95.06
233.711	114.06
233.945	118.06
234.179	118.06
234.413	113.06
234.647	125.06
234.881	118.06
235.115	119.06
235.349	119.06
235.583	121.06
235.817	110.06
236.051	129.06
236.285	133.06
236.519	137.06
236.753	133.06
236.987	133.06
237.221	158.06
237.455	196.06
237.689	177.06
237.922	129.06
238.156	149.06
238.39	122.06
238.624	139.06
238.858	140.06
239.091	127.06
239.325	125.06
239.559	127.06
239.793	133.06
240.027	145.06
240.26	145.06
240.494	148.06
240.728	132.06
240.961	154.06
241.195	141.06
241.429	131.06
241.662	127.06
241.896	125.06
242.13	136.06
242.363	126.06
242.597	137.06
242.83	149.06
243.064	141.06
243.298	144.06
243.531	131.06
243.765	130.06
243.998	150.06
244.232	147.06
244.465	149.06
244.699	135.06
244.932	134.06
245.166	131.06
245.399	148.06
245.633	141.06
245.866	140.06
246.099	144.06
246.333	147.06
246.566	150.06
246.8	139.06
247.033	150.06
247.266	143.06
247.5	155.06
247.733	177.06
247.966	170.06
248.2	161.06
248.433	177.06
248.666	184.06
248.899	193.06
249.133	202.06
249.366	212.06
249.599	173.06
249.832	178.06
250.066	167.06
250.299	180.06
250.532	179.06
250.765	207.06
250.998	210.06
251.231	219.06
251.465	218.06
251.698	193.06
251.931	199.06
252.164	191.06
252.397	216.06
252.63	189.06
252.863	205.06
253.096	214.06
253.329	236.06
253.562	234.06
253.795	207.06
254.028	203.06
254.261	205.06
254.494	217.06
254.727	236.06
254.96	273.06
255.193	261.06
255.426	232.06
255.659	207.06
255.892	215.06
256.124	219.06
256.357	232.06
256.59	212.06
256.823	210.06
257.056	212.06
257.289	222.06
257.521	209.06
257.754	212.06
257.987	205.06
258.22	207.06
258.452	204.06
258.685	214.06
258.918	188.06
259.151	213.06
259.383	225.06
259.616	207.06
259.849	216.06
260.081	229.06
260.314	245.06
260.547	251.06
260.779	246.06
261.012	222.06
261.244	225.06
261.477	219.06
261.71	221.06
261.942	201.06
262.175	213.06
262.407	212.06
262.64	217.06
262.872	209.06
263.105	206.06
263.337	211.06
263.57	218.06
263.802	215.06
264.035	207.06
264.267	206.06
264.499	203.06
264.732	222.06
264.964	217.06
265.197	216.06
265.429	226.06
265.661	199.06
265.894	209.06
266.126	216.06
266.358	207.06
266.591	211.06
266.823	225.06
267.055	204.06
267.287	234.06
267.52	207.06
267.752	220.06
267.984	226.06
268.216	234.06
268.448	236.06
268.681	247.06
268.913	237.06
269.145	247.06
269.377	279.06
269.609	280.06
269.841	257.06
270.073	267.06
270.306	263.06
270.538	284.06
270.77	289.06
271.002	284.06
271.234	277.06
271.466	289.06
271.698	287.06
271.93	296.06
272.162	285.06
272.394	310.06
272.626	289.06
272.858	278.06
273.09	271.06
273.322	283.06
273.553	257.06
273.785	268.06
274.017	260.06
274.249	257.06
274.481	263.06
274.713	254.06
274.945	255.06
275.176	248.06
275.408	269.06
275.64	248.06
275.872	249.06
276.104	265.06
276.335	261.06
276.567	285.06
276.799	270.06
277.031	281.06
277.262	301.06
277.494	288.06
277.726	283.06
277.957	298.06
278.189	298.06
278.421	278.06
278.652	269.06
278.884	266.06
279.115	268.06
279.347	264.06
279.579	277.06
279.81	271.06
280.042	262.06
280.273	279.06
280.505	275.06
280.736	272.06
280.968	265.06
281.199	262.06
281.431	274.06
281.662	277.06
281.894	284.06
282.125	267.06
282.356	277.06
282.588	299.06
282.819	303.06
283.051	277.06
283.282	289.06
283.513	294.06
283.745	280.06
283.976	267.06
284.207	277.06
284.439	286.06
284.67	289.06
284.901	281.06
285.132	290.06
285.364	272.06
285.595	294.06
285.826	269.06
286.057	275.06
286.288	283.06
286.52	286.06
286.751	284.06
286.982	278.06
287.213	298.06
287.444	309.06
287.675	293.06
287.906	311.06
288.138	301.06
288.369	296.06
288.6	314.06
288.831	300.06
289.062	297.06
289.293	298.06
289.524	282.06
289.755	292.06
289.986	293.06
290.217	290.06
290.448	288.06
290.679	301.06
290.91	299.06
291.141	299.06
291.371	290.06
291.602	279.06
291.833	301.06
292.064	290.06
292.295	307.06
292.526	307.06
292.757	299.06
292.987	286.06
293.218	293.06
293.449	277.06
293.68	309.06
293.91	292.06
294.141	296.06
294.372	296.06
294.603	316.06
294.833	293.06
295.064	320.06
295.295	309.06
295.525	313.06
295.756	298.06
295.987	314.06
296.217	315.06
296.448	333.06
296.679	327.06
296.909	299.06
297.14	283.06
297.37	311.06
297.601	324.06
297.831	298.06
298.062	293.06
298.292	291.06
298.523	306.06
298.753	318.06
298.984	321.06
299.214	314.06
299.445	298.06
299.675	328.06
299.905	318.06
300.136	311.06
300.366	307.06
300.597	318.06
300.827	317.06
301.057	320.06
301.288	328.06
301.518	333.06
301.748	323.06
301.979	324.06
302.209	341.06
302.439	315.06
302.669	322.06
302.9	325.06
303.13	318.06
303.36	337.06
303.59	339.06
303.82	320.06
304.051	337.06
304.281	351.06
304.511	343.06
304.741	334.06
304.971	326.06
305.201	356.06
305.431	342.06
305.661	332.06
305.891	327.06
306.121	329.06
306.352	346.06
306.582	343.06
306.812	331.06
307.042	328.06
307.272	338.06
307.502	335.06
307.731	340.06
307.961	324.06
308.191	327.06
308.421	345.06
308.651	355.06
308.881	353.06
309.111	335.06
309.341	348.06
309.571	345.06
309.8	346.06
310.03	328.06
310.26	353.06
310.49	370.06
310.72	370.06
310.949	364.06
311.179	381.06
311.409	365.06
311.639	382.06
311.868	370.06
312.098	362.06
312.328	355.06
312.557	376.06
312.787	384.06
313.017	408.06
313.246	379.06
313.476	359.06
313.706	382.06
313.935	379.06
314.165	372.06
314.394	373.06
314.624	390.06
314.853	386.06
315.083	368.06
315.312	374.06
315.542	379.06
315.771	357.06
316.001	370.06
316.23	353.06
316.46	354.06
316.689	370.06
316.919	369.06
317.148	377.06
317.377	382.06
317.607	372.06
317.836	360.06
318.065	352.06
318.295	374.06
318.524	360.06
318.753	364.06
318.983	366.06
319.212	377.06
319.441	366.06
319.67	385.06
319.9	369.06
320.129	379.06
320.358	393.06
320.587	371.06
320.816	395.06
321.046	394.06
321.275	403.06
321.504	364.06
321.733	403.06
321.962	389.06
322.191	398.06
322.42	398.06
322.649	403.06
322.878	405.06
323.108	428.06
323.337	439.06
323.566	443.06
323.795	449.06
324.024	503.06
324.253	553.06
324.482	743.06
324.71	1126.06
324.939	1642.06
325.168	1498.06
325.397	743.06
325.626	537.06
325.855	479.06
326.084	458.06
326.313	449.06
326.542	452.06
326.77	470.06
326.999	567.06
327.228	719.06
327.457	1069.06
327.686	1292.06
327.914	874.06
328.143	581.06
328.372	519.06
328.6	497.06
328.829	481.06
329.058	472.06
329.287	493.06
329.515	483.06
329.744	458.06
329.972	470.06
330.201	478.06
330.43	507.06
330.658	533.06
330.887	546.06
331.115	526.06
331.344	479.06
331.572	458.06
331.801	455.06
332.03	473.06
332.258	459.06
332.486	435.06
332.715	436.06
332.943	443.06
333.172	459.06
333.4	486.06
333.629	465.06
333.857	476.06
334.085	490.06
334.314	501.06
334.542	527.06
334.771	513.06
334.999	487.06
335.227	494.06
335.455	475.06
335.684	451.06
335.912	449.06
336.14	434.06
336.369	429.06
336.597	453.06
336.825	461.06
337.053	448.06
337.281	436.06
337.51	466.06
337.738	458.06
337.966	452.06
338.194	449.06
338.422	433.06
338.65	444.06
338.878	437.06
339.106	431.06
339.334	419.06
339.562	421.06
339.79	421.06
340.018	424.06
340.246	425.06
340.474	420.06
340.702	442.06
340.93	427.06
341.158	411.06
341.386	419.06
341.614	450.06
341.842	419.06
342.07	440.06
342.298	427.06
342.526	413.06
342.754	423.06
342.981	411.06
343.209	416.06
343.437	451.06
343.665	429.06
343.893	468.06
344.12	475.06
344.348	424.06
344.576	442.06
344.804	441.06
345.031	449.06
345.259	436.06
345.487	423.06
345.714	451.06
345.942	421.06
346.17	417.06
346.397	435.06
346.625	431.06
346.853	409.06
347.08	394.06
347.308	399.06
347.535	422.06
347.763	433.06
347.99	421.06
348.218	392.06
348.445	429.06
348.673	419.06
348.9	411.06
349.128	393.06
349.355	417.06
349.583	413.06
349.81	392.06
350.037	381.06
350.265	403.06
350.492	400.06
350.72	398.06
350.947	414.06
351.174	400.06
351.402	416.06
351.629	434.06
351.856	427.06
352.083	425.06
352.311	424.06
352.538	399.06
352.765	413.06
352.992	406.06
353.22	402.06
353.447	409.06
353.674	408.06
353.901	418.06
354.128	397.06
354.355	377.06
354.583	407.06
354.81	399.06
355.037	379.06
355.264	405.06
355.491	391.06
355.718	406.06
355.945	373.06
356.172	377.06
356.399	376.06
356.626	396.06
356.853	395.06
357.08	395.06
357.307	400.06
357.534	399.06
357.761	408.06
357.988	393.06
358.215	383.06
358.441	397.06
358.668	361.06
358.895	393.06
359.122	389.06
359.349	405.06
359.576	425.06
359.802	437.06
360.029	435.06
360.256	452.06
360.483	435.06
360.709	425.06
360.936	405.06
361.163	407.06
361.39	429.06
361.616	419.06
361.843	393.06
362.07	403.06
362.296	414.06
362.523	413.06
362.749	416.06
362.976	398.06
363.203	405.06
363.429	399.06
363.656	405.06
363.882	396.06
364.109	406.06
364.335	395.06
364.562	384.06
364.788	404.06
365.015	411.06
365.241	381.06
365.468	405.06
365.694	393.06
365.92	411.06
366.147	403.06
366.373	410.06
366.599	393.06
366.826	411.06
367.052	383.06
367.278	391.06
367.505	397.06
367.731	410.06
367.957	389.06
368.184	405.06
368.41	398.06
368.636	433.06
368.862	417.06
369.089	408.06
369.315	410.06
369.541	418.06
369.767	403.06
369.993	400.06
370.219	407.06
370.445	414.06
370.672	415.06
370.898	413.06
371.124	425.06
371.35	429.06
371.576	433.06
371.802	403.06
372.028	412.06
372.254	409.06
372.48	397.06
372.706	412.06
372.932	440.06
373.158	412.06
373.384	426.06
373.61	395.06
373.835	402.06
374.061	399.06
374.287	417.06
374.513	404.06
374.739	429.06
374.965	429.06
375.191	433.06
375.416	420.06
375.642	415.06
375.868	433.06
376.094	435.06
376.319	427.06
376.545	437.06
376.771	411.06
376.997	428.06
377.222	405.06
377.448	399.06
377.674	392.06
377.899	396.06
378.125	420.06
378.35	413.06
378.576	412.06
378.802	399.06
379.027	420.06
379.253	411.06
379.478	407.06
379.704	413.06
379.929	429.06
380.155	412.06
380.38	396.06
380.606	416.06
380.831	425.06
381.057	448.06
381.282	401.06
381.507	414.06
381.733	407.06
381.958	409.06
382.184	414.06
382.409	432.06
382.634	447.06
382.86	444.06
383.085	453.06
383.31	426.06
383.535	443.06
383.761	427.06
383.986	440.06
384.211	438.06
384.436	447.06
384.662	429.06
384.887	436.06
385.112	453.06
385.337	457.06
385.562	444.06
385.787	467.06
386.013	477.06
386.238	452.06
386.463	471.06
386.688	484.06
386.913	467.06
387.138	474.06
387.363	466.06
387.588	471.06
387.813	478.06
388.038	478.06
388.263	466.06
388.488	450.06
388.713	473.06
388.938	475.06
389.163	467.06
389.387	470.06
389.612	446.06
389.837	466.06
390.062	459.06
390.287	469.06
390.512	462.06
390.736	469.06
390.961	477.06
391.186	472.06
391.411	456.06
391.636	462.06
391.86	476.06
392.085	487.06
392.31	474.06
392.534	493.06
392.759	473.06
392.984	468.06
393.208	459.06
393.433	471.06
393.658	445.06
393.882	456.06
394.107	454.06
394.331	479.06
394.556	463.06
394.78	470.06
395.005	473.06
395.229	481.06
395.454	499.06
395.678	494.06
395.903	482.06
396.127	533.06
396.352	524.06
396.576	471.06
396.801	484.06
397.025	488.06
397.249	469.06
397.474	500.06
397.698	500.06
397.922	514.06
398.147	532.06
398.371	524.06
398.595	537.06
398.82	539.06
399.044	563.06
399.268	576.06
399.492	616.06
399.717	697.06
399.941	679.06
400.165	678.06
400.389	661.06
400.613	610.06
400.837	580.06
401.062	567.06
401.286	547.06
401.51	579.06
401.734	538.06
401.958	555.06
402.182	542.06
402.406	550.06
402.63	548.06
402.854	574.06
403.078	556.06
403.302	557.06
403.526	563.06
403.75	569.06
403.974	580.06
404.198	599.06
404.422	556.06
404.645	585.06
404.869	595.06
405.093	594.06
405.317	649.06
405.541	679.06
405.765	641.06
405.988	606.06
406.212	595.06
406.436	615.06
406.66	640.06
406.883	587.06
407.107	641.06
407.331	640.06
407.555	730.06
407.778	746.06
408.002	661.06
408.226	619.06
408.449	619.06
408.673	621.06
408.896	644.06
409.12	675.06
409.344	642.06
409.567	581.06
409.791	547.06
410.014	577.06
410.238	562.06
410.461	567.06
410.685	573.06
410.908	575.06
411.132	621.06
411.355	642.06
411.578	649.06
411.802	579.06
412.025	581.06
412.249	579.06
412.472	572.06
412.695	636.06
412.919	614.06
413.142	585.06
413.365	544.06
413.589	541.06
413.812	530.06
414.035	536.06
414.258	535.06
414.482	553.06
414.705	545.06
414.928	555.06
415.151	532.06
415.374	531.06
415.597	548.06
415.821	533.06
416.044	529.06
416.267	532.06
416.49	523.06
416.713	541.06
416.936	556.06
417.159	534.06
417.382	539.06
417.605	546.06
417.828	554.06
418.051	545.06
418.274	541.06
418.497	525.06
418.72	536.06
418.943	544.06
419.166	548.06
419.389	586.06
419.611	581.06
419.834	559.06
420.057	588.06
420.28	586.06
420.503	557.06
420.726	561.06
420.948	567.06
421.171	617.06
421.394	651.06
421.617	575.06
421.839	570.06
422.062	575.06
422.285	578.06
422.507	635.06
422.73	682.06
422.953	651.06
423.175	571.06
423.398	571.06
423.621	571.06
423.843	606.06
424.066	594.06
424.288	584.06
424.511	614.06
424.733	634.06
424.956	727.06
425.178	699.06
425.401	690.06
425.623	727.06
425.846	618.06
426.068	583.06
426.291	579.06
426.513	568.06
426.735	590.06
426.958	607.06
427.18	708.06
427.402	819.06
427.625	889.06
427.847	760.06
428.069	685.06
428.292	617.06
428.514	562.06
428.736	535.06
428.958	548.06
429.181	534.06
429.403	521.06
429.625	535.06
429.847	556.06
430.069	627.06
430.292	633.06
430.514	565.06
430.736	541.06
430.958	532.06
431.18	521.06
431.402	517.06
431.624	498.06
431.846	509.06
432.068	500.06
432.29	506.06
432.512	509.06
432.734	525.06
432.956	503.06
433.178	512.06
433.4	519.06
433.622	519.06
433.844	524.06
434.066	530.06
434.287	523.06
434.509	519.06
434.731	541.06
434.953	563.06
435.175	572.06
435.397	561.06
435.618	563.06
435.84	630.06
436.062	715.06
436.284	777.06
436.505	645.06
436.727	589.06
436.949	565.06
437.17	544.06
437.392	543.06
437.614	546.06
437.835	557.06
438.057	635.06
438.278	764.06
438.5	757.06
438.721	826.06
438.943	789.06
439.165	613.06
439.386	574.06
439.608	586.06
439.829	565.06
440.05	578.06
440.272	643.06
440.493	613.06
440.715	561.06
440.936	550.06
441.158	536.06
441.379	565.06
441.6	554.06
441.822	576.06
442.043	618.06
442.264	717.06
442.486	745.06
442.707	627.06
442.928	599.06
443.149	596.06
443.371	611.06
443.592	661.06
443.813	761.06
444.034	813.06
444.255	682.06
444.476	608.06
444.698	607.06
444.919	584.06
445.14	699.06
445.361	648.06
445.582	620.06
445.803	675.06
446.024	772.06
446.245	773.06
446.466	725.06
446.687	629.06
446.908	564.06
447.129	550.06
447.35	552.06
447.571	517.06
447.792	508.06
448.013	525.06
448.234	550.06
448.455	569.06
448.675	678.06
448.896	811.06
449.117	693.06
449.338	625.06
449.559	728.06
449.779	856.06
450	694.06
450.221	581.06
450.442	539.06
450.662	502.06
450.883	520.06
451.104	490.06
451.324	516.06
451.545	507.06
451.766	493.06
451.986	477.06
452.207	475.06
452.428	490.06
452.648	447.06
452.869	498.06
453.089	469.06
453.31	516.06
453.53	461.06
453.751	469.06
453.971	460.06
454.192	460.06
454.412	452.06
454.633	446.06
454.853	457.06
455.073	462.06
455.294	485.06
455.514	557.06
455.734	541.06
455.955	464.06
456.175	462.06
456.395	480.06
456.616	445.06
456.836	458.06
457.056	445.06
457.276	449.06
457.497	452.06
457.717	464.06
457.937	447.06
458.157	478.06
458.377	485.06
458.598	483.06
458.818	533.06
459.038	586.06
459.258	634.06
459.478	541.06
459.698	513.06
459.918	507.06
460.138	502.06
460.358	497.06
460.578	534.06
460.798	531.06
461.018	540.06
461.238	550.06
461.458	510.06
461.678	519.06
461.898	545.06
462.118	535.06
462.338	568.06
462.558	564.06
462.777	574.06
462.997	591.06
463.217	591.06
463.437	605.06
463.657	573.06
463.876	568.06
464.096	562.06
464.316	566.06
464.536	594.06
464.755	587.06
464.975	575.06
465.195	611.06
465.414	595.06
465.634	551.06
465.854	510.06
466.073	521.06
466.293	502.06
466.512	497.06
466.732	481.06
466.951	486.06
467.171	489.06
467.391	519.06
467.61	498.06
467.829	500.06
468.049	505.06
468.268	490.06
468.488	511.06
468.707	479.06
468.927	488.06
469.146	479.06
469.365	454.06
469.585	480.06
469.804	508.06
470.023	491.06
470.243	503.06
470.462	484.06
470.681	521.06
470.901	497.06
471.12	522.06
471.339	509.06
471.558	494.06
471.777	497.06
471.997	467.06
472.216	503.06
472.435	530.06
472.654	511.06
472.873	489.06
473.092	492.06
473.311	482.06
473.53	496.06
473.749	513.06
473.968	525.06
474.187	617.06
474.406	636.06
474.625	521.06
474.844	507.06
475.063	491.06
475.282	485.06
475.501	503.06
475.72	523.06
475.939	486.06
476.158	501.06
476.377	519.06
476.596	509.06
476.814	523.06
477.033	526.06
477.252	517.06
477.471	522.06
477.69	523.06
477.908	539.06
478.127	554.06
478.346	552.06
478.564	566.06
478.783	585.06
479.002	602.06
479.22	569.06
479.439	601.06
479.658	595.06
479.876	584.06
480.095	617.06
480.313	623.06
480.532	615.06
480.751	613.06
480.969	627.06
481.188	660.06
481.406	672.06
481.624	613.06
481.843	600.06
482.061	614.06
482.28	598.06
482.498	601.06
482.717	557.06
482.935	576.06
483.153	563.06
483.372	600.06
483.59	577.06
483.808	589.06
484.027	586.06
484.245	599.06
484.463	589.06
484.681	590.06
484.9	578.06
485.118	573.06
485.336	572.06
485.554	599.06
485.772	603.06
485.99	594.06
486.209	597.06
486.427	621.06
486.645	618.06
486.863	607.06
487.081	630.06
487.299	634.06
487.517	644.06
487.735	629.06
487.953	622.06
488.171	629.06
488.389	617.06
488.607	625.06
488.825	641.06
489.043	626.06
489.261	624.06
489.479	632.06
489.696	622.06
489.914	630.06
490.132	621.06
490.35	649.06
490.568	659.06
490.786	639.06
491.003	660.06
491.221	686.06
491.439	685.06
491.657	709.06
491.874	697.06
492.092	719.06
492.31	734.06
492.527	714.06
492.745	727.06
492.963	690.06
493.18	733.06
493.398	742.06
493.615	739.06
493.833	742.06
494.05	730.06
494.268	723.06
494.485	757.06
494.703	748.06
494.92	749.06
495.138	700.06
495.355	728.06
495.573	738.06
495.79	761.06
496.008	745.06
496.225	729.06
496.442	738.06
496.66	737.06
496.877	737.06
497.094	757.06
497.312	747.06
497.529	785.06
497.746	785.06
497.963	793.06
498.181	806.06
498.398	797.06
498.615	846.06
498.832	881.06
499.049	877.06
499.267	916.06
499.484	956.06
499.701	986.06
499.918	1062.06
500.135	1127.06
500.352	1167.06
500.569	1181.06
500.786	1173.06
501.003	1164.06
501.22	1131.06
501.437	1045.06
501.654	1005.06
501.871	983.06
502.088	934.06
502.305	887.06
502.522	861.06
502.739	845.06
502.956	819.06
503.172	807.06
503.389	776.06
503.606	775.06
503.823	785.06
504.04	747.06
504.256	744.06
504.473	772.06
504.69	760.06
504.907	743.06
505.123	729.06
505.34	730.06
505.557	734.06
505.773	685.06
505.99	702.06
506.207	697.06
506.423	681.06
506.64	691.06
506.856	669.06
507.073	648.06
507.289	668.06
507.506	648.06
507.722	673.06
507.939	657.06
508.155	668.06
508.372	654.06
508.588	652.06
508.805	662.06
509.021	643.06
509.238	639.06
509.454	653.06
509.67	659.06
509.887	651.06
510.103	641.06
510.319	626.06
510.536	693.06
510.752	996.06
510.968	851.06
511.184	656.06
511.401	623.06
511.617	610.06
511.833	589.06
512.049	636.06
512.265	609.06
512.481	599.06
512.698	592.06
512.914	608.06
513.13	605.06
513.346	628.06
513.562	607.06
513.778	594.06
513.994	620.06
514.21	613.06
514.426	611.06
514.642	630.06
514.858	647.06
515.074	673.06
515.29	741.06
515.506	990.06
515.721	878.06
515.937	700.06
516.153	656.06
516.369	669.06
516.585	634.06
516.801	647.06
517.016	630.06
517.232	647.06
517.448	661.06
517.664	649.06
517.879	652.06
518.095	644.06
518.311	656.06
518.527	663.06
518.742	643.06
518.958	609.06
519.173	625.06
519.389	602.06
519.605	613.06
519.82	630.06
520.036	620.06
520.251	620.06
520.467	642.06
520.682	627.06
520.898	636.06
521.113	634.06
521.329	648.06
521.544	714.06
521.76	825.06
521.975	1218.06
522.19	1207.06
522.406	755.06
522.621	627.06
522.836	627.06
523.052	569.06
523.267	590.06
523.482	569.06
523.698	554.06
523.913	555.06
524.128	563.06
524.343	535.06
524.559	549.06
524.774	521.06
524.989	545.06
525.204	537.06
525.419	543.06
525.634	535.06
525.849	528.06
526.064	507.06
526.28	509.06
526.495	514.06
526.71	502.06
526.925	501.06
527.14	505.06
527.355	501.06
527.57	506.06
527.785	509.06
527.999	499.06
528.214	507.06
528.429	491.06
528.644	531.06
528.859	496.06
529.074	507.06
529.289	541.06
529.503	568.06
529.718	568.06
529.933	538.06
530.148	518.06
530.363	506.06
530.577	485.06
530.792	500.06
531.007	473.06
531.221	487.06
531.436	495.06
531.651	479.06
531.865	494.06
532.08	485.06
532.295	505.06
532.509	485.06
532.724	495.06
532.938	499.06
533.153	484.06
533.367	482.06
533.582	503.06
533.796	518.06
534.011	459.06
534.225	491.06
534.44	477.06
534.654	482.06
534.868	496.06
535.083	473.06
535.297	470.06
535.511	493.06
535.726	518.06
535.94	494.06
536.154	457.06
536.369	473.06
536.583	486.06
536.797	475.06
537.011	469.06
537.225	475.06
537.44	464.06
537.654	486.06
537.868	480.06
538.082	461.06
538.296	457.06
538.51	446.06
538.724	456.06
538.938	468.06
539.153	467.06
539.367	479.06
539.581	482.06
539.795	459.06
540.009	448.06
540.222	477.06
540.436	464.06
540.65	483.06
540.864	460.06
541.078	493.06
541.292	490.06
541.506	487.06
541.72	471.06
541.934	472.06
542.147	481.06
542.361	465.06
542.575	471.06
542.789	477.06
543.002	459.06
543.216	447.06
543.43	479.06
543.644	470.06
543.857	475.06
544.071	461.06
544.285	479.06
544.498	450.06
544.712	477.06
544.925	486.06
545.139	473.06
545.352	469.06
545.566	462.06
545.779	479.06
545.993	475.06
546.206	504.06
546.42	462.06
546.633	471.06
546.847	461.06
547.06	478.06
547.274	458.06
547.487	463.06
547.7	445.06
547.914	434.06
548.127	447.06
548.34	450.06
548.554	445.06
548.767	430.06
548.98	470.06
549.193	462.06
549.407	480.06
549.62	471.06
549.833	477.06
550.046	453.06
550.259	449.06
550.473	455.06
550.686	458.06
550.899	455.06
551.112	440.06
551.325	460.06
551.538	453.06
551.751	452.06
551.964	450.06
552.177	464.06
552.39	469.06
552.603	458.06
552.816	467.06
553.029	463.06
553.242	471.06
553.455	477.06
553.667	470.06
553.88	499.06
554.093	472.06
554.306	454.06
554.519	466.06
554.732	420.06
554.944	463.06
555.157	443.06
555.37	424.06
555.583	451.06
555.795	434.06
556.008	430.06
556.221	430.06
556.433	403.06
556.646	437.06
556.859	430.06
557.071	403.06
557.284	428.06
557.496	430.06
557.709	426.06
557.921	423.06
558.134	418.06
558.346	398.06
558.559	394.06
558.771	410.06
558.984	407.06
559.196	409.06
559.409	409.06
559.621	398.06
559.833	412.06
560.046	393.06
560.258	385.06
560.47	404.06
560.683	390.06
560.895	420.06
561.107	415.06
561.32	423.06
561.532	405.06
561.744	393.06
561.956	401.06
562.168	398.06
562.381	413.06
562.593	437.06
562.805	417.06
563.017	397.06
563.229	421.06
563.441	407.06
563.653	407.06
563.865	403.06
564.077	399.06
564.289	434.06
564.501	431.06
564.713	421.06
564.925	434.06
565.137	439.06
565.349	446.06
565.561	442.06
565.773	456.06
565.985	450.06
566.197	469.06
566.408	502.06
566.62	519.06
566.832	515.06
567.044	532.06
567.255	527.06
567.467	553.06
567.679	568.06
567.891	574.06
568.102	593.06
568.314	563.06
568.526	546.06
568.737	493.06
568.949	495.06
569.161	467.06
569.372	429.06
569.584	442.06
569.795	424.06
570.007	435.06
570.218	442.06
570.43	430.06
570.641	408.06
570.853	396.06
571.064	405.06
571.276	419.06
571.487	399.06
571.698	402.06
571.91	402.06
572.121	379.06
572.333	364.06
572.544	365.06
572.755	361.06
572.966	357.06
573.178	370.06
573.389	351.06
573.6	371.06
573.811	376.06
574.023	359.06
574.234	371.06
574.445	351.06
574.656	358.06
574.867	378.06
575.078	370.06
575.289	342.06
575.501	355.06
575.712	350.06
575.923	357.06
576.134	346.06
576.345	340.06
576.556	354.06
576.767	371.06
576.978	354.06
577.188	341.06
577.399	347.06
577.61	346.06
577.821	360.06
578.032	354.06
578.243	376.06
578.454	497.06
578.665	383.06
578.875	331.06
579.086	338.06
579.297	333.06
579.508	327.06
579.718	333.06
579.929	313.06
580.14	317.06
580.35	312.06
580.561	341.06
580.772	325.06
580.982	311.06
581.193	318.06
581.403	328.06
581.614	325.06
581.825	341.06
582.035	310.06
582.246	317.06
582.456	300.06
582.667	333.06
582.877	323.06
583.087	318.06
583.298	313.06
583.508	317.06
583.719	292.06
583.929	320.06
584.139	315.06
584.35	319.06
584.56	312.06
584.77	323.06
584.981	310.06
585.191	305.06
585.401	326.06
585.611	286.06
585.821	288.06
586.032	297.06
586.242	301.06
586.452	306.06
586.662	301.06
586.872	326.06
587.082	297.06
587.292	310.06
587.502	281.06
587.713	320.06
587.923	305.06
588.133	302.06
588.343	311.06
588.553	322.06
588.762	317.06
588.972	323.06
589.182	312.06
589.392	326.06
589.602	305.06
589.812	315.06
590.022	308.06
590.232	307.06
590.441	322.06
590.651	313.06
590.861	307.06
591.071	299.06
591.281	304.06
591.49	301.06
591.7	326.06
591.91	320.06
592.119	327.06
592.329	331.06
592.539	343.06
592.748	341.06
592.958	351.06
593.167	334.06
593.377	337.06
593.587	357.06
593.796	334.06
594.006	357.06
594.215	345.06
594.424	347.06
594.634	338.06
594.843	337.06
595.053	346.06
595.262	334.06
595.472	309.06
595.681	302.06
595.89	315.06
596.1	309.06
596.309	315.06
596.518	306.06
596.727	303.06
596.937	291.06
597.146	297.06
597.355	291.06
597.564	299.06
597.774	302.06
597.983	286.06
598.192	278.06
598.401	281.06
598.61	272.06
598.819	290.06
599.028	271.06
599.237	283.06
599.446	294.06
599.655	294.06
599.864	291.06
600.073	266.06
600.282	286.06
600.491	270.06
600.7	255.06
600.909	267.06
601.118	279.06
601.327	277.06
601.536	272.06
601.745	283.06
601.953	278.06
602.162	268.06
602.371	271.06
602.58	283.06
602.789	279.06
602.997	273.06
603.206	276.06
603.415	273.06
603.623	262.06
603.832	281.06
604.041	278.06
604.249	266.06
604.458	265.06
604.666	275.06
604.875	248.06
605.084	256.06
605.292	274.06
605.501	270.06
605.709	269.06
605.918	261.06
606.126	238.06
606.334	256.06
606.543	268.06
606.751	259.06
606.96	249.06
607.168	254.06
607.376	259.06
607.585	264.06
607.793	245.06
608.001	269.06
608.21	242.06
608.418	258.06
608.626	242.06
608.834	265.06
609.043	259.06
609.251	255.06
609.459	262.06
609.667	276.06
609.875	253.06
610.083	236.06
610.291	249.06
610.499	273.06
610.707	254.06
610.916	251.06
611.124	258.06
611.332	260.06
611.54	285.06
611.748	270.06
611.955	265.06
612.163	269.06
612.371	248.06
612.579	253.06
612.787	257.06
612.995	257.06
613.203	261.06
613.411	258.06
613.618	259.06
613.826	249.06
614.034	245.06
614.242	233.06
614.449	233.06
614.657	254.06
614.865	241.06
615.072	249.06
615.28	244.06
615.488	255.06
615.695	239.06
615.903	257.06
616.111	258.06
616.318	250.06
616.526	247.06
616.733	240.06
616.941	248.06
617.148	233.06
617.356	258.06
617.563	260.06
617.771	245.06
617.978	249.06
618.185	254.06
618.393	237.06
618.6	237.06
618.807	246.06
619.015	230.06
619.222	233.06
619.429	241.06
619.637	255.06
619.844	248.06
620.051	243.06
620.258	234.06
620.466	233.06
620.673	237.06
620.88	230.06
621.087	216.06
621.294	232.06
621.501	230.06
621.708	235.06
621.915	230.06
622.122	265.06
622.329	260.06
622.536	234.06
622.743	228.06
622.95	231.06
623.157	245.06
623.364	220.06
623.571	257.06
623.778	229.06
623.985	226.06
624.192	226.06
624.399	215.06
624.606	235.06
624.812	221.06
625.019	216.06
625.226	233.06
625.433	225.06
625.639	220.06
625.846	222.06
626.053	226.06
626.259	227.06
626.466	217.06
626.673	221.06
626.879	220.06
627.086	204.06
627.293	223.06
627.499	246.06
627.706	217.06
627.912	223.06
628.119	209.06
628.325	227.06
628.532	205.06
628.738	216.06
628.945	226.06
629.151	203.06
629.357	203.06
629.564	218.06
629.77	209.06
629.976	198.06
630.183	200.06
630.389	211.06
630.595	243.06
630.802	219.06
631.008	206.06
631.214	208.06
631.42	213.06
631.627	203.06
631.833	203.06
632.039	204.06
632.245	213.06
632.451	188.06
632.657	199.06
632.863	190.06
633.069	204.06
633.275	203.06
633.481	203.06
633.688	179.06
633.893	210.06
634.099	193.06
634.305	179.06
634.511	214.06
634.717	198.06
634.923	196.06
635.129	193.06
635.335	180.06
635.541	185.06
635.747	195.06
635.952	187.06
636.158	194.06
636.364	188.06
636.57	207.06
636.775	180.06
636.981	185.06
637.187	199.06
637.392	179.06
637.598	181.06
637.804	203.06
638.009	197.06
638.215	196.06
638.421	184.06
638.626	183.06
638.832	170.06
639.037	185.06
639.243	183.06
639.448	197.06
639.654	196.06
639.859	179.06
640.065	182.06
640.27	191.06
640.475	171.06
640.681	197.06
640.886	173.06
641.091	183.06
641.297	192.06
641.502	185.06
641.707	191.06
641.913	182.06
642.118	175.06
642.323	190.06
642.528	178.06
642.733	169.06
642.939	167.06
643.144	183.06
643.349	171.06
643.554	195.06
643.759	181.06
643.964	174.06
644.169	163.06
644.374	172.06
644.579	184.06
644.784	189.06
644.989	181.06
645.194	172.06
645.399	177.06
645.604	171.06
645.809	173.06
646.014	167.06
646.219	162.06
646.423	179.06
646.628	171.06
646.833	176.06
647.038	179.06
647.243	182.06
647.447	182.06
647.652	175.06
647.857	185.06
648.062	186.06
648.266	181.06
648.471	179.06
648.676	193.06
648.88	167.06
649.085	156.06
649.289	166.06
649.494	188.06
649.698	195.06
649.903	184.06
650.107	178.06
650.312	190.06
650.516	153.06
650.721	179.06
650.925	175.06
651.13	147.06
651.334	172.06
651.539	141.06
651.743	154.06
651.947	161.06
652.152	153.06
652.356	147.06
652.56	156.06
652.764	151.06
652.969	151.06
653.173	141.06
653.377	161.06
653.581	140.06
653.785	153.06
653.99	139.06
654.194	150.06
654.398	141.06
654.602	134.06
654.806	145.06
655.01	148.06
655.214	155.06
655.418	137.06
655.622	146.06
655.826	140.06
656.03	148.06
656.234	149.06
656.438	156.06
656.642	146.06
656.846	138.06
657.049	125.06
657.253	129.06
657.457	128.06
657.661	140.06
657.865	128.06
658.068	115.06
658.272	118.06
658.476	102.06
658.68	118.06
658.883	117.06
659.087	103.06
659.291	108.06
659.494	104.06
659.698	102.06
659.901	89.06
660.105	97.06
660.309	96.06
660.512	82.06
660.716	91.06
660.919	103.06
661.123	108.06
661.326	103.06
661.53	104.06
661.733	89.06
661.936	100.06
662.14	95.06
662.343	90.06
662.546	87.06
662.75	99.06
662.953	93.06
663.156	80.06
663.36	92.06
663.563	91.06
663.766	70.06
663.969	95.06
664.173	101.06
664.376	82.06
664.579	88.06
664.782	87.06
664.985	89.06
665.188	88.06
665.391	88.06
665.594	63.06
665.797	79.06
666	91.06
666.203	82.06
666.406	81.06
666.609	80.06
666.812	93.06
667.015	86.06
667.218	75.06
667.421	88.06
667.624	79.06
667.827	95.06
668.03	87.06
668.232	88.06
668.435	72.06
668.638	98.06
668.841	89.06
669.043	82.06
669.246	81.06
669.449	78.06
669.651	77.06
669.854	83.06
670.057	89.06
670.259	89.06
670.462	89.06
670.665	83.06
670.867	72.06
671.07	85.06
671.272	96.06
671.475	78.06
671.677	77.06
671.88	81.06
672.082	85.06
672.284	90.06
672.487	82.06
672.689	66.06
672.892	87.06
