Data from 1975.PennyLincolnUp.Lamp.En5.5.200Scan.071719.P1.Changed Mount._HRD10591_15-58-14-859.txt Node
Date: Thu Jul 18 15:58:14 EDT 2019
User: cochatt
Spectrometer: HR+D1059
Trigger mode: 1
Integration Time (sec): 1.000000E-1
Scans to average: 1
Electric dark correction enabled: true
Nonlinearity correction enabled: false
Boxcar width: 0
XAxis mode: Wavelengths
Number of Pixels in Spectrum: 2048
>>>>>Begin Spectral Data<<<<<
223.165	-23.25
223.4	-23.25
223.635	-23.25
223.869	-29.25
224.104	-20.25
224.338	-12.25
224.573	-16.25
224.808	-12.25
225.042	0.75
225.277	-4.25
225.511	4.75
225.746	11.75
225.98	-2.25
226.215	7.75
226.449	9.75
226.683	22.75
226.918	31.75
227.152	30.75
227.387	29.75
227.621	18.75
227.856	30.75
228.09	28.75
228.324	53.75
228.559	52.75
228.793	64.75
229.027	84.75
229.262	107.75
229.496	126.75
229.73	113.75
229.964	151.75
230.199	121.75
230.433	115.75
230.667	101.75
230.901	113.75
231.136	103.75
231.37	103.75
231.604	114.75
231.838	118.75
232.072	120.75
232.306	120.75
232.541	120.75
232.775	120.75
233.009	109.75
233.243	111.75
233.477	122.75
233.711	115.75
233.945	122.75
234.179	122.75
234.413	121.75
234.647	119.75
234.881	121.75
235.115	116.75
235.349	109.75
235.583	116.75
235.817	129.75
236.051	125.75
236.285	133.75
236.519	125.75
236.753	137.75
236.987	150.75
237.221	177.75
237.455	228.75
237.689	185.75
237.922	131.75
238.156	146.75
238.39	127.75
238.624	121.75
238.858	125.75
239.091	113.75
239.325	130.75
239.559	127.75
239.793	121.75
240.027	146.75
240.26	148.75
240.494	151.75
240.728	149.75
240.961	139.75
241.195	136.75
241.429	137.75
241.662	122.75
241.896	149.75
242.13	131.75
242.363	148.75
242.597	136.75
242.83	131.75
243.064	147.75
243.298	142.75
243.531	147.75
243.765	157.75
243.998	146.75
244.232	139.75
244.465	139.75
244.699	140.75
244.932	141.75
245.166	149.75
245.399	151.75
245.633	165.75
245.866	146.75
246.099	162.75
246.333	158.75
246.566	168.75
246.8	160.75
247.033	165.75
247.266	157.75
247.5	162.75
247.733	165.75
247.966	166.75
248.2	177.75
248.433	179.75
248.666	186.75
248.899	192.75
249.133	201.75
249.366	199.75
249.599	216.75
249.832	201.75
250.066	184.75
250.299	183.75
250.532	200.75
250.765	203.75
250.998	210.75
251.231	244.75
251.465	230.75
251.698	233.75
251.931	210.75
252.164	193.75
252.397	206.75
252.63	208.75
252.863	198.75
253.096	225.75
253.329	225.75
253.562	228.75
253.795	232.75
254.028	217.75
254.261	231.75
254.494	215.75
254.727	262.75
254.96	282.75
255.193	270.75
255.426	249.75
255.659	225.75
255.892	239.75
256.124	251.75
256.357	251.75
256.59	232.75
256.823	219.75
257.056	233.75
257.289	212.75
257.521	208.75
257.754	216.75
257.987	220.75
258.22	204.75
258.452	212.75
258.685	199.75
258.918	230.75
259.151	218.75
259.383	219.75
259.616	226.75
259.849	218.75
260.081	240.75
260.314	263.75
260.547	267.75
260.779	265.75
261.012	242.75
261.244	227.75
261.477	236.75
261.71	232.75
261.942	232.75
262.175	231.75
262.407	215.75
262.64	224.75
262.872	221.75
263.105	216.75
263.337	216.75
263.57	219.75
263.802	213.75
264.035	231.75
264.267	223.75
264.499	217.75
264.732	229.75
264.964	221.75
265.197	229.75
265.429	241.75
265.661	203.75
265.894	215.75
266.126	225.75
266.358	227.75
266.591	226.75
266.823	243.75
267.055	232.75
267.287	234.75
267.52	226.75
267.752	229.75
267.984	245.75
268.216	234.75
268.448	246.75
268.681	259.75
268.913	256.75
269.145	269.75
269.377	288.75
269.609	275.75
269.841	274.75
270.073	287.75
270.306	283.75
270.538	316.75
270.77	336.75
271.002	321.75
271.234	300.75
271.466	315.75
271.698	321.75
271.93	325.75
272.162	336.75
272.394	322.75
272.626	311.75
272.858	307.75
273.09	281.75
273.322	276.75
273.553	281.75
273.785	287.75
274.017	284.75
274.249	270.75
274.481	288.75
274.713	285.75
274.945	285.75
275.176	281.75
275.408	272.75
275.64	259.75
275.872	262.75
276.104	276.75
276.335	280.75
276.567	256.75
276.799	270.75
277.031	306.75
277.262	327.75
277.494	327.75
277.726	314.75
277.957	292.75
278.189	292.75
278.421	298.75
278.652	293.75
278.884	296.75
279.115	279.75
279.347	301.75
279.579	281.75
279.81	272.75
280.042	285.75
280.273	280.75
280.505	276.75
280.736	265.75
280.968	298.75
281.199	287.75
281.431	273.75
281.662	286.75
281.894	291.75
282.125	292.75
282.356	301.75
282.588	317.75
282.819	318.75
283.051	265.75
283.282	270.75
283.513	309.75
283.745	305.75
283.976	278.75
284.207	303.75
284.439	312.75
284.67	304.75
284.901	285.75
285.132	296.75
285.364	307.75
285.595	289.75
285.826	288.75
286.057	305.75
286.288	293.75
286.52	296.75
286.751	315.75
286.982	303.75
287.213	295.75
287.444	303.75
287.675	296.75
287.906	320.75
288.138	299.75
288.369	346.75
288.6	333.75
288.831	314.75
289.062	316.75
289.293	300.75
289.524	291.75
289.755	307.75
289.986	319.75
290.217	321.75
290.448	317.75
290.679	302.75
290.91	327.75
291.141	311.75
291.371	312.75
291.602	316.75
291.833	315.75
292.064	312.75
292.295	306.75
292.526	322.75
292.757	317.75
292.987	306.75
293.218	310.75
293.449	315.75
293.68	312.75
293.91	319.75
294.141	305.75
294.372	304.75
294.603	327.75
294.833	319.75
295.064	313.75
295.295	304.75
295.525	318.75
295.756	308.75
295.987	325.75
296.217	337.75
296.448	332.75
296.679	309.75
296.909	300.75
297.14	348.75
297.37	318.75
297.601	316.75
297.831	334.75
298.062	338.75
298.292	329.75
298.523	321.75
298.753	341.75
298.984	342.75
299.214	336.75
299.445	329.75
299.675	326.75
299.905	343.75
300.136	308.75
300.366	347.75
300.597	318.75
300.827	341.75
301.057	337.75
301.288	358.75
301.518	332.75
301.748	341.75
301.979	340.75
302.209	348.75
302.439	349.75
302.669	340.75
302.9	356.75
303.13	339.75
303.36	345.75
303.59	335.75
303.82	371.75
304.051	386.75
304.281	353.75
304.511	343.75
304.741	344.75
304.971	354.75
305.201	359.75
305.431	354.75
305.661	353.75
305.891	336.75
306.121	344.75
306.352	367.75
306.582	339.75
306.812	346.75
307.042	357.75
307.272	335.75
307.502	353.75
307.731	343.75
307.961	346.75
308.191	344.75
308.421	341.75
308.651	358.75
308.881	367.75
309.111	356.75
309.341	360.75
309.571	348.75
309.8	367.75
310.03	369.75
310.26	371.75
310.49	370.75
310.72	386.75
310.949	420.75
311.179	399.75
311.409	389.75
311.639	387.75
311.868	363.75
312.098	393.75
312.328	384.75
312.557	404.75
312.787	409.75
313.017	401.75
313.246	403.75
313.476	414.75
313.706	389.75
313.935	411.75
314.165	390.75
314.394	391.75
314.624	400.75
314.853	406.75
315.083	407.75
315.312	396.75
315.542	392.75
315.771	396.75
316.001	403.75
316.23	387.75
316.46	374.75
316.689	387.75
316.919	404.75
317.148	397.75
317.377	406.75
317.607	392.75
317.836	386.75
318.065	400.75
318.295	377.75
318.524	382.75
318.753	392.75
318.983	391.75
319.212	402.75
319.441	396.75
319.67	392.75
319.9	401.75
320.129	394.75
320.358	383.75
320.587	392.75
320.816	382.75
321.046	420.75
321.275	405.75
321.504	404.75
321.733	413.75
321.962	421.75
322.191	424.75
322.42	410.75
322.649	429.75
322.878	445.75
323.108	462.75
323.337	479.75
323.566	497.75
323.795	512.75
324.024	547.75
324.253	635.75
324.482	864.75
324.71	1293.75
324.939	1945.75
325.168	1724.75
325.397	875.75
325.626	612.75
325.855	531.75
326.084	492.75
326.313	472.75
326.542	481.75
326.77	536.75
326.999	603.75
327.228	767.75
327.457	1199.75
327.686	1487.75
327.914	1002.75
328.143	646.75
328.372	588.75
328.6	555.75
328.829	547.75
329.058	555.75
329.287	557.75
329.515	513.75
329.744	485.75
329.972	519.75
330.201	521.75
330.43	562.75
330.658	561.75
330.887	587.75
331.115	582.75
331.344	514.75
331.572	497.75
331.801	495.75
332.03	510.75
332.258	476.75
332.486	460.75
332.715	480.75
332.943	473.75
333.172	503.75
333.4	508.75
333.629	505.75
333.857	535.75
334.085	532.75
334.314	543.75
334.542	579.75
334.771	587.75
334.999	551.75
335.227	513.75
335.455	492.75
335.684	495.75
335.912	480.75
336.14	467.75
336.369	465.75
336.597	464.75
336.825	471.75
337.053	469.75
337.281	474.75
337.51	482.75
337.738	479.75
337.966	477.75
338.194	477.75
338.422	474.75
338.65	441.75
338.878	458.75
339.106	457.75
339.334	470.75
339.562	465.75
339.79	443.75
340.018	449.75
340.246	447.75
340.474	459.75
340.702	474.75
340.93	458.75
341.158	457.75
341.386	452.75
341.614	442.75
341.842	475.75
342.07	441.75
342.298	441.75
342.526	417.75
342.754	430.75
342.981	439.75
343.209	441.75
343.437	453.75
343.665	455.75
343.893	447.75
344.12	511.75
344.348	475.75
344.576	464.75
344.804	461.75
345.031	475.75
345.259	487.75
345.487	485.75
345.714	464.75
345.942	460.75
346.17	463.75
346.397	446.75
346.625	446.75
346.853	439.75
347.08	441.75
347.308	421.75
347.535	424.75
347.763	435.75
347.99	442.75
348.218	453.75
348.445	453.75
348.673	460.75
348.9	442.75
349.128	436.75
349.355	424.75
349.583	412.75
349.81	426.75
350.037	438.75
350.265	432.75
350.492	421.75
350.72	425.75
350.947	424.75
351.174	432.75
351.402	442.75
351.629	418.75
351.856	426.75
352.083	446.75
352.311	431.75
352.538	453.75
352.765	434.75
352.992	426.75
353.22	432.75
353.447	424.75
353.674	424.75
353.901	443.75
354.128	409.75
354.355	403.75
354.583	402.75
354.81	396.75
355.037	419.75
355.264	414.75
355.491	411.75
355.718	424.75
355.945	434.75
356.172	415.75
356.399	411.75
356.626	421.75
356.853	421.75
357.08	412.75
357.307	415.75
357.534	421.75
357.761	412.75
357.988	427.75
358.215	415.75
358.441	419.75
358.668	417.75
358.895	432.75
359.122	435.75
359.349	442.75
359.576	432.75
359.802	454.75
360.029	475.75
360.256	481.75
360.483	467.75
360.709	432.75
360.936	436.75
361.163	425.75
361.39	441.75
361.616	441.75
361.843	450.75
362.07	447.75
362.296	447.75
362.523	427.75
362.749	433.75
362.976	433.75
363.203	434.75
363.429	421.75
363.656	439.75
363.882	422.75
364.109	415.75
364.335	424.75
364.562	457.75
364.788	420.75
365.015	413.75
365.241	428.75
365.468	434.75
365.694	418.75
365.92	433.75
366.147	425.75
366.373	415.75
366.599	415.75
366.826	428.75
367.052	424.75
367.278	420.75
367.505	426.75
367.731	420.75
367.957	443.75
368.184	435.75
368.41	444.75
368.636	450.75
368.862	438.75
369.089	422.75
369.315	434.75
369.541	425.75
369.767	421.75
369.993	393.75
370.219	420.75
370.445	435.75
370.672	419.75
370.898	427.75
371.124	450.75
371.35	413.75
371.576	411.75
371.802	420.75
372.028	455.75
372.254	423.75
372.48	438.75
372.706	433.75
372.932	460.75
373.158	441.75
373.384	434.75
373.61	434.75
373.835	437.75
374.061	440.75
374.287	443.75
374.513	427.75
374.739	460.75
374.965	478.75
375.191	464.75
375.416	447.75
375.642	451.75
375.868	428.75
376.094	418.75
376.319	451.75
376.545	424.75
376.771	438.75
376.997	420.75
377.222	421.75
377.448	442.75
377.674	442.75
377.899	429.75
378.125	444.75
378.35	427.75
378.576	439.75
378.802	426.75
379.027	420.75
379.253	449.75
379.478	443.75
379.704	419.75
379.929	461.75
380.155	441.75
380.38	442.75
380.606	416.75
380.831	435.75
381.057	425.75
381.282	431.75
381.507	433.75
381.733	425.75
381.958	429.75
382.184	445.75
382.409	448.75
382.634	458.75
382.86	441.75
383.085	454.75
383.31	470.75
383.535	446.75
383.761	450.75
383.986	470.75
384.211	485.75
384.436	466.75
384.662	488.75
384.887	476.75
385.112	465.75
385.337	483.75
385.562	465.75
385.787	488.75
386.013	492.75
386.238	485.75
386.463	485.75
386.688	505.75
386.913	491.75
387.138	485.75
387.363	498.75
387.588	487.75
387.813	479.75
388.038	453.75
388.263	467.75
388.488	480.75
388.713	479.75
388.938	480.75
389.163	491.75
389.387	525.75
389.612	503.75
389.837	495.75
390.062	487.75
390.287	490.75
390.512	480.75
390.736	480.75
390.961	485.75
391.186	493.75
391.411	499.75
391.636	507.75
391.86	520.75
392.085	519.75
392.31	515.75
392.534	498.75
392.759	497.75
392.984	498.75
393.208	490.75
393.433	475.75
393.658	526.75
393.882	489.75
394.107	503.75
394.331	469.75
394.556	498.75
394.78	495.75
395.005	500.75
395.229	492.75
395.454	495.75
395.678	511.75
395.903	537.75
396.127	524.75
396.352	550.75
396.576	520.75
396.801	510.75
397.025	516.75
397.249	497.75
397.474	542.75
397.698	509.75
397.922	525.75
398.147	576.75
398.371	554.75
398.595	565.75
398.82	568.75
399.044	585.75
399.268	615.75
399.492	657.75
399.717	691.75
399.941	757.75
400.165	733.75
400.389	713.75
400.613	667.75
400.837	606.75
401.062	568.75
401.286	594.75
401.51	584.75
401.734	563.75
401.958	579.75
402.182	596.75
402.406	585.75
402.63	590.75
402.854	608.75
403.078	577.75
403.302	588.75
403.526	602.75
403.75	601.75
403.974	605.75
404.198	605.75
404.422	607.75
404.645	632.75
404.869	600.75
405.093	644.75
405.317	687.75
405.541	700.75
405.765	641.75
405.988	636.75
406.212	649.75
406.436	659.75
406.66	639.75
406.883	642.75
407.107	674.75
407.331	699.75
407.555	788.75
407.778	767.75
408.002	724.75
408.226	664.75
408.449	672.75
408.673	664.75
408.896	700.75
409.12	702.75
409.344	692.75
409.567	632.75
409.791	614.75
410.014	597.75
410.238	583.75
410.461	607.75
410.685	602.75
410.908	599.75
411.132	668.75
411.355	658.75
411.578	644.75
411.802	615.75
412.025	610.75
412.249	599.75
412.472	620.75
412.695	678.75
412.919	657.75
413.142	609.75
413.365	589.75
413.589	578.75
413.812	574.75
414.035	578.75
414.258	593.75
414.482	561.75
414.705	545.75
414.928	568.75
415.151	567.75
415.374	554.75
415.597	580.75
415.821	585.75
416.044	581.75
416.267	553.75
416.49	543.75
416.713	573.75
416.936	550.75
417.159	545.75
417.382	567.75
417.605	575.75
417.828	571.75
418.051	596.75
418.274	596.75
418.497	566.75
418.72	562.75
418.943	564.75
419.166	555.75
419.389	619.75
419.611	618.75
419.834	596.75
420.057	605.75
420.28	596.75
420.503	611.75
420.726	586.75
420.948	609.75
421.171	640.75
421.394	669.75
421.617	609.75
421.839	575.75
422.062	594.75
422.285	596.75
422.507	664.75
422.73	743.75
422.953	719.75
423.175	603.75
423.398	619.75
423.621	618.75
423.843	633.75
424.066	614.75
424.288	636.75
424.511	643.75
424.733	703.75
424.956	779.75
425.178	748.75
425.401	740.75
425.623	746.75
425.846	644.75
426.068	624.75
426.291	601.75
426.513	601.75
426.735	607.75
426.958	665.75
427.18	736.75
427.402	886.75
427.625	977.75
427.847	796.75
428.069	703.75
428.292	634.75
428.514	612.75
428.736	597.75
428.958	571.75
429.181	564.75
429.403	565.75
429.625	584.75
429.847	621.75
430.069	672.75
430.292	665.75
430.514	586.75
430.736	565.75
430.958	551.75
431.18	536.75
431.402	537.75
431.624	513.75
431.846	536.75
432.068	521.75
432.29	535.75
432.512	562.75
432.734	560.75
432.956	531.75
433.178	571.75
433.4	569.75
433.622	565.75
433.844	552.75
434.066	533.75
434.287	539.75
434.509	568.75
434.731	576.75
434.953	585.75
435.175	592.75
435.397	623.75
435.618	612.75
435.84	655.75
436.062	752.75
436.284	816.75
436.505	701.75
436.727	606.75
436.949	579.75
437.17	574.75
437.392	584.75
437.614	589.75
437.835	580.75
438.057	692.75
438.278	814.75
438.5	804.75
438.721	874.75
438.943	843.75
439.165	659.75
439.386	633.75
439.608	617.75
439.829	615.75
440.05	639.75
440.272	680.75
440.493	645.75
440.715	604.75
440.936	597.75
441.158	579.75
441.379	582.75
441.6	589.75
441.822	626.75
442.043	654.75
442.264	739.75
442.486	804.75
442.707	663.75
442.928	626.75
443.149	632.75
443.371	661.75
443.592	703.75
443.813	785.75
444.034	875.75
444.255	718.75
444.476	663.75
444.698	644.75
444.919	643.75
445.14	783.75
445.361	691.75
445.582	637.75
445.803	726.75
446.024	842.75
446.245	861.75
446.466	763.75
446.687	665.75
446.908	614.75
447.129	596.75
447.35	540.75
447.571	584.75
447.792	550.75
448.013	584.75
448.234	564.75
448.455	645.75
448.675	737.75
448.896	848.75
449.117	735.75
449.338	661.75
449.559	785.75
449.779	941.75
450	712.75
450.221	609.75
450.442	587.75
450.662	552.75
450.883	540.75
451.104	557.75
451.324	547.75
451.545	545.75
451.766	518.75
451.986	517.75
452.207	492.75
452.428	496.75
452.648	511.75
452.869	513.75
453.089	524.75
453.31	531.75
453.53	508.75
453.751	499.75
453.971	487.75
454.192	515.75
454.412	488.75
454.633	482.75
454.853	490.75
455.073	502.75
455.294	521.75
455.514	593.75
455.734	565.75
455.955	487.75
456.175	484.75
456.395	477.75
456.616	457.75
456.836	479.75
457.056	488.75
457.276	459.75
457.497	474.75
457.717	496.75
457.937	481.75
458.157	471.75
458.377	490.75
458.598	496.75
458.818	554.75
459.038	639.75
459.258	674.75
459.478	575.75
459.698	530.75
459.918	571.75
460.138	556.75
460.358	544.75
460.578	556.75
460.798	563.75
461.018	576.75
461.238	578.75
461.458	560.75
461.678	561.75
461.898	586.75
462.118	564.75
462.338	587.75
462.558	597.75
462.777	601.75
462.997	636.75
463.217	635.75
463.437	645.75
463.657	634.75
463.876	595.75
464.096	639.75
464.316	619.75
464.536	623.75
464.755	613.75
464.975	595.75
465.195	632.75
465.414	658.75
465.634	612.75
465.854	570.75
466.073	533.75
466.293	555.75
466.512	535.75
466.732	530.75
466.951	532.75
467.171	509.75
467.391	491.75
467.61	521.75
467.829	526.75
468.049	553.75
468.268	523.75
468.488	511.75
468.707	511.75
468.927	523.75
469.146	508.75
469.365	523.75
469.585	493.75
469.804	523.75
470.023	508.75
470.243	514.75
470.462	548.75
470.681	554.75
470.901	546.75
471.12	522.75
471.339	537.75
471.558	539.75
471.777	540.75
471.997	505.75
472.216	531.75
472.435	541.75
472.654	548.75
472.873	535.75
473.092	538.75
473.311	515.75
473.53	523.75
473.749	527.75
473.968	559.75
474.187	660.75
474.406	711.75
474.625	599.75
474.844	535.75
475.063	522.75
475.282	526.75
475.501	509.75
475.72	521.75
475.939	552.75
476.158	534.75
476.377	545.75
476.596	535.75
476.814	564.75
477.033	561.75
477.252	552.75
477.471	552.75
477.69	543.75
477.908	590.75
478.127	590.75
478.346	585.75
478.564	609.75
478.783	618.75
479.002	615.75
479.22	603.75
479.439	610.75
479.658	613.75
479.876	621.75
480.095	633.75
480.313	680.75
480.532	665.75
480.751	644.75
480.969	659.75
481.188	708.75
481.406	732.75
481.624	689.75
481.843	655.75
482.061	630.75
482.28	629.75
482.498	594.75
482.717	624.75
482.935	627.75
483.153	631.75
483.372	604.75
483.59	603.75
483.808	618.75
484.027	634.75
484.245	610.75
484.463	620.75
484.681	629.75
484.9	632.75
485.118	635.75
485.336	621.75
485.554	629.75
485.772	657.75
485.99	627.75
486.209	620.75
486.427	623.75
486.645	657.75
486.863	666.75
487.081	662.75
487.299	641.75
487.517	671.75
487.735	640.75
487.953	681.75
488.171	661.75
488.389	658.75
488.607	673.75
488.825	682.75
489.043	652.75
489.261	676.75
489.479	671.75
489.696	687.75
489.914	695.75
490.132	667.75
490.35	711.75
490.568	704.75
490.786	712.75
491.003	710.75
491.221	737.75
491.439	722.75
491.657	741.75
491.874	762.75
492.092	754.75
492.31	746.75
492.527	767.75
492.745	761.75
492.963	753.75
493.18	757.75
493.398	784.75
493.615	753.75
493.833	773.75
494.05	787.75
494.268	758.75
494.485	760.75
494.703	761.75
494.92	769.75
495.138	790.75
495.355	788.75
495.573	809.75
495.79	795.75
496.008	803.75
496.225	801.75
496.442	778.75
496.66	803.75
496.877	776.75
497.094	805.75
497.312	797.75
497.529	835.75
497.746	825.75
497.963	845.75
498.181	876.75
498.398	864.75
498.615	876.75
498.832	920.75
499.049	937.75
499.267	963.75
499.484	979.75
499.701	1036.75
499.918	1105.75
500.135	1185.75
500.352	1256.75
500.569	1280.75
500.786	1275.75
501.003	1290.75
501.22	1205.75
501.437	1130.75
501.654	1093.75
501.871	1032.75
502.088	996.75
502.305	951.75
502.522	909.75
502.739	931.75
502.956	868.75
503.172	863.75
503.389	824.75
503.606	825.75
503.823	797.75
504.04	795.75
504.256	799.75
504.473	799.75
504.69	798.75
504.907	793.75
505.123	795.75
505.34	776.75
505.557	759.75
505.773	753.75
505.99	754.75
506.207	714.75
506.423	751.75
506.64	731.75
506.856	735.75
507.073	701.75
507.289	715.75
507.506	698.75
507.722	695.75
507.939	705.75
508.155	682.75
508.372	689.75
508.588	697.75
508.805	668.75
509.021	672.75
509.238	700.75
509.454	704.75
509.67	682.75
509.887	710.75
510.103	650.75
510.319	675.75
510.536	738.75
510.752	1112.75
510.968	930.75
511.184	700.75
511.401	630.75
511.617	668.75
511.833	661.75
512.049	631.75
512.265	652.75
512.481	635.75
512.698	643.75
512.914	643.75
513.13	647.75
513.346	660.75
513.562	657.75
513.778	653.75
513.994	670.75
514.21	652.75
514.426	671.75
514.642	696.75
514.858	720.75
515.074	721.75
515.29	818.75
515.506	1103.75
515.721	970.75
515.937	751.75
516.153	681.75
516.369	689.75
516.585	698.75
516.801	672.75
517.016	666.75
517.232	676.75
517.448	703.75
517.664	708.75
517.879	714.75
518.095	716.75
518.311	704.75
518.527	691.75
518.742	663.75
518.958	699.75
519.173	661.75
519.389	672.75
519.605	646.75
519.82	659.75
520.036	668.75
520.251	669.75
520.467	708.75
520.682	676.75
520.898	664.75
521.113	665.75
521.329	726.75
521.544	775.75
521.76	919.75
521.975	1362.75
522.19	1327.75
522.406	845.75
522.621	685.75
522.836	639.75
523.052	606.75
523.267	585.75
523.482	588.75
523.698	575.75
523.913	582.75
524.128	583.75
524.343	597.75
524.559	569.75
524.774	584.75
524.989	572.75
525.204	563.75
525.419	567.75
525.634	557.75
525.849	545.75
526.064	522.75
526.28	559.75
526.495	526.75
526.71	552.75
526.925	547.75
527.14	527.75
527.355	535.75
527.57	545.75
527.785	530.75
527.999	570.75
528.214	551.75
528.429	526.75
528.644	545.75
528.859	557.75
529.074	555.75
529.289	549.75
529.503	618.75
529.718	589.75
529.933	573.75
530.148	545.75
530.363	537.75
530.577	528.75
530.792	531.75
531.007	536.75
531.221	529.75
531.436	527.75
531.651	515.75
531.865	518.75
532.08	537.75
532.295	528.75
532.509	508.75
532.724	538.75
532.938	520.75
533.153	538.75
533.367	514.75
533.582	513.75
533.796	496.75
534.011	517.75
534.225	524.75
534.44	519.75
534.654	508.75
534.868	519.75
535.083	521.75
535.297	505.75
535.511	508.75
535.726	498.75
535.94	516.75
536.154	519.75
536.369	516.75
536.583	508.75
536.797	505.75
537.011	531.75
537.225	483.75
537.44	487.75
537.654	489.75
537.868	501.75
538.082	517.75
538.296	488.75
538.51	486.75
538.724	507.75
538.938	500.75
539.153	488.75
539.367	527.75
539.581	503.75
539.795	491.75
540.009	486.75
540.222	499.75
540.436	495.75
540.65	481.75
540.864	484.75
541.078	499.75
541.292	515.75
541.506	498.75
541.72	506.75
541.934	512.75
542.147	500.75
542.361	485.75
542.575	489.75
542.789	490.75
543.002	488.75
543.216	489.75
543.43	495.75
543.644	490.75
543.857	482.75
544.071	482.75
544.285	488.75
544.498	499.75
544.712	491.75
544.925	478.75
545.139	475.75
545.352	481.75
545.566	496.75
545.779	487.75
545.993	491.75
546.206	492.75
546.42	499.75
546.633	495.75
546.847	476.75
547.06	498.75
547.274	474.75
547.487	475.75
547.7	482.75
547.914	486.75
548.127	473.75
548.34	489.75
548.554	483.75
548.767	486.75
548.98	494.75
549.193	473.75
549.407	490.75
549.62	487.75
549.833	491.75
550.046	470.75
550.259	479.75
550.473	479.75
550.686	488.75
550.899	464.75
551.112	462.75
551.325	481.75
551.538	473.75
551.751	481.75
551.964	478.75
552.177	476.75
552.39	492.75
552.603	489.75
552.816	482.75
553.029	483.75
553.242	497.75
553.455	488.75
553.667	522.75
553.88	515.75
554.093	494.75
554.306	505.75
554.519	490.75
554.732	483.75
554.944	467.75
555.157	465.75
555.37	470.75
555.583	481.75
555.795	451.75
556.008	427.75
556.221	445.75
556.433	468.75
556.646	447.75
556.859	457.75
557.071	421.75
557.284	436.75
557.496	464.75
557.709	436.75
557.921	423.75
558.134	417.75
558.346	458.75
558.559	435.75
558.771	432.75
558.984	430.75
559.196	423.75
559.409	427.75
559.621	418.75
559.833	408.75
560.046	414.75
560.258	418.75
560.47	436.75
560.683	433.75
560.895	435.75
561.107	432.75
561.32	408.75
561.532	442.75
561.744	433.75
561.956	428.75
562.168	454.75
562.381	407.75
562.593	428.75
562.805	434.75
563.017	428.75
563.229	422.75
563.441	434.75
563.653	435.75
563.865	454.75
564.077	431.75
564.289	447.75
564.501	452.75
564.713	456.75
564.925	473.75
565.137	452.75
565.349	465.75
565.561	472.75
565.773	485.75
565.985	503.75
566.197	495.75
566.408	513.75
566.62	529.75
566.832	545.75
567.044	598.75
567.255	585.75
567.467	574.75
567.679	593.75
567.891	620.75
568.102	607.75
568.314	593.75
568.526	553.75
568.737	527.75
568.949	516.75
569.161	479.75
569.372	482.75
569.584	459.75
569.795	460.75
570.007	446.75
570.218	457.75
570.43	487.75
570.641	439.75
570.853	428.75
571.064	413.75
571.276	432.75
571.487	435.75
571.698	431.75
571.91	411.75
572.121	404.75
572.333	402.75
572.544	405.75
572.755	402.75
572.966	380.75
573.178	394.75
573.389	386.75
573.6	378.75
573.811	384.75
574.023	351.75
574.234	357.75
574.445	368.75
574.656	363.75
574.867	373.75
575.078	382.75
575.289	373.75
575.501	378.75
575.712	346.75
575.923	367.75
576.134	359.75
576.345	373.75
576.556	379.75
576.767	352.75
576.978	365.75
577.188	359.75
577.399	338.75
577.61	369.75
577.821	352.75
578.032	361.75
578.243	360.75
578.454	523.75
578.665	446.75
578.875	346.75
579.086	341.75
579.297	341.75
579.508	353.75
579.718	344.75
579.929	339.75
580.14	331.75
580.35	329.75
580.561	320.75
580.772	328.75
580.982	321.75
581.193	325.75
581.403	353.75
581.614	355.75
581.825	351.75
582.035	328.75
582.246	339.75
582.456	332.75
582.667	329.75
582.877	353.75
583.087	324.75
583.298	316.75
583.508	329.75
583.719	332.75
583.929	322.75
584.139	331.75
584.35	333.75
584.56	315.75
584.77	339.75
584.981	319.75
585.191	331.75
585.401	328.75
585.611	322.75
585.821	323.75
586.032	318.75
586.242	300.75
586.452	300.75
586.662	314.75
586.872	325.75
587.082	321.75
587.292	317.75
587.502	321.75
587.713	317.75
587.923	303.75
588.133	321.75
588.343	289.75
588.553	310.75
588.762	331.75
588.972	319.75
589.182	295.75
589.392	319.75
589.602	331.75
589.812	317.75
590.022	334.75
590.232	329.75
590.441	315.75
590.651	325.75
590.861	331.75
591.071	333.75
591.281	341.75
591.49	329.75
591.7	347.75
591.91	317.75
592.119	327.75
592.329	341.75
592.539	340.75
592.748	343.75
592.958	343.75
593.167	358.75
593.377	360.75
593.587	367.75
593.796	341.75
594.006	353.75
594.215	368.75
594.424	372.75
594.634	360.75
594.843	339.75
595.053	339.75
595.262	333.75
595.472	343.75
595.681	345.75
595.89	336.75
596.1	317.75
596.309	313.75
596.518	316.75
596.727	317.75
596.937	300.75
597.146	294.75
597.355	304.75
597.564	299.75
597.774	299.75
597.983	297.75
598.192	285.75
598.401	293.75
598.61	298.75
598.819	280.75
599.028	288.75
599.237	286.75
599.446	279.75
599.655	289.75
599.864	300.75
600.073	297.75
600.282	281.75
600.491	295.75
600.7	281.75
600.909	257.75
601.118	275.75
601.327	270.75
601.536	277.75
601.745	289.75
601.953	291.75
602.162	273.75
602.371	278.75
602.58	273.75
602.789	258.75
602.997	271.75
603.206	267.75
603.415	268.75
603.623	284.75
603.832	278.75
604.041	264.75
604.249	272.75
604.458	281.75
604.666	278.75
604.875	264.75
605.084	275.75
605.292	244.75
605.501	288.75
605.709	263.75
605.918	267.75
606.126	264.75
606.334	283.75
606.543	283.75
606.751	287.75
606.96	270.75
607.168	265.75
607.376	258.75
607.585	259.75
607.793	258.75
608.001	259.75
608.21	262.75
608.418	248.75
608.626	249.75
608.834	251.75
609.043	260.75
609.251	259.75
609.459	248.75
609.667	257.75
609.875	257.75
610.083	253.75
610.291	261.75
610.499	243.75
610.707	261.75
610.916	267.75
611.124	261.75
611.332	257.75
611.54	258.75
611.748	266.75
611.955	268.75
612.163	256.75
612.371	265.75
612.579	260.75
612.787	259.75
612.995	258.75
613.203	268.75
613.411	266.75
613.618	252.75
613.826	259.75
614.034	250.75
614.242	259.75
614.449	256.75
614.657	241.75
614.865	248.75
615.072	246.75
615.28	266.75
615.488	237.75
615.695	245.75
615.903	262.75
616.111	263.75
616.318	251.75
616.526	257.75
616.733	250.75
616.941	253.75
617.148	261.75
617.356	251.75
617.563	268.75
617.771	257.75
617.978	267.75
618.185	269.75
618.393	243.75
618.6	252.75
618.807	250.75
619.015	255.75
619.222	256.75
619.429	245.75
619.637	260.75
619.844	240.75
620.051	232.75
620.258	261.75
620.466	218.75
620.673	239.75
620.88	239.75
621.087	242.75
621.294	240.75
621.501	222.75
621.708	256.75
621.915	248.75
622.122	233.75
622.329	225.75
622.536	250.75
622.743	247.75
622.95	239.75
623.157	244.75
623.364	229.75
623.571	224.75
623.778	221.75
623.985	242.75
624.192	229.75
624.399	236.75
624.606	239.75
624.812	214.75
625.019	231.75
625.226	245.75
625.433	238.75
625.639	226.75
625.846	217.75
626.053	206.75
626.259	227.75
626.466	234.75
626.673	216.75
626.879	213.75
627.086	232.75
627.293	234.75
627.499	211.75
627.706	222.75
627.912	207.75
628.119	202.75
628.325	207.75
628.532	206.75
628.738	210.75
628.945	208.75
629.151	205.75
629.357	214.75
629.564	209.75
629.77	195.75
629.976	203.75
630.183	211.75
630.389	218.75
630.595	212.75
630.802	205.75
631.008	197.75
631.214	205.75
631.42	201.75
631.627	205.75
631.833	194.75
632.039	196.75
632.245	198.75
632.451	202.75
632.657	216.75
632.863	193.75
633.069	183.75
633.275	200.75
633.481	201.75
633.688	187.75
633.893	196.75
634.099	197.75
634.305	213.75
634.511	194.75
634.717	185.75
634.923	195.75
635.129	193.75
635.335	187.75
635.541	207.75
635.747	196.75
635.952	193.75
636.158	194.75
636.364	205.75
636.57	215.75
636.775	215.75
636.981	197.75
637.187	181.75
637.392	190.75
637.598	203.75
637.804	183.75
638.009	186.75
638.215	184.75
638.421	171.75
638.626	199.75
638.832	169.75
639.037	190.75
639.243	178.75
639.448	176.75
639.654	181.75
639.859	185.75
640.065	180.75
640.27	198.75
640.475	196.75
640.681	175.75
640.886	189.75
641.091	195.75
641.297	194.75
641.502	196.75
641.707	201.75
641.913	180.75
642.118	172.75
642.323	182.75
642.528	182.75
642.733	175.75
642.939	185.75
643.144	194.75
643.349	190.75
643.554	184.75
643.759	183.75
643.964	177.75
644.169	179.75
644.374	154.75
644.579	167.75
644.784	195.75
644.989	179.75
645.194	170.75
645.399	186.75
645.604	188.75
645.809	185.75
646.014	185.75
646.219	171.75
646.423	193.75
646.628	172.75
646.833	166.75
647.038	194.75
647.243	167.75
647.447	183.75
647.652	176.75
647.857	193.75
648.062	180.75
648.266	182.75
648.471	192.75
648.676	177.75
648.88	176.75
649.085	181.75
649.289	179.75
649.494	193.75
649.698	201.75
649.903	187.75
650.107	171.75
650.312	175.75
650.516	169.75
650.721	149.75
650.925	176.75
651.13	162.75
651.334	169.75
651.539	168.75
651.743	155.75
651.947	157.75
652.152	153.75
652.356	159.75
652.56	143.75
652.764	145.75
652.969	152.75
653.173	138.75
653.377	148.75
653.581	148.75
653.785	153.75
653.99	136.75
654.194	151.75
654.398	129.75
654.602	147.75
654.806	147.75
655.01	144.75
655.214	158.75
655.418	145.75
655.622	139.75
655.826	148.75
656.03	150.75
656.234	150.75
656.438	144.75
656.642	133.75
656.846	155.75
657.049	136.75
657.253	142.75
657.457	127.75
657.661	126.75
657.865	125.75
658.068	107.75
658.272	115.75
658.476	107.75
658.68	118.75
658.883	104.75
659.087	107.75
659.291	101.75
659.494	92.75
659.698	101.75
659.901	101.75
660.105	88.75
660.309	99.75
660.512	95.75
660.716	90.75
660.919	100.75
661.123	87.75
661.326	102.75
661.53	98.75
661.733	84.75
661.936	96.75
662.14	89.75
662.343	88.75
662.546	90.75
662.75	96.75
662.953	86.75
663.156	88.75
663.36	88.75
663.563	80.75
663.766	77.75
663.969	82.75
664.173	81.75
664.376	78.75
664.579	75.75
664.782	76.75
664.985	83.75
665.188	83.75
665.391	91.75
665.594	97.75
665.797	80.75
666	77.75
666.203	78.75
666.406	75.75
666.609	94.75
666.812	89.75
667.015	86.75
667.218	92.75
667.421	85.75
667.624	79.75
667.827	78.75
668.03	76.75
668.232	61.75
668.435	61.75
668.638	76.75
668.841	71.75
669.043	84.75
669.246	75.75
669.449	71.75
669.651	67.75
669.854	81.75
670.057	80.75
670.259	68.75
670.462	100.75
670.665	75.75
670.867	85.75
671.07	81.75
671.272	83.75
671.475	83.75
671.677	93.75
671.88	81.75
672.082	84.75
672.284	91.75
672.487	83.75
672.689	81.75
672.892	84.75
