Data from 1975.PennyLincolnUp.Lamp.En5.5.200Scan.071719.P1.Changed Mount._HRD10591_15-55-30-858.txt Node
Date: Thu Jul 18 15:55:30 EDT 2019
User: cochatt
Spectrometer: HR+D1059
Trigger mode: 1
Integration Time (sec): 1.000000E-1
Scans to average: 1
Electric dark correction enabled: true
Nonlinearity correction enabled: false
Boxcar width: 0
XAxis mode: Wavelengths
Number of Pixels in Spectrum: 2048
>>>>>Begin Spectral Data<<<<<
223.165	-10.19
223.4	-10.19
223.635	-10.19
223.869	-15.19
224.104	-21.19
224.338	-20.19
224.573	-3.19
224.808	1.81
225.042	-15.19
225.277	-20.19
225.511	-7.19
225.746	-0.19
225.98	6.81
226.215	17.81
226.449	15.81
226.683	7.81
226.918	27.81
227.152	34.81
227.387	55.81
227.621	36.81
227.856	48.81
228.09	40.81
228.324	54.81
228.559	54.81
228.793	70.81
229.027	83.81
229.262	95.81
229.496	93.81
229.73	128.81
229.964	142.81
230.199	116.81
230.433	105.81
230.667	115.81
230.901	111.81
231.136	101.81
231.37	109.81
231.604	115.81
231.838	107.81
232.072	104.81
232.306	109.81
232.541	100.81
232.775	117.81
233.009	119.81
233.243	127.81
233.477	111.81
233.711	125.81
233.945	110.81
234.179	115.81
234.413	112.81
234.647	114.81
234.881	123.81
235.115	116.81
235.349	118.81
235.583	129.81
235.817	118.81
236.051	111.81
236.285	122.81
236.519	121.81
236.753	119.81
236.987	140.81
237.221	145.81
237.455	191.81
237.689	170.81
237.922	129.81
238.156	135.81
238.39	129.81
238.624	121.81
238.858	128.81
239.091	131.81
239.325	113.81
239.559	133.81
239.793	119.81
240.027	135.81
240.26	129.81
240.494	131.81
240.728	127.81
240.961	128.81
241.195	151.81
241.429	143.81
241.662	129.81
241.896	133.81
242.13	139.81
242.363	124.81
242.597	133.81
242.83	134.81
243.064	131.81
243.298	127.81
243.531	124.81
243.765	133.81
243.998	130.81
244.232	119.81
244.465	129.81
244.699	152.81
244.932	157.81
245.166	145.81
245.399	150.81
245.633	135.81
245.866	141.81
246.099	145.81
246.333	154.81
246.566	157.81
246.8	145.81
247.033	150.81
247.266	163.81
247.5	142.81
247.733	139.81
247.966	165.81
248.2	170.81
248.433	183.81
248.666	163.81
248.899	169.81
249.133	162.81
249.366	183.81
249.599	170.81
249.832	165.81
250.066	168.81
250.299	160.81
250.532	168.81
250.765	174.81
250.998	199.81
251.231	200.81
251.465	200.81
251.698	173.81
251.931	174.81
252.164	188.81
252.397	181.81
252.63	169.81
252.863	200.81
253.096	204.81
253.329	201.81
253.562	203.81
253.795	184.81
254.028	189.81
254.261	170.81
254.494	184.81
254.727	204.81
254.96	228.81
255.193	236.81
255.426	221.81
255.659	219.81
255.892	212.81
256.124	225.81
256.357	208.81
256.59	215.81
256.823	200.81
257.056	197.81
257.289	199.81
257.521	182.81
257.754	184.81
257.987	185.81
258.22	198.81
258.452	187.81
258.685	192.81
258.918	179.81
259.151	185.81
259.383	211.81
259.616	200.81
259.849	217.81
260.081	190.81
260.314	235.81
260.547	215.81
260.779	222.81
261.012	223.81
261.244	223.81
261.477	219.81
261.71	201.81
261.942	209.81
262.175	216.81
262.407	199.81
262.64	190.81
262.872	195.81
263.105	215.81
263.337	196.81
263.57	208.81
263.802	202.81
264.035	198.81
264.267	196.81
264.499	199.81
264.732	232.81
264.964	197.81
265.197	205.81
265.429	199.81
265.661	195.81
265.894	198.81
266.126	221.81
266.358	222.81
266.591	205.81
266.823	181.81
267.055	209.81
267.287	198.81
267.52	216.81
267.752	206.81
267.984	213.81
268.216	205.81
268.448	220.81
268.681	205.81
268.913	221.81
269.145	222.81
269.377	244.81
269.609	233.81
269.841	249.81
270.073	248.81
270.306	247.81
270.538	263.81
270.77	262.81
271.002	249.81
271.234	248.81
271.466	260.81
271.698	280.81
271.93	266.81
272.162	273.81
272.394	278.81
272.626	267.81
272.858	248.81
273.09	254.81
273.322	220.81
273.553	226.81
273.785	230.81
274.017	259.81
274.249	232.81
274.481	250.81
274.713	249.81
274.945	251.81
275.176	238.81
275.408	237.81
275.64	259.81
275.872	249.81
276.104	240.81
276.335	252.81
276.567	238.81
276.799	259.81
277.031	285.81
277.262	293.81
277.494	278.81
277.726	271.81
277.957	266.81
278.189	255.81
278.421	274.81
278.652	253.81
278.884	235.81
279.115	265.81
279.347	254.81
279.579	271.81
279.81	269.81
280.042	263.81
280.273	243.81
280.505	272.81
280.736	258.81
280.968	261.81
281.199	263.81
281.431	247.81
281.662	257.81
281.894	256.81
282.125	281.81
282.356	274.81
282.588	271.81
282.819	289.81
283.051	263.81
283.282	246.81
283.513	267.81
283.745	254.81
283.976	271.81
284.207	290.81
284.439	289.81
284.67	267.81
284.901	264.81
285.132	264.81
285.364	250.81
285.595	256.81
285.826	263.81
286.057	273.81
286.288	259.81
286.52	278.81
286.751	253.81
286.982	272.81
287.213	263.81
287.444	251.81
287.675	274.81
287.906	300.81
288.138	281.81
288.369	299.81
288.6	303.81
288.831	279.81
289.062	287.81
289.293	278.81
289.524	290.81
289.755	263.81
289.986	281.81
290.217	291.81
290.448	281.81
290.679	268.81
290.91	283.81
291.141	289.81
291.371	280.81
291.602	291.81
291.833	274.81
292.064	277.81
292.295	269.81
292.526	286.81
292.757	279.81
292.987	276.81
293.218	295.81
293.449	275.81
293.68	283.81
293.91	286.81
294.141	284.81
294.372	283.81
294.603	277.81
294.833	286.81
295.064	264.81
295.295	283.81
295.525	297.81
295.756	313.81
295.987	284.81
296.217	311.81
296.448	309.81
296.679	318.81
296.909	295.81
297.14	289.81
297.37	295.81
297.601	295.81
297.831	270.81
298.062	274.81
298.292	272.81
298.523	300.81
298.753	310.81
298.984	304.81
299.214	281.81
299.445	287.81
299.675	291.81
299.905	312.81
300.136	292.81
300.366	313.81
300.597	324.81
300.827	306.81
301.057	301.81
301.288	299.81
301.518	307.81
301.748	313.81
301.979	319.81
302.209	336.81
302.439	302.81
302.669	312.81
302.9	320.81
303.13	319.81
303.36	326.81
303.59	313.81
303.82	315.81
304.051	320.81
304.281	325.81
304.511	307.81
304.741	308.81
304.971	317.81
305.201	293.81
305.431	313.81
305.661	305.81
305.891	311.81
306.121	319.81
306.352	315.81
306.582	303.81
306.812	320.81
307.042	333.81
307.272	322.81
307.502	310.81
307.731	310.81
307.961	302.81
308.191	323.81
308.421	311.81
308.651	332.81
308.881	327.81
309.111	322.81
309.341	326.81
309.571	348.81
309.8	356.81
310.03	332.81
310.26	332.81
310.49	323.81
310.72	362.81
310.949	344.81
311.179	339.81
311.409	346.81
311.639	334.81
311.868	359.81
312.098	338.81
312.328	361.81
312.557	357.81
312.787	359.81
313.017	373.81
313.246	355.81
313.476	331.81
313.706	361.81
313.935	353.81
314.165	352.81
314.394	345.81
314.624	357.81
314.853	359.81
315.083	349.81
315.312	332.81
315.542	361.81
315.771	340.81
316.001	350.81
316.23	350.81
316.46	331.81
316.689	346.81
316.919	345.81
317.148	338.81
317.377	348.81
317.607	343.81
317.836	348.81
318.065	351.81
318.295	355.81
318.524	328.81
318.753	335.81
318.983	349.81
319.212	367.81
319.441	359.81
319.67	364.81
319.9	326.81
320.129	368.81
320.358	349.81
320.587	355.81
320.816	352.81
321.046	338.81
321.275	350.81
321.504	343.81
321.733	355.81
321.962	372.81
322.191	371.81
322.42	354.81
322.649	387.81
322.878	377.81
323.108	378.81
323.337	404.81
323.566	403.81
323.795	420.81
324.024	449.81
324.253	514.81
324.482	691.81
324.71	999.81
324.939	1514.81
325.168	1339.81
325.397	687.81
325.626	496.81
325.855	424.81
326.084	410.81
326.313	401.81
326.542	424.81
326.77	429.81
326.999	510.81
327.228	664.81
327.457	960.81
327.686	1203.81
327.914	782.81
328.143	527.81
328.372	484.81
328.6	462.81
328.829	428.81
329.058	426.81
329.287	467.81
329.515	438.81
329.744	412.81
329.972	444.81
330.201	437.81
330.43	456.81
330.658	459.81
330.887	461.81
331.115	485.81
331.344	452.81
331.572	427.81
331.801	433.81
332.03	435.81
332.258	403.81
332.486	419.81
332.715	415.81
332.943	421.81
333.172	409.81
333.4	447.81
333.629	435.81
333.857	476.81
334.085	459.81
334.314	461.81
334.542	476.81
334.771	463.81
334.999	456.81
335.227	454.81
335.455	436.81
335.684	437.81
335.912	430.81
336.14	415.81
336.369	432.81
336.597	429.81
336.825	408.81
337.053	422.81
337.281	409.81
337.51	408.81
337.738	412.81
337.966	407.81
338.194	430.81
338.422	416.81
338.65	422.81
338.878	392.81
339.106	416.81
339.334	406.81
339.562	410.81
339.79	410.81
340.018	385.81
340.246	398.81
340.474	416.81
340.702	402.81
340.93	417.81
341.158	395.81
341.386	411.81
341.614	421.81
341.842	394.81
342.07	384.81
342.298	412.81
342.526	419.81
342.754	409.81
342.981	415.81
343.209	396.81
343.437	393.81
343.665	414.81
343.893	405.81
344.12	436.81
344.348	424.81
344.576	428.81
344.804	445.81
345.031	411.81
345.259	439.81
345.487	416.81
345.714	401.81
345.942	411.81
346.17	389.81
346.397	411.81
346.625	393.81
346.853	379.81
347.08	385.81
347.308	389.81
347.535	389.81
347.763	394.81
347.99	396.81
348.218	384.81
348.445	399.81
348.673	386.81
348.9	393.81
349.128	410.81
349.355	394.81
349.583	378.81
349.81	371.81
350.037	387.81
350.265	388.81
350.492	395.81
350.72	365.81
350.947	377.81
351.174	375.81
351.402	371.81
351.629	377.81
351.856	410.81
352.083	404.81
352.311	413.81
352.538	399.81
352.765	401.81
352.992	394.81
353.22	384.81
353.447	399.81
353.674	379.81
353.901	382.81
354.128	367.81
354.355	366.81
354.583	392.81
354.81	368.81
355.037	369.81
355.264	373.81
355.491	361.81
355.718	377.81
355.945	373.81
356.172	371.81
356.399	372.81
356.626	361.81
356.853	386.81
357.08	377.81
357.307	391.81
357.534	379.81
357.761	357.81
357.988	383.81
358.215	375.81
358.441	384.81
358.668	384.81
358.895	380.81
359.122	381.81
359.349	417.81
359.576	396.81
359.802	423.81
360.029	415.81
360.256	416.81
360.483	395.81
360.709	387.81
360.936	404.81
361.163	399.81
361.39	391.81
361.616	392.81
361.843	404.81
362.07	379.81
362.296	395.81
362.523	387.81
362.749	391.81
362.976	376.81
363.203	404.81
363.429	398.81
363.656	383.81
363.882	394.81
364.109	390.81
364.335	397.81
364.562	391.81
364.788	388.81
365.015	366.81
365.241	389.81
365.468	396.81
365.694	396.81
365.92	391.81
366.147	394.81
366.373	393.81
366.599	390.81
366.826	373.81
367.052	384.81
367.278	382.81
367.505	387.81
367.731	396.81
367.957	385.81
368.184	404.81
368.41	394.81
368.636	385.81
368.862	377.81
369.089	398.81
369.315	392.81
369.541	411.81
369.767	387.81
369.993	373.81
370.219	399.81
370.445	393.81
370.672	391.81
370.898	393.81
371.124	379.81
371.35	388.81
371.576	403.81
371.802	382.81
372.028	383.81
372.254	397.81
372.48	387.81
372.706	401.81
372.932	387.81
373.158	394.81
373.384	393.81
373.61	420.81
373.835	427.81
374.061	416.81
374.287	414.81
374.513	399.81
374.739	400.81
374.965	418.81
375.191	419.81
375.416	391.81
375.642	405.81
375.868	395.81
376.094	417.81
376.319	411.81
376.545	413.81
376.771	395.81
376.997	397.81
377.222	402.81
377.448	404.81
377.674	407.81
377.899	399.81
378.125	387.81
378.35	392.81
378.576	404.81
378.802	407.81
379.027	405.81
379.253	408.81
379.478	403.81
379.704	393.81
379.929	402.81
380.155	402.81
380.38	408.81
380.606	417.81
380.831	416.81
381.057	393.81
381.282	409.81
381.507	409.81
381.733	424.81
381.958	428.81
382.184	420.81
382.409	442.81
382.634	435.81
382.86	428.81
383.085	428.81
383.31	437.81
383.535	415.81
383.761	423.81
383.986	430.81
384.211	440.81
384.436	438.81
384.662	469.81
384.887	451.81
385.112	427.81
385.337	470.81
385.562	468.81
385.787	486.81
386.013	495.81
386.238	468.81
386.463	469.81
386.688	473.81
386.913	456.81
387.138	467.81
387.363	492.81
387.588	469.81
387.813	481.81
388.038	496.81
388.263	483.81
388.488	488.81
388.713	453.81
388.938	448.81
389.163	446.81
389.387	443.81
389.612	449.81
389.837	439.81
390.062	437.81
390.287	436.81
390.512	429.81
390.736	450.81
390.961	451.81
391.186	444.81
391.411	432.81
391.636	452.81
391.86	463.81
392.085	482.81
392.31	491.81
392.534	486.81
392.759	471.81
392.984	467.81
393.208	478.81
393.433	477.81
393.658	489.81
393.882	459.81
394.107	465.81
394.331	459.81
394.556	462.81
394.78	453.81
395.005	472.81
395.229	463.81
395.454	464.81
395.678	472.81
395.903	484.81
396.127	518.81
396.352	491.81
396.576	491.81
396.801	490.81
397.025	488.81
397.249	493.81
397.474	509.81
397.698	484.81
397.922	487.81
398.147	505.81
398.371	502.81
398.595	500.81
398.82	517.81
399.044	541.81
399.268	551.81
399.492	597.81
399.717	635.81
399.941	634.81
400.165	664.81
400.389	649.81
400.613	613.81
400.837	535.81
401.062	528.81
401.286	540.81
401.51	529.81
401.734	513.81
401.958	518.81
402.182	518.81
402.406	524.81
402.63	529.81
402.854	523.81
403.078	529.81
403.302	538.81
403.526	526.81
403.75	541.81
403.974	525.81
404.198	528.81
404.422	544.81
404.645	527.81
404.869	561.81
405.093	593.81
405.317	598.81
405.541	631.81
405.765	591.81
405.988	577.81
406.212	571.81
406.436	596.81
406.66	597.81
406.883	564.81
407.107	603.81
407.331	657.81
407.555	698.81
407.778	699.81
408.002	655.81
408.226	618.81
408.449	583.81
408.673	575.81
408.896	610.81
409.12	663.81
409.344	632.81
409.567	563.81
409.791	569.81
410.014	537.81
410.238	552.81
410.461	548.81
410.685	563.81
410.908	554.81
411.132	594.81
411.355	600.81
411.578	580.81
411.802	539.81
412.025	524.81
412.249	550.81
412.472	587.81
412.695	580.81
412.919	551.81
413.142	566.81
413.365	540.81
413.589	543.81
413.812	530.81
414.035	528.81
414.258	517.81
414.482	535.81
414.705	499.81
414.928	523.81
415.151	534.81
415.374	539.81
415.597	517.81
415.821	500.81
416.044	519.81
416.267	514.81
416.49	505.81
416.713	498.81
416.936	515.81
417.159	525.81
417.382	515.81
417.605	505.81
417.828	560.81
418.051	546.81
418.274	524.81
418.497	533.81
418.72	505.81
418.943	513.81
419.166	564.81
419.389	568.81
419.611	567.81
419.834	533.81
420.057	571.81
420.28	537.81
420.503	534.81
420.726	526.81
420.948	535.81
421.171	556.81
421.394	584.81
421.617	539.81
421.839	519.81
422.062	527.81
422.285	551.81
422.507	566.81
422.73	642.81
422.953	637.81
423.175	584.81
423.398	556.81
423.621	530.81
423.843	569.81
424.066	570.81
424.288	576.81
424.511	586.81
424.733	613.81
424.956	704.81
425.178	656.81
425.401	645.81
425.623	674.81
425.846	581.81
426.068	551.81
426.291	540.81
426.513	532.81
426.735	548.81
426.958	586.81
427.18	678.81
427.402	773.81
427.625	829.81
427.847	736.81
428.069	606.81
428.292	571.81
428.514	557.81
428.736	524.81
428.958	525.81
429.181	507.81
429.403	528.81
429.625	522.81
429.847	543.81
430.069	597.81
430.292	600.81
430.514	505.81
430.736	493.81
430.958	489.81
431.18	500.81
431.402	503.81
431.624	504.81
431.846	496.81
432.068	485.81
432.29	489.81
432.512	481.81
432.734	485.81
432.956	503.81
433.178	517.81
433.4	519.81
433.622	502.81
433.844	511.81
434.066	492.81
434.287	509.81
434.509	494.81
434.731	490.81
434.953	533.81
435.175	522.81
435.397	551.81
435.618	545.81
435.84	566.81
436.062	647.81
436.284	718.81
436.505	609.81
436.727	528.81
436.949	507.81
437.17	494.81
437.392	502.81
437.614	528.81
437.835	535.81
438.057	616.81
438.278	714.81
438.5	695.81
438.721	775.81
438.943	755.81
439.165	596.81
439.386	573.81
439.608	555.81
439.829	544.81
440.05	571.81
440.272	591.81
440.493	563.81
440.715	539.81
440.936	505.81
441.158	471.81
441.379	521.81
441.6	542.81
441.822	556.81
442.043	555.81
442.264	634.81
442.486	691.81
442.707	595.81
442.928	561.81
443.149	560.81
443.371	574.81
443.592	608.81
443.813	698.81
444.034	762.81
444.255	636.81
444.476	588.81
444.698	596.81
444.919	602.81
445.14	704.81
445.361	622.81
445.582	575.81
445.803	644.81
446.024	711.81
446.245	725.81
446.466	668.81
446.687	577.81
446.908	549.81
447.129	534.81
447.35	499.81
447.571	519.81
447.792	490.81
448.013	511.81
448.234	525.81
448.455	532.81
448.675	669.81
448.896	739.81
449.117	637.81
449.338	586.81
449.559	689.81
449.779	779.81
450	653.81
450.221	556.81
450.442	508.81
450.662	474.81
450.883	488.81
451.104	498.81
451.324	497.81
451.545	464.81
451.766	466.81
451.986	472.81
452.207	457.81
452.428	467.81
452.648	438.81
452.869	459.81
453.089	458.81
453.31	490.81
453.53	439.81
453.751	444.81
453.971	455.81
454.192	462.81
454.412	454.81
454.633	447.81
454.853	454.81
455.073	436.81
455.294	473.81
455.514	523.81
455.734	514.81
455.955	453.81
456.175	431.81
456.395	430.81
456.616	439.81
456.836	439.81
457.056	423.81
457.276	422.81
457.497	428.81
457.717	446.81
457.937	451.81
458.157	443.81
458.377	448.81
458.598	452.81
458.818	507.81
459.038	565.81
459.258	581.81
459.478	510.81
459.698	475.81
459.918	491.81
460.138	520.81
460.358	487.81
460.578	524.81
460.798	528.81
461.018	527.81
461.238	521.81
461.458	515.81
461.678	535.81
461.898	518.81
462.118	525.81
462.338	519.81
462.558	552.81
462.777	560.81
462.997	586.81
463.217	575.81
463.437	604.81
463.657	571.81
463.876	586.81
464.096	582.81
464.316	548.81
464.536	566.81
464.755	560.81
464.975	551.81
465.195	564.81
465.414	597.81
465.634	552.81
465.854	532.81
466.073	513.81
466.293	499.81
466.512	480.81
466.732	463.81
466.951	466.81
467.171	486.81
467.391	499.81
467.61	488.81
467.829	472.81
468.049	485.81
468.268	474.81
468.488	464.81
468.707	456.81
468.927	470.81
469.146	477.81
469.365	471.81
469.585	459.81
469.804	479.81
470.023	473.81
470.243	501.81
470.462	485.81
470.681	495.81
470.901	478.81
471.12	479.81
471.339	482.81
471.558	501.81
471.777	494.81
471.997	481.81
472.216	486.81
472.435	479.81
472.654	493.81
472.873	459.81
473.092	482.81
473.311	486.81
473.53	491.81
473.749	469.81
473.968	508.81
474.187	597.81
474.406	586.81
474.625	521.81
474.844	487.81
475.063	490.81
475.282	452.81
475.501	485.81
475.72	494.81
475.939	491.81
476.158	483.81
476.377	508.81
476.596	480.81
476.814	499.81
477.033	500.81
477.252	503.81
477.471	498.81
477.69	530.81
477.908	532.81
478.127	536.81
478.346	546.81
478.564	559.81
478.783	555.81
479.002	590.81
479.22	569.81
479.439	561.81
479.658	567.81
479.876	592.81
480.095	577.81
480.313	594.81
480.532	605.81
480.751	601.81
480.969	601.81
481.188	618.81
481.406	638.81
481.624	588.81
481.843	591.81
482.061	580.81
482.28	569.81
482.498	558.81
482.717	574.81
482.935	568.81
483.153	569.81
483.372	566.81
483.59	585.81
483.808	568.81
484.027	548.81
484.245	581.81
484.463	590.81
484.681	595.81
484.9	596.81
485.118	597.81
485.336	589.81
485.554	597.81
485.772	586.81
485.99	599.81
486.209	605.81
486.427	596.81
486.645	598.81
486.863	625.81
487.081	635.81
487.299	641.81
487.517	613.81
487.735	631.81
487.953	624.81
488.171	608.81
488.389	618.81
488.607	626.81
488.825	596.81
489.043	615.81
489.261	606.81
489.479	627.81
489.696	616.81
489.914	613.81
490.132	634.81
490.35	645.81
490.568	635.81
490.786	645.81
491.003	652.81
491.221	657.81
491.439	655.81
491.657	658.81
491.874	699.81
492.092	683.81
492.31	701.81
492.527	672.81
492.745	669.81
492.963	674.81
493.18	708.81
493.398	705.81
493.615	712.81
493.833	708.81
494.05	711.81
494.268	688.81
494.485	692.81
494.703	704.81
494.92	693.81
495.138	706.81
495.355	710.81
495.573	684.81
495.79	694.81
496.008	721.81
496.225	705.81
496.442	682.81
496.66	717.81
496.877	704.81
497.094	734.81
497.312	724.81
497.529	737.81
497.746	755.81
497.963	771.81
498.181	789.81
498.398	811.81
498.615	798.81
498.832	821.81
499.049	873.81
499.267	887.81
499.484	931.81
499.701	971.81
499.918	994.81
500.135	1079.81
500.352	1119.81
500.569	1136.81
500.786	1183.81
501.003	1136.81
501.22	1100.81
501.437	1042.81
501.654	999.81
501.871	965.81
502.088	873.81
502.305	850.81
502.522	851.81
502.739	822.81
502.956	787.81
503.172	756.81
503.389	781.81
503.606	769.81
503.823	743.81
504.04	730.81
504.256	725.81
504.473	717.81
504.69	709.81
504.907	727.81
505.123	714.81
505.34	684.81
505.557	679.81
505.773	673.81
505.99	676.81
506.207	671.81
506.423	677.81
506.64	653.81
506.856	668.81
507.073	638.81
507.289	639.81
507.506	644.81
507.722	667.81
507.939	642.81
508.155	637.81
508.372	619.81
508.588	621.81
508.805	617.81
509.021	620.81
509.238	614.81
509.454	612.81
509.67	621.81
509.887	594.81
510.103	618.81
510.319	610.81
510.536	657.81
510.752	922.81
510.968	807.81
511.184	593.81
511.401	577.81
511.617	598.81
511.833	583.81
512.049	563.81
512.265	598.81
512.481	570.81
512.698	560.81
512.914	600.81
513.13	565.81
513.346	566.81
513.562	595.81
513.778	582.81
513.994	562.81
514.21	574.81
514.426	575.81
514.642	627.81
514.858	638.81
515.074	663.81
515.29	767.81
515.506	937.81
515.721	831.81
515.937	657.81
516.153	627.81
516.369	624.81
516.585	623.81
516.801	631.81
517.016	608.81
517.232	636.81
517.448	657.81
517.664	654.81
517.879	668.81
518.095	683.81
518.311	634.81
518.527	609.81
518.742	640.81
518.958	623.81
519.173	606.81
519.389	589.81
519.605	601.81
519.82	585.81
520.036	606.81
520.251	581.81
520.467	612.81
520.682	607.81
520.898	630.81
521.113	617.81
521.329	624.81
521.544	673.81
521.76	738.81
521.975	1112.81
522.19	1098.81
522.406	702.81
522.621	615.81
522.836	571.81
523.052	565.81
523.267	546.81
523.482	533.81
523.698	525.81
523.913	510.81
524.128	529.81
524.343	531.81
524.559	517.81
524.774	511.81
524.989	543.81
525.204	533.81
525.419	519.81
525.634	504.81
525.849	510.81
526.064	515.81
526.28	480.81
526.495	512.81
526.71	511.81
526.925	519.81
527.14	499.81
527.355	481.81
527.57	497.81
527.785	486.81
527.999	473.81
528.214	515.81
528.429	499.81
528.644	482.81
528.859	494.81
529.074	493.81
529.289	512.81
529.503	559.81
529.718	545.81
529.933	486.81
530.148	494.81
530.363	492.81
530.577	482.81
530.792	481.81
531.007	484.81
531.221	477.81
531.436	492.81
531.651	480.81
531.865	497.81
532.08	473.81
532.295	494.81
532.509	499.81
532.724	477.81
532.938	481.81
533.153	481.81
533.367	485.81
533.582	499.81
533.796	469.81
534.011	464.81
534.225	479.81
534.44	454.81
534.654	465.81
534.868	496.81
535.083	466.81
535.297	461.81
535.511	461.81
535.726	486.81
535.94	478.81
536.154	481.81
536.369	461.81
536.583	479.81
536.797	459.81
537.011	462.81
537.225	454.81
537.44	444.81
537.654	440.81
537.868	477.81
538.082	458.81
538.296	462.81
538.51	466.81
538.724	455.81
538.938	457.81
539.153	488.81
539.367	459.81
539.581	456.81
539.795	463.81
540.009	469.81
540.222	475.81
540.436	477.81
540.65	440.81
540.864	452.81
541.078	465.81
541.292	465.81
541.506	465.81
541.72	466.81
541.934	465.81
542.147	467.81
542.361	472.81
542.575	449.81
542.789	440.81
543.002	449.81
543.216	463.81
543.43	460.81
543.644	445.81
543.857	462.81
544.071	460.81
544.285	467.81
544.498	456.81
544.712	470.81
544.925	470.81
545.139	488.81
545.352	485.81
545.566	479.81
545.779	466.81
545.993	470.81
546.206	466.81
546.42	456.81
546.633	473.81
546.847	468.81
547.06	433.81
547.274	454.81
547.487	454.81
547.7	471.81
547.914	456.81
548.127	467.81
548.34	453.81
548.554	444.81
548.767	465.81
548.98	462.81
549.193	452.81
549.407	444.81
549.62	451.81
549.833	480.81
550.046	466.81
550.259	454.81
550.473	452.81
550.686	442.81
550.899	447.81
551.112	445.81
551.325	447.81
551.538	428.81
551.751	428.81
551.964	462.81
552.177	430.81
552.39	436.81
552.603	459.81
552.816	463.81
553.029	460.81
553.242	476.81
553.455	479.81
553.667	475.81
553.88	488.81
554.093	458.81
554.306	481.81
554.519	460.81
554.732	464.81
554.944	435.81
555.157	432.81
555.37	465.81
555.583	430.81
555.795	447.81
556.008	422.81
556.221	421.81
556.433	437.81
556.646	414.81
556.859	410.81
557.071	434.81
557.284	410.81
557.496	428.81
557.709	419.81
557.921	401.81
558.134	400.81
558.346	412.81
558.559	419.81
558.771	405.81
558.984	400.81
559.196	432.81
559.409	410.81
559.621	384.81
559.833	411.81
560.046	409.81
560.258	400.81
560.47	407.81
560.683	413.81
560.895	413.81
561.107	401.81
561.32	401.81
561.532	401.81
561.744	424.81
561.956	405.81
562.168	407.81
562.381	411.81
562.593	394.81
562.805	409.81
563.017	397.81
563.229	413.81
563.441	409.81
563.653	428.81
563.865	406.81
564.077	426.81
564.289	413.81
564.501	417.81
564.713	424.81
564.925	443.81
565.137	449.81
565.349	452.81
565.561	449.81
565.773	448.81
565.985	478.81
566.197	473.81
566.408	496.81
566.62	530.81
566.832	528.81
567.044	531.81
567.255	569.81
567.467	559.81
567.679	560.81
567.891	573.81
568.102	605.81
568.314	579.81
568.526	555.81
568.737	520.81
568.949	480.81
569.161	473.81
569.372	472.81
569.584	452.81
569.795	448.81
570.007	459.81
570.218	462.81
570.43	424.81
570.641	417.81
570.853	427.81
571.064	407.81
571.276	405.81
571.487	407.81
571.698	395.81
571.91	376.81
572.121	397.81
572.333	385.81
572.544	399.81
572.755	350.81
572.966	377.81
573.178	373.81
573.389	376.81
573.6	366.81
573.811	352.81
574.023	360.81
574.234	367.81
574.445	367.81
574.656	364.81
574.867	351.81
575.078	367.81
575.289	357.81
575.501	354.81
575.712	340.81
575.923	357.81
576.134	366.81
576.345	343.81
576.556	357.81
576.767	353.81
576.978	341.81
577.188	332.81
577.399	346.81
577.61	346.81
577.821	329.81
578.032	346.81
578.243	348.81
578.454	471.81
578.665	403.81
578.875	345.81
579.086	352.81
579.297	338.81
579.508	333.81
579.718	327.81
579.929	349.81
580.14	337.81
580.35	339.81
580.561	325.81
580.772	320.81
580.982	325.81
581.193	305.81
581.403	320.81
581.614	318.81
581.825	337.81
582.035	321.81
582.246	336.81
582.456	319.81
582.667	315.81
582.877	321.81
583.087	307.81
583.298	326.81
583.508	313.81
583.719	316.81
583.929	317.81
584.139	307.81
584.35	310.81
584.56	321.81
584.77	317.81
584.981	302.81
585.191	333.81
585.401	319.81
585.611	313.81
585.821	335.81
586.032	316.81
586.242	311.81
586.452	324.81
586.662	317.81
586.872	321.81
587.082	304.81
587.292	312.81
587.502	298.81
587.713	307.81
587.923	309.81
588.133	311.81
588.343	331.81
588.553	334.81
588.762	315.81
588.972	308.81
589.182	342.81
589.392	330.81
589.602	309.81
589.812	316.81
590.022	317.81
590.232	316.81
590.441	332.81
590.651	325.81
590.861	304.81
591.071	313.81
591.281	315.81
591.49	300.81
591.7	312.81
591.91	327.81
592.119	317.81
592.329	309.81
592.539	343.81
592.748	336.81
592.958	353.81
593.167	334.81
593.377	338.81
593.587	347.81
593.796	347.81
594.006	346.81
594.215	365.81
594.424	364.81
594.634	360.81
594.843	363.81
595.053	343.81
595.262	344.81
595.472	343.81
595.681	308.81
595.89	293.81
596.1	313.81
596.309	307.81
596.518	319.81
596.727	288.81
596.937	317.81
597.146	303.81
597.355	289.81
597.564	297.81
597.774	284.81
597.983	290.81
598.192	261.81
598.401	290.81
598.61	266.81
598.819	281.81
599.028	273.81
599.237	281.81
599.446	249.81
599.655	290.81
599.864	298.81
600.073	295.81
600.282	267.81
600.491	285.81
600.7	262.81
600.909	287.81
601.118	269.81
601.327	287.81
601.536	277.81
601.745	294.81
601.953	271.81
602.162	281.81
602.371	263.81
602.58	273.81
602.789	270.81
602.997	272.81
603.206	261.81
603.415	279.81
603.623	276.81
603.832	284.81
604.041	283.81
604.249	273.81
604.458	259.81
604.666	258.81
604.875	272.81
605.084	252.81
605.292	273.81
605.501	267.81
605.709	270.81
605.918	276.81
606.126	263.81
606.334	269.81
606.543	267.81
606.751	267.81
606.96	264.81
607.168	273.81
607.376	251.81
607.585	277.81
607.793	248.81
608.001	262.81
608.21	282.81
608.418	265.81
608.626	251.81
608.834	288.81
609.043	265.81
609.251	271.81
609.459	257.81
609.667	279.81
609.875	267.81
610.083	249.81
610.291	269.81
610.499	258.81
610.707	263.81
610.916	265.81
611.124	269.81
611.332	265.81
611.54	263.81
611.748	266.81
611.955	262.81
612.163	237.81
612.371	266.81
612.579	256.81
612.787	255.81
612.995	265.81
613.203	249.81
613.411	257.81
613.618	247.81
613.826	239.81
614.034	248.81
614.242	255.81
614.449	251.81
614.657	264.81
614.865	262.81
615.072	274.81
615.28	259.81
615.488	265.81
615.695	252.81
615.903	263.81
616.111	245.81
616.318	255.81
616.526	279.81
616.733	263.81
616.941	250.81
617.148	253.81
617.356	247.81
617.563	256.81
617.771	263.81
617.978	269.81
618.185	263.81
618.393	239.81
618.6	262.81
618.807	273.81
619.015	261.81
619.222	261.81
619.429	229.81
619.637	243.81
619.844	250.81
620.051	231.81
620.258	245.81
620.466	246.81
620.673	234.81
620.88	233.81
621.087	247.81
621.294	234.81
621.501	233.81
621.708	239.81
621.915	243.81
622.122	237.81
622.329	243.81
622.536	239.81
622.743	236.81
622.95	241.81
623.157	253.81
623.364	243.81
623.571	252.81
623.778	232.81
623.985	215.81
624.192	225.81
624.399	208.81
624.606	232.81
624.812	232.81
625.019	232.81
625.226	234.81
625.433	221.81
625.639	217.81
625.846	236.81
626.053	235.81
626.259	225.81
626.466	230.81
626.673	251.81
626.879	214.81
627.086	224.81
627.293	222.81
627.499	224.81
627.706	219.81
627.912	220.81
628.119	230.81
628.325	225.81
628.532	213.81
628.738	226.81
628.945	225.81
629.151	202.81
629.357	212.81
629.564	220.81
629.77	205.81
629.976	216.81
630.183	206.81
630.389	208.81
630.595	212.81
630.802	226.81
631.008	215.81
631.214	225.81
631.42	224.81
631.627	243.81
631.833	204.81
632.039	198.81
632.245	208.81
632.451	200.81
632.657	228.81
632.863	210.81
633.069	199.81
633.275	200.81
633.481	192.81
633.688	199.81
633.893	199.81
634.099	197.81
634.305	192.81
634.511	203.81
634.717	204.81
634.923	201.81
635.129	186.81
635.335	183.81
635.541	204.81
635.747	199.81
635.952	209.81
636.158	196.81
636.364	193.81
636.57	198.81
636.775	188.81
636.981	195.81
637.187	197.81
637.392	198.81
637.598	193.81
637.804	191.81
638.009	198.81
638.215	192.81
638.421	192.81
638.626	175.81
638.832	181.81
639.037	188.81
639.243	196.81
639.448	189.81
639.654	199.81
639.859	172.81
640.065	183.81
640.27	195.81
640.475	191.81
640.681	169.81
640.886	201.81
641.091	189.81
641.297	176.81
641.502	200.81
641.707	212.81
641.913	192.81
642.118	186.81
642.323	193.81
642.528	170.81
642.733	201.81
642.939	181.81
643.144	183.81
643.349	192.81
643.554	176.81
643.759	184.81
643.964	172.81
644.169	192.81
644.374	172.81
644.579	183.81
644.784	191.81
644.989	192.81
645.194	212.81
645.399	168.81
645.604	171.81
645.809	187.81
646.014	195.81
646.219	183.81
646.423	181.81
646.628	187.81
646.833	168.81
647.038	168.81
647.243	207.81
647.447	183.81
647.652	172.81
647.857	183.81
648.062	190.81
648.266	175.81
648.471	199.81
648.676	199.81
648.88	195.81
649.085	193.81
649.289	189.81
649.494	190.81
649.698	200.81
649.903	204.81
650.107	173.81
650.312	178.81
650.516	177.81
650.721	159.81
650.925	169.81
651.13	173.81
651.334	184.81
651.539	155.81
651.743	169.81
651.947	168.81
652.152	161.81
652.356	150.81
652.56	167.81
652.764	175.81
652.969	150.81
653.173	167.81
653.377	144.81
653.581	167.81
653.785	163.81
653.99	145.81
654.194	157.81
654.398	166.81
654.602	160.81
654.806	153.81
655.01	166.81
655.214	159.81
655.418	156.81
655.622	157.81
655.826	168.81
656.03	181.81
656.234	187.81
656.438	195.81
656.642	193.81
656.846	180.81
657.049	167.81
657.253	142.81
657.457	141.81
657.661	137.81
657.865	137.81
658.068	139.81
658.272	123.81
658.476	121.81
658.68	121.81
658.883	123.81
659.087	122.81
659.291	98.81
659.494	118.81
659.698	120.81
659.901	104.81
660.105	109.81
660.309	112.81
660.512	114.81
660.716	110.81
660.919	96.81
661.123	97.81
661.326	92.81
661.53	88.81
661.733	92.81
661.936	94.81
662.14	96.81
662.343	83.81
662.546	90.81
662.75	100.81
662.953	100.81
663.156	93.81
663.36	102.81
663.563	93.81
663.766	93.81
663.969	95.81
664.173	87.81
664.376	73.81
664.579	72.81
664.782	89.81
664.985	71.81
665.188	89.81
665.391	79.81
665.594	94.81
665.797	86.81
666	84.81
666.203	74.81
666.406	91.81
666.609	91.81
666.812	86.81
667.015	87.81
667.218	79.81
667.421	93.81
667.624	84.81
667.827	80.81
668.03	86.81
668.232	95.81
668.435	84.81
668.638	73.81
668.841	91.81
669.043	82.81
669.246	81.81
669.449	83.81
669.651	92.81
669.854	85.81
670.057	108.81
670.259	78.81
670.462	76.81
670.665	98.81
670.867	89.81
671.07	90.81
671.272	83.81
671.475	86.81
671.677	102.81
671.88	82.81
672.082	89.81
672.284	95.81
672.487	83.81
672.689	91.81
672.892	94.81
