Data from 1975.PennyLincolnUp.Lamp.En5.5.200Scan.071719.P1.Changed Mount._HRD10591_15-57-34-860.txt Node
Date: Thu Jul 18 15:57:34 EDT 2019
User: cochatt
Spectrometer: HR+D1059
Trigger mode: 1
Integration Time (sec): 1.000000E-1
Scans to average: 1
Electric dark correction enabled: true
Nonlinearity correction enabled: false
Boxcar width: 0
XAxis mode: Wavelengths
Number of Pixels in Spectrum: 2048
>>>>>Begin Spectral Data<<<<<
223.165	-13.56
223.4	-13.56
223.635	-13.56
223.869	-19.56
224.104	3.44
224.338	-18.56
224.573	-20.56
224.808	-12.56
225.042	-21.56
225.277	-0.56
225.511	5.44
225.746	4.44
225.98	10.44
226.215	5.44
226.449	15.44
226.683	21.44
226.918	16.44
227.152	24.44
227.387	38.44
227.621	48.44
227.856	41.44
228.09	50.44
228.324	38.44
228.559	59.44
228.793	59.44
229.027	113.44
229.262	106.44
229.496	113.44
229.73	133.44
229.964	139.44
230.199	134.44
230.433	113.44
230.667	120.44
230.901	119.44
231.136	108.44
231.37	118.44
231.604	127.44
231.838	113.44
232.072	119.44
232.306	117.44
232.541	105.44
232.775	119.44
233.009	108.44
233.243	115.44
233.477	111.44
233.711	118.44
233.945	117.44
234.179	125.44
234.413	117.44
234.647	119.44
234.881	117.44
235.115	127.44
235.349	119.44
235.583	122.44
235.817	120.44
236.051	120.44
236.285	121.44
236.519	115.44
236.753	134.44
236.987	147.44
237.221	187.44
237.455	236.44
237.689	203.44
237.922	141.44
238.156	141.44
238.39	141.44
238.624	131.44
238.858	123.44
239.091	132.44
239.325	135.44
239.559	137.44
239.793	138.44
240.027	131.44
240.26	154.44
240.494	144.44
240.728	169.44
240.961	157.44
241.195	171.44
241.429	138.44
241.662	135.44
241.896	122.44
242.13	151.44
242.363	145.44
242.597	147.44
242.83	142.44
243.064	139.44
243.298	139.44
243.531	137.44
243.765	134.44
243.998	149.44
244.232	143.44
244.465	147.44
244.699	147.44
244.932	157.44
245.166	152.44
245.399	147.44
245.633	154.44
245.866	151.44
246.099	151.44
246.333	152.44
246.566	151.44
246.8	157.44
247.033	153.44
247.266	167.44
247.5	171.44
247.733	181.44
247.966	191.44
248.2	168.44
248.433	177.44
248.666	185.44
248.899	195.44
249.133	209.44
249.366	218.44
249.599	198.44
249.832	183.44
250.066	191.44
250.299	187.44
250.532	183.44
250.765	218.44
250.998	229.44
251.231	233.44
251.465	209.44
251.698	205.44
251.931	207.44
252.164	199.44
252.397	208.44
252.63	195.44
252.863	212.44
253.096	223.44
253.329	233.44
253.562	229.44
253.795	221.44
254.028	213.44
254.261	224.44
254.494	250.44
254.727	263.44
254.96	281.44
255.193	273.44
255.426	254.44
255.659	243.44
255.892	241.44
256.124	222.44
256.357	231.44
256.59	222.44
256.823	220.44
257.056	212.44
257.289	226.44
257.521	217.44
257.754	225.44
257.987	204.44
258.22	222.44
258.452	220.44
258.685	211.44
258.918	222.44
259.151	208.44
259.383	222.44
259.616	235.44
259.849	216.44
260.081	231.44
260.314	261.44
260.547	275.44
260.779	253.44
261.012	239.44
261.244	230.44
261.477	217.44
261.71	213.44
261.942	237.44
262.175	228.44
262.407	238.44
262.64	221.44
262.872	226.44
263.105	213.44
263.337	210.44
263.57	220.44
263.802	203.44
264.035	230.44
264.267	228.44
264.499	213.44
264.732	226.44
264.964	213.44
265.197	227.44
265.429	220.44
265.661	217.44
265.894	222.44
266.126	215.44
266.358	217.44
266.591	235.44
266.823	232.44
267.055	230.44
267.287	244.44
267.52	235.44
267.752	229.44
267.984	226.44
268.216	238.44
268.448	246.44
268.681	234.44
268.913	257.44
269.145	276.44
269.377	307.44
269.609	297.44
269.841	275.44
270.073	284.44
270.306	315.44
270.538	329.44
270.77	332.44
271.002	317.44
271.234	281.44
271.466	309.44
271.698	314.44
271.93	331.44
272.162	329.44
272.394	317.44
272.626	298.44
272.858	284.44
273.09	289.44
273.322	275.44
273.553	279.44
273.785	273.44
274.017	275.44
274.249	287.44
274.481	281.44
274.713	289.44
274.945	290.44
275.176	285.44
275.408	290.44
275.64	273.44
275.872	289.44
276.104	292.44
276.335	280.44
276.567	283.44
276.799	300.44
277.031	320.44
277.262	309.44
277.494	326.44
277.726	321.44
277.957	293.44
278.189	305.44
278.421	280.44
278.652	280.44
278.884	294.44
279.115	284.44
279.347	301.44
279.579	287.44
279.81	276.44
280.042	284.44
280.273	303.44
280.505	284.44
280.736	278.44
280.968	294.44
281.199	285.44
281.431	293.44
281.662	290.44
281.894	283.44
282.125	290.44
282.356	302.44
282.588	306.44
282.819	342.44
283.051	285.44
283.282	288.44
283.513	291.44
283.745	274.44
283.976	280.44
284.207	303.44
284.439	298.44
284.67	306.44
284.901	300.44
285.132	301.44
285.364	307.44
285.595	306.44
285.826	291.44
286.057	299.44
286.288	296.44
286.52	283.44
286.751	286.44
286.982	313.44
287.213	301.44
287.444	310.44
287.675	286.44
287.906	309.44
288.138	303.44
288.369	307.44
288.6	325.44
288.831	329.44
289.062	315.44
289.293	319.44
289.524	310.44
289.755	302.44
289.986	319.44
290.217	308.44
290.448	301.44
290.679	305.44
290.91	316.44
291.141	282.44
291.371	305.44
291.602	307.44
291.833	320.44
292.064	298.44
292.295	315.44
292.526	321.44
292.757	333.44
292.987	331.44
293.218	329.44
293.449	326.44
293.68	318.44
293.91	288.44
294.141	313.44
294.372	309.44
294.603	319.44
294.833	315.44
295.064	315.44
295.295	307.44
295.525	313.44
295.756	303.44
295.987	331.44
296.217	353.44
296.448	335.44
296.679	332.44
296.909	316.44
297.14	328.44
297.37	318.44
297.601	317.44
297.831	324.44
298.062	322.44
298.292	330.44
298.523	330.44
298.753	328.44
298.984	322.44
299.214	329.44
299.445	337.44
299.675	332.44
299.905	325.44
300.136	335.44
300.366	321.44
300.597	340.44
300.827	354.44
301.057	342.44
301.288	350.44
301.518	354.44
301.748	340.44
301.979	342.44
302.209	360.44
302.439	358.44
302.669	351.44
302.9	346.44
303.13	351.44
303.36	358.44
303.59	357.44
303.82	356.44
304.051	357.44
304.281	343.44
304.511	362.44
304.741	334.44
304.971	339.44
305.201	365.44
305.431	354.44
305.661	355.44
305.891	345.44
306.121	365.44
306.352	347.44
306.582	343.44
306.812	370.44
307.042	334.44
307.272	355.44
307.502	343.44
307.731	358.44
307.961	346.44
308.191	350.44
308.421	351.44
308.651	362.44
308.881	356.44
309.111	348.44
309.341	361.44
309.571	356.44
309.8	375.44
310.03	381.44
310.26	392.44
310.49	393.44
310.72	385.44
310.949	381.44
311.179	389.44
311.409	410.44
311.639	374.44
311.868	397.44
312.098	386.44
312.328	398.44
312.557	411.44
312.787	403.44
313.017	409.44
313.246	377.44
313.476	373.44
313.706	389.44
313.935	391.44
314.165	394.44
314.394	408.44
314.624	406.44
314.853	390.44
315.083	398.44
315.312	409.44
315.542	400.44
315.771	390.44
316.001	391.44
316.23	376.44
316.46	389.44
316.689	399.44
316.919	391.44
317.148	404.44
317.377	402.44
317.607	405.44
317.836	393.44
318.065	413.44
318.295	385.44
318.524	400.44
318.753	395.44
318.983	410.44
319.212	387.44
319.441	399.44
319.67	405.44
319.9	391.44
320.129	373.44
320.358	406.44
320.587	425.44
320.816	414.44
321.046	410.44
321.275	397.44
321.504	411.44
321.733	405.44
321.962	407.44
322.191	425.44
322.42	427.44
322.649	457.44
322.878	433.44
323.108	438.44
323.337	450.44
323.566	485.44
323.795	510.44
324.024	535.44
324.253	591.44
324.482	827.44
324.71	1323.44
324.939	1902.44
325.168	1671.44
325.397	862.44
325.626	606.44
325.855	515.44
326.084	489.44
326.313	463.44
326.542	474.44
326.77	532.44
326.999	617.44
327.228	744.44
327.457	1149.44
327.686	1454.44
327.914	981.44
328.143	669.44
328.372	583.44
328.6	564.44
328.829	527.44
329.058	549.44
329.287	543.44
329.515	521.44
329.744	521.44
329.972	514.44
330.201	530.44
330.43	540.44
330.658	567.44
330.887	590.44
331.115	586.44
331.344	511.44
331.572	529.44
331.801	498.44
332.03	501.44
332.258	499.44
332.486	474.44
332.715	484.44
332.943	509.44
333.172	479.44
333.4	479.44
333.629	529.44
333.857	517.44
334.085	536.44
334.314	569.44
334.542	545.44
334.771	591.44
334.999	537.44
335.227	497.44
335.455	484.44
335.684	486.44
335.912	478.44
336.14	471.44
336.369	467.44
336.597	490.44
336.825	484.44
337.053	485.44
337.281	461.44
337.51	459.44
337.738	463.44
337.966	465.44
338.194	475.44
338.422	471.44
338.65	467.44
338.878	473.44
339.106	477.44
339.334	466.44
339.562	438.44
339.79	435.44
340.018	456.44
340.246	452.44
340.474	446.44
340.702	459.44
340.93	453.44
341.158	450.44
341.386	462.44
341.614	439.44
341.842	463.44
342.07	451.44
342.298	435.44
342.526	440.44
342.754	435.44
342.981	425.44
343.209	433.44
343.437	444.44
343.665	472.44
343.893	469.44
344.12	474.44
344.348	463.44
344.576	467.44
344.804	469.44
345.031	466.44
345.259	467.44
345.487	474.44
345.714	448.44
345.942	439.44
346.17	441.44
346.397	433.44
346.625	435.44
346.853	425.44
347.08	433.44
347.308	433.44
347.535	458.44
347.763	448.44
347.99	454.44
348.218	436.44
348.445	443.44
348.673	449.44
348.9	439.44
349.128	412.44
349.355	415.44
349.583	426.44
349.81	427.44
350.037	437.44
350.265	433.44
350.492	421.44
350.72	428.44
350.947	428.44
351.174	441.44
351.402	427.44
351.629	439.44
351.856	443.44
352.083	441.44
352.311	430.44
352.538	451.44
352.765	454.44
352.992	420.44
353.22	433.44
353.447	419.44
353.674	431.44
353.901	408.44
354.128	418.44
354.355	399.44
354.583	426.44
354.81	418.44
355.037	410.44
355.264	407.44
355.491	410.44
355.718	428.44
355.945	427.44
356.172	427.44
356.399	411.44
356.626	421.44
356.853	419.44
357.08	420.44
357.307	407.44
357.534	422.44
357.761	404.44
357.988	421.44
358.215	414.44
358.441	439.44
358.668	401.44
358.895	424.44
359.122	424.44
359.349	433.44
359.576	424.44
359.802	435.44
360.029	499.44
360.256	474.44
360.483	465.44
360.709	437.44
360.936	450.44
361.163	424.44
361.39	435.44
361.616	437.44
361.843	409.44
362.07	422.44
362.296	446.44
362.523	446.44
362.749	432.44
362.976	432.44
363.203	449.44
363.429	438.44
363.656	414.44
363.882	431.44
364.109	425.44
364.335	427.44
364.562	410.44
364.788	428.44
365.015	426.44
365.241	432.44
365.468	422.44
365.694	426.44
365.92	434.44
366.147	421.44
366.373	415.44
366.599	414.44
366.826	430.44
367.052	436.44
367.278	449.44
367.505	439.44
367.731	441.44
367.957	422.44
368.184	425.44
368.41	443.44
368.636	422.44
368.862	461.44
369.089	439.44
369.315	430.44
369.541	416.44
369.767	423.44
369.993	420.44
370.219	439.44
370.445	425.44
370.672	419.44
370.898	434.44
371.124	431.44
371.35	428.44
371.576	443.44
371.802	453.44
372.028	436.44
372.254	435.44
372.48	437.44
372.706	443.44
372.932	453.44
373.158	436.44
373.384	454.44
373.61	438.44
373.835	437.44
374.061	454.44
374.287	458.44
374.513	444.44
374.739	457.44
374.965	466.44
375.191	466.44
375.416	454.44
375.642	466.44
375.868	429.44
376.094	441.44
376.319	434.44
376.545	437.44
376.771	459.44
376.997	425.44
377.222	433.44
377.448	433.44
377.674	423.44
377.899	430.44
378.125	443.44
378.35	435.44
378.576	431.44
378.802	431.44
379.027	437.44
379.253	430.44
379.478	434.44
379.704	430.44
379.929	443.44
380.155	435.44
380.38	427.44
380.606	441.44
380.831	447.44
381.057	452.44
381.282	437.44
381.507	437.44
381.733	447.44
381.958	444.44
382.184	433.44
382.409	451.44
382.634	452.44
382.86	454.44
383.085	428.44
383.31	462.44
383.535	455.44
383.761	468.44
383.986	451.44
384.211	476.44
384.436	476.44
384.662	469.44
384.887	453.44
385.112	479.44
385.337	467.44
385.562	476.44
385.787	456.44
386.013	483.44
386.238	489.44
386.463	484.44
386.688	518.44
386.913	487.44
387.138	490.44
387.363	511.44
387.588	484.44
387.813	463.44
388.038	464.44
388.263	484.44
388.488	490.44
388.713	497.44
388.938	498.44
389.163	499.44
389.387	486.44
389.612	474.44
389.837	498.44
390.062	460.44
390.287	490.44
390.512	487.44
390.736	475.44
390.961	481.44
391.186	497.44
391.411	508.44
391.636	493.44
391.86	506.44
392.085	517.44
392.31	489.44
392.534	484.44
392.759	494.44
392.984	487.44
393.208	498.44
393.433	497.44
393.658	494.44
393.882	519.44
394.107	513.44
394.331	505.44
394.556	516.44
394.78	517.44
395.005	507.44
395.229	509.44
395.454	526.44
395.678	500.44
395.903	513.44
396.127	523.44
396.352	545.44
396.576	529.44
396.801	515.44
397.025	512.44
397.249	523.44
397.474	536.44
397.698	538.44
397.922	551.44
398.147	536.44
398.371	565.44
398.595	528.44
398.82	555.44
399.044	577.44
399.268	597.44
399.492	613.44
399.717	681.44
399.941	709.44
400.165	714.44
400.389	725.44
400.613	661.44
400.837	637.44
401.062	598.44
401.286	587.44
401.51	585.44
401.734	584.44
401.958	583.44
402.182	569.44
402.406	587.44
402.63	589.44
402.854	605.44
403.078	578.44
403.302	594.44
403.526	606.44
403.75	590.44
403.974	595.44
404.198	587.44
404.422	580.44
404.645	596.44
404.869	599.44
405.093	654.44
405.317	686.44
405.541	737.44
405.765	666.44
405.988	647.44
406.212	625.44
406.436	647.44
406.66	638.44
406.883	643.44
407.107	682.44
407.331	700.44
407.555	792.44
407.778	774.44
408.002	691.44
408.226	637.44
408.449	654.44
408.673	653.44
408.896	686.44
409.12	737.44
409.344	681.44
409.567	607.44
409.791	587.44
410.014	590.44
410.238	592.44
410.461	601.44
410.685	606.44
410.908	613.44
411.132	617.44
411.355	649.44
411.578	641.44
411.802	602.44
412.025	596.44
412.249	602.44
412.472	601.44
412.695	646.44
412.919	652.44
413.142	635.44
413.365	591.44
413.589	610.44
413.812	585.44
414.035	584.44
414.258	603.44
414.482	553.44
414.705	563.44
414.928	571.44
415.151	555.44
415.374	565.44
415.597	547.44
415.821	559.44
416.044	555.44
416.267	564.44
416.49	536.44
416.713	568.44
416.936	545.44
417.159	553.44
417.382	564.44
417.605	529.44
417.828	554.44
418.051	597.44
418.274	590.44
418.497	568.44
418.72	572.44
418.943	549.44
419.166	592.44
419.389	617.44
419.611	631.44
419.834	611.44
420.057	594.44
420.28	587.44
420.503	598.44
420.726	594.44
420.948	610.44
421.171	635.44
421.394	678.44
421.617	598.44
421.839	569.44
422.062	591.44
422.285	575.44
422.507	667.44
422.73	723.44
422.953	692.44
423.175	606.44
423.398	622.44
423.621	595.44
423.843	635.44
424.066	631.44
424.288	645.44
424.511	654.44
424.733	702.44
424.956	775.44
425.178	742.44
425.401	766.44
425.623	750.44
425.846	653.44
426.068	614.44
426.291	598.44
426.513	610.44
426.735	630.44
426.958	652.44
427.18	729.44
427.402	882.44
427.625	950.44
427.847	827.44
428.069	718.44
428.292	651.44
428.514	619.44
428.736	585.44
428.958	573.44
429.181	583.44
429.403	570.44
429.625	569.44
429.847	603.44
430.069	661.44
430.292	658.44
430.514	601.44
430.736	567.44
430.958	561.44
431.18	545.44
431.402	553.44
431.624	539.44
431.846	531.44
432.068	544.44
432.29	540.44
432.512	542.44
432.734	554.44
432.956	548.44
433.178	561.44
433.4	563.44
433.622	550.44
433.844	535.44
434.066	547.44
434.287	526.44
434.509	549.44
434.731	572.44
434.953	583.44
435.175	591.44
435.397	621.44
435.618	630.44
435.84	651.44
436.062	740.44
436.284	814.44
436.505	660.44
436.727	591.44
436.949	595.44
437.17	570.44
437.392	571.44
437.614	557.44
437.835	606.44
438.057	711.44
438.278	794.44
438.5	809.44
438.721	878.44
438.943	849.44
439.165	681.44
439.386	639.44
439.608	607.44
439.829	613.44
440.05	641.44
440.272	699.44
440.493	656.44
440.715	609.44
440.936	570.44
441.158	587.44
441.379	575.44
441.6	591.44
441.822	606.44
442.043	643.44
442.264	739.44
442.486	788.44
442.707	671.44
442.928	627.44
443.149	645.44
443.371	660.44
443.592	678.44
443.813	786.44
444.034	851.44
444.255	726.44
444.476	680.44
444.698	645.44
444.919	639.44
445.14	769.44
445.361	695.44
445.582	643.44
445.803	705.44
446.024	809.44
446.245	849.44
446.466	738.44
446.687	648.44
446.908	617.44
447.129	578.44
447.35	556.44
447.571	565.44
447.792	558.44
448.013	554.44
448.234	581.44
448.455	635.44
448.675	739.44
448.896	854.44
449.117	715.44
449.338	685.44
449.559	789.44
449.779	898.44
450	720.44
450.221	610.44
450.442	584.44
450.662	545.44
450.883	568.44
451.104	541.44
451.324	544.44
451.545	545.44
451.766	528.44
451.986	498.44
452.207	493.44
452.428	493.44
452.648	502.44
452.869	496.44
453.089	521.44
453.31	523.44
453.53	479.44
453.751	506.44
453.971	492.44
454.192	502.44
454.412	513.44
454.633	489.44
454.853	472.44
455.073	473.44
455.294	519.44
455.514	573.44
455.734	570.44
455.955	494.44
456.175	479.44
456.395	492.44
456.616	461.44
456.836	503.44
457.056	454.44
457.276	447.44
457.497	483.44
457.717	486.44
457.937	491.44
458.157	498.44
458.377	493.44
458.598	517.44
458.818	555.44
459.038	641.44
459.258	656.44
459.478	597.44
459.698	544.44
459.918	569.44
460.138	545.44
460.358	568.44
460.578	593.44
460.798	560.44
461.018	583.44
461.238	556.44
461.458	550.44
461.678	546.44
461.898	552.44
462.118	547.44
462.338	597.44
462.558	592.44
462.777	593.44
462.997	622.44
463.217	655.44
463.437	677.44
463.657	617.44
463.876	613.44
464.096	636.44
464.316	585.44
464.536	596.44
464.755	618.44
464.975	622.44
465.195	622.44
465.414	668.44
465.634	597.44
465.854	573.44
466.073	569.44
466.293	541.44
466.512	516.44
466.732	505.44
466.951	511.44
467.171	516.44
467.391	525.44
467.61	501.44
467.829	519.44
468.049	533.44
468.268	525.44
468.488	517.44
468.707	517.44
468.927	502.44
469.146	488.44
469.365	514.44
469.585	499.44
469.804	533.44
470.023	533.44
470.243	530.44
470.462	526.44
470.681	558.44
470.901	531.44
471.12	544.44
471.339	543.44
471.558	526.44
471.777	545.44
471.997	526.44
472.216	527.44
472.435	579.44
472.654	566.44
472.873	533.44
473.092	531.44
473.311	515.44
473.53	518.44
473.749	532.44
473.968	571.44
474.187	659.44
474.406	700.44
474.625	575.44
474.844	549.44
475.063	527.44
475.282	542.44
475.501	528.44
475.72	533.44
475.939	520.44
476.158	551.44
476.377	543.44
476.596	569.44
476.814	549.44
477.033	545.44
477.252	547.44
477.471	577.44
477.69	585.44
477.908	590.44
478.127	596.44
478.346	581.44
478.564	614.44
478.783	615.44
479.002	603.44
479.22	617.44
479.439	607.44
479.658	617.44
479.876	645.44
480.095	643.44
480.313	678.44
480.532	681.44
480.751	650.44
480.969	652.44
481.188	719.44
481.406	725.44
481.624	666.44
481.843	640.44
482.061	619.44
482.28	607.44
482.498	616.44
482.717	615.44
482.935	625.44
483.153	579.44
483.372	604.44
483.59	595.44
483.808	609.44
484.027	632.44
484.245	625.44
484.463	619.44
484.681	613.44
484.9	629.44
485.118	624.44
485.336	642.44
485.554	645.44
485.772	649.44
485.99	635.44
486.209	643.44
486.427	643.44
486.645	654.44
486.863	645.44
487.081	669.44
487.299	659.44
487.517	665.44
487.735	622.44
487.953	657.44
488.171	644.44
488.389	654.44
488.607	647.44
488.825	667.44
489.043	650.44
489.261	675.44
489.479	683.44
489.696	654.44
489.914	671.44
490.132	686.44
490.35	706.44
490.568	697.44
490.786	707.44
491.003	716.44
491.221	734.44
491.439	761.44
491.657	740.44
491.874	753.44
492.092	754.44
492.31	760.44
492.527	759.44
492.745	748.44
492.963	765.44
493.18	807.44
493.398	776.44
493.615	757.44
493.833	797.44
494.05	796.44
494.268	775.44
494.485	782.44
494.703	775.44
494.92	761.44
495.138	773.44
495.355	810.44
495.573	783.44
495.79	791.44
496.008	793.44
496.225	778.44
496.442	789.44
496.66	790.44
496.877	787.44
497.094	784.44
497.312	806.44
497.529	802.44
497.746	821.44
497.963	830.44
498.181	863.44
498.398	884.44
498.615	904.44
498.832	943.44
499.049	939.44
499.267	955.44
499.484	988.44
499.701	1064.44
499.918	1100.44
500.135	1183.44
500.352	1209.44
500.569	1244.44
500.786	1275.44
501.003	1217.44
501.22	1193.44
501.437	1148.44
501.654	1051.44
501.871	1073.44
502.088	996.44
502.305	966.44
502.522	921.44
502.739	917.44
502.956	873.44
503.172	854.44
503.389	841.44
503.606	791.44
503.823	801.44
504.04	829.44
504.256	823.44
504.473	806.44
504.69	778.44
504.907	809.44
505.123	789.44
505.34	754.44
505.557	732.44
505.773	736.44
505.99	722.44
506.207	732.44
506.423	745.44
506.64	754.44
506.856	737.44
507.073	719.44
507.289	727.44
507.506	726.44
507.722	736.44
507.939	709.44
508.155	695.44
508.372	704.44
508.588	711.44
508.805	690.44
509.021	684.44
509.238	699.44
509.454	715.44
509.67	700.44
509.887	679.44
510.103	673.44
510.319	700.44
510.536	755.44
510.752	1124.44
510.968	927.44
511.184	697.44
511.401	668.44
511.617	653.44
511.833	636.44
512.049	635.44
512.265	635.44
512.481	646.44
512.698	643.44
512.914	643.44
513.13	638.44
513.346	637.44
513.562	650.44
513.778	655.44
513.994	643.44
514.21	640.44
514.426	648.44
514.642	682.44
514.858	712.44
515.074	746.44
515.29	835.44
515.506	1114.44
515.721	961.44
515.937	760.44
516.153	691.44
516.369	679.44
516.585	665.44
516.801	678.44
517.016	673.44
517.232	705.44
517.448	710.44
517.664	693.44
517.879	727.44
518.095	708.44
518.311	703.44
518.527	696.44
518.742	685.44
518.958	667.44
519.173	641.44
519.389	652.44
519.605	663.44
519.82	639.44
520.036	652.44
520.251	670.44
520.467	698.44
520.682	689.44
520.898	692.44
521.113	690.44
521.329	689.44
521.544	776.44
521.76	893.44
521.975	1327.44
522.19	1346.44
522.406	830.44
522.621	676.44
522.836	637.44
523.052	617.44
523.267	599.44
523.482	605.44
523.698	571.44
523.913	579.44
524.128	585.44
524.343	566.44
524.559	562.44
524.774	557.44
524.989	552.44
525.204	564.44
525.419	561.44
525.634	539.44
525.849	547.44
526.064	541.44
526.28	553.44
526.495	554.44
526.71	553.44
526.925	534.44
527.14	535.44
527.355	551.44
527.57	532.44
527.785	529.44
527.999	525.44
528.214	545.44
528.429	537.44
528.644	527.44
528.859	545.44
529.074	532.44
529.289	555.44
529.503	583.44
529.718	583.44
529.933	574.44
530.148	561.44
530.363	545.44
530.577	546.44
530.792	531.44
531.007	540.44
531.221	551.44
531.436	512.44
531.651	515.44
531.865	508.44
532.08	519.44
532.295	527.44
532.509	502.44
532.724	530.44
532.938	523.44
533.153	529.44
533.367	511.44
533.582	523.44
533.796	532.44
534.011	519.44
534.225	510.44
534.44	505.44
534.654	527.44
534.868	513.44
535.083	532.44
535.297	535.44
535.511	504.44
535.726	508.44
535.94	527.44
536.154	509.44
536.369	499.44
536.583	504.44
536.797	515.44
537.011	507.44
537.225	497.44
537.44	490.44
537.654	479.44
537.868	483.44
538.082	472.44
538.296	482.44
538.51	474.44
538.724	478.44
538.938	494.44
539.153	502.44
539.367	501.44
539.581	491.44
539.795	495.44
540.009	489.44
540.222	488.44
540.436	504.44
540.65	497.44
540.864	517.44
541.078	519.44
541.292	503.44
541.506	494.44
541.72	493.44
541.934	488.44
542.147	518.44
542.361	483.44
542.575	475.44
542.789	480.44
543.002	495.44
543.216	501.44
543.43	519.44
543.644	479.44
543.857	491.44
544.071	495.44
544.285	493.44
544.498	485.44
544.712	499.44
544.925	533.44
545.139	487.44
545.352	499.44
545.566	519.44
545.779	504.44
545.993	481.44
546.206	505.44
546.42	490.44
546.633	497.44
546.847	467.44
547.06	489.44
547.274	492.44
547.487	492.44
547.7	464.44
547.914	480.44
548.127	490.44
548.34	505.44
548.554	484.44
548.767	485.44
548.98	486.44
549.193	485.44
549.407	482.44
549.62	487.44
549.833	482.44
550.046	484.44
550.259	493.44
550.473	467.44
550.686	498.44
550.899	471.44
551.112	500.44
551.325	483.44
551.538	461.44
551.751	475.44
551.964	463.44
552.177	474.44
552.39	472.44
552.603	468.44
552.816	507.44
553.029	523.44
553.242	503.44
553.455	489.44
553.667	513.44
553.88	518.44
554.093	497.44
554.306	471.44
554.519	477.44
554.732	481.44
554.944	451.44
555.157	463.44
555.37	469.44
555.583	452.44
555.795	452.44
556.008	463.44
556.221	498.44
556.433	450.44
556.646	433.44
556.859	444.44
557.071	441.44
557.284	437.44
557.496	453.44
557.709	436.44
557.921	445.44
558.134	436.44
558.346	426.44
558.559	427.44
558.771	446.44
558.984	424.44
559.196	418.44
559.409	438.44
559.621	429.44
559.833	425.44
560.046	437.44
560.258	429.44
560.47	423.44
560.683	419.44
560.895	442.44
561.107	404.44
561.32	424.44
561.532	426.44
561.744	422.44
561.956	434.44
562.168	444.44
562.381	439.44
562.593	421.44
562.805	446.44
563.017	441.44
563.229	449.44
563.441	451.44
563.653	410.44
563.865	453.44
564.077	437.44
564.289	457.44
564.501	457.44
564.713	457.44
564.925	453.44
565.137	473.44
565.349	476.44
565.561	464.44
565.773	489.44
565.985	487.44
566.197	502.44
566.408	520.44
566.62	535.44
566.832	560.44
567.044	564.44
567.255	590.44
567.467	601.44
567.679	586.44
567.891	609.44
568.102	616.44
568.314	586.44
568.526	553.44
568.737	529.44
568.949	504.44
569.161	505.44
569.372	471.44
569.584	488.44
569.795	451.44
570.007	459.44
570.218	499.44
570.43	469.44
570.641	441.44
570.853	438.44
571.064	432.44
571.276	438.44
571.487	428.44
571.698	385.44
571.91	401.44
572.121	408.44
572.333	386.44
572.544	375.44
572.755	369.44
572.966	394.44
573.178	401.44
573.389	376.44
573.6	388.44
573.811	388.44
574.023	363.44
574.234	380.44
574.445	379.44
574.656	369.44
574.867	360.44
575.078	371.44
575.289	369.44
575.501	378.44
575.712	358.44
575.923	346.44
576.134	369.44
576.345	369.44
576.556	360.44
576.767	353.44
576.978	359.44
577.188	360.44
577.399	357.44
577.61	366.44
577.821	340.44
578.032	365.44
578.243	406.44
578.454	515.44
578.665	419.44
578.875	355.44
579.086	347.44
579.297	334.44
579.508	344.44
579.718	356.44
579.929	335.44
580.14	333.44
580.35	339.44
580.561	342.44
580.772	346.44
580.982	336.44
581.193	349.44
581.403	347.44
581.614	338.44
581.825	329.44
582.035	321.44
582.246	346.44
582.456	347.44
582.667	312.44
582.877	344.44
583.087	342.44
583.298	335.44
583.508	322.44
583.719	344.44
583.929	332.44
584.139	327.44
584.35	325.44
584.56	327.44
584.77	313.44
584.981	321.44
585.191	321.44
585.401	330.44
585.611	335.44
585.821	344.44
586.032	328.44
586.242	308.44
586.452	311.44
586.662	310.44
586.872	310.44
587.082	326.44
587.292	317.44
587.502	307.44
587.713	317.44
587.923	319.44
588.133	325.44
588.343	313.44
588.553	319.44
588.762	318.44
588.972	316.44
589.182	309.44
589.392	317.44
589.602	350.44
589.812	321.44
590.022	332.44
590.232	319.44
590.441	316.44
590.651	329.44
590.861	314.44
591.071	327.44
591.281	349.44
591.49	338.44
591.7	331.44
591.91	332.44
592.119	356.44
592.329	342.44
592.539	338.44
592.748	346.44
592.958	349.44
593.167	349.44
593.377	362.44
593.587	358.44
593.796	355.44
594.006	393.44
594.215	377.44
594.424	350.44
594.634	346.44
594.843	335.44
595.053	348.44
595.262	351.44
595.472	328.44
595.681	320.44
595.89	321.44
596.1	331.44
596.309	331.44
596.518	333.44
596.727	296.44
596.937	306.44
597.146	306.44
597.355	283.44
597.564	308.44
597.774	297.44
597.983	302.44
598.192	296.44
598.401	293.44
598.61	289.44
598.819	295.44
599.028	266.44
599.237	287.44
599.446	305.44
599.655	289.44
599.864	295.44
600.073	279.44
600.282	285.44
600.491	271.44
600.7	289.44
600.909	277.44
601.118	286.44
601.327	295.44
601.536	282.44
601.745	271.44
601.953	291.44
602.162	293.44
602.371	290.44
602.58	276.44
602.789	291.44
602.997	268.44
603.206	294.44
603.415	280.44
603.623	267.44
603.832	294.44
604.041	254.44
604.249	277.44
604.458	262.44
604.666	265.44
604.875	265.44
605.084	270.44
605.292	271.44
605.501	266.44
605.709	258.44
605.918	258.44
606.126	256.44
606.334	261.44
606.543	279.44
606.751	279.44
606.96	275.44
607.168	280.44
607.376	255.44
607.585	255.44
607.793	259.44
608.001	271.44
608.21	266.44
608.418	269.44
608.626	260.44
608.834	273.44
609.043	275.44
609.251	264.44
609.459	277.44
609.667	268.44
609.875	275.44
610.083	263.44
610.291	271.44
610.499	267.44
610.707	272.44
610.916	270.44
611.124	276.44
611.332	252.44
611.54	278.44
611.748	282.44
611.955	269.44
612.163	272.44
612.371	271.44
612.579	253.44
612.787	261.44
612.995	241.44
613.203	265.44
613.411	251.44
613.618	255.44
613.826	262.44
614.034	265.44
614.242	255.44
614.449	250.44
614.657	266.44
614.865	265.44
615.072	263.44
615.28	247.44
615.488	255.44
615.695	275.44
615.903	261.44
616.111	252.44
616.318	261.44
616.526	268.44
616.733	271.44
616.941	264.44
617.148	253.44
617.356	265.44
617.563	260.44
617.771	266.44
617.978	262.44
618.185	234.44
618.393	261.44
618.6	255.44
618.807	243.44
619.015	234.44
619.222	256.44
619.429	229.44
619.637	259.44
619.844	242.44
620.051	241.44
620.258	258.44
620.466	255.44
620.673	238.44
620.88	233.44
621.087	229.44
621.294	255.44
621.501	245.44
621.708	245.44
621.915	232.44
622.122	247.44
622.329	237.44
622.536	247.44
622.743	230.44
622.95	259.44
623.157	231.44
623.364	237.44
623.571	240.44
623.778	229.44
623.985	221.44
624.192	226.44
624.399	234.44
624.606	237.44
624.812	231.44
625.019	217.44
625.226	233.44
625.433	227.44
625.639	241.44
625.846	207.44
626.053	235.44
626.259	226.44
626.466	220.44
626.673	227.44
626.879	210.44
627.086	227.44
627.293	221.44
627.499	229.44
627.706	230.44
627.912	203.44
628.119	217.44
628.325	223.44
628.532	222.44
628.738	222.44
628.945	225.44
629.151	196.44
629.357	221.44
629.564	222.44
629.77	220.44
629.976	206.44
630.183	202.44
630.389	211.44
630.595	207.44
630.802	224.44
631.008	209.44
631.214	218.44
631.42	200.44
631.627	201.44
631.833	198.44
632.039	207.44
632.245	191.44
632.451	212.44
632.657	212.44
632.863	205.44
633.069	213.44
633.275	207.44
633.481	208.44
633.688	201.44
633.893	204.44
634.099	198.44
634.305	203.44
634.511	193.44
634.717	202.44
634.923	190.44
635.129	195.44
635.335	195.44
635.541	202.44
635.747	184.44
635.952	211.44
636.158	203.44
636.364	194.44
636.57	184.44
636.775	205.44
636.981	195.44
637.187	192.44
637.392	207.44
637.598	205.44
637.804	181.44
638.009	190.44
638.215	188.44
638.421	181.44
638.626	201.44
638.832	197.44
639.037	200.44
639.243	189.44
639.448	195.44
639.654	194.44
639.859	174.44
640.065	172.44
640.27	198.44
640.475	201.44
640.681	183.44
640.886	197.44
641.091	187.44
641.297	184.44
641.502	197.44
641.707	186.44
641.913	193.44
642.118	182.44
642.323	187.44
642.528	190.44
642.733	187.44
642.939	172.44
643.144	182.44
643.349	179.44
643.554	173.44
643.759	179.44
643.964	165.44
644.169	164.44
644.374	186.44
644.579	183.44
644.784	183.44
644.989	196.44
645.194	196.44
645.399	171.44
645.604	169.44
645.809	180.44
646.014	181.44
646.219	189.44
646.423	191.44
646.628	191.44
646.833	185.44
647.038	187.44
647.243	162.44
647.447	183.44
647.652	173.44
647.857	193.44
648.062	191.44
648.266	204.44
648.471	189.44
648.676	195.44
648.88	191.44
649.085	177.44
649.289	189.44
649.494	195.44
649.698	201.44
649.903	186.44
650.107	177.44
650.312	173.44
650.516	164.44
650.721	175.44
650.925	166.44
651.13	149.44
651.334	163.44
651.539	172.44
651.743	150.44
651.947	156.44
652.152	157.44
652.356	158.44
652.56	143.44
652.764	137.44
652.969	139.44
653.173	154.44
653.377	136.44
653.581	137.44
653.785	164.44
653.99	137.44
654.194	133.44
654.398	153.44
654.602	137.44
654.806	135.44
655.01	147.44
655.214	157.44
655.418	149.44
655.622	138.44
655.826	140.44
656.03	134.44
656.234	133.44
656.438	158.44
656.642	137.44
656.846	143.44
657.049	141.44
657.253	123.44
657.457	124.44
657.661	115.44
657.865	116.44
658.068	112.44
658.272	124.44
658.476	118.44
658.68	111.44
658.883	108.44
659.087	107.44
659.291	105.44
659.494	120.44
659.698	102.44
659.901	96.44
660.105	106.44
660.309	89.44
660.512	108.44
660.716	97.44
660.919	86.44
661.123	92.44
661.326	88.44
661.53	81.44
661.733	92.44
661.936	96.44
662.14	83.44
662.343	91.44
662.546	80.44
662.75	87.44
662.953	85.44
663.156	91.44
663.36	87.44
663.563	76.44
663.766	71.44
663.969	83.44
664.173	86.44
664.376	80.44
664.579	72.44
664.782	79.44
664.985	89.44
665.188	102.44
665.391	89.44
665.594	85.44
665.797	74.44
666	82.44
666.203	68.44
666.406	90.44
666.609	84.44
666.812	85.44
667.015	75.44
667.218	76.44
667.421	73.44
667.624	71.44
667.827	81.44
668.03	93.44
668.232	92.44
668.435	79.44
668.638	65.44
668.841	75.44
669.043	80.44
669.246	82.44
669.449	86.44
669.651	77.44
669.854	80.44
670.057	75.44
670.259	82.44
670.462	78.44
670.665	85.44
670.867	80.44
671.07	98.44
671.272	96.44
671.475	74.44
671.677	73.44
671.88	77.44
672.082	76.44
672.284	90.44
672.487	74.44
672.689	76.44
672.892	87.44
