Data from 1975.PennyLincolnUp.Lamp.En5.5.200Scan.071719.P1.Changed Mount._HRD10591_15-56-45-858.txt Node
Date: Thu Jul 18 15:56:45 EDT 2019
User: cochatt
Spectrometer: HR+D1059
Trigger mode: 1
Integration Time (sec): 1.000000E-1
Scans to average: 1
Electric dark correction enabled: true
Nonlinearity correction enabled: false
Boxcar width: 0
XAxis mode: Wavelengths
Number of Pixels in Spectrum: 2048
>>>>>Begin Spectral Data<<<<<
223.165	-28.94
223.4	-28.94
223.635	-28.94
223.869	-17.94
224.104	-20.94
224.338	-9.94
224.573	-8.94
224.808	-18.94
225.042	-0.94
225.277	8.06
225.511	1.06
225.746	-0.94
225.98	5.06
226.215	7.06
226.449	11.06
226.683	16.06
226.918	24.06
227.152	35.06
227.387	29.06
227.621	34.06
227.856	26.06
228.09	32.06
228.324	35.06
228.559	44.06
228.793	72.06
229.027	85.06
229.262	119.06
229.496	113.06
229.73	128.06
229.964	163.06
230.199	113.06
230.433	107.06
230.667	100.06
230.901	114.06
231.136	123.06
231.37	101.06
231.604	117.06
231.838	99.06
232.072	116.06
232.306	112.06
232.541	118.06
232.775	112.06
233.009	112.06
233.243	120.06
233.477	98.06
233.711	113.06
233.945	123.06
234.179	125.06
234.413	121.06
234.647	105.06
234.881	115.06
235.115	123.06
235.349	111.06
235.583	117.06
235.817	104.06
236.051	135.06
236.285	122.06
236.519	119.06
236.753	120.06
236.987	127.06
237.221	169.06
237.455	215.06
237.689	180.06
237.922	130.06
238.156	146.06
238.39	135.06
238.624	130.06
238.858	117.06
239.091	122.06
239.325	119.06
239.559	123.06
239.793	124.06
240.027	125.06
240.26	128.06
240.494	157.06
240.728	141.06
240.961	140.06
241.195	138.06
241.429	143.06
241.662	140.06
241.896	135.06
242.13	137.06
242.363	148.06
242.597	139.06
242.83	148.06
243.064	134.06
243.298	133.06
243.531	140.06
243.765	138.06
243.998	132.06
244.232	154.06
244.465	141.06
244.699	150.06
244.932	162.06
245.166	164.06
245.399	148.06
245.633	152.06
245.866	148.06
246.099	152.06
246.333	152.06
246.566	149.06
246.8	159.06
247.033	156.06
247.266	164.06
247.5	166.06
247.733	165.06
247.966	172.06
248.2	168.06
248.433	172.06
248.666	171.06
248.899	172.06
249.133	190.06
249.366	208.06
249.599	191.06
249.832	202.06
250.066	183.06
250.299	170.06
250.532	195.06
250.765	225.06
250.998	227.06
251.231	225.06
251.465	231.06
251.698	197.06
251.931	191.06
252.164	188.06
252.397	188.06
252.63	188.06
252.863	186.06
253.096	223.06
253.329	214.06
253.562	228.06
253.795	211.06
254.028	212.06
254.261	208.06
254.494	231.06
254.727	251.06
254.96	282.06
255.193	255.06
255.426	248.06
255.659	226.06
255.892	217.06
256.124	240.06
256.357	230.06
256.59	229.06
256.823	218.06
257.056	224.06
257.289	224.06
257.521	188.06
257.754	223.06
257.987	220.06
258.22	225.06
258.452	211.06
258.685	209.06
258.918	209.06
259.151	210.06
259.383	205.06
259.616	223.06
259.849	218.06
260.081	245.06
260.314	259.06
260.547	257.06
260.779	262.06
261.012	230.06
261.244	233.06
261.477	246.06
261.71	224.06
261.942	230.06
262.175	247.06
262.407	231.06
262.64	224.06
262.872	218.06
263.105	200.06
263.337	202.06
263.57	210.06
263.802	224.06
264.035	211.06
264.267	214.06
264.499	215.06
264.732	210.06
264.964	219.06
265.197	205.06
265.429	209.06
265.661	211.06
265.894	218.06
266.126	226.06
266.358	222.06
266.591	224.06
266.823	225.06
267.055	230.06
267.287	232.06
267.52	241.06
267.752	243.06
267.984	225.06
268.216	219.06
268.448	228.06
268.681	243.06
268.913	246.06
269.145	255.06
269.377	285.06
269.609	283.06
269.841	280.06
270.073	280.06
270.306	296.06
270.538	312.06
270.77	312.06
271.002	310.06
271.234	308.06
271.466	316.06
271.698	321.06
271.93	316.06
272.162	322.06
272.394	314.06
272.626	295.06
272.858	289.06
273.09	300.06
273.322	273.06
273.553	266.06
273.785	279.06
274.017	265.06
274.249	269.06
274.481	263.06
274.713	274.06
274.945	258.06
275.176	282.06
275.408	273.06
275.64	248.06
275.872	259.06
276.104	278.06
276.335	255.06
276.567	262.06
276.799	288.06
277.031	297.06
277.262	322.06
277.494	331.06
277.726	295.06
277.957	288.06
278.189	279.06
278.421	284.06
278.652	301.06
278.884	271.06
279.115	259.06
279.347	285.06
279.579	279.06
279.81	271.06
280.042	267.06
280.273	272.06
280.505	268.06
280.736	284.06
280.968	261.06
281.199	261.06
281.431	291.06
281.662	263.06
281.894	293.06
282.125	279.06
282.356	290.06
282.588	309.06
282.819	298.06
283.051	300.06
283.282	277.06
283.513	285.06
283.745	287.06
283.976	308.06
284.207	285.06
284.439	279.06
284.67	299.06
284.901	293.06
285.132	274.06
285.364	298.06
285.595	290.06
285.826	295.06
286.057	300.06
286.288	284.06
286.52	302.06
286.751	284.06
286.982	298.06
287.213	309.06
287.444	284.06
287.675	306.06
287.906	308.06
288.138	294.06
288.369	303.06
288.6	311.06
288.831	303.06
289.062	303.06
289.293	299.06
289.524	318.06
289.755	311.06
289.986	314.06
290.217	309.06
290.448	294.06
290.679	295.06
290.91	294.06
291.141	304.06
291.371	295.06
291.602	303.06
291.833	285.06
292.064	319.06
292.295	276.06
292.526	294.06
292.757	305.06
292.987	307.06
293.218	314.06
293.449	307.06
293.68	298.06
293.91	310.06
294.141	303.06
294.372	295.06
294.603	305.06
294.833	318.06
295.064	297.06
295.295	304.06
295.525	311.06
295.756	328.06
295.987	314.06
296.217	340.06
296.448	336.06
296.679	307.06
296.909	307.06
297.14	316.06
297.37	307.06
297.601	303.06
297.831	319.06
298.062	313.06
298.292	296.06
298.523	323.06
298.753	320.06
298.984	328.06
299.214	330.06
299.445	330.06
299.675	309.06
299.905	314.06
300.136	327.06
300.366	310.06
300.597	322.06
300.827	346.06
301.057	322.06
301.288	338.06
301.518	349.06
301.748	346.06
301.979	329.06
302.209	328.06
302.439	354.06
302.669	341.06
302.9	340.06
303.13	358.06
303.36	354.06
303.59	338.06
303.82	345.06
304.051	353.06
304.281	342.06
304.511	320.06
304.741	331.06
304.971	331.06
305.201	328.06
305.431	333.06
305.661	344.06
305.891	340.06
306.121	342.06
306.352	331.06
306.582	335.06
306.812	334.06
307.042	351.06
307.272	347.06
307.502	337.06
307.731	347.06
307.961	346.06
308.191	356.06
308.421	339.06
308.651	333.06
308.881	357.06
309.111	340.06
309.341	346.06
309.571	335.06
309.8	352.06
310.03	365.06
310.26	375.06
310.49	370.06
310.72	376.06
310.949	372.06
311.179	376.06
311.409	371.06
311.639	373.06
311.868	371.06
312.098	382.06
312.328	382.06
312.557	389.06
312.787	387.06
313.017	419.06
313.246	402.06
313.476	390.06
313.706	379.06
313.935	395.06
314.165	403.06
314.394	391.06
314.624	393.06
314.853	390.06
315.083	382.06
315.312	376.06
315.542	363.06
315.771	375.06
316.001	384.06
316.23	372.06
316.46	389.06
316.689	385.06
316.919	375.06
317.148	393.06
317.377	394.06
317.607	370.06
317.836	383.06
318.065	369.06
318.295	384.06
318.524	378.06
318.753	382.06
318.983	399.06
319.212	398.06
319.441	371.06
319.67	376.06
319.9	384.06
320.129	402.06
320.358	385.06
320.587	395.06
320.816	406.06
321.046	387.06
321.275	399.06
321.504	413.06
321.733	395.06
321.962	392.06
322.191	410.06
322.42	425.06
322.649	408.06
322.878	421.06
323.108	428.06
323.337	455.06
323.566	432.06
323.795	472.06
324.024	504.06
324.253	587.06
324.482	791.06
324.71	1213.06
324.939	1764.06
325.168	1621.06
325.397	834.06
325.626	584.06
325.855	505.06
326.084	477.06
326.313	449.06
326.542	465.06
326.77	494.06
326.999	587.06
327.228	755.06
327.457	1118.06
327.686	1420.06
327.914	951.06
328.143	631.06
328.372	568.06
328.6	506.06
328.829	481.06
329.058	521.06
329.287	539.06
329.515	515.06
329.744	497.06
329.972	489.06
330.201	500.06
330.43	559.06
330.658	550.06
330.887	563.06
331.115	540.06
331.344	491.06
331.572	471.06
331.801	479.06
332.03	465.06
332.258	467.06
332.486	452.06
332.715	471.06
332.943	461.06
333.172	465.06
333.4	466.06
333.629	489.06
333.857	487.06
334.085	502.06
334.314	501.06
334.542	538.06
334.771	559.06
334.999	532.06
335.227	476.06
335.455	468.06
335.684	482.06
335.912	468.06
336.14	454.06
336.369	447.06
336.597	461.06
336.825	480.06
337.053	460.06
337.281	434.06
337.51	444.06
337.738	424.06
337.966	443.06
338.194	450.06
338.422	473.06
338.65	449.06
338.878	449.06
339.106	444.06
339.334	477.06
339.562	440.06
339.79	445.06
340.018	424.06
340.246	409.06
340.474	421.06
340.702	440.06
340.93	447.06
341.158	443.06
341.386	408.06
341.614	460.06
341.842	431.06
342.07	422.06
342.298	423.06
342.526	409.06
342.754	432.06
342.981	418.06
343.209	454.06
343.437	452.06
343.665	466.06
343.893	453.06
344.12	482.06
344.348	459.06
344.576	443.06
344.804	455.06
345.031	450.06
345.259	432.06
345.487	431.06
345.714	440.06
345.942	441.06
346.17	441.06
346.397	435.06
346.625	429.06
346.853	431.06
347.08	421.06
347.308	433.06
347.535	428.06
347.763	433.06
347.99	449.06
348.218	422.06
348.445	414.06
348.673	443.06
348.9	431.06
349.128	427.06
349.355	419.06
349.583	423.06
349.81	402.06
350.037	417.06
350.265	432.06
350.492	411.06
350.72	415.06
350.947	400.06
351.174	421.06
351.402	412.06
351.629	414.06
351.856	424.06
352.083	440.06
352.311	417.06
352.538	435.06
352.765	451.06
352.992	438.06
353.22	435.06
353.447	424.06
353.674	434.06
353.901	413.06
354.128	406.06
354.355	407.06
354.583	421.06
354.81	399.06
355.037	398.06
355.264	392.06
355.491	406.06
355.718	392.06
355.945	407.06
356.172	410.06
356.399	409.06
356.626	413.06
356.853	412.06
357.08	405.06
357.307	395.06
357.534	399.06
357.761	385.06
357.988	419.06
358.215	411.06
358.441	395.06
358.668	395.06
358.895	421.06
359.122	417.06
359.349	410.06
359.576	412.06
359.802	445.06
360.029	455.06
360.256	455.06
360.483	429.06
360.709	419.06
360.936	440.06
361.163	439.06
361.39	434.06
361.616	424.06
361.843	419.06
362.07	419.06
362.296	411.06
362.523	429.06
362.749	416.06
362.976	427.06
363.203	421.06
363.429	404.06
363.656	417.06
363.882	408.06
364.109	428.06
364.335	404.06
364.562	408.06
364.788	407.06
365.015	407.06
365.241	397.06
365.468	426.06
365.694	414.06
365.92	404.06
366.147	417.06
366.373	407.06
366.599	414.06
366.826	401.06
367.052	408.06
367.278	406.06
367.505	397.06
367.731	412.06
367.957	425.06
368.184	416.06
368.41	435.06
368.636	420.06
368.862	424.06
369.089	424.06
369.315	413.06
369.541	420.06
369.767	409.06
369.993	424.06
370.219	427.06
370.445	416.06
370.672	410.06
370.898	412.06
371.124	413.06
371.35	402.06
371.576	424.06
371.802	399.06
372.028	419.06
372.254	432.06
372.48	426.06
372.706	418.06
372.932	417.06
373.158	445.06
373.384	431.06
373.61	415.06
373.835	423.06
374.061	432.06
374.287	439.06
374.513	412.06
374.739	420.06
374.965	446.06
375.191	457.06
375.416	436.06
375.642	418.06
375.868	427.06
376.094	426.06
376.319	417.06
376.545	428.06
376.771	445.06
376.997	409.06
377.222	432.06
377.448	415.06
377.674	412.06
377.899	440.06
378.125	427.06
378.35	417.06
378.576	412.06
378.802	416.06
379.027	432.06
379.253	424.06
379.478	422.06
379.704	411.06
379.929	417.06
380.155	436.06
380.38	417.06
380.606	437.06
380.831	417.06
381.057	416.06
381.282	413.06
381.507	429.06
381.733	423.06
381.958	436.06
382.184	443.06
382.409	421.06
382.634	431.06
382.86	442.06
383.085	429.06
383.31	470.06
383.535	432.06
383.761	454.06
383.986	444.06
384.211	458.06
384.436	465.06
384.662	480.06
384.887	468.06
385.112	439.06
385.337	457.06
385.562	482.06
385.787	461.06
386.013	492.06
386.238	463.06
386.463	488.06
386.688	476.06
386.913	475.06
387.138	472.06
387.363	460.06
387.588	488.06
387.813	468.06
388.038	466.06
388.263	465.06
388.488	473.06
388.713	473.06
388.938	487.06
389.163	463.06
389.387	472.06
389.612	470.06
389.837	477.06
390.062	452.06
390.287	456.06
390.512	454.06
390.736	481.06
390.961	492.06
391.186	494.06
391.411	489.06
391.636	461.06
391.86	471.06
392.085	511.06
392.31	497.06
392.534	496.06
392.759	492.06
392.984	499.06
393.208	476.06
393.433	479.06
393.658	484.06
393.882	473.06
394.107	480.06
394.331	465.06
394.556	498.06
394.78	495.06
395.005	499.06
395.229	503.06
395.454	522.06
395.678	515.06
395.903	522.06
396.127	535.06
396.352	501.06
396.576	510.06
396.801	515.06
397.025	525.06
397.249	503.06
397.474	515.06
397.698	517.06
397.922	530.06
398.147	519.06
398.371	538.06
398.595	543.06
398.82	557.06
399.044	578.06
399.268	611.06
399.492	614.06
399.717	661.06
399.941	708.06
400.165	707.06
400.389	698.06
400.613	632.06
400.837	600.06
401.062	581.06
401.286	584.06
401.51	554.06
401.734	549.06
401.958	556.06
402.182	566.06
402.406	565.06
402.63	562.06
402.854	553.06
403.078	554.06
403.302	591.06
403.526	565.06
403.75	581.06
403.974	584.06
404.198	589.06
404.422	567.06
404.645	587.06
404.869	577.06
405.093	626.06
405.317	643.06
405.541	678.06
405.765	634.06
405.988	611.06
406.212	616.06
406.436	639.06
406.66	649.06
406.883	603.06
407.107	653.06
407.331	709.06
407.555	753.06
407.778	761.06
408.002	694.06
408.226	656.06
408.449	634.06
408.673	651.06
408.896	670.06
409.12	725.06
409.344	647.06
409.567	610.06
409.791	606.06
410.014	597.06
410.238	578.06
410.461	566.06
410.685	574.06
410.908	617.06
411.132	636.06
411.355	663.06
411.578	636.06
411.802	584.06
412.025	599.06
412.249	592.06
412.472	618.06
412.695	655.06
412.919	660.06
413.142	611.06
413.365	566.06
413.589	574.06
413.812	570.06
414.035	561.06
414.258	545.06
414.482	563.06
414.705	542.06
414.928	565.06
415.151	553.06
415.374	554.06
415.597	539.06
415.821	555.06
416.044	555.06
416.267	555.06
416.49	548.06
416.713	539.06
416.936	537.06
417.159	543.06
417.382	574.06
417.605	548.06
417.828	552.06
418.051	581.06
418.274	544.06
418.497	533.06
418.72	545.06
418.943	548.06
419.166	598.06
419.389	598.06
419.611	593.06
419.834	598.06
420.057	584.06
420.28	599.06
420.503	580.06
420.726	568.06
420.948	597.06
421.171	635.06
421.394	659.06
421.617	591.06
421.839	576.06
422.062	546.06
422.285	586.06
422.507	626.06
422.73	722.06
422.953	676.06
423.175	604.06
423.398	597.06
423.621	594.06
423.843	594.06
424.066	635.06
424.288	621.06
424.511	632.06
424.733	663.06
424.956	747.06
425.178	707.06
425.401	708.06
425.623	746.06
425.846	635.06
426.068	610.06
426.291	593.06
426.513	583.06
426.735	612.06
426.958	619.06
427.18	689.06
427.402	840.06
427.625	916.06
427.847	803.06
428.069	730.06
428.292	646.06
428.514	599.06
428.736	568.06
428.958	557.06
429.181	557.06
429.403	562.06
429.625	567.06
429.847	583.06
430.069	661.06
430.292	634.06
430.514	575.06
430.736	543.06
430.958	561.06
431.18	540.06
431.402	507.06
431.624	518.06
431.846	519.06
432.068	522.06
432.29	511.06
432.512	519.06
432.734	556.06
432.956	544.06
433.178	562.06
433.4	547.06
433.622	538.06
433.844	533.06
434.066	524.06
434.287	523.06
434.509	530.06
434.731	522.06
434.953	545.06
435.175	551.06
435.397	573.06
435.618	592.06
435.84	630.06
436.062	731.06
436.284	767.06
436.505	639.06
436.727	582.06
436.949	545.06
437.17	540.06
437.392	538.06
437.614	563.06
437.835	587.06
438.057	673.06
438.278	807.06
438.5	804.06
438.721	845.06
438.943	812.06
439.165	667.06
439.386	616.06
439.608	624.06
439.829	591.06
440.05	611.06
440.272	653.06
440.493	645.06
440.715	567.06
440.936	548.06
441.158	543.06
441.379	556.06
441.6	581.06
441.822	609.06
442.043	647.06
442.264	714.06
442.486	767.06
442.707	660.06
442.928	603.06
443.149	637.06
443.371	632.06
443.592	699.06
443.813	780.06
444.034	840.06
444.255	705.06
444.476	643.06
444.698	625.06
444.919	634.06
445.14	754.06
445.361	675.06
445.582	643.06
445.803	703.06
446.024	810.06
446.245	818.06
446.466	712.06
446.687	638.06
446.908	607.06
447.129	561.06
447.35	545.06
447.571	545.06
447.792	540.06
448.013	571.06
448.234	573.06
448.455	616.06
448.675	687.06
448.896	851.06
449.117	699.06
449.338	667.06
449.559	781.06
449.779	880.06
450	709.06
450.221	589.06
450.442	549.06
450.662	534.06
450.883	535.06
451.104	538.06
451.324	533.06
451.545	498.06
451.766	515.06
451.986	485.06
452.207	491.06
452.428	473.06
452.648	509.06
452.869	466.06
453.089	499.06
453.31	495.06
453.53	492.06
453.751	490.06
453.971	473.06
454.192	495.06
454.412	492.06
454.633	482.06
454.853	483.06
455.073	500.06
455.294	491.06
455.514	576.06
455.734	574.06
455.955	488.06
456.175	448.06
456.395	456.06
456.616	462.06
456.836	469.06
457.056	455.06
457.276	444.06
457.497	455.06
457.717	445.06
457.937	471.06
458.157	475.06
458.377	474.06
458.598	507.06
458.818	543.06
459.038	611.06
459.258	645.06
459.478	568.06
459.698	522.06
459.918	545.06
460.138	531.06
460.358	547.06
460.578	549.06
460.798	543.06
461.018	551.06
461.238	531.06
461.458	548.06
461.678	557.06
461.898	561.06
462.118	556.06
462.338	577.06
462.558	573.06
462.777	603.06
462.997	591.06
463.217	627.06
463.437	613.06
463.657	603.06
463.876	616.06
464.096	577.06
464.316	583.06
464.536	602.06
464.755	583.06
464.975	579.06
465.195	611.06
465.414	634.06
465.634	607.06
465.854	545.06
466.073	541.06
466.293	510.06
466.512	519.06
466.732	485.06
466.951	489.06
467.171	486.06
467.391	512.06
467.61	515.06
467.829	515.06
468.049	525.06
468.268	526.06
468.488	488.06
468.707	489.06
468.927	485.06
469.146	505.06
469.365	490.06
469.585	492.06
469.804	499.06
470.023	507.06
470.243	500.06
470.462	526.06
470.681	533.06
470.901	517.06
471.12	511.06
471.339	529.06
471.558	501.06
471.777	523.06
471.997	481.06
472.216	536.06
472.435	529.06
472.654	525.06
472.873	510.06
473.092	512.06
473.311	513.06
473.53	518.06
473.749	521.06
473.968	554.06
474.187	645.06
474.406	662.06
474.625	570.06
474.844	529.06
475.063	539.06
475.282	498.06
475.501	518.06
475.72	545.06
475.939	543.06
476.158	519.06
476.377	530.06
476.596	515.06
476.814	546.06
477.033	531.06
477.252	530.06
477.471	523.06
477.69	552.06
477.908	566.06
478.127	549.06
478.346	575.06
478.564	593.06
478.783	568.06
479.002	579.06
479.22	604.06
479.439	594.06
479.658	641.06
479.876	633.06
480.095	608.06
480.313	657.06
480.532	674.06
480.751	650.06
480.969	647.06
481.188	690.06
481.406	700.06
481.624	631.06
481.843	626.06
482.061	607.06
482.28	635.06
482.498	588.06
482.717	596.06
482.935	579.06
483.153	589.06
483.372	602.06
483.59	613.06
483.808	593.06
484.027	603.06
484.245	610.06
484.463	614.06
484.681	600.06
484.9	616.06
485.118	609.06
485.336	616.06
485.554	631.06
485.772	612.06
485.99	610.06
486.209	637.06
486.427	613.06
486.645	642.06
486.863	647.06
487.081	639.06
487.299	635.06
487.517	633.06
487.735	667.06
487.953	637.06
488.171	611.06
488.389	636.06
488.607	653.06
488.825	623.06
489.043	658.06
489.261	653.06
489.479	659.06
489.696	674.06
489.914	653.06
490.132	645.06
490.35	654.06
490.568	691.06
490.786	654.06
491.003	687.06
491.221	725.06
491.439	733.06
491.657	737.06
491.874	720.06
492.092	746.06
492.31	738.06
492.527	741.06
492.745	748.06
492.963	748.06
493.18	742.06
493.398	765.06
493.615	772.06
493.833	765.06
494.05	769.06
494.268	771.06
494.485	745.06
494.703	759.06
494.92	775.06
495.138	761.06
495.355	751.06
495.573	755.06
495.79	763.06
496.008	759.06
496.225	754.06
496.442	739.06
496.66	764.06
496.877	772.06
497.094	787.06
497.312	767.06
497.529	779.06
497.746	793.06
497.963	823.06
498.181	849.06
498.398	844.06
498.615	898.06
498.832	910.06
499.049	904.06
499.267	923.06
499.484	967.06
499.701	1027.06
499.918	1079.06
500.135	1157.06
500.352	1215.06
500.569	1231.06
500.786	1248.06
501.003	1205.06
501.22	1125.06
501.437	1097.06
501.654	1059.06
501.871	1024.06
502.088	979.06
502.305	915.06
502.522	904.06
502.739	871.06
502.956	839.06
503.172	845.06
503.389	827.06
503.606	801.06
503.823	816.06
504.04	767.06
504.256	779.06
504.473	759.06
504.69	775.06
504.907	790.06
505.123	762.06
505.34	745.06
505.557	731.06
505.773	718.06
505.99	724.06
506.207	727.06
506.423	714.06
506.64	715.06
506.856	695.06
507.073	693.06
507.289	698.06
507.506	689.06
507.722	684.06
507.939	683.06
508.155	702.06
508.372	683.06
508.588	655.06
508.805	656.06
509.021	679.06
509.238	693.06
509.454	681.06
509.67	703.06
509.887	672.06
510.103	668.06
510.319	680.06
510.536	737.06
510.752	1050.06
510.968	898.06
511.184	672.06
511.401	634.06
511.617	648.06
511.833	648.06
512.049	636.06
512.265	629.06
512.481	616.06
512.698	635.06
512.914	603.06
513.13	602.06
513.346	614.06
513.562	628.06
513.778	631.06
513.994	632.06
514.21	623.06
514.426	649.06
514.642	681.06
514.858	691.06
515.074	710.06
515.29	790.06
515.506	1092.06
515.721	927.06
515.937	731.06
516.153	695.06
516.369	667.06
516.585	658.06
516.801	661.06
517.016	685.06
517.232	674.06
517.448	672.06
517.664	694.06
517.879	711.06
518.095	682.06
518.311	656.06
518.527	693.06
518.742	667.06
518.958	649.06
519.173	664.06
519.389	629.06
519.605	635.06
519.82	624.06
520.036	644.06
520.251	657.06
520.467	659.06
520.682	609.06
520.898	650.06
521.113	677.06
521.329	715.06
521.544	745.06
521.76	857.06
521.975	1284.06
522.19	1286.06
522.406	795.06
522.621	640.06
522.836	615.06
523.052	611.06
523.267	588.06
523.482	570.06
523.698	583.06
523.913	580.06
524.128	579.06
524.343	565.06
524.559	539.06
524.774	547.06
524.989	555.06
525.204	539.06
525.419	559.06
525.634	555.06
525.849	543.06
526.064	532.06
526.28	538.06
526.495	542.06
526.71	519.06
526.925	505.06
527.14	516.06
527.355	518.06
527.57	513.06
527.785	531.06
527.999	507.06
528.214	514.06
528.429	532.06
528.644	518.06
528.859	513.06
529.074	538.06
529.289	554.06
529.503	602.06
529.718	573.06
529.933	533.06
530.148	522.06
530.363	531.06
530.577	509.06
530.792	507.06
531.007	489.06
531.221	525.06
531.436	518.06
531.651	517.06
531.865	512.06
532.08	554.06
532.295	513.06
532.509	492.06
532.724	507.06
532.938	521.06
533.153	503.06
533.367	471.06
533.582	502.06
533.796	490.06
534.011	487.06
534.225	483.06
534.44	499.06
534.654	503.06
534.868	488.06
535.083	490.06
535.297	500.06
535.511	518.06
535.726	521.06
535.94	511.06
536.154	497.06
536.369	484.06
536.583	482.06
536.797	523.06
537.011	502.06
537.225	484.06
537.44	459.06
537.654	470.06
537.868	467.06
538.082	475.06
538.296	470.06
538.51	499.06
538.724	481.06
538.938	479.06
539.153	480.06
539.367	504.06
539.581	512.06
539.795	484.06
540.009	501.06
540.222	496.06
540.436	484.06
540.65	479.06
540.864	498.06
541.078	481.06
541.292	508.06
541.506	509.06
541.72	486.06
541.934	488.06
542.147	482.06
542.361	476.06
542.575	475.06
542.789	504.06
543.002	475.06
543.216	477.06
543.43	515.06
543.644	463.06
543.857	492.06
544.071	493.06
544.285	487.06
544.498	492.06
544.712	491.06
544.925	489.06
545.139	500.06
545.352	492.06
545.566	472.06
545.779	473.06
545.993	486.06
546.206	485.06
546.42	482.06
546.633	482.06
546.847	500.06
547.06	483.06
547.274	452.06
547.487	459.06
547.7	473.06
547.914	469.06
548.127	468.06
548.34	477.06
548.554	488.06
548.767	480.06
548.98	471.06
549.193	461.06
549.407	469.06
549.62	475.06
549.833	473.06
550.046	477.06
550.259	481.06
550.473	471.06
550.686	483.06
550.899	475.06
551.112	469.06
551.325	455.06
551.538	453.06
551.751	478.06
551.964	459.06
552.177	478.06
552.39	463.06
552.603	469.06
552.816	468.06
553.029	474.06
553.242	498.06
553.455	500.06
553.667	504.06
553.88	503.06
554.093	476.06
554.306	492.06
554.519	480.06
554.732	465.06
554.944	474.06
555.157	446.06
555.37	458.06
555.583	435.06
555.795	459.06
556.008	452.06
556.221	447.06
556.433	423.06
556.646	423.06
556.859	440.06
557.071	441.06
557.284	421.06
557.496	425.06
557.709	431.06
557.921	425.06
558.134	411.06
558.346	425.06
558.559	426.06
558.771	439.06
558.984	435.06
559.196	417.06
559.409	403.06
559.621	414.06
559.833	421.06
560.046	436.06
560.258	419.06
560.47	412.06
560.683	399.06
560.895	426.06
561.107	419.06
561.32	404.06
561.532	424.06
561.744	419.06
561.956	409.06
562.168	417.06
562.381	411.06
562.593	415.06
562.805	429.06
563.017	408.06
563.229	407.06
563.441	420.06
563.653	428.06
563.865	420.06
564.077	438.06
564.289	430.06
564.501	443.06
564.713	437.06
564.925	460.06
565.137	444.06
565.349	474.06
565.561	459.06
565.773	484.06
565.985	465.06
566.197	480.06
566.408	527.06
566.62	532.06
566.832	535.06
567.044	556.06
567.255	559.06
567.467	569.06
567.679	590.06
567.891	593.06
568.102	589.06
568.314	579.06
568.526	553.06
568.737	535.06
568.949	512.06
569.161	475.06
569.372	459.06
569.584	438.06
569.795	448.06
570.007	420.06
570.218	460.06
570.43	460.06
570.641	428.06
570.853	433.06
571.064	401.06
571.276	406.06
571.487	412.06
571.698	403.06
571.91	393.06
572.121	397.06
572.333	384.06
572.544	392.06
572.755	394.06
572.966	391.06
573.178	367.06
573.389	368.06
573.6	377.06
573.811	381.06
574.023	349.06
574.234	360.06
574.445	346.06
574.656	367.06
574.867	362.06
575.078	352.06
575.289	350.06
575.501	344.06
575.712	355.06
575.923	343.06
576.134	360.06
576.345	347.06
576.556	344.06
576.767	362.06
576.978	357.06
577.188	355.06
577.399	352.06
577.61	346.06
577.821	340.06
578.032	330.06
578.243	364.06
578.454	500.06
578.665	423.06
578.875	352.06
579.086	346.06
579.297	335.06
579.508	321.06
579.718	332.06
579.929	326.06
580.14	333.06
580.35	315.06
580.561	333.06
580.772	333.06
580.982	330.06
581.193	333.06
581.403	334.06
581.614	323.06
581.825	331.06
582.035	312.06
582.246	322.06
582.456	330.06
582.667	324.06
582.877	332.06
583.087	316.06
583.298	324.06
583.508	301.06
583.719	318.06
583.929	318.06
584.139	345.06
584.35	329.06
584.56	314.06
584.77	317.06
584.981	310.06
585.191	347.06
585.401	317.06
585.611	319.06
585.821	314.06
586.032	307.06
586.242	325.06
586.452	305.06
586.662	311.06
586.872	305.06
587.082	320.06
587.292	308.06
587.502	308.06
587.713	318.06
587.923	309.06
588.133	317.06
588.343	324.06
588.553	327.06
588.762	316.06
588.972	324.06
589.182	330.06
589.392	317.06
589.602	335.06
589.812	304.06
590.022	308.06
590.232	324.06
590.441	306.06
590.651	320.06
590.861	300.06
591.071	312.06
591.281	330.06
591.49	331.06
591.7	319.06
591.91	296.06
592.119	327.06
592.329	325.06
592.539	352.06
592.748	342.06
592.958	344.06
593.167	365.06
593.377	358.06
593.587	359.06
593.796	339.06
594.006	348.06
594.215	342.06
594.424	352.06
594.634	352.06
594.843	329.06
595.053	354.06
595.262	332.06
595.472	325.06
595.681	327.06
595.89	317.06
596.1	317.06
596.309	308.06
596.518	299.06
596.727	301.06
596.937	301.06
597.146	300.06
597.355	310.06
597.564	324.06
597.774	290.06
597.983	296.06
598.192	273.06
598.401	292.06
598.61	280.06
598.819	283.06
599.028	288.06
599.237	282.06
599.446	292.06
599.655	288.06
599.864	276.06
600.073	268.06
600.282	290.06
600.491	263.06
600.7	280.06
600.909	263.06
601.118	277.06
601.327	284.06
601.536	282.06
601.745	267.06
601.953	260.06
602.162	286.06
602.371	275.06
602.58	282.06
602.789	268.06
602.997	252.06
603.206	284.06
603.415	273.06
603.623	260.06
603.832	254.06
604.041	280.06
604.249	249.06
604.458	259.06
604.666	275.06
604.875	278.06
605.084	267.06
605.292	242.06
605.501	258.06
605.709	277.06
605.918	265.06
606.126	259.06
606.334	256.06
606.543	259.06
606.751	256.06
606.96	261.06
607.168	257.06
607.376	277.06
607.585	274.06
607.793	263.06
608.001	243.06
608.21	255.06
608.418	256.06
608.626	240.06
608.834	256.06
609.043	261.06
609.251	255.06
609.459	252.06
609.667	271.06
609.875	244.06
610.083	262.06
610.291	260.06
610.499	263.06
610.707	252.06
610.916	268.06
611.124	273.06
611.332	255.06
611.54	263.06
611.748	253.06
611.955	263.06
612.163	255.06
612.371	273.06
612.579	237.06
612.787	261.06
612.995	251.06
613.203	249.06
613.411	276.06
613.618	269.06
613.826	250.06
614.034	251.06
614.242	254.06
614.449	242.06
614.657	259.06
614.865	264.06
615.072	246.06
615.28	255.06
615.488	247.06
615.695	247.06
615.903	262.06
616.111	248.06
616.318	264.06
616.526	244.06
616.733	263.06
616.941	245.06
617.148	242.06
617.356	246.06
617.563	255.06
617.771	239.06
617.978	245.06
618.185	257.06
618.393	259.06
618.6	246.06
618.807	255.06
619.015	241.06
619.222	232.06
619.429	228.06
619.637	239.06
619.844	243.06
620.051	249.06
620.258	244.06
620.466	238.06
620.673	208.06
620.88	256.06
621.087	225.06
621.294	216.06
621.501	240.06
621.708	236.06
621.915	241.06
622.122	233.06
622.329	224.06
622.536	237.06
622.743	223.06
622.95	237.06
623.157	230.06
623.364	235.06
623.571	255.06
623.778	227.06
623.985	235.06
624.192	224.06
624.399	229.06
624.606	232.06
624.812	219.06
625.019	219.06
625.226	232.06
625.433	237.06
625.639	224.06
625.846	232.06
626.053	204.06
626.259	213.06
626.466	224.06
626.673	222.06
626.879	209.06
627.086	217.06
627.293	226.06
627.499	218.06
627.706	200.06
627.912	195.06
628.119	220.06
628.325	231.06
628.532	218.06
628.738	222.06
628.945	216.06
629.151	222.06
629.357	204.06
629.564	205.06
629.77	220.06
629.976	197.06
630.183	224.06
630.389	215.06
630.595	204.06
630.802	209.06
631.008	191.06
631.214	200.06
631.42	209.06
631.627	222.06
631.833	210.06
632.039	222.06
632.245	193.06
632.451	188.06
632.657	193.06
632.863	204.06
633.069	212.06
633.275	190.06
633.481	189.06
633.688	210.06
633.893	194.06
634.099	202.06
634.305	195.06
634.511	201.06
634.717	201.06
634.923	186.06
635.129	194.06
635.335	196.06
635.541	206.06
635.747	180.06
635.952	209.06
636.158	203.06
636.364	208.06
636.57	177.06
636.775	203.06
636.981	204.06
637.187	195.06
637.392	183.06
637.598	189.06
637.804	199.06
638.009	197.06
638.215	203.06
638.421	186.06
638.626	193.06
638.832	186.06
639.037	185.06
639.243	187.06
639.448	178.06
639.654	179.06
639.859	186.06
640.065	176.06
640.27	177.06
640.475	184.06
640.681	185.06
640.886	179.06
641.091	171.06
641.297	177.06
641.502	166.06
641.707	191.06
641.913	179.06
642.118	188.06
642.323	159.06
642.528	179.06
642.733	179.06
642.939	169.06
643.144	177.06
643.349	169.06
643.554	168.06
643.759	182.06
643.964	167.06
644.169	179.06
644.374	190.06
644.579	169.06
644.784	175.06
644.989	164.06
645.194	175.06
645.399	175.06
645.604	177.06
645.809	186.06
646.014	185.06
646.219	173.06
646.423	180.06
646.628	155.06
646.833	183.06
647.038	159.06
647.243	175.06
647.447	160.06
647.652	189.06
647.857	169.06
648.062	175.06
648.266	183.06
648.471	181.06
648.676	184.06
648.88	167.06
649.085	183.06
649.289	156.06
649.494	197.06
649.698	187.06
649.903	188.06
650.107	185.06
650.312	159.06
650.516	151.06
650.721	165.06
650.925	171.06
651.13	159.06
651.334	156.06
651.539	163.06
651.743	160.06
651.947	156.06
652.152	154.06
652.356	171.06
652.56	166.06
652.764	135.06
652.969	148.06
653.173	141.06
653.377	151.06
653.581	159.06
653.785	147.06
653.99	137.06
654.194	124.06
654.398	133.06
654.602	142.06
654.806	141.06
655.01	153.06
655.214	139.06
655.418	159.06
655.622	126.06
655.826	128.06
656.03	148.06
656.234	138.06
656.438	138.06
656.642	144.06
656.846	135.06
657.049	129.06
657.253	127.06
657.457	138.06
657.661	127.06
657.865	132.06
658.068	121.06
658.272	103.06
658.476	127.06
658.68	117.06
658.883	108.06
659.087	99.06
659.291	104.06
659.494	102.06
659.698	103.06
659.901	98.06
660.105	92.06
660.309	92.06
660.512	92.06
660.716	95.06
660.919	85.06
661.123	88.06
661.326	113.06
661.53	95.06
661.733	87.06
661.936	97.06
662.14	96.06
662.343	96.06
662.546	83.06
662.75	87.06
662.953	74.06
663.156	87.06
663.36	83.06
663.563	80.06
663.766	72.06
663.969	81.06
664.173	77.06
664.376	87.06
664.579	77.06
664.782	83.06
664.985	91.06
665.188	67.06
665.391	90.06
665.594	89.06
665.797	81.06
666	96.06
666.203	85.06
666.406	75.06
666.609	82.06
666.812	79.06
667.015	94.06
667.218	104.06
667.421	87.06
667.624	79.06
667.827	75.06
668.03	83.06
668.232	84.06
668.435	80.06
668.638	73.06
668.841	77.06
669.043	78.06
669.246	73.06
669.449	87.06
669.651	70.06
669.854	76.06
670.057	85.06
670.259	91.06
670.462	75.06
670.665	77.06
670.867	82.06
671.07	89.06
671.272	90.06
671.475	96.06
671.677	76.06
671.88	70.06
672.082	69.06
672.284	70.06
672.487	85.06
672.689	86.06
672.892	74.06
