Data from 1975.PennyLincolnUp.Lamp.En5.5.200Scan.071719.P1.Changed Mount._HRD10591_15-56-48-858.txt Node
Date: Thu Jul 18 15:56:48 EDT 2019
User: cochatt
Spectrometer: HR+D1059
Trigger mode: 1
Integration Time (sec): 1.000000E-1
Scans to average: 1
Electric dark correction enabled: true
Nonlinearity correction enabled: false
Boxcar width: 0
XAxis mode: Wavelengths
Number of Pixels in Spectrum: 2048
>>>>>Begin Spectral Data<<<<<
223.165	-11.75
223.4	-11.75
223.635	-11.75
223.869	-14.75
224.104	-34.75
224.338	-18.75
224.573	-19.75
224.808	-11.75
225.042	-1.75
225.277	-3.75
225.511	-16.75
225.746	6.25
225.98	8.25
226.215	6.25
226.449	33.25
226.683	22.25
226.918	20.25
227.152	37.25
227.387	38.25
227.621	32.25
227.856	50.25
228.09	56.25
228.324	53.25
228.559	58.25
228.793	71.25
229.027	92.25
229.262	105.25
229.496	102.25
229.73	119.25
229.964	146.25
230.199	126.25
230.433	115.25
230.667	122.25
230.901	107.25
231.136	111.25
231.37	105.25
231.604	110.25
231.838	107.25
232.072	99.25
232.306	115.25
232.541	107.25
232.775	111.25
233.009	121.25
233.243	119.25
233.477	118.25
233.711	106.25
233.945	118.25
234.179	123.25
234.413	122.25
234.647	126.25
234.881	105.25
235.115	126.25
235.349	121.25
235.583	121.25
235.817	120.25
236.051	123.25
236.285	135.25
236.519	134.25
236.753	128.25
236.987	133.25
237.221	157.25
237.455	220.25
237.689	184.25
237.922	138.25
238.156	127.25
238.39	122.25
238.624	131.25
238.858	130.25
239.091	134.25
239.325	125.25
239.559	123.25
239.793	138.25
240.027	131.25
240.26	137.25
240.494	177.25
240.728	146.25
240.961	161.25
241.195	152.25
241.429	142.25
241.662	122.25
241.896	144.25
242.13	119.25
242.363	138.25
242.597	140.25
242.83	131.25
243.064	132.25
243.298	146.25
243.531	138.25
243.765	136.25
243.998	149.25
244.232	143.25
244.465	142.25
244.699	148.25
244.932	142.25
245.166	139.25
245.399	149.25
245.633	142.25
245.866	165.25
246.099	157.25
246.333	162.25
246.566	138.25
246.8	171.25
247.033	178.25
247.266	150.25
247.5	150.25
247.733	188.25
247.966	180.25
248.2	166.25
248.433	184.25
248.666	158.25
248.899	180.25
249.133	215.25
249.366	201.25
249.599	183.25
249.832	183.25
250.066	185.25
250.299	188.25
250.532	196.25
250.765	201.25
250.998	211.25
251.231	211.25
251.465	213.25
251.698	201.25
251.931	201.25
252.164	187.25
252.397	202.25
252.63	198.25
252.863	208.25
253.096	209.25
253.329	219.25
253.562	223.25
253.795	211.25
254.028	216.25
254.261	226.25
254.494	231.25
254.727	251.25
254.96	281.25
255.193	269.25
255.426	239.25
255.659	229.25
255.892	240.25
256.124	235.25
256.357	224.25
256.59	215.25
256.823	215.25
257.056	223.25
257.289	218.25
257.521	212.25
257.754	216.25
257.987	215.25
258.22	192.25
258.452	201.25
258.685	193.25
258.918	223.25
259.151	220.25
259.383	216.25
259.616	228.25
259.849	212.25
260.081	230.25
260.314	237.25
260.547	245.25
260.779	251.25
261.012	233.25
261.244	219.25
261.477	235.25
261.71	220.25
261.942	224.25
262.175	226.25
262.407	209.25
262.64	219.25
262.872	203.25
263.105	220.25
263.337	228.25
263.57	223.25
263.802	220.25
264.035	239.25
264.267	206.25
264.499	233.25
264.732	215.25
264.964	218.25
265.197	229.25
265.429	223.25
265.661	209.25
265.894	226.25
266.126	224.25
266.358	218.25
266.591	233.25
266.823	222.25
267.055	223.25
267.287	246.25
267.52	238.25
267.752	234.25
267.984	224.25
268.216	244.25
268.448	239.25
268.681	260.25
268.913	251.25
269.145	272.25
269.377	279.25
269.609	292.25
269.841	265.25
270.073	279.25
270.306	295.25
270.538	312.25
270.77	324.25
271.002	301.25
271.234	292.25
271.466	289.25
271.698	282.25
271.93	319.25
272.162	313.25
272.394	304.25
272.626	293.25
272.858	271.25
273.09	261.25
273.322	281.25
273.553	271.25
273.785	272.25
274.017	272.25
274.249	259.25
274.481	263.25
274.713	278.25
274.945	282.25
275.176	251.25
275.408	271.25
275.64	267.25
275.872	267.25
276.104	279.25
276.335	262.25
276.567	269.25
276.799	307.25
277.031	294.25
277.262	304.25
277.494	314.25
277.726	293.25
277.957	312.25
278.189	307.25
278.421	285.25
278.652	272.25
278.884	277.25
279.115	271.25
279.347	284.25
279.579	281.25
279.81	277.25
280.042	268.25
280.273	266.25
280.505	283.25
280.736	283.25
280.968	275.25
281.199	264.25
281.431	289.25
281.662	296.25
281.894	297.25
282.125	267.25
282.356	294.25
282.588	309.25
282.819	313.25
283.051	288.25
283.282	280.25
283.513	287.25
283.745	293.25
283.976	300.25
284.207	280.25
284.439	290.25
284.67	306.25
284.901	295.25
285.132	273.25
285.364	280.25
285.595	292.25
285.826	288.25
286.057	292.25
286.288	291.25
286.52	310.25
286.751	288.25
286.982	300.25
287.213	310.25
287.444	302.25
287.675	299.25
287.906	303.25
288.138	301.25
288.369	310.25
288.6	295.25
288.831	311.25
289.062	307.25
289.293	294.25
289.524	292.25
289.755	290.25
289.986	303.25
290.217	316.25
290.448	326.25
290.679	311.25
290.91	291.25
291.141	286.25
291.371	306.25
291.602	310.25
291.833	302.25
292.064	322.25
292.295	286.25
292.526	285.25
292.757	308.25
292.987	291.25
293.218	300.25
293.449	297.25
293.68	290.25
293.91	308.25
294.141	319.25
294.372	303.25
294.603	300.25
294.833	318.25
295.064	297.25
295.295	313.25
295.525	312.25
295.756	291.25
295.987	292.25
296.217	304.25
296.448	361.25
296.679	336.25
296.909	316.25
297.14	335.25
297.37	324.25
297.601	303.25
297.831	316.25
298.062	315.25
298.292	323.25
298.523	317.25
298.753	322.25
298.984	331.25
299.214	312.25
299.445	330.25
299.675	326.25
299.905	320.25
300.136	303.25
300.366	318.25
300.597	331.25
300.827	329.25
301.057	322.25
301.288	338.25
301.518	344.25
301.748	327.25
301.979	336.25
302.209	332.25
302.439	330.25
302.669	333.25
302.9	343.25
303.13	333.25
303.36	333.25
303.59	339.25
303.82	336.25
304.051	342.25
304.281	330.25
304.511	331.25
304.741	327.25
304.971	339.25
305.201	333.25
305.431	340.25
305.661	347.25
305.891	343.25
306.121	325.25
306.352	343.25
306.582	329.25
306.812	331.25
307.042	326.25
307.272	327.25
307.502	355.25
307.731	352.25
307.961	336.25
308.191	341.25
308.421	344.25
308.651	342.25
308.881	336.25
309.111	362.25
309.341	348.25
309.571	350.25
309.8	347.25
310.03	370.25
310.26	346.25
310.49	380.25
310.72	376.25
310.949	394.25
311.179	407.25
311.409	371.25
311.639	397.25
311.868	382.25
312.098	376.25
312.328	379.25
312.557	399.25
312.787	395.25
313.017	387.25
313.246	392.25
313.476	377.25
313.706	380.25
313.935	389.25
314.165	408.25
314.394	422.25
314.624	398.25
314.853	391.25
315.083	384.25
315.312	379.25
315.542	402.25
315.771	378.25
316.001	380.25
316.23	383.25
316.46	375.25
316.689	381.25
316.919	369.25
317.148	378.25
317.377	395.25
317.607	397.25
317.836	384.25
318.065	380.25
318.295	378.25
318.524	368.25
318.753	384.25
318.983	386.25
319.212	380.25
319.441	396.25
319.67	390.25
319.9	393.25
320.129	393.25
320.358	393.25
320.587	389.25
320.816	384.25
321.046	387.25
321.275	411.25
321.504	392.25
321.733	419.25
321.962	407.25
322.191	402.25
322.42	413.25
322.649	433.25
322.878	439.25
323.108	442.25
323.337	446.25
323.566	461.25
323.795	469.25
324.024	520.25
324.253	588.25
324.482	760.25
324.71	1175.25
324.939	1734.25
325.168	1528.25
325.397	784.25
325.626	588.25
325.855	471.25
326.084	474.25
326.313	487.25
326.542	459.25
326.77	482.25
326.999	562.25
327.228	730.25
327.457	1082.25
327.686	1332.25
327.914	908.25
328.143	618.25
328.372	554.25
328.6	540.25
328.829	509.25
329.058	534.25
329.287	526.25
329.515	523.25
329.744	491.25
329.972	489.25
330.201	513.25
330.43	540.25
330.658	541.25
330.887	563.25
331.115	522.25
331.344	522.25
331.572	498.25
331.801	472.25
332.03	493.25
332.258	494.25
332.486	452.25
332.715	462.25
332.943	454.25
333.172	470.25
333.4	472.25
333.629	485.25
333.857	503.25
334.085	522.25
334.314	504.25
334.542	562.25
334.771	566.25
334.999	517.25
335.227	489.25
335.455	467.25
335.684	466.25
335.912	470.25
336.14	480.25
336.369	483.25
336.597	463.25
336.825	476.25
337.053	450.25
337.281	457.25
337.51	444.25
337.738	457.25
337.966	461.25
338.194	452.25
338.422	458.25
338.65	443.25
338.878	439.25
339.106	442.25
339.334	434.25
339.562	443.25
339.79	446.25
340.018	438.25
340.246	450.25
340.474	437.25
340.702	441.25
340.93	438.25
341.158	442.25
341.386	437.25
341.614	437.25
341.842	426.25
342.07	447.25
342.298	409.25
342.526	414.25
342.754	435.25
342.981	427.25
343.209	426.25
343.437	439.25
343.665	444.25
343.893	459.25
344.12	462.25
344.348	460.25
344.576	452.25
344.804	472.25
345.031	459.25
345.259	452.25
345.487	450.25
345.714	438.25
345.942	431.25
346.17	429.25
346.397	426.25
346.625	441.25
346.853	400.25
347.08	416.25
347.308	416.25
347.535	418.25
347.763	440.25
347.99	419.25
348.218	442.25
348.445	420.25
348.673	442.25
348.9	432.25
349.128	441.25
349.355	408.25
349.583	415.25
349.81	381.25
350.037	393.25
350.265	407.25
350.492	413.25
350.72	403.25
350.947	412.25
351.174	420.25
351.402	416.25
351.629	437.25
351.856	424.25
352.083	440.25
352.311	431.25
352.538	436.25
352.765	435.25
352.992	403.25
353.22	435.25
353.447	432.25
353.674	393.25
353.901	433.25
354.128	407.25
354.355	386.25
354.583	385.25
354.81	406.25
355.037	396.25
355.264	410.25
355.491	403.25
355.718	406.25
355.945	386.25
356.172	407.25
356.399	424.25
356.626	405.25
356.853	410.25
357.08	402.25
357.307	386.25
357.534	399.25
357.761	401.25
357.988	394.25
358.215	409.25
358.441	405.25
358.668	396.25
358.895	404.25
359.122	410.25
359.349	410.25
359.576	441.25
359.802	436.25
360.029	462.25
360.256	472.25
360.483	439.25
360.709	439.25
360.936	419.25
361.163	426.25
361.39	426.25
361.616	447.25
361.843	421.25
362.07	420.25
362.296	432.25
362.523	423.25
362.749	413.25
362.976	430.25
363.203	429.25
363.429	408.25
363.656	420.25
363.882	415.25
364.109	425.25
364.335	421.25
364.562	417.25
364.788	422.25
365.015	419.25
365.241	413.25
365.468	448.25
365.694	432.25
365.92	426.25
366.147	421.25
366.373	416.25
366.599	404.25
366.826	425.25
367.052	395.25
367.278	413.25
367.505	411.25
367.731	412.25
367.957	403.25
368.184	423.25
368.41	401.25
368.636	441.25
368.862	451.25
369.089	432.25
369.315	427.25
369.541	424.25
369.767	433.25
369.993	424.25
370.219	418.25
370.445	423.25
370.672	424.25
370.898	417.25
371.124	422.25
371.35	427.25
371.576	432.25
371.802	423.25
372.028	401.25
372.254	411.25
372.48	438.25
372.706	430.25
372.932	418.25
373.158	442.25
373.384	417.25
373.61	417.25
373.835	426.25
374.061	439.25
374.287	450.25
374.513	434.25
374.739	422.25
374.965	428.25
375.191	421.25
375.416	436.25
375.642	424.25
375.868	440.25
376.094	429.25
376.319	438.25
376.545	444.25
376.771	432.25
376.997	426.25
377.222	422.25
377.448	442.25
377.674	417.25
377.899	420.25
378.125	429.25
378.35	412.25
378.576	416.25
378.802	415.25
379.027	440.25
379.253	437.25
379.478	419.25
379.704	417.25
379.929	431.25
380.155	437.25
380.38	426.25
380.606	426.25
380.831	405.25
381.057	435.25
381.282	420.25
381.507	429.25
381.733	429.25
381.958	450.25
382.184	448.25
382.409	450.25
382.634	433.25
382.86	439.25
383.085	422.25
383.31	465.25
383.535	462.25
383.761	482.25
383.986	445.25
384.211	461.25
384.436	450.25
384.662	463.25
384.887	471.25
385.112	464.25
385.337	481.25
385.562	453.25
385.787	488.25
386.013	490.25
386.238	473.25
386.463	468.25
386.688	485.25
386.913	468.25
387.138	468.25
387.363	463.25
387.588	467.25
387.813	489.25
388.038	492.25
388.263	483.25
388.488	482.25
388.713	482.25
388.938	492.25
389.163	477.25
389.387	474.25
389.612	459.25
389.837	486.25
390.062	478.25
390.287	486.25
390.512	516.25
390.736	481.25
390.961	476.25
391.186	468.25
391.411	445.25
391.636	486.25
391.86	524.25
392.085	538.25
392.31	489.25
392.534	492.25
392.759	487.25
392.984	490.25
393.208	492.25
393.433	474.25
393.658	482.25
393.882	485.25
394.107	472.25
394.331	491.25
394.556	492.25
394.78	481.25
395.005	487.25
395.229	506.25
395.454	515.25
395.678	514.25
395.903	517.25
396.127	550.25
396.352	556.25
396.576	523.25
396.801	500.25
397.025	491.25
397.249	522.25
397.474	517.25
397.698	506.25
397.922	543.25
398.147	528.25
398.371	544.25
398.595	521.25
398.82	537.25
399.044	586.25
399.268	597.25
399.492	615.25
399.717	658.25
399.941	700.25
400.165	694.25
400.389	716.25
400.613	655.25
400.837	584.25
401.062	583.25
401.286	566.25
401.51	566.25
401.734	555.25
401.958	564.25
402.182	560.25
402.406	568.25
402.63	565.25
402.854	565.25
403.078	578.25
403.302	581.25
403.526	615.25
403.75	586.25
403.974	583.25
404.198	574.25
404.422	590.25
404.645	598.25
404.869	622.25
405.093	637.25
405.317	667.25
405.541	724.25
405.765	655.25
405.988	617.25
406.212	590.25
406.436	630.25
406.66	637.25
406.883	635.25
407.107	665.25
407.331	692.25
407.555	732.25
407.778	780.25
408.002	692.25
408.226	652.25
408.449	647.25
408.673	634.25
408.896	666.25
409.12	716.25
409.344	660.25
409.567	611.25
409.791	589.25
410.014	602.25
410.238	581.25
410.461	588.25
410.685	589.25
410.908	596.25
411.132	616.25
411.355	660.25
411.578	622.25
411.802	592.25
412.025	595.25
412.249	571.25
412.472	607.25
412.695	657.25
412.919	635.25
413.142	583.25
413.365	574.25
413.589	568.25
413.812	563.25
414.035	565.25
414.258	542.25
414.482	564.25
414.705	538.25
414.928	544.25
415.151	573.25
415.374	565.25
415.597	550.25
415.821	547.25
416.044	541.25
416.267	549.25
416.49	554.25
416.713	540.25
416.936	541.25
417.159	533.25
417.382	527.25
417.605	551.25
417.828	552.25
418.051	588.25
418.274	560.25
418.497	550.25
418.72	587.25
418.943	556.25
419.166	586.25
419.389	598.25
419.611	604.25
419.834	590.25
420.057	586.25
420.28	571.25
420.503	555.25
420.726	573.25
420.948	586.25
421.171	633.25
421.394	646.25
421.617	590.25
421.839	564.25
422.062	575.25
422.285	586.25
422.507	639.25
422.73	718.25
422.953	688.25
423.175	627.25
423.398	601.25
423.621	597.25
423.843	606.25
424.066	627.25
424.288	635.25
424.511	627.25
424.733	659.25
424.956	734.25
425.178	718.25
425.401	728.25
425.623	744.25
425.846	634.25
426.068	588.25
426.291	595.25
426.513	599.25
426.735	598.25
426.958	641.25
427.18	711.25
427.402	843.25
427.625	928.25
427.847	783.25
428.069	688.25
428.292	665.25
428.514	598.25
428.736	574.25
428.958	567.25
429.181	542.25
429.403	546.25
429.625	578.25
429.847	609.25
430.069	640.25
430.292	670.25
430.514	611.25
430.736	554.25
430.958	565.25
431.18	532.25
431.402	509.25
431.624	534.25
431.846	535.25
432.068	540.25
432.29	544.25
432.512	530.25
432.734	549.25
432.956	535.25
433.178	528.25
433.4	559.25
433.622	548.25
433.844	550.25
434.066	522.25
434.287	517.25
434.509	554.25
434.731	540.25
434.953	556.25
435.175	576.25
435.397	597.25
435.618	606.25
435.84	607.25
436.062	714.25
436.284	804.25
436.505	649.25
436.727	626.25
436.949	572.25
437.17	559.25
437.392	549.25
437.614	551.25
437.835	613.25
438.057	656.25
438.278	758.25
438.5	787.25
438.721	872.25
438.943	813.25
439.165	649.25
439.386	618.25
439.608	598.25
439.829	600.25
440.05	614.25
440.272	640.25
440.493	630.25
440.715	601.25
440.936	570.25
441.158	561.25
441.379	554.25
441.6	568.25
441.822	608.25
442.043	639.25
442.264	704.25
442.486	780.25
442.707	646.25
442.928	618.25
443.149	615.25
443.371	653.25
443.592	655.25
443.813	759.25
444.034	829.25
444.255	710.25
444.476	644.25
444.698	601.25
444.919	628.25
445.14	722.25
445.361	702.25
445.582	666.25
445.803	691.25
446.024	781.25
446.245	795.25
446.466	739.25
446.687	621.25
446.908	596.25
447.129	570.25
447.35	559.25
447.571	546.25
447.792	539.25
448.013	565.25
448.234	556.25
448.455	607.25
448.675	710.25
448.896	844.25
449.117	694.25
449.338	690.25
449.559	770.25
449.779	879.25
450	722.25
450.221	611.25
450.442	535.25
450.662	519.25
450.883	523.25
451.104	527.25
451.324	534.25
451.545	504.25
451.766	521.25
451.986	502.25
452.207	469.25
452.428	482.25
452.648	483.25
452.869	472.25
453.089	473.25
453.31	488.25
453.53	489.25
453.751	483.25
453.971	459.25
454.192	487.25
454.412	482.25
454.633	491.25
454.853	498.25
455.073	499.25
455.294	505.25
455.514	562.25
455.734	549.25
455.955	488.25
456.175	460.25
456.395	459.25
456.616	445.25
456.836	468.25
457.056	468.25
457.276	430.25
457.497	458.25
457.717	469.25
457.937	482.25
458.157	483.25
458.377	487.25
458.598	511.25
458.818	550.25
459.038	628.25
459.258	615.25
459.478	556.25
459.698	536.25
459.918	529.25
460.138	542.25
460.358	572.25
460.578	555.25
460.798	566.25
461.018	559.25
461.238	562.25
461.458	551.25
461.678	524.25
461.898	569.25
462.118	551.25
462.338	563.25
462.558	586.25
462.777	583.25
462.997	626.25
463.217	626.25
463.437	639.25
463.657	626.25
463.876	603.25
464.096	623.25
464.316	601.25
464.536	620.25
464.755	589.25
464.975	626.25
465.195	599.25
465.414	644.25
465.634	620.25
465.854	554.25
466.073	520.25
466.293	520.25
466.512	527.25
466.732	508.25
466.951	495.25
467.171	498.25
467.391	515.25
467.61	499.25
467.829	517.25
468.049	522.25
468.268	521.25
468.488	501.25
468.707	468.25
468.927	498.25
469.146	506.25
469.365	491.25
469.585	522.25
469.804	494.25
470.023	526.25
470.243	522.25
470.462	539.25
470.681	526.25
470.901	526.25
471.12	527.25
471.339	500.25
471.558	507.25
471.777	526.25
471.997	484.25
472.216	518.25
472.435	562.25
472.654	543.25
472.873	514.25
473.092	490.25
473.311	484.25
473.53	495.25
473.749	526.25
473.968	555.25
474.187	656.25
474.406	656.25
474.625	565.25
474.844	534.25
475.063	511.25
475.282	514.25
475.501	533.25
475.72	527.25
475.939	540.25
476.158	518.25
476.377	534.25
476.596	543.25
476.814	534.25
477.033	545.25
477.252	539.25
477.471	532.25
477.69	544.25
477.908	569.25
478.127	586.25
478.346	560.25
478.564	582.25
478.783	596.25
479.002	611.25
479.22	585.25
479.439	616.25
479.658	602.25
479.876	602.25
480.095	620.25
480.313	650.25
480.532	626.25
480.751	645.25
480.969	635.25
481.188	696.25
481.406	702.25
481.624	634.25
481.843	630.25
482.061	618.25
482.28	604.25
482.498	587.25
482.717	597.25
482.935	606.25
483.153	610.25
483.372	632.25
483.59	583.25
483.808	586.25
484.027	593.25
484.245	608.25
484.463	605.25
484.681	637.25
484.9	616.25
485.118	617.25
485.336	619.25
485.554	621.25
485.772	620.25
485.99	622.25
486.209	614.25
486.427	641.25
486.645	638.25
486.863	644.25
487.081	640.25
487.299	630.25
487.517	643.25
487.735	640.25
487.953	643.25
488.171	623.25
488.389	642.25
488.607	647.25
488.825	637.25
489.043	652.25
489.261	654.25
489.479	652.25
489.696	640.25
489.914	649.25
490.132	664.25
490.35	683.25
490.568	684.25
490.786	698.25
491.003	702.25
491.221	727.25
491.439	733.25
491.657	724.25
491.874	739.25
492.092	728.25
492.31	739.25
492.527	740.25
492.745	763.25
492.963	735.25
493.18	774.25
493.398	754.25
493.615	762.25
493.833	755.25
494.05	751.25
494.268	773.25
494.485	771.25
494.703	756.25
494.92	745.25
495.138	772.25
495.355	757.25
495.573	764.25
495.79	750.25
496.008	764.25
496.225	748.25
496.442	771.25
496.66	790.25
496.877	765.25
497.094	764.25
497.312	787.25
497.529	810.25
497.746	795.25
497.963	801.25
498.181	845.25
498.398	853.25
498.615	872.25
498.832	871.25
499.049	929.25
499.267	944.25
499.484	980.25
499.701	1040.25
499.918	1091.25
500.135	1121.25
500.352	1214.25
500.569	1226.25
500.786	1228.25
501.003	1224.25
501.22	1158.25
501.437	1101.25
501.654	1038.25
501.871	1020.25
502.088	967.25
502.305	941.25
502.522	912.25
502.739	858.25
502.956	836.25
503.172	820.25
503.389	804.25
503.606	822.25
503.823	800.25
504.04	792.25
504.256	800.25
504.473	772.25
504.69	758.25
504.907	788.25
505.123	774.25
505.34	731.25
505.557	724.25
505.773	737.25
505.99	734.25
506.207	698.25
506.423	710.25
506.64	734.25
506.856	710.25
507.073	688.25
507.289	704.25
507.506	684.25
507.722	677.25
507.939	728.25
508.155	676.25
508.372	686.25
508.588	667.25
508.805	669.25
509.021	657.25
509.238	667.25
509.454	679.25
509.67	672.25
509.887	665.25
510.103	653.25
510.319	677.25
510.536	714.25
510.752	1040.25
510.968	880.25
511.184	677.25
511.401	648.25
511.617	643.25
511.833	616.25
512.049	608.25
512.265	640.25
512.481	622.25
512.698	624.25
512.914	617.25
513.13	610.25
513.346	623.25
513.562	634.25
513.778	630.25
513.994	640.25
514.21	654.25
514.426	654.25
514.642	675.25
514.858	681.25
515.074	712.25
515.29	815.25
515.506	1030.25
515.721	897.25
515.937	712.25
516.153	677.25
516.369	671.25
516.585	661.25
516.801	668.25
517.016	674.25
517.232	666.25
517.448	699.25
517.664	705.25
517.879	688.25
518.095	674.25
518.311	677.25
518.527	684.25
518.742	643.25
518.958	654.25
519.173	644.25
519.389	639.25
519.605	635.25
519.82	637.25
520.036	642.25
520.251	639.25
520.467	660.25
520.682	676.25
520.898	644.25
521.113	652.25
521.329	683.25
521.544	710.25
521.76	843.25
521.975	1238.25
522.19	1236.25
522.406	774.25
522.621	670.25
522.836	610.25
523.052	598.25
523.267	586.25
523.482	589.25
523.698	568.25
523.913	570.25
524.128	562.25
524.343	539.25
524.559	565.25
524.774	534.25
524.989	541.25
525.204	540.25
525.419	552.25
525.634	525.25
525.849	552.25
526.064	535.25
526.28	524.25
526.495	516.25
526.71	492.25
526.925	518.25
527.14	489.25
527.355	524.25
527.57	508.25
527.785	527.25
527.999	510.25
528.214	534.25
528.429	538.25
528.644	510.25
528.859	519.25
529.074	534.25
529.289	511.25
529.503	573.25
529.718	565.25
529.933	549.25
530.148	526.25
530.363	531.25
530.577	520.25
530.792	526.25
531.007	521.25
531.221	518.25
531.436	495.25
531.651	511.25
531.865	518.25
532.08	492.25
532.295	528.25
532.509	503.25
532.724	496.25
532.938	532.25
533.153	503.25
533.367	511.25
533.582	513.25
533.796	525.25
534.011	502.25
534.225	495.25
534.44	509.25
534.654	502.25
534.868	471.25
535.083	480.25
535.297	485.25
535.511	492.25
535.726	509.25
535.94	517.25
536.154	514.25
536.369	507.25
536.583	502.25
536.797	492.25
537.011	490.25
537.225	462.25
537.44	492.25
537.654	476.25
537.868	497.25
538.082	506.25
538.296	490.25
538.51	491.25
538.724	495.25
538.938	480.25
539.153	490.25
539.367	458.25
539.581	478.25
539.795	475.25
540.009	490.25
540.222	500.25
540.436	476.25
540.65	459.25
540.864	485.25
541.078	497.25
541.292	484.25
541.506	477.25
541.72	491.25
541.934	485.25
542.147	487.25
542.361	500.25
542.575	493.25
542.789	491.25
543.002	488.25
543.216	470.25
543.43	493.25
543.644	499.25
543.857	490.25
544.071	487.25
544.285	485.25
544.498	496.25
544.712	490.25
544.925	489.25
545.139	480.25
545.352	471.25
545.566	477.25
545.779	481.25
545.993	474.25
546.206	509.25
546.42	447.25
546.633	459.25
546.847	495.25
547.06	479.25
547.274	472.25
547.487	452.25
547.7	472.25
547.914	472.25
548.127	470.25
548.34	477.25
548.554	442.25
548.767	466.25
548.98	477.25
549.193	484.25
549.407	464.25
549.62	477.25
549.833	460.25
550.046	476.25
550.259	458.25
550.473	465.25
550.686	466.25
550.899	485.25
551.112	448.25
551.325	470.25
551.538	467.25
551.751	450.25
551.964	460.25
552.177	483.25
552.39	479.25
552.603	486.25
552.816	486.25
553.029	492.25
553.242	498.25
553.455	489.25
553.667	500.25
553.88	494.25
554.093	489.25
554.306	490.25
554.519	484.25
554.732	483.25
554.944	469.25
555.157	458.25
555.37	454.25
555.583	447.25
555.795	462.25
556.008	446.25
556.221	431.25
556.433	452.25
556.646	444.25
556.859	460.25
557.071	423.25
557.284	414.25
557.496	447.25
557.709	450.25
557.921	447.25
558.134	438.25
558.346	460.25
558.559	434.25
558.771	398.25
558.984	408.25
559.196	424.25
559.409	412.25
559.621	423.25
559.833	424.25
560.046	411.25
560.258	412.25
560.47	415.25
560.683	420.25
560.895	406.25
561.107	417.25
561.32	416.25
561.532	413.25
561.744	423.25
561.956	423.25
562.168	426.25
562.381	410.25
562.593	412.25
562.805	427.25
563.017	437.25
563.229	438.25
563.441	440.25
563.653	427.25
563.865	403.25
564.077	439.25
564.289	432.25
564.501	441.25
564.713	424.25
564.925	449.25
565.137	455.25
565.349	449.25
565.561	465.25
565.773	465.25
565.985	491.25
566.197	486.25
566.408	529.25
566.62	536.25
566.832	524.25
567.044	566.25
567.255	555.25
567.467	566.25
567.679	580.25
567.891	592.25
568.102	589.25
568.314	567.25
568.526	550.25
568.737	547.25
568.949	495.25
569.161	490.25
569.372	469.25
569.584	455.25
569.795	454.25
570.007	453.25
570.218	464.25
570.43	444.25
570.641	443.25
570.853	418.25
571.064	428.25
571.276	416.25
571.487	404.25
571.698	410.25
571.91	403.25
572.121	404.25
572.333	388.25
572.544	371.25
572.755	389.25
572.966	377.25
573.178	376.25
573.389	381.25
573.6	373.25
573.811	358.25
574.023	354.25
574.234	367.25
574.445	355.25
574.656	354.25
574.867	363.25
575.078	348.25
575.289	350.25
575.501	380.25
575.712	370.25
575.923	359.25
576.134	346.25
576.345	355.25
576.556	368.25
576.767	358.25
576.978	375.25
577.188	354.25
577.399	357.25
577.61	351.25
577.821	353.25
578.032	354.25
578.243	370.25
578.454	493.25
578.665	417.25
578.875	355.25
579.086	339.25
579.297	338.25
579.508	328.25
579.718	342.25
579.929	348.25
580.14	341.25
580.35	312.25
580.561	316.25
580.772	335.25
580.982	335.25
581.193	331.25
581.403	330.25
581.614	335.25
581.825	338.25
582.035	328.25
582.246	328.25
582.456	334.25
582.667	318.25
582.877	337.25
583.087	323.25
583.298	339.25
583.508	324.25
583.719	346.25
583.929	333.25
584.139	324.25
584.35	319.25
584.56	325.25
584.77	316.25
584.981	316.25
585.191	318.25
585.401	316.25
585.611	316.25
585.821	318.25
586.032	316.25
586.242	334.25
586.452	336.25
586.662	320.25
586.872	304.25
587.082	315.25
587.292	298.25
587.502	307.25
587.713	310.25
587.923	329.25
588.133	326.25
588.343	332.25
588.553	315.25
588.762	313.25
588.972	310.25
589.182	301.25
589.392	320.25
589.602	318.25
589.812	325.25
590.022	315.25
590.232	307.25
590.441	323.25
590.651	316.25
590.861	331.25
591.071	320.25
591.281	316.25
591.49	319.25
591.7	335.25
591.91	326.25
592.119	342.25
592.329	334.25
592.539	357.25
592.748	346.25
592.958	367.25
593.167	348.25
593.377	353.25
593.587	374.25
593.796	329.25
594.006	364.25
594.215	362.25
594.424	348.25
594.634	343.25
594.843	343.25
595.053	343.25
595.262	327.25
595.472	342.25
595.681	318.25
595.89	310.25
596.1	300.25
596.309	324.25
596.518	306.25
596.727	294.25
596.937	298.25
597.146	295.25
597.355	296.25
597.564	306.25
597.774	296.25
597.983	286.25
598.192	285.25
598.401	295.25
598.61	291.25
598.819	312.25
599.028	300.25
599.237	301.25
599.446	281.25
599.655	276.25
599.864	288.25
600.073	275.25
600.282	291.25
600.491	283.25
600.7	277.25
600.909	282.25
601.118	270.25
601.327	282.25
601.536	267.25
601.745	280.25
601.953	278.25
602.162	270.25
602.371	266.25
602.58	266.25
602.789	272.25
602.997	281.25
603.206	261.25
603.415	276.25
603.623	265.25
603.832	276.25
604.041	291.25
604.249	272.25
604.458	287.25
604.666	254.25
604.875	262.25
605.084	275.25
605.292	258.25
605.501	255.25
605.709	254.25
605.918	263.25
606.126	274.25
606.334	246.25
606.543	243.25
606.751	259.25
606.96	279.25
607.168	250.25
607.376	263.25
607.585	265.25
607.793	251.25
608.001	270.25
608.21	266.25
608.418	267.25
608.626	266.25
608.834	268.25
609.043	271.25
609.251	262.25
609.459	267.25
609.667	282.25
609.875	272.25
610.083	250.25
610.291	259.25
610.499	260.25
610.707	263.25
610.916	265.25
611.124	268.25
611.332	267.25
611.54	280.25
611.748	266.25
611.955	252.25
612.163	240.25
612.371	256.25
612.579	276.25
612.787	252.25
612.995	260.25
613.203	259.25
613.411	244.25
613.618	243.25
613.826	248.25
614.034	252.25
614.242	258.25
614.449	239.25
614.657	257.25
614.865	252.25
615.072	244.25
615.28	255.25
615.488	255.25
615.695	251.25
615.903	255.25
616.111	253.25
616.318	248.25
616.526	271.25
616.733	255.25
616.941	261.25
617.148	243.25
617.356	244.25
617.563	266.25
617.771	251.25
617.978	249.25
618.185	247.25
618.393	244.25
618.6	261.25
618.807	264.25
619.015	244.25
619.222	266.25
619.429	245.25
619.637	240.25
619.844	252.25
620.051	247.25
620.258	257.25
620.466	239.25
620.673	223.25
620.88	228.25
621.087	246.25
621.294	239.25
621.501	246.25
621.708	246.25
621.915	238.25
622.122	231.25
622.329	244.25
622.536	247.25
622.743	237.25
622.95	235.25
623.157	244.25
623.364	233.25
623.571	247.25
623.778	236.25
623.985	232.25
624.192	237.25
624.399	225.25
624.606	231.25
624.812	235.25
625.019	233.25
625.226	228.25
625.433	224.25
625.639	218.25
625.846	236.25
626.053	226.25
626.259	222.25
626.466	219.25
626.673	218.25
626.879	225.25
627.086	228.25
627.293	245.25
627.499	227.25
627.706	238.25
627.912	200.25
628.119	237.25
628.325	214.25
628.532	225.25
628.738	224.25
628.945	212.25
629.151	218.25
629.357	214.25
629.564	190.25
629.77	218.25
629.976	208.25
630.183	212.25
630.389	211.25
630.595	208.25
630.802	212.25
631.008	203.25
631.214	210.25
631.42	217.25
631.627	204.25
631.833	202.25
632.039	195.25
632.245	200.25
632.451	210.25
632.657	211.25
632.863	195.25
633.069	196.25
633.275	203.25
633.481	214.25
633.688	200.25
633.893	218.25
634.099	200.25
634.305	205.25
634.511	188.25
634.717	183.25
634.923	204.25
635.129	202.25
635.335	184.25
635.541	191.25
635.747	200.25
635.952	192.25
636.158	201.25
636.364	210.25
636.57	199.25
636.775	195.25
636.981	194.25
637.187	195.25
637.392	191.25
637.598	197.25
637.804	188.25
638.009	202.25
638.215	201.25
638.421	204.25
638.626	183.25
638.832	180.25
639.037	182.25
639.243	182.25
639.448	191.25
639.654	194.25
639.859	194.25
640.065	165.25
640.27	176.25
640.475	190.25
640.681	186.25
640.886	186.25
641.091	192.25
641.297	186.25
641.502	183.25
641.707	190.25
641.913	193.25
642.118	202.25
642.323	180.25
642.528	187.25
642.733	171.25
642.939	170.25
643.144	174.25
643.349	186.25
643.554	188.25
643.759	190.25
643.964	166.25
644.169	181.25
644.374	175.25
644.579	190.25
644.784	174.25
644.989	175.25
645.194	188.25
645.399	158.25
645.604	173.25
645.809	169.25
646.014	176.25
646.219	182.25
646.423	174.25
646.628	175.25
646.833	175.25
647.038	179.25
647.243	182.25
647.447	192.25
647.652	171.25
647.857	176.25
648.062	176.25
648.266	182.25
648.471	188.25
648.676	185.25
648.88	180.25
649.085	203.25
649.289	183.25
649.494	179.25
649.698	184.25
649.903	188.25
650.107	184.25
650.312	175.25
650.516	176.25
650.721	156.25
650.925	184.25
651.13	159.25
651.334	157.25
651.539	162.25
651.743	163.25
651.947	144.25
652.152	162.25
652.356	143.25
652.56	173.25
652.764	162.25
652.969	143.25
653.173	140.25
653.377	145.25
653.581	126.25
653.785	152.25
653.99	150.25
654.194	142.25
654.398	152.25
654.602	154.25
654.806	151.25
655.01	152.25
655.214	152.25
655.418	143.25
655.622	149.25
655.826	139.25
656.03	141.25
656.234	137.25
656.438	147.25
656.642	141.25
656.846	134.25
657.049	129.25
657.253	133.25
657.457	126.25
657.661	120.25
657.865	121.25
658.068	118.25
658.272	130.25
658.476	116.25
658.68	110.25
658.883	104.25
659.087	98.25
659.291	106.25
659.494	87.25
659.698	102.25
659.901	108.25
660.105	100.25
660.309	95.25
660.512	90.25
660.716	104.25
660.919	109.25
661.123	102.25
661.326	100.25
661.53	93.25
661.733	86.25
661.936	95.25
662.14	91.25
662.343	94.25
662.546	89.25
662.75	76.25
662.953	89.25
663.156	90.25
663.36	102.25
663.563	86.25
663.766	72.25
663.969	97.25
664.173	70.25
664.376	89.25
664.579	95.25
664.782	84.25
664.985	85.25
665.188	76.25
665.391	84.25
665.594	66.25
665.797	78.25
666	79.25
666.203	85.25
666.406	82.25
666.609	79.25
666.812	79.25
667.015	83.25
667.218	93.25
667.421	86.25
667.624	93.25
667.827	93.25
668.03	87.25
668.232	68.25
668.435	70.25
668.638	83.25
668.841	98.25
669.043	66.25
669.246	79.25
669.449	77.25
669.651	75.25
669.854	90.25
670.057	81.25
670.259	91.25
670.462	98.25
670.665	79.25
670.867	80.25
671.07	91.25
671.272	84.25
671.475	98.25
671.677	88.25
671.88	80.25
672.082	74.25
672.284	94.25
672.487	77.25
672.689	94.25
672.892	78.25
