Data from 1975.PennyLincolnUp.Lamp.En5.5.200Scan.071719.P1.Changed Mount._HRD10591_15-57-02-859.txt Node
Date: Thu Jul 18 15:57:02 EDT 2019
User: cochatt
Spectrometer: HR+D1059
Trigger mode: 1
Integration Time (sec): 1.000000E-1
Scans to average: 1
Electric dark correction enabled: true
Nonlinearity correction enabled: false
Boxcar width: 0
XAxis mode: Wavelengths
Number of Pixels in Spectrum: 2048
>>>>>Begin Spectral Data<<<<<
223.165	-2.19
223.4	-2.19
223.635	-2.19
223.869	-20.19
224.104	-18.19
224.338	-10.19
224.573	-9.19
224.808	-8.19
225.042	-20.19
225.277	-4.19
225.511	12.81
225.746	0.81
225.98	2.81
226.215	3.81
226.449	6.81
226.683	13.81
226.918	21.81
227.152	29.81
227.387	35.81
227.621	42.81
227.856	51.81
228.09	47.81
228.324	48.81
228.559	68.81
228.793	78.81
229.027	92.81
229.262	94.81
229.496	110.81
229.73	135.81
229.964	147.81
230.199	126.81
230.433	104.81
230.667	104.81
230.901	121.81
231.136	104.81
231.37	119.81
231.604	118.81
231.838	119.81
232.072	104.81
232.306	108.81
232.541	120.81
232.775	120.81
233.009	109.81
233.243	104.81
233.477	123.81
233.711	119.81
233.945	117.81
234.179	125.81
234.413	114.81
234.647	121.81
234.881	127.81
235.115	117.81
235.349	114.81
235.583	117.81
235.817	130.81
236.051	113.81
236.285	125.81
236.519	119.81
236.753	113.81
236.987	143.81
237.221	170.81
237.455	212.81
237.689	186.81
237.922	141.81
238.156	141.81
238.39	136.81
238.624	129.81
238.858	139.81
239.091	142.81
239.325	128.81
239.559	128.81
239.793	126.81
240.027	132.81
240.26	159.81
240.494	147.81
240.728	159.81
240.961	159.81
241.195	151.81
241.429	142.81
241.662	144.81
241.896	135.81
242.13	140.81
242.363	138.81
242.597	144.81
242.83	138.81
243.064	138.81
243.298	151.81
243.531	135.81
243.765	151.81
243.998	143.81
244.232	144.81
244.465	143.81
244.699	167.81
244.932	151.81
245.166	149.81
245.399	156.81
245.633	142.81
245.866	160.81
246.099	157.81
246.333	157.81
246.566	150.81
246.8	148.81
247.033	155.81
247.266	153.81
247.5	164.81
247.733	174.81
247.966	177.81
248.2	171.81
248.433	176.81
248.666	183.81
248.899	187.81
249.133	203.81
249.366	202.81
249.599	206.81
249.832	179.81
250.066	185.81
250.299	192.81
250.532	198.81
250.765	195.81
250.998	218.81
251.231	244.81
251.465	216.81
251.698	201.81
251.931	192.81
252.164	215.81
252.397	196.81
252.63	201.81
252.863	226.81
253.096	226.81
253.329	230.81
253.562	229.81
253.795	232.81
254.028	208.81
254.261	221.81
254.494	230.81
254.727	246.81
254.96	271.81
255.193	267.81
255.426	239.81
255.659	237.81
255.892	220.81
256.124	247.81
256.357	235.81
256.59	229.81
256.823	222.81
257.056	217.81
257.289	209.81
257.521	216.81
257.754	212.81
257.987	213.81
258.22	212.81
258.452	215.81
258.685	208.81
258.918	220.81
259.151	203.81
259.383	199.81
259.616	223.81
259.849	208.81
260.081	239.81
260.314	228.81
260.547	256.81
260.779	244.81
261.012	238.81
261.244	222.81
261.477	230.81
261.71	225.81
261.942	219.81
262.175	252.81
262.407	223.81
262.64	224.81
262.872	224.81
263.105	223.81
263.337	215.81
263.57	202.81
263.802	229.81
264.035	223.81
264.267	213.81
264.499	210.81
264.732	205.81
264.964	222.81
265.197	208.81
265.429	230.81
265.661	226.81
265.894	219.81
266.126	232.81
266.358	214.81
266.591	214.81
266.823	237.81
267.055	236.81
267.287	227.81
267.52	225.81
267.752	235.81
267.984	238.81
268.216	233.81
268.448	230.81
268.681	241.81
268.913	243.81
269.145	257.81
269.377	283.81
269.609	284.81
269.841	256.81
270.073	256.81
270.306	288.81
270.538	309.81
270.77	301.81
271.002	297.81
271.234	295.81
271.466	297.81
271.698	324.81
271.93	332.81
272.162	314.81
272.394	319.81
272.626	320.81
272.858	270.81
273.09	276.81
273.322	286.81
273.553	275.81
273.785	287.81
274.017	247.81
274.249	289.81
274.481	275.81
274.713	254.81
274.945	267.81
275.176	263.81
275.408	273.81
275.64	256.81
275.872	266.81
276.104	269.81
276.335	272.81
276.567	251.81
276.799	295.81
277.031	309.81
277.262	329.81
277.494	315.81
277.726	313.81
277.957	285.81
278.189	286.81
278.421	271.81
278.652	279.81
278.884	281.81
279.115	261.81
279.347	262.81
279.579	273.81
279.81	289.81
280.042	259.81
280.273	291.81
280.505	261.81
280.736	273.81
280.968	273.81
281.199	276.81
281.431	286.81
281.662	280.81
281.894	284.81
282.125	291.81
282.356	295.81
282.588	292.81
282.819	295.81
283.051	297.81
283.282	272.81
283.513	294.81
283.745	295.81
283.976	288.81
284.207	310.81
284.439	302.81
284.67	292.81
284.901	298.81
285.132	305.81
285.364	276.81
285.595	292.81
285.826	280.81
286.057	275.81
286.288	281.81
286.52	264.81
286.751	274.81
286.982	287.81
287.213	276.81
287.444	298.81
287.675	302.81
287.906	312.81
288.138	327.81
288.369	317.81
288.6	315.81
288.831	307.81
289.062	309.81
289.293	309.81
289.524	284.81
289.755	303.81
289.986	293.81
290.217	287.81
290.448	295.81
290.679	297.81
290.91	308.81
291.141	295.81
291.371	296.81
291.602	282.81
291.833	303.81
292.064	316.81
292.295	303.81
292.526	295.81
292.757	289.81
292.987	293.81
293.218	294.81
293.449	314.81
293.68	302.81
293.91	284.81
294.141	288.81
294.372	298.81
294.603	314.81
294.833	307.81
295.064	301.81
295.295	300.81
295.525	314.81
295.756	309.81
295.987	310.81
296.217	315.81
296.448	317.81
296.679	322.81
296.909	315.81
297.14	317.81
297.37	318.81
297.601	325.81
297.831	301.81
298.062	321.81
298.292	328.81
298.523	301.81
298.753	316.81
298.984	303.81
299.214	320.81
299.445	337.81
299.675	317.81
299.905	317.81
300.136	321.81
300.366	326.81
300.597	319.81
300.827	337.81
301.057	342.81
301.288	343.81
301.518	326.81
301.748	317.81
301.979	341.81
302.209	329.81
302.439	331.81
302.669	342.81
302.9	350.81
303.13	335.81
303.36	348.81
303.59	348.81
303.82	347.81
304.051	357.81
304.281	335.81
304.511	344.81
304.741	336.81
304.971	319.81
305.201	330.81
305.431	327.81
305.661	347.81
305.891	346.81
306.121	353.81
306.352	350.81
306.582	320.81
306.812	331.81
307.042	339.81
307.272	325.81
307.502	341.81
307.731	329.81
307.961	342.81
308.191	333.81
308.421	336.81
308.651	347.81
308.881	335.81
309.111	322.81
309.341	339.81
309.571	355.81
309.8	361.81
310.03	375.81
310.26	384.81
310.49	373.81
310.72	377.81
310.949	380.81
311.179	397.81
311.409	389.81
311.639	363.81
311.868	368.81
312.098	381.81
312.328	373.81
312.557	390.81
312.787	421.81
313.017	416.81
313.246	393.81
313.476	371.81
313.706	389.81
313.935	382.81
314.165	389.81
314.394	407.81
314.624	400.81
314.853	389.81
315.083	393.81
315.312	395.81
315.542	385.81
315.771	375.81
316.001	392.81
316.23	370.81
316.46	365.81
316.689	368.81
316.919	389.81
317.148	383.81
317.377	379.81
317.607	383.81
317.836	392.81
318.065	371.81
318.295	367.81
318.524	395.81
318.753	375.81
318.983	380.81
319.212	363.81
319.441	379.81
319.67	395.81
319.9	383.81
320.129	376.81
320.358	381.81
320.587	385.81
320.816	385.81
321.046	366.81
321.275	396.81
321.504	389.81
321.733	391.81
321.962	395.81
322.191	415.81
322.42	417.81
322.649	438.81
322.878	429.81
323.108	426.81
323.337	452.81
323.566	452.81
323.795	481.81
324.024	515.81
324.253	599.81
324.482	805.81
324.71	1214.81
324.939	1805.81
325.168	1578.81
325.397	826.81
325.626	577.81
325.855	479.81
326.084	481.81
326.313	483.81
326.542	468.81
326.77	503.81
326.999	554.81
327.228	737.81
327.457	1086.81
327.686	1361.81
327.914	925.81
328.143	614.81
328.372	561.81
328.6	540.81
328.829	507.81
329.058	531.81
329.287	507.81
329.515	502.81
329.744	473.81
329.972	483.81
330.201	502.81
330.43	545.81
330.658	535.81
330.887	543.81
331.115	549.81
331.344	501.81
331.572	478.81
331.801	486.81
332.03	499.81
332.258	481.81
332.486	454.81
332.715	459.81
332.943	476.81
333.172	461.81
333.4	452.81
333.629	480.81
333.857	471.81
334.085	500.81
334.314	524.81
334.542	544.81
334.771	545.81
334.999	492.81
335.227	497.81
335.455	474.81
335.684	475.81
335.912	447.81
336.14	447.81
336.369	455.81
336.597	464.81
336.825	457.81
337.053	469.81
337.281	447.81
337.51	464.81
337.738	449.81
337.966	463.81
338.194	454.81
338.422	457.81
338.65	443.81
338.878	446.81
339.106	444.81
339.334	451.81
339.562	439.81
339.79	439.81
340.018	424.81
340.246	454.81
340.474	435.81
340.702	438.81
340.93	424.81
341.158	438.81
341.386	437.81
341.614	423.81
341.842	426.81
342.07	451.81
342.298	428.81
342.526	446.81
342.754	420.81
342.981	434.81
343.209	436.81
343.437	440.81
343.665	449.81
343.893	465.81
344.12	455.81
344.348	473.81
344.576	463.81
344.804	458.81
345.031	452.81
345.259	440.81
345.487	447.81
345.714	446.81
345.942	430.81
346.17	424.81
346.397	435.81
346.625	428.81
346.853	437.81
347.08	405.81
347.308	420.81
347.535	427.81
347.763	427.81
347.99	428.81
348.218	413.81
348.445	423.81
348.673	427.81
348.9	414.81
349.128	423.81
349.355	409.81
349.583	406.81
349.81	401.81
350.037	405.81
350.265	419.81
350.492	400.81
350.72	411.81
350.947	410.81
351.174	413.81
351.402	415.81
351.629	417.81
351.856	417.81
352.083	424.81
352.311	435.81
352.538	429.81
352.765	413.81
352.992	421.81
353.22	418.81
353.447	424.81
353.674	424.81
353.901	420.81
354.128	413.81
354.355	408.81
354.583	400.81
354.81	409.81
355.037	401.81
355.264	397.81
355.491	391.81
355.718	401.81
355.945	398.81
356.172	388.81
356.399	416.81
356.626	416.81
356.853	395.81
357.08	400.81
357.307	396.81
357.534	391.81
357.761	402.81
357.988	399.81
358.215	395.81
358.441	396.81
358.668	414.81
358.895	408.81
359.122	399.81
359.349	432.81
359.576	423.81
359.802	416.81
360.029	439.81
360.256	465.81
360.483	454.81
360.709	416.81
360.936	425.81
361.163	417.81
361.39	414.81
361.616	428.81
361.843	420.81
362.07	420.81
362.296	427.81
362.523	419.81
362.749	413.81
362.976	440.81
363.203	408.81
363.429	403.81
363.656	421.81
363.882	414.81
364.109	415.81
364.335	402.81
364.562	431.81
364.788	413.81
365.015	414.81
365.241	390.81
365.468	396.81
365.694	409.81
365.92	412.81
366.147	397.81
366.373	414.81
366.599	411.81
366.826	404.81
367.052	433.81
367.278	417.81
367.505	412.81
367.731	423.81
367.957	400.81
368.184	409.81
368.41	406.81
368.636	435.81
368.862	431.81
369.089	415.81
369.315	409.81
369.541	422.81
369.767	417.81
369.993	418.81
370.219	414.81
370.445	413.81
370.672	393.81
370.898	429.81
371.124	418.81
371.35	414.81
371.576	439.81
371.802	421.81
372.028	421.81
372.254	423.81
372.48	445.81
372.706	408.81
372.932	429.81
373.158	425.81
373.384	417.81
373.61	415.81
373.835	433.81
374.061	441.81
374.287	438.81
374.513	437.81
374.739	436.81
374.965	431.81
375.191	435.81
375.416	435.81
375.642	426.81
375.868	446.81
376.094	430.81
376.319	432.81
376.545	420.81
376.771	436.81
376.997	439.81
377.222	414.81
377.448	417.81
377.674	451.81
377.899	413.81
378.125	432.81
378.35	432.81
378.576	422.81
378.802	402.81
379.027	413.81
379.253	413.81
379.478	415.81
379.704	418.81
379.929	423.81
380.155	409.81
380.38	421.81
380.606	435.81
380.831	411.81
381.057	423.81
381.282	415.81
381.507	437.81
381.733	436.81
381.958	412.81
382.184	429.81
382.409	431.81
382.634	425.81
382.86	436.81
383.085	430.81
383.31	448.81
383.535	447.81
383.761	421.81
383.986	451.81
384.211	437.81
384.436	443.81
384.662	459.81
384.887	457.81
385.112	460.81
385.337	457.81
385.562	482.81
385.787	488.81
386.013	482.81
386.238	482.81
386.463	476.81
386.688	485.81
386.913	463.81
387.138	472.81
387.363	476.81
387.588	466.81
387.813	477.81
388.038	442.81
388.263	473.81
388.488	474.81
388.713	482.81
388.938	497.81
389.163	501.81
389.387	494.81
389.612	484.81
389.837	463.81
390.062	469.81
390.287	461.81
390.512	473.81
390.736	473.81
390.961	447.81
391.186	467.81
391.411	474.81
391.636	455.81
391.86	505.81
392.085	501.81
392.31	519.81
392.534	501.81
392.759	484.81
392.984	486.81
393.208	474.81
393.433	490.81
393.658	475.81
393.882	476.81
394.107	452.81
394.331	466.81
394.556	496.81
394.78	479.81
395.005	480.81
395.229	507.81
395.454	501.81
395.678	480.81
395.903	522.81
396.127	523.81
396.352	533.81
396.576	501.81
396.801	504.81
397.025	492.81
397.249	477.81
397.474	524.81
397.698	510.81
397.922	523.81
398.147	544.81
398.371	565.81
398.595	527.81
398.82	525.81
399.044	554.81
399.268	588.81
399.492	634.81
399.717	673.81
399.941	675.81
400.165	699.81
400.389	678.81
400.613	636.81
400.837	601.81
401.062	565.81
401.286	566.81
401.51	563.81
401.734	536.81
401.958	540.81
402.182	547.81
402.406	545.81
402.63	558.81
402.854	586.81
403.078	575.81
403.302	584.81
403.526	581.81
403.75	588.81
403.974	569.81
404.198	566.81
404.422	601.81
404.645	592.81
404.869	599.81
405.093	622.81
405.317	664.81
405.541	707.81
405.765	632.81
405.988	622.81
406.212	606.81
406.436	600.81
406.66	642.81
406.883	631.81
407.107	652.81
407.331	681.81
407.555	743.81
407.778	735.81
408.002	680.81
408.226	669.81
408.449	629.81
408.673	633.81
408.896	646.81
409.12	670.81
409.344	634.81
409.567	601.81
409.791	594.81
410.014	557.81
410.238	590.81
410.461	583.81
410.685	578.81
410.908	592.81
411.132	617.81
411.355	655.81
411.578	623.81
411.802	585.81
412.025	563.81
412.249	581.81
412.472	592.81
412.695	643.81
412.919	637.81
413.142	581.81
413.365	585.81
413.589	589.81
413.812	552.81
414.035	547.81
414.258	542.81
414.482	551.81
414.705	554.81
414.928	540.81
415.151	546.81
415.374	545.81
415.597	536.81
415.821	538.81
416.044	537.81
416.267	552.81
416.49	539.81
416.713	529.81
416.936	582.81
417.159	555.81
417.382	545.81
417.605	543.81
417.828	551.81
418.051	575.81
418.274	549.81
418.497	551.81
418.72	556.81
418.943	542.81
419.166	557.81
419.389	593.81
419.611	578.81
419.834	598.81
420.057	563.81
420.28	569.81
420.503	562.81
420.726	577.81
420.948	599.81
421.171	604.81
421.394	631.81
421.617	579.81
421.839	571.81
422.062	573.81
422.285	561.81
422.507	591.81
422.73	725.81
422.953	663.81
423.175	628.81
423.398	613.81
423.621	593.81
423.843	588.81
424.066	615.81
424.288	592.81
424.511	629.81
424.733	680.81
424.956	761.81
425.178	710.81
425.401	701.81
425.623	761.81
425.846	640.81
426.068	607.81
426.291	597.81
426.513	582.81
426.735	603.81
426.958	647.81
427.18	696.81
427.402	848.81
427.625	940.81
427.847	779.81
428.069	728.81
428.292	636.81
428.514	585.81
428.736	581.81
428.958	570.81
429.181	569.81
429.403	535.81
429.625	564.81
429.847	585.81
430.069	637.81
430.292	639.81
430.514	544.81
430.736	544.81
430.958	526.81
431.18	537.81
431.402	544.81
431.624	533.81
431.846	532.81
432.068	497.81
432.29	535.81
432.512	517.81
432.734	521.81
432.956	540.81
433.178	529.81
433.4	541.81
433.622	545.81
433.844	512.81
434.066	542.81
434.287	525.81
434.509	543.81
434.731	531.81
434.953	551.81
435.175	567.81
435.397	622.81
435.618	591.81
435.84	627.81
436.062	726.81
436.284	789.81
436.505	655.81
436.727	604.81
436.949	577.81
437.17	536.81
437.392	550.81
437.614	571.81
437.835	586.81
438.057	656.81
438.278	776.81
438.5	751.81
438.721	851.81
438.943	810.81
439.165	637.81
439.386	596.81
439.608	588.81
439.829	591.81
440.05	614.81
440.272	664.81
440.493	633.81
440.715	595.81
440.936	567.81
441.158	565.81
441.379	560.81
441.6	551.81
441.822	589.81
442.043	630.81
442.264	716.81
442.486	767.81
442.707	652.81
442.928	610.81
443.149	616.81
443.371	631.81
443.592	650.81
443.813	759.81
444.034	814.81
444.255	680.81
444.476	630.81
444.698	615.81
444.919	616.81
445.14	736.81
445.361	688.81
445.582	646.81
445.803	700.81
446.024	785.81
446.245	793.81
446.466	715.81
446.687	642.81
446.908	586.81
447.129	571.81
447.35	559.81
447.571	555.81
447.792	499.81
448.013	535.81
448.234	547.81
448.455	613.81
448.675	708.81
448.896	831.81
449.117	689.81
449.338	673.81
449.559	765.81
449.779	889.81
450	676.81
450.221	581.81
450.442	558.81
450.662	558.81
450.883	543.81
451.104	548.81
451.324	539.81
451.545	523.81
451.766	480.81
451.986	490.81
452.207	482.81
452.428	489.81
452.648	506.81
452.869	511.81
453.089	484.81
453.31	487.81
453.53	495.81
453.751	485.81
453.971	503.81
454.192	496.81
454.412	475.81
454.633	489.81
454.853	485.81
455.073	477.81
455.294	487.81
455.514	551.81
455.734	546.81
455.955	490.81
456.175	459.81
456.395	449.81
456.616	453.81
456.836	464.81
457.056	458.81
457.276	453.81
457.497	453.81
457.717	472.81
457.937	473.81
458.157	485.81
458.377	470.81
458.598	489.81
458.818	545.81
459.038	597.81
459.258	621.81
459.478	559.81
459.698	543.81
459.918	527.81
460.138	531.81
460.358	537.81
460.578	542.81
460.798	551.81
461.018	550.81
461.238	559.81
461.458	553.81
461.678	538.81
461.898	571.81
462.118	581.81
462.338	558.81
462.558	573.81
462.777	565.81
462.997	582.81
463.217	618.81
463.437	630.81
463.657	605.81
463.876	589.81
464.096	589.81
464.316	593.81
464.536	611.81
464.755	580.81
464.975	563.81
465.195	611.81
465.414	639.81
465.634	585.81
465.854	555.81
466.073	511.81
466.293	527.81
466.512	495.81
466.732	508.81
466.951	515.81
467.171	505.81
467.391	495.81
467.61	501.81
467.829	509.81
468.049	519.81
468.268	527.81
468.488	502.81
468.707	492.81
468.927	489.81
469.146	488.81
469.365	472.81
469.585	478.81
469.804	519.81
470.023	506.81
470.243	528.81
470.462	518.81
470.681	512.81
470.901	515.81
471.12	512.81
471.339	507.81
471.558	507.81
471.777	510.81
471.997	492.81
472.216	533.81
472.435	538.81
472.654	542.81
472.873	507.81
473.092	495.81
473.311	486.81
473.53	512.81
473.749	507.81
473.968	551.81
474.187	634.81
474.406	663.81
474.625	551.81
474.844	522.81
475.063	512.81
475.282	510.81
475.501	509.81
475.72	523.81
475.939	506.81
476.158	511.81
476.377	517.81
476.596	513.81
476.814	532.81
477.033	552.81
477.252	550.81
477.471	530.81
477.69	548.81
477.908	549.81
478.127	551.81
478.346	564.81
478.564	559.81
478.783	603.81
479.002	573.81
479.22	599.81
479.439	606.81
479.658	603.81
479.876	619.81
480.095	622.81
480.313	640.81
480.532	645.81
480.751	619.81
480.969	643.81
481.188	681.81
481.406	730.81
481.624	666.81
481.843	607.81
482.061	591.81
482.28	619.81
482.498	619.81
482.717	598.81
482.935	583.81
483.153	596.81
483.372	592.81
483.59	601.81
483.808	591.81
484.027	593.81
484.245	590.81
484.463	588.81
484.681	615.81
484.9	600.81
485.118	607.81
485.336	604.81
485.554	597.81
485.772	606.81
485.99	630.81
486.209	608.81
486.427	630.81
486.645	627.81
486.863	627.81
487.081	606.81
487.299	649.81
487.517	610.81
487.735	655.81
487.953	635.81
488.171	630.81
488.389	629.81
488.607	660.81
488.825	635.81
489.043	641.81
489.261	636.81
489.479	641.81
489.696	642.81
489.914	623.81
490.132	675.81
490.35	643.81
490.568	677.81
490.786	672.81
491.003	696.81
491.221	701.81
491.439	701.81
491.657	720.81
491.874	731.81
492.092	750.81
492.31	740.81
492.527	728.81
492.745	741.81
492.963	751.81
493.18	752.81
493.398	756.81
493.615	771.81
493.833	776.81
494.05	766.81
494.268	757.81
494.485	751.81
494.703	723.81
494.92	743.81
495.138	763.81
495.355	742.81
495.573	767.81
495.79	732.81
496.008	757.81
496.225	731.81
496.442	785.81
496.66	740.81
496.877	753.81
497.094	761.81
497.312	777.81
497.529	781.81
497.746	794.81
497.963	839.81
498.181	816.81
498.398	847.81
498.615	856.81
498.832	858.81
499.049	890.81
499.267	968.81
499.484	966.81
499.701	1027.81
499.918	1055.81
500.135	1118.81
500.352	1171.81
500.569	1217.81
500.786	1213.81
501.003	1169.81
501.22	1115.81
501.437	1075.81
501.654	1076.81
501.871	982.81
502.088	947.81
502.305	916.81
502.522	879.81
502.739	877.81
502.956	832.81
503.172	823.81
503.389	795.81
503.606	801.81
503.823	760.81
504.04	775.81
504.256	777.81
504.473	765.81
504.69	749.81
504.907	773.81
505.123	747.81
505.34	727.81
505.557	764.81
505.773	731.81
505.99	697.81
506.207	721.81
506.423	704.81
506.64	725.81
506.856	698.81
507.073	688.81
507.289	704.81
507.506	691.81
507.722	686.81
507.939	716.81
508.155	698.81
508.372	667.81
508.588	658.81
508.805	637.81
509.021	669.81
509.238	675.81
509.454	697.81
509.67	671.81
509.887	667.81
510.103	650.81
510.319	674.81
510.536	732.81
510.752	1056.81
510.968	892.81
511.184	645.81
511.401	630.81
511.617	622.81
511.833	614.81
512.049	595.81
512.265	633.81
512.481	631.81
512.698	632.81
512.914	610.81
513.13	601.81
513.346	591.81
513.562	621.81
513.778	621.81
513.994	631.81
514.21	614.81
514.426	641.81
514.642	677.81
514.858	689.81
515.074	715.81
515.29	775.81
515.506	1051.81
515.721	919.81
515.937	710.81
516.153	691.81
516.369	639.81
516.585	639.81
516.801	668.81
517.016	635.81
517.232	687.81
517.448	674.81
517.664	691.81
517.879	661.81
518.095	684.81
518.311	663.81
518.527	653.81
518.742	661.81
518.958	633.81
519.173	653.81
519.389	632.81
519.605	633.81
519.82	656.81
520.036	639.81
520.251	640.81
520.467	666.81
520.682	654.81
520.898	648.81
521.113	661.81
521.329	682.81
521.544	742.81
521.76	851.81
521.975	1289.81
522.19	1296.81
522.406	783.81
522.621	653.81
522.836	605.81
523.052	599.81
523.267	595.81
523.482	570.81
523.698	584.81
523.913	567.81
524.128	559.81
524.343	564.81
524.559	543.81
524.774	549.81
524.989	536.81
525.204	551.81
525.419	538.81
525.634	550.81
525.849	541.81
526.064	536.81
526.28	524.81
526.495	526.81
526.71	528.81
526.925	507.81
527.14	511.81
527.355	500.81
527.57	535.81
527.785	536.81
527.999	522.81
528.214	521.81
528.429	527.81
528.644	537.81
528.859	507.81
529.074	523.81
529.289	531.81
529.503	578.81
529.718	559.81
529.933	547.81
530.148	542.81
530.363	502.81
530.577	518.81
530.792	533.81
531.007	497.81
531.221	491.81
531.436	507.81
531.651	492.81
531.865	505.81
532.08	495.81
532.295	504.81
532.509	489.81
532.724	497.81
532.938	491.81
533.153	505.81
533.367	509.81
533.582	504.81
533.796	502.81
534.011	506.81
534.225	504.81
534.44	495.81
534.654	493.81
534.868	490.81
535.083	502.81
535.297	494.81
535.511	495.81
535.726	511.81
535.94	479.81
536.154	485.81
536.369	494.81
536.583	478.81
536.797	503.81
537.011	500.81
537.225	479.81
537.44	473.81
537.654	495.81
537.868	497.81
538.082	480.81
538.296	475.81
538.51	479.81
538.724	476.81
538.938	480.81
539.153	465.81
539.367	479.81
539.581	496.81
539.795	469.81
540.009	485.81
540.222	480.81
540.436	474.81
540.65	481.81
540.864	452.81
541.078	497.81
541.292	482.81
541.506	485.81
541.72	485.81
541.934	501.81
542.147	485.81
542.361	496.81
542.575	466.81
542.789	480.81
543.002	465.81
543.216	471.81
543.43	479.81
543.644	479.81
543.857	520.81
544.071	516.81
544.285	504.81
544.498	491.81
544.712	489.81
544.925	486.81
545.139	488.81
545.352	486.81
545.566	507.81
545.779	479.81
545.993	478.81
546.206	479.81
546.42	478.81
546.633	483.81
546.847	474.81
547.06	468.81
547.274	477.81
547.487	476.81
547.7	480.81
547.914	448.81
548.127	478.81
548.34	471.81
548.554	484.81
548.767	465.81
548.98	472.81
549.193	486.81
549.407	473.81
549.62	485.81
549.833	474.81
550.046	443.81
550.259	471.81
550.473	490.81
550.686	469.81
550.899	471.81
551.112	455.81
551.325	468.81
551.538	452.81
551.751	477.81
551.964	477.81
552.177	461.81
552.39	471.81
552.603	459.81
552.816	463.81
553.029	466.81
553.242	473.81
553.455	484.81
553.667	507.81
553.88	499.81
554.093	496.81
554.306	468.81
554.519	478.81
554.732	472.81
554.944	472.81
555.157	440.81
555.37	469.81
555.583	456.81
555.795	445.81
556.008	444.81
556.221	433.81
556.433	461.81
556.646	452.81
556.859	433.81
557.071	400.81
557.284	422.81
557.496	422.81
557.709	429.81
557.921	420.81
558.134	417.81
558.346	426.81
558.559	423.81
558.771	422.81
558.984	415.81
559.196	409.81
559.409	420.81
559.621	429.81
559.833	420.81
560.046	432.81
560.258	418.81
560.47	411.81
560.683	399.81
560.895	398.81
561.107	425.81
561.32	415.81
561.532	404.81
561.744	433.81
561.956	437.81
562.168	414.81
562.381	413.81
562.593	417.81
562.805	430.81
563.017	428.81
563.229	411.81
563.441	419.81
563.653	439.81
563.865	394.81
564.077	411.81
564.289	423.81
564.501	446.81
564.713	431.81
564.925	437.81
565.137	455.81
565.349	447.81
565.561	469.81
565.773	468.81
565.985	484.81
566.197	499.81
566.408	495.81
566.62	507.81
566.832	558.81
567.044	550.81
567.255	548.81
567.467	576.81
567.679	567.81
567.891	593.81
568.102	571.81
568.314	566.81
568.526	535.81
568.737	507.81
568.949	485.81
569.161	483.81
569.372	465.81
569.584	465.81
569.795	441.81
570.007	446.81
570.218	481.81
570.43	453.81
570.641	410.81
570.853	427.81
571.064	427.81
571.276	424.81
571.487	427.81
571.698	403.81
571.91	389.81
572.121	363.81
572.333	383.81
572.544	385.81
572.755	388.81
572.966	381.81
573.178	389.81
573.389	371.81
573.6	355.81
573.811	356.81
574.023	353.81
574.234	375.81
574.445	381.81
574.656	363.81
574.867	353.81
575.078	365.81
575.289	355.81
575.501	382.81
575.712	352.81
575.923	359.81
576.134	337.81
576.345	350.81
576.556	367.81
576.767	352.81
576.978	337.81
577.188	347.81
577.399	349.81
577.61	352.81
577.821	356.81
578.032	347.81
578.243	363.81
578.454	519.81
578.665	402.81
578.875	342.81
579.086	326.81
579.297	332.81
579.508	342.81
579.718	336.81
579.929	331.81
580.14	327.81
580.35	316.81
580.561	332.81
580.772	328.81
580.982	326.81
581.193	352.81
581.403	323.81
581.614	310.81
581.825	335.81
582.035	340.81
582.246	331.81
582.456	329.81
582.667	314.81
582.877	315.81
583.087	329.81
583.298	318.81
583.508	327.81
583.719	335.81
583.929	326.81
584.139	322.81
584.35	315.81
584.56	341.81
584.77	319.81
584.981	318.81
585.191	325.81
585.401	325.81
585.611	335.81
585.821	331.81
586.032	314.81
586.242	333.81
586.452	309.81
586.662	311.81
586.872	306.81
587.082	313.81
587.292	283.81
587.502	322.81
587.713	307.81
587.923	311.81
588.133	302.81
588.343	304.81
588.553	330.81
588.762	309.81
588.972	321.81
589.182	300.81
589.392	316.81
589.602	307.81
589.812	336.81
590.022	309.81
590.232	325.81
590.441	333.81
590.651	329.81
590.861	307.81
591.071	332.81
591.281	319.81
591.49	326.81
591.7	327.81
591.91	344.81
592.119	345.81
592.329	319.81
592.539	342.81
592.748	343.81
592.958	362.81
593.167	353.81
593.377	337.81
593.587	359.81
593.796	354.81
594.006	361.81
594.215	352.81
594.424	352.81
594.634	352.81
594.843	350.81
595.053	343.81
595.262	329.81
595.472	334.81
595.681	323.81
595.89	315.81
596.1	327.81
596.309	304.81
596.518	325.81
596.727	308.81
596.937	291.81
597.146	295.81
597.355	278.81
597.564	304.81
597.774	287.81
597.983	288.81
598.192	274.81
598.401	299.81
598.61	269.81
598.819	296.81
599.028	282.81
599.237	276.81
599.446	300.81
599.655	286.81
599.864	283.81
600.073	289.81
600.282	288.81
600.491	267.81
600.7	283.81
600.909	286.81
601.118	279.81
601.327	259.81
601.536	268.81
601.745	267.81
601.953	286.81
602.162	286.81
602.371	262.81
602.58	272.81
602.789	281.81
602.997	279.81
603.206	279.81
603.415	264.81
603.623	265.81
603.832	284.81
604.041	245.81
604.249	259.81
604.458	269.81
604.666	262.81
604.875	264.81
605.084	259.81
605.292	276.81
605.501	248.81
605.709	261.81
605.918	270.81
606.126	256.81
606.334	258.81
606.543	274.81
606.751	275.81
606.96	236.81
607.168	257.81
607.376	261.81
607.585	268.81
607.793	263.81
608.001	254.81
608.21	265.81
608.418	259.81
608.626	273.81
608.834	263.81
609.043	259.81
609.251	284.81
609.459	236.81
609.667	255.81
609.875	235.81
610.083	255.81
610.291	250.81
610.499	236.81
610.707	245.81
610.916	247.81
611.124	268.81
611.332	264.81
611.54	266.81
611.748	272.81
611.955	265.81
612.163	252.81
612.371	245.81
612.579	238.81
612.787	257.81
612.995	234.81
613.203	272.81
613.411	255.81
613.618	245.81
613.826	236.81
614.034	253.81
614.242	268.81
614.449	247.81
614.657	251.81
614.865	252.81
615.072	263.81
615.28	255.81
615.488	254.81
615.695	239.81
615.903	251.81
616.111	263.81
616.318	251.81
616.526	239.81
616.733	267.81
616.941	237.81
617.148	248.81
617.356	263.81
617.563	257.81
617.771	255.81
617.978	240.81
618.185	242.81
618.393	259.81
618.6	258.81
618.807	254.81
619.015	263.81
619.222	253.81
619.429	247.81
619.637	251.81
619.844	253.81
620.051	248.81
620.258	245.81
620.466	242.81
620.673	234.81
620.88	232.81
621.087	243.81
621.294	236.81
621.501	231.81
621.708	240.81
621.915	222.81
622.122	235.81
622.329	249.81
622.536	232.81
622.743	240.81
622.95	241.81
623.157	229.81
623.364	235.81
623.571	227.81
623.778	223.81
623.985	223.81
624.192	224.81
624.399	226.81
624.606	247.81
624.812	246.81
625.019	228.81
625.226	234.81
625.433	244.81
625.639	227.81
625.846	208.81
626.053	227.81
626.259	222.81
626.466	208.81
626.673	225.81
626.879	228.81
627.086	204.81
627.293	224.81
627.499	228.81
627.706	217.81
627.912	215.81
628.119	215.81
628.325	212.81
628.532	208.81
628.738	231.81
628.945	208.81
629.151	230.81
629.357	224.81
629.564	204.81
629.77	196.81
629.976	202.81
630.183	225.81
630.389	229.81
630.595	217.81
630.802	194.81
631.008	203.81
631.214	197.81
631.42	220.81
631.627	210.81
631.833	195.81
632.039	201.81
632.245	195.81
632.451	221.81
632.657	220.81
632.863	205.81
633.069	208.81
633.275	203.81
633.481	201.81
633.688	203.81
633.893	198.81
634.099	200.81
634.305	197.81
634.511	199.81
634.717	179.81
634.923	189.81
635.129	180.81
635.335	197.81
635.541	186.81
635.747	191.81
635.952	197.81
636.158	197.81
636.364	189.81
636.57	217.81
636.775	187.81
636.981	185.81
637.187	193.81
637.392	199.81
637.598	197.81
637.804	200.81
638.009	190.81
638.215	188.81
638.421	194.81
638.626	189.81
638.832	197.81
639.037	183.81
639.243	190.81
639.448	204.81
639.654	196.81
639.859	185.81
640.065	188.81
640.27	201.81
640.475	189.81
640.681	188.81
640.886	182.81
641.091	163.81
641.297	191.81
641.502	182.81
641.707	184.81
641.913	193.81
642.118	165.81
642.323	186.81
642.528	192.81
642.733	193.81
642.939	192.81
643.144	185.81
643.349	186.81
643.554	187.81
643.759	180.81
643.964	169.81
644.169	184.81
644.374	167.81
644.579	184.81
644.784	182.81
644.989	189.81
645.194	175.81
645.399	198.81
645.604	180.81
645.809	181.81
646.014	182.81
646.219	159.81
646.423	170.81
646.628	174.81
646.833	168.81
647.038	181.81
647.243	168.81
647.447	183.81
647.652	174.81
647.857	163.81
648.062	169.81
648.266	179.81
648.471	181.81
648.676	191.81
648.88	171.81
649.085	185.81
649.289	197.81
649.494	190.81
649.698	188.81
649.903	188.81
650.107	201.81
650.312	176.81
650.516	182.81
650.721	168.81
650.925	173.81
651.13	165.81
651.334	160.81
651.539	176.81
651.743	171.81
651.947	169.81
652.152	156.81
652.356	144.81
652.56	152.81
652.764	153.81
652.969	165.81
653.173	150.81
653.377	144.81
653.581	159.81
653.785	160.81
653.99	146.81
654.194	157.81
654.398	146.81
654.602	144.81
654.806	132.81
655.01	137.81
655.214	143.81
655.418	125.81
655.622	135.81
655.826	138.81
656.03	131.81
656.234	158.81
656.438	135.81
656.642	129.81
656.846	137.81
657.049	139.81
657.253	138.81
657.457	144.81
657.661	125.81
657.865	124.81
658.068	130.81
658.272	119.81
658.476	116.81
658.68	121.81
658.883	117.81
659.087	119.81
659.291	106.81
659.494	95.81
659.698	106.81
659.901	112.81
660.105	92.81
660.309	91.81
660.512	111.81
660.716	111.81
660.919	102.81
661.123	118.81
661.326	88.81
661.53	96.81
661.733	88.81
661.936	103.81
662.14	86.81
662.343	88.81
662.546	91.81
662.75	93.81
662.953	89.81
663.156	81.81
663.36	87.81
663.563	79.81
663.766	80.81
663.969	95.81
664.173	85.81
664.376	102.81
664.579	84.81
664.782	85.81
664.985	80.81
665.188	87.81
665.391	91.81
665.594	91.81
665.797	85.81
666	97.81
666.203	78.81
666.406	86.81
666.609	83.81
666.812	84.81
667.015	80.81
667.218	80.81
667.421	93.81
667.624	79.81
667.827	81.81
668.03	76.81
668.232	81.81
668.435	88.81
668.638	78.81
668.841	81.81
669.043	89.81
669.246	77.81
669.449	83.81
669.651	72.81
669.854	81.81
670.057	65.81
670.259	82.81
670.462	85.81
670.665	79.81
670.867	94.81
671.07	85.81
671.272	93.81
671.475	90.81
671.677	101.81
671.88	80.81
672.082	88.81
672.284	87.81
672.487	93.81
672.689	84.81
672.892	81.81
