Data from 1975.PennyLincolnUp.Lamp.En5.5.200Scan.071719.P1.Changed Mount._HRD10591_15-57-31-859.txt Node
Date: Thu Jul 18 15:57:31 EDT 2019
User: cochatt
Spectrometer: HR+D1059
Trigger mode: 1
Integration Time (sec): 1.000000E-1
Scans to average: 1
Electric dark correction enabled: true
Nonlinearity correction enabled: false
Boxcar width: 0
XAxis mode: Wavelengths
Number of Pixels in Spectrum: 2048
>>>>>Begin Spectral Data<<<<<
223.165	-8.31
223.4	-8.31
223.635	-8.31
223.869	-7.31
224.104	-20.31
224.338	-27.31
224.573	-17.31
224.808	-15.31
225.042	-8.31
225.277	19.69
225.511	-4.31
225.746	-16.31
225.98	7.69
226.215	15.69
226.449	19.69
226.683	12.69
226.918	23.69
227.152	25.69
227.387	29.69
227.621	32.69
227.856	38.69
228.09	49.69
228.324	43.69
228.559	54.69
228.793	61.69
229.027	97.69
229.262	101.69
229.496	104.69
229.73	140.69
229.964	148.69
230.199	121.69
230.433	131.69
230.667	110.69
230.901	100.69
231.136	115.69
231.37	105.69
231.604	109.69
231.838	110.69
232.072	125.69
232.306	102.69
232.541	103.69
232.775	103.69
233.009	117.69
233.243	106.69
233.477	111.69
233.711	118.69
233.945	104.69
234.179	124.69
234.413	136.69
234.647	122.69
234.881	124.69
235.115	118.69
235.349	112.69
235.583	114.69
235.817	115.69
236.051	123.69
236.285	127.69
236.519	122.69
236.753	140.69
236.987	132.69
237.221	170.69
237.455	233.69
237.689	183.69
237.922	150.69
238.156	135.69
238.39	135.69
238.624	137.69
238.858	132.69
239.091	128.69
239.325	114.69
239.559	122.69
239.793	135.69
240.027	125.69
240.26	142.69
240.494	145.69
240.728	149.69
240.961	151.69
241.195	140.69
241.429	155.69
241.662	149.69
241.896	131.69
242.13	135.69
242.363	124.69
242.597	129.69
242.83	146.69
243.064	134.69
243.298	140.69
243.531	152.69
243.765	127.69
243.998	141.69
244.232	152.69
244.465	134.69
244.699	147.69
244.932	148.69
245.166	150.69
245.399	164.69
245.633	152.69
245.866	148.69
246.099	168.69
246.333	147.69
246.566	162.69
246.8	156.69
247.033	163.69
247.266	165.69
247.5	171.69
247.733	167.69
247.966	171.69
248.2	174.69
248.433	166.69
248.666	182.69
248.899	182.69
249.133	192.69
249.366	212.69
249.599	190.69
249.832	181.69
250.066	179.69
250.299	170.69
250.532	192.69
250.765	210.69
250.998	205.69
251.231	216.69
251.465	219.69
251.698	208.69
251.931	190.69
252.164	190.69
252.397	216.69
252.63	213.69
252.863	212.69
253.096	214.69
253.329	216.69
253.562	227.69
253.795	217.69
254.028	207.69
254.261	215.69
254.494	232.69
254.727	242.69
254.96	260.69
255.193	283.69
255.426	231.69
255.659	224.69
255.892	234.69
256.124	228.69
256.357	233.69
256.59	225.69
256.823	208.69
257.056	216.69
257.289	213.69
257.521	226.69
257.754	204.69
257.987	204.69
258.22	203.69
258.452	199.69
258.685	204.69
258.918	199.69
259.151	215.69
259.383	217.69
259.616	211.69
259.849	233.69
260.081	260.69
260.314	255.69
260.547	261.69
260.779	235.69
261.012	232.69
261.244	224.69
261.477	214.69
261.71	226.69
261.942	220.69
262.175	212.69
262.407	229.69
262.64	219.69
262.872	225.69
263.105	219.69
263.337	219.69
263.57	221.69
263.802	211.69
264.035	199.69
264.267	216.69
264.499	215.69
264.732	225.69
264.964	203.69
265.197	223.69
265.429	200.69
265.661	200.69
265.894	190.69
266.126	218.69
266.358	229.69
266.591	225.69
266.823	236.69
267.055	231.69
267.287	222.69
267.52	234.69
267.752	232.69
267.984	231.69
268.216	230.69
268.448	247.69
268.681	243.69
268.913	264.69
269.145	274.69
269.377	269.69
269.609	290.69
269.841	261.69
270.073	280.69
270.306	298.69
270.538	322.69
270.77	307.69
271.002	288.69
271.234	296.69
271.466	294.69
271.698	300.69
271.93	329.69
272.162	308.69
272.394	322.69
272.626	292.69
272.858	296.69
273.09	285.69
273.322	283.69
273.553	265.69
273.785	266.69
274.017	258.69
274.249	278.69
274.481	262.69
274.713	275.69
274.945	276.69
275.176	266.69
275.408	284.69
275.64	252.69
275.872	273.69
276.104	268.69
276.335	279.69
276.567	265.69
276.799	277.69
277.031	297.69
277.262	315.69
277.494	334.69
277.726	289.69
277.957	300.69
278.189	295.69
278.421	300.69
278.652	282.69
278.884	272.69
279.115	275.69
279.347	282.69
279.579	288.69
279.81	271.69
280.042	275.69
280.273	282.69
280.505	288.69
280.736	280.69
280.968	278.69
281.199	273.69
281.431	277.69
281.662	279.69
281.894	268.69
282.125	279.69
282.356	284.69
282.588	303.69
282.819	302.69
283.051	280.69
283.282	287.69
283.513	269.69
283.745	292.69
283.976	280.69
284.207	296.69
284.439	290.69
284.67	300.69
284.901	286.69
285.132	274.69
285.364	295.69
285.595	266.69
285.826	297.69
286.057	302.69
286.288	282.69
286.52	282.69
286.751	292.69
286.982	303.69
287.213	294.69
287.444	306.69
287.675	297.69
287.906	299.69
288.138	306.69
288.369	318.69
288.6	320.69
288.831	304.69
289.062	310.69
289.293	293.69
289.524	314.69
289.755	288.69
289.986	316.69
290.217	311.69
290.448	291.69
290.679	292.69
290.91	294.69
291.141	314.69
291.371	295.69
291.602	301.69
291.833	301.69
292.064	297.69
292.295	323.69
292.526	296.69
292.757	287.69
292.987	310.69
293.218	293.69
293.449	312.69
293.68	293.69
293.91	302.69
294.141	297.69
294.372	313.69
294.603	308.69
294.833	321.69
295.064	295.69
295.295	325.69
295.525	315.69
295.756	304.69
295.987	307.69
296.217	306.69
296.448	341.69
296.679	307.69
296.909	286.69
297.14	310.69
297.37	293.69
297.601	307.69
297.831	308.69
298.062	318.69
298.292	330.69
298.523	315.69
298.753	297.69
298.984	317.69
299.214	323.69
299.445	295.69
299.675	322.69
299.905	325.69
300.136	316.69
300.366	318.69
300.597	322.69
300.827	335.69
301.057	324.69
301.288	331.69
301.518	319.69
301.748	357.69
301.979	354.69
302.209	351.69
302.439	348.69
302.669	340.69
302.9	334.69
303.13	320.69
303.36	363.69
303.59	327.69
303.82	335.69
304.051	345.69
304.281	326.69
304.511	352.69
304.741	347.69
304.971	330.69
305.201	338.69
305.431	342.69
305.661	352.69
305.891	343.69
306.121	341.69
306.352	346.69
306.582	340.69
306.812	328.69
307.042	325.69
307.272	339.69
307.502	348.69
307.731	314.69
307.961	330.69
308.191	332.69
308.421	331.69
308.651	340.69
308.881	333.69
309.111	351.69
309.341	364.69
309.571	359.69
309.8	355.69
310.03	346.69
310.26	364.69
310.49	372.69
310.72	365.69
310.949	377.69
311.179	387.69
311.409	364.69
311.639	366.69
311.868	378.69
312.098	370.69
312.328	385.69
312.557	415.69
312.787	392.69
313.017	391.69
313.246	392.69
313.476	382.69
313.706	379.69
313.935	387.69
314.165	393.69
314.394	391.69
314.624	402.69
314.853	402.69
315.083	403.69
315.312	405.69
315.542	386.69
315.771	370.69
316.001	369.69
316.23	368.69
316.46	377.69
316.689	380.69
316.919	382.69
317.148	387.69
317.377	399.69
317.607	378.69
317.836	394.69
318.065	379.69
318.295	379.69
318.524	374.69
318.753	389.69
318.983	376.69
319.212	370.69
319.441	382.69
319.67	393.69
319.9	388.69
320.129	393.69
320.358	386.69
320.587	376.69
320.816	378.69
321.046	389.69
321.275	420.69
321.504	398.69
321.733	410.69
321.962	420.69
322.191	423.69
322.42	425.69
322.649	419.69
322.878	434.69
323.108	414.69
323.337	448.69
323.566	466.69
323.795	466.69
324.024	513.69
324.253	590.69
324.482	840.69
324.71	1231.69
324.939	1898.69
325.168	1659.69
325.397	818.69
325.626	601.69
325.855	509.69
326.084	489.69
326.313	469.69
326.542	467.69
326.77	534.69
326.999	588.69
327.228	768.69
327.457	1146.69
327.686	1479.69
327.914	980.69
328.143	625.69
328.372	579.69
328.6	531.69
328.829	527.69
329.058	514.69
329.287	532.69
329.515	540.69
329.744	494.69
329.972	489.69
330.201	498.69
330.43	554.69
330.658	556.69
330.887	554.69
331.115	579.69
331.344	525.69
331.572	481.69
331.801	481.69
332.03	483.69
332.258	481.69
332.486	456.69
332.715	444.69
332.943	449.69
333.172	473.69
333.4	481.69
333.629	473.69
333.857	478.69
334.085	498.69
334.314	521.69
334.542	523.69
334.771	535.69
334.999	512.69
335.227	481.69
335.455	476.69
335.684	462.69
335.912	474.69
336.14	457.69
336.369	460.69
336.597	447.69
336.825	472.69
337.053	447.69
337.281	449.69
337.51	439.69
337.738	456.69
337.966	436.69
338.194	440.69
338.422	448.69
338.65	444.69
338.878	436.69
339.106	435.69
339.334	424.69
339.562	444.69
339.79	438.69
340.018	448.69
340.246	447.69
340.474	451.69
340.702	436.69
340.93	454.69
341.158	434.69
341.386	437.69
341.614	452.69
341.842	427.69
342.07	431.69
342.298	427.69
342.526	423.69
342.754	421.69
342.981	408.69
343.209	434.69
343.437	449.69
343.665	421.69
343.893	456.69
344.12	472.69
344.348	453.69
344.576	451.69
344.804	466.69
345.031	455.69
345.259	452.69
345.487	437.69
345.714	447.69
345.942	433.69
346.17	424.69
346.397	422.69
346.625	404.69
346.853	418.69
347.08	407.69
347.308	426.69
347.535	422.69
347.763	418.69
347.99	444.69
348.218	418.69
348.445	426.69
348.673	436.69
348.9	421.69
349.128	423.69
349.355	428.69
349.583	395.69
349.81	423.69
350.037	424.69
350.265	375.69
350.492	412.69
350.72	414.69
350.947	422.69
351.174	435.69
351.402	427.69
351.629	440.69
351.856	436.69
352.083	421.69
352.311	435.69
352.538	418.69
352.765	442.69
352.992	411.69
353.22	411.69
353.447	417.69
353.674	430.69
353.901	402.69
354.128	400.69
354.355	409.69
354.583	414.69
354.81	408.69
355.037	400.69
355.264	399.69
355.491	402.69
355.718	410.69
355.945	408.69
356.172	412.69
356.399	402.69
356.626	394.69
356.853	404.69
357.08	406.69
357.307	383.69
357.534	422.69
357.761	410.69
357.988	419.69
358.215	403.69
358.441	409.69
358.668	395.69
358.895	407.69
359.122	395.69
359.349	409.69
359.576	435.69
359.802	425.69
360.029	439.69
360.256	472.69
360.483	433.69
360.709	427.69
360.936	419.69
361.163	410.69
361.39	417.69
361.616	421.69
361.843	404.69
362.07	420.69
362.296	418.69
362.523	417.69
362.749	431.69
362.976	434.69
363.203	434.69
363.429	423.69
363.656	395.69
363.882	401.69
364.109	408.69
364.335	404.69
364.562	430.69
364.788	424.69
365.015	442.69
365.241	408.69
365.468	386.69
365.694	408.69
365.92	420.69
366.147	414.69
366.373	418.69
366.599	404.69
366.826	399.69
367.052	412.69
367.278	424.69
367.505	425.69
367.731	400.69
367.957	409.69
368.184	423.69
368.41	408.69
368.636	414.69
368.862	442.69
369.089	434.69
369.315	418.69
369.541	420.69
369.767	406.69
369.993	424.69
370.219	401.69
370.445	436.69
370.672	404.69
370.898	405.69
371.124	410.69
371.35	434.69
371.576	408.69
371.802	409.69
372.028	412.69
372.254	405.69
372.48	408.69
372.706	427.69
372.932	430.69
373.158	403.69
373.384	435.69
373.61	395.69
373.835	414.69
374.061	422.69
374.287	427.69
374.513	440.69
374.739	418.69
374.965	425.69
375.191	452.69
375.416	449.69
375.642	436.69
375.868	436.69
376.094	426.69
376.319	441.69
376.545	409.69
376.771	422.69
376.997	424.69
377.222	426.69
377.448	417.69
377.674	426.69
377.899	418.69
378.125	408.69
378.35	414.69
378.576	418.69
378.802	440.69
379.027	392.69
379.253	422.69
379.478	407.69
379.704	418.69
379.929	411.69
380.155	407.69
380.38	412.69
380.606	418.69
380.831	405.69
381.057	435.69
381.282	422.69
381.507	411.69
381.733	442.69
381.958	403.69
382.184	430.69
382.409	436.69
382.634	430.69
382.86	425.69
383.085	428.69
383.31	435.69
383.535	435.69
383.761	442.69
383.986	442.69
384.211	443.69
384.436	452.69
384.662	462.69
384.887	458.69
385.112	448.69
385.337	464.69
385.562	464.69
385.787	488.69
386.013	486.69
386.238	483.69
386.463	484.69
386.688	486.69
386.913	464.69
387.138	470.69
387.363	467.69
387.588	476.69
387.813	465.69
388.038	446.69
388.263	471.69
388.488	488.69
388.713	467.69
388.938	467.69
389.163	468.69
389.387	499.69
389.612	473.69
389.837	478.69
390.062	466.69
390.287	452.69
390.512	455.69
390.736	467.69
390.961	475.69
391.186	464.69
391.411	503.69
391.636	467.69
391.86	490.69
392.085	498.69
392.31	493.69
392.534	470.69
392.759	488.69
392.984	475.69
393.208	469.69
393.433	443.69
393.658	471.69
393.882	473.69
394.107	473.69
394.331	529.69
394.556	472.69
394.78	486.69
395.005	508.69
395.229	488.69
395.454	504.69
395.678	503.69
395.903	510.69
396.127	530.69
396.352	523.69
396.576	491.69
396.801	486.69
397.025	488.69
397.249	498.69
397.474	506.69
397.698	514.69
397.922	504.69
398.147	544.69
398.371	544.69
398.595	527.69
398.82	549.69
399.044	571.69
399.268	594.69
399.492	638.69
399.717	668.69
399.941	711.69
400.165	710.69
400.389	674.69
400.613	616.69
400.837	592.69
401.062	572.69
401.286	556.69
401.51	531.69
401.734	545.69
401.958	549.69
402.182	571.69
402.406	565.69
402.63	564.69
402.854	594.69
403.078	557.69
403.302	566.69
403.526	591.69
403.75	583.69
403.974	579.69
404.198	542.69
404.422	563.69
404.645	587.69
404.869	587.69
405.093	606.69
405.317	663.69
405.541	712.69
405.765	633.69
405.988	584.69
406.212	601.69
406.436	612.69
406.66	648.69
406.883	614.69
407.107	623.69
407.331	695.69
407.555	752.69
407.778	754.69
408.002	676.69
408.226	656.69
408.449	638.69
408.673	631.69
408.896	676.69
409.12	683.69
409.344	651.69
409.567	598.69
409.791	573.69
410.014	568.69
410.238	578.69
410.461	562.69
410.685	588.69
410.908	597.69
411.132	617.69
411.355	665.69
411.578	646.69
411.802	611.69
412.025	576.69
412.249	589.69
412.472	600.69
412.695	637.69
412.919	630.69
413.142	584.69
413.365	554.69
413.589	565.69
413.812	534.69
414.035	548.69
414.258	565.69
414.482	570.69
414.705	559.69
414.928	553.69
415.151	544.69
415.374	560.69
415.597	539.69
415.821	550.69
416.044	531.69
416.267	542.69
416.49	546.69
416.713	520.69
416.936	554.69
417.159	540.69
417.382	540.69
417.605	549.69
417.828	554.69
418.051	579.69
418.274	570.69
418.497	555.69
418.72	549.69
418.943	561.69
419.166	570.69
419.389	594.69
419.611	575.69
419.834	574.69
420.057	589.69
420.28	571.69
420.503	564.69
420.726	577.69
420.948	575.69
421.171	612.69
421.394	633.69
421.617	603.69
421.839	555.69
422.062	569.69
422.285	595.69
422.507	628.69
422.73	721.69
422.953	699.69
423.175	624.69
423.398	594.69
423.621	594.69
423.843	606.69
424.066	631.69
424.288	610.69
424.511	625.69
424.733	692.69
424.956	764.69
425.178	738.69
425.401	715.69
425.623	760.69
425.846	652.69
426.068	589.69
426.291	591.69
426.513	594.69
426.735	614.69
426.958	638.69
427.18	694.69
427.402	884.69
427.625	932.69
427.847	784.69
428.069	714.69
428.292	631.69
428.514	588.69
428.736	562.69
428.958	548.69
429.181	544.69
429.403	547.69
429.625	546.69
429.847	593.69
430.069	658.69
430.292	654.69
430.514	577.69
430.736	546.69
430.958	546.69
431.18	536.69
431.402	523.69
431.624	508.69
431.846	519.69
432.068	525.69
432.29	522.69
432.512	519.69
432.734	560.69
432.956	506.69
433.178	551.69
433.4	551.69
433.622	535.69
433.844	538.69
434.066	529.69
434.287	536.69
434.509	543.69
434.731	572.69
434.953	562.69
435.175	571.69
435.397	613.69
435.618	574.69
435.84	652.69
436.062	738.69
436.284	799.69
436.505	688.69
436.727	602.69
436.949	568.69
437.17	550.69
437.392	558.69
437.614	554.69
437.835	592.69
438.057	663.69
438.278	771.69
438.5	786.69
438.721	868.69
438.943	839.69
439.165	636.69
439.386	602.69
439.608	588.69
439.829	600.69
440.05	606.69
440.272	663.69
440.493	625.69
440.715	586.69
440.936	594.69
441.158	579.69
441.379	577.69
441.6	586.69
441.822	589.69
442.043	636.69
442.264	716.69
442.486	759.69
442.707	658.69
442.928	630.69
443.149	630.69
443.371	656.69
443.592	695.69
443.813	774.69
444.034	854.69
444.255	717.69
444.476	624.69
444.698	625.69
444.919	619.69
445.14	739.69
445.361	666.69
445.582	634.69
445.803	696.69
446.024	781.69
446.245	840.69
446.466	758.69
446.687	646.69
446.908	592.69
447.129	571.69
447.35	556.69
447.571	558.69
447.792	536.69
448.013	560.69
448.234	545.69
448.455	588.69
448.675	713.69
448.896	854.69
449.117	720.69
449.338	665.69
449.559	766.69
449.779	902.69
450	732.69
450.221	594.69
450.442	552.69
450.662	539.69
450.883	527.69
451.104	546.69
451.324	528.69
451.545	528.69
451.766	519.69
451.986	485.69
452.207	469.69
452.428	511.69
452.648	499.69
452.869	481.69
453.089	485.69
453.31	506.69
453.53	483.69
453.751	462.69
453.971	495.69
454.192	505.69
454.412	486.69
454.633	488.69
454.853	482.69
455.073	475.69
455.294	529.69
455.514	575.69
455.734	560.69
455.955	478.69
456.175	464.69
456.395	455.69
456.616	466.69
456.836	471.69
457.056	463.69
457.276	460.69
457.497	469.69
457.717	468.69
457.937	499.69
458.157	469.69
458.377	479.69
458.598	490.69
458.818	536.69
459.038	640.69
459.258	637.69
459.478	557.69
459.698	557.69
459.918	541.69
460.138	520.69
460.358	553.69
460.578	541.69
460.798	536.69
461.018	563.69
461.238	545.69
461.458	544.69
461.678	540.69
461.898	570.69
462.118	538.69
462.338	564.69
462.558	579.69
462.777	600.69
462.997	611.69
463.217	626.69
463.437	626.69
463.657	627.69
463.876	607.69
464.096	608.69
464.316	612.69
464.536	606.69
464.755	606.69
464.975	563.69
465.195	594.69
465.414	664.69
465.634	591.69
465.854	562.69
466.073	533.69
466.293	536.69
466.512	519.69
466.732	518.69
466.951	494.69
467.171	500.69
467.391	485.69
467.61	500.69
467.829	507.69
468.049	522.69
468.268	504.69
468.488	508.69
468.707	498.69
468.927	494.69
469.146	486.69
469.365	504.69
469.585	487.69
469.804	504.69
470.023	518.69
470.243	535.69
470.462	522.69
470.681	520.69
470.901	530.69
471.12	496.69
471.339	506.69
471.558	514.69
471.777	512.69
471.997	519.69
472.216	523.69
472.435	552.69
472.654	541.69
472.873	504.69
473.092	485.69
473.311	488.69
473.53	497.69
473.749	519.69
473.968	576.69
474.187	665.69
474.406	696.69
474.625	556.69
474.844	536.69
475.063	511.69
475.282	501.69
475.501	517.69
475.72	499.69
475.939	505.69
476.158	512.69
476.377	530.69
476.596	529.69
476.814	520.69
477.033	508.69
477.252	510.69
477.471	543.69
477.69	550.69
477.908	551.69
478.127	566.69
478.346	546.69
478.564	585.69
478.783	588.69
479.002	611.69
479.22	591.69
479.439	590.69
479.658	635.69
479.876	617.69
480.095	611.69
480.313	658.69
480.532	638.69
480.751	642.69
480.969	663.69
481.188	693.69
481.406	710.69
481.624	681.69
481.843	640.69
482.061	609.69
482.28	589.69
482.498	581.69
482.717	573.69
482.935	598.69
483.153	567.69
483.372	579.69
483.59	596.69
483.808	602.69
484.027	607.69
484.245	598.69
484.463	612.69
484.681	627.69
484.9	625.69
485.118	605.69
485.336	587.69
485.554	631.69
485.772	638.69
485.99	612.69
486.209	622.69
486.427	615.69
486.645	619.69
486.863	630.69
487.081	636.69
487.299	629.69
487.517	656.69
487.735	631.69
487.953	625.69
488.171	627.69
488.389	638.69
488.607	632.69
488.825	664.69
489.043	648.69
489.261	631.69
489.479	637.69
489.696	665.69
489.914	637.69
490.132	692.69
490.35	681.69
490.568	665.69
490.786	662.69
491.003	688.69
491.221	725.69
491.439	708.69
491.657	727.69
491.874	759.69
492.092	756.69
492.31	742.69
492.527	750.69
492.745	762.69
492.963	740.69
493.18	776.69
493.398	752.69
493.615	774.69
493.833	768.69
494.05	780.69
494.268	735.69
494.485	763.69
494.703	778.69
494.92	760.69
495.138	751.69
495.355	729.69
495.573	766.69
495.79	780.69
496.008	772.69
496.225	775.69
496.442	781.69
496.66	770.69
496.877	775.69
497.094	776.69
497.312	792.69
497.529	793.69
497.746	792.69
497.963	809.69
498.181	850.69
498.398	842.69
498.615	859.69
498.832	898.69
499.049	882.69
499.267	934.69
499.484	988.69
499.701	1034.69
499.918	1060.69
500.135	1152.69
500.352	1204.69
500.569	1211.69
500.786	1243.69
501.003	1196.69
501.22	1143.69
501.437	1080.69
501.654	1058.69
501.871	980.69
502.088	984.69
502.305	936.69
502.522	895.69
502.739	896.69
502.956	828.69
503.172	832.69
503.389	807.69
503.606	812.69
503.823	802.69
504.04	802.69
504.256	772.69
504.473	790.69
504.69	775.69
504.907	776.69
505.123	783.69
505.34	730.69
505.557	703.69
505.773	720.69
505.99	737.69
506.207	710.69
506.423	738.69
506.64	727.69
506.856	698.69
507.073	720.69
507.289	712.69
507.506	696.69
507.722	678.69
507.939	714.69
508.155	674.69
508.372	674.69
508.588	675.69
508.805	664.69
509.021	689.69
509.238	672.69
509.454	702.69
509.67	693.69
509.887	672.69
510.103	643.69
510.319	657.69
510.536	696.69
510.752	1094.69
510.968	930.69
511.184	662.69
511.401	650.69
511.617	650.69
511.833	631.69
512.049	633.69
512.265	638.69
512.481	646.69
512.698	631.69
512.914	622.69
513.13	608.69
513.346	654.69
513.562	644.69
513.778	629.69
513.994	619.69
514.21	648.69
514.426	665.69
514.642	675.69
514.858	694.69
515.074	731.69
515.29	820.69
515.506	1051.69
515.721	945.69
515.937	715.69
516.153	699.69
516.369	654.69
516.585	683.69
516.801	674.69
517.016	685.69
517.232	658.69
517.448	670.69
517.664	689.69
517.879	692.69
518.095	697.69
518.311	661.69
518.527	681.69
518.742	658.69
518.958	664.69
519.173	660.69
519.389	634.69
519.605	604.69
519.82	642.69
520.036	642.69
520.251	648.69
520.467	658.69
520.682	680.69
520.898	644.69
521.113	671.69
521.329	692.69
521.544	758.69
521.76	868.69
521.975	1324.69
522.19	1286.69
522.406	811.69
522.621	660.69
522.836	627.69
523.052	597.69
523.267	578.69
523.482	590.69
523.698	586.69
523.913	569.69
524.128	575.69
524.343	584.69
524.559	551.69
524.774	539.69
524.989	544.69
525.204	560.69
525.419	550.69
525.634	546.69
525.849	546.69
526.064	567.69
526.28	544.69
526.495	510.69
526.71	517.69
526.925	499.69
527.14	546.69
527.355	517.69
527.57	509.69
527.785	534.69
527.999	526.69
528.214	524.69
528.429	518.69
528.644	514.69
528.859	531.69
529.074	517.69
529.289	536.69
529.503	605.69
529.718	586.69
529.933	549.69
530.148	550.69
530.363	538.69
530.577	514.69
530.792	502.69
531.007	514.69
531.221	518.69
531.436	510.69
531.651	503.69
531.865	515.69
532.08	520.69
532.295	529.69
532.509	514.69
532.724	510.69
532.938	515.69
533.153	506.69
533.367	502.69
533.582	520.69
533.796	502.69
534.011	506.69
534.225	499.69
534.44	482.69
534.654	512.69
534.868	519.69
535.083	506.69
535.297	490.69
535.511	511.69
535.726	503.69
535.94	510.69
536.154	498.69
536.369	485.69
536.583	506.69
536.797	485.69
537.011	477.69
537.225	486.69
537.44	470.69
537.654	498.69
537.868	488.69
538.082	470.69
538.296	474.69
538.51	470.69
538.724	497.69
538.938	479.69
539.153	472.69
539.367	516.69
539.581	500.69
539.795	486.69
540.009	492.69
540.222	465.69
540.436	471.69
540.65	488.69
540.864	476.69
541.078	518.69
541.292	510.69
541.506	471.69
541.72	487.69
541.934	502.69
542.147	478.69
542.361	473.69
542.575	491.69
542.789	467.69
543.002	469.69
543.216	482.69
543.43	472.69
543.644	466.69
543.857	492.69
544.071	480.69
544.285	492.69
544.498	479.69
544.712	488.69
544.925	483.69
545.139	512.69
545.352	489.69
545.566	466.69
545.779	475.69
545.993	456.69
546.206	476.69
546.42	484.69
546.633	481.69
546.847	455.69
547.06	456.69
547.274	475.69
547.487	465.69
547.7	456.69
547.914	474.69
548.127	485.69
548.34	471.69
548.554	457.69
548.767	483.69
548.98	472.69
549.193	454.69
549.407	474.69
549.62	483.69
549.833	445.69
550.046	475.69
550.259	458.69
550.473	465.69
550.686	468.69
550.899	460.69
551.112	448.69
551.325	455.69
551.538	463.69
551.751	441.69
551.964	443.69
552.177	466.69
552.39	442.69
552.603	472.69
552.816	456.69
553.029	508.69
553.242	491.69
553.455	494.69
553.667	489.69
553.88	496.69
554.093	481.69
554.306	483.69
554.519	472.69
554.732	487.69
554.944	466.69
555.157	450.69
555.37	425.69
555.583	435.69
555.795	459.69
556.008	436.69
556.221	445.69
556.433	441.69
556.646	421.69
556.859	410.69
557.071	422.69
557.284	419.69
557.496	450.69
557.709	413.69
557.921	431.69
558.134	436.69
558.346	403.69
558.559	414.69
558.771	406.69
558.984	412.69
559.196	407.69
559.409	401.69
559.621	408.69
559.833	421.69
560.046	412.69
560.258	392.69
560.47	423.69
560.683	404.69
560.895	408.69
561.107	427.69
561.32	401.69
561.532	403.69
561.744	429.69
561.956	440.69
562.168	403.69
562.381	432.69
562.593	395.69
562.805	428.69
563.017	404.69
563.229	424.69
563.441	398.69
563.653	432.69
563.865	423.69
564.077	446.69
564.289	421.69
564.501	421.69
564.713	433.69
564.925	445.69
565.137	451.69
565.349	457.69
565.561	463.69
565.773	467.69
565.985	473.69
566.197	493.69
566.408	516.69
566.62	558.69
566.832	548.69
567.044	530.69
567.255	545.69
567.467	571.69
567.679	560.69
567.891	593.69
568.102	563.69
568.314	580.69
568.526	542.69
568.737	520.69
568.949	474.69
569.161	468.69
569.372	465.69
569.584	473.69
569.795	458.69
570.007	448.69
570.218	465.69
570.43	439.69
570.641	418.69
570.853	409.69
571.064	418.69
571.276	411.69
571.487	418.69
571.698	418.69
571.91	390.69
572.121	397.69
572.333	391.69
572.544	388.69
572.755	375.69
572.966	354.69
573.178	378.69
573.389	360.69
573.6	369.69
573.811	367.69
574.023	365.69
574.234	354.69
574.445	338.69
574.656	363.69
574.867	346.69
575.078	380.69
575.289	375.69
575.501	351.69
575.712	366.69
575.923	322.69
576.134	335.69
576.345	341.69
576.556	344.69
576.767	358.69
576.978	344.69
577.188	346.69
577.399	347.69
577.61	351.69
577.821	339.69
578.032	352.69
578.243	353.69
578.454	503.69
578.665	408.69
578.875	324.69
579.086	342.69
579.297	327.69
579.508	335.69
579.718	337.69
579.929	339.69
580.14	326.69
580.35	331.69
580.561	320.69
580.772	338.69
580.982	350.69
581.193	326.69
581.403	344.69
581.614	332.69
581.825	316.69
582.035	313.69
582.246	329.69
582.456	312.69
582.667	333.69
582.877	322.69
583.087	320.69
583.298	340.69
583.508	324.69
583.719	311.69
583.929	324.69
584.139	326.69
584.35	319.69
584.56	337.69
584.77	320.69
584.981	325.69
585.191	303.69
585.401	313.69
585.611	311.69
585.821	305.69
586.032	324.69
586.242	318.69
586.452	300.69
586.662	308.69
586.872	301.69
587.082	305.69
587.292	314.69
587.502	314.69
587.713	296.69
587.923	300.69
588.133	298.69
588.343	292.69
588.553	299.69
588.762	302.69
588.972	311.69
589.182	310.69
589.392	321.69
589.602	318.69
589.812	322.69
590.022	310.69
590.232	307.69
590.441	296.69
590.651	335.69
590.861	336.69
591.071	316.69
591.281	327.69
591.49	319.69
591.7	334.69
591.91	331.69
592.119	343.69
592.329	331.69
592.539	335.69
592.748	334.69
592.958	336.69
593.167	331.69
593.377	352.69
593.587	356.69
593.796	351.69
594.006	340.69
594.215	350.69
594.424	353.69
594.634	352.69
594.843	332.69
595.053	332.69
595.262	331.69
595.472	326.69
595.681	315.69
595.89	318.69
596.1	314.69
596.309	295.69
596.518	290.69
596.727	285.69
596.937	315.69
597.146	308.69
597.355	296.69
597.564	308.69
597.774	282.69
597.983	287.69
598.192	306.69
598.401	291.69
598.61	276.69
598.819	274.69
599.028	282.69
599.237	261.69
599.446	278.69
599.655	268.69
599.864	284.69
600.073	263.69
600.282	278.69
600.491	262.69
600.7	280.69
600.909	272.69
601.118	278.69
601.327	269.69
601.536	255.69
601.745	278.69
601.953	260.69
602.162	262.69
602.371	277.69
602.58	267.69
602.789	279.69
602.997	251.69
603.206	265.69
603.415	270.69
603.623	259.69
603.832	278.69
604.041	254.69
604.249	265.69
604.458	278.69
604.666	258.69
604.875	250.69
605.084	256.69
605.292	266.69
605.501	261.69
605.709	274.69
605.918	264.69
606.126	253.69
606.334	268.69
606.543	251.69
606.751	253.69
606.96	248.69
607.168	256.69
607.376	241.69
607.585	271.69
607.793	271.69
608.001	265.69
608.21	268.69
608.418	242.69
608.626	268.69
608.834	249.69
609.043	275.69
609.251	252.69
609.459	278.69
609.667	254.69
609.875	268.69
610.083	242.69
610.291	259.69
610.499	244.69
610.707	254.69
610.916	249.69
611.124	267.69
611.332	271.69
611.54	272.69
611.748	260.69
611.955	254.69
612.163	250.69
612.371	262.69
612.579	251.69
612.787	264.69
612.995	250.69
613.203	243.69
613.411	231.69
613.618	231.69
613.826	241.69
614.034	251.69
614.242	259.69
614.449	264.69
614.657	242.69
614.865	250.69
615.072	253.69
615.28	255.69
615.488	247.69
615.695	258.69
615.903	246.69
616.111	258.69
616.318	256.69
616.526	243.69
616.733	256.69
616.941	245.69
617.148	237.69
617.356	253.69
617.563	220.69
617.771	260.69
617.978	244.69
618.185	251.69
618.393	256.69
618.6	254.69
618.807	252.69
619.015	246.69
619.222	227.69
619.429	239.69
619.637	225.69
619.844	240.69
620.051	242.69
620.258	232.69
620.466	244.69
620.673	237.69
620.88	223.69
621.087	240.69
621.294	226.69
621.501	231.69
621.708	241.69
621.915	231.69
622.122	234.69
622.329	242.69
622.536	230.69
622.743	228.69
622.95	223.69
623.157	211.69
623.364	230.69
623.571	211.69
623.778	231.69
623.985	215.69
624.192	246.69
624.399	232.69
624.606	242.69
624.812	224.69
625.019	214.69
625.226	217.69
625.433	222.69
625.639	238.69
625.846	210.69
626.053	226.69
626.259	199.69
626.466	221.69
626.673	215.69
626.879	214.69
627.086	208.69
627.293	213.69
627.499	210.69
627.706	227.69
627.912	215.69
628.119	233.69
628.325	216.69
628.532	217.69
628.738	215.69
628.945	222.69
629.151	204.69
629.357	208.69
629.564	223.69
629.77	199.69
629.976	223.69
630.183	206.69
630.389	198.69
630.595	199.69
630.802	195.69
631.008	194.69
631.214	204.69
631.42	207.69
631.627	210.69
631.833	194.69
632.039	223.69
632.245	200.69
632.451	196.69
632.657	208.69
632.863	200.69
633.069	201.69
633.275	189.69
633.481	178.69
633.688	193.69
633.893	216.69
634.099	189.69
634.305	197.69
634.511	192.69
634.717	207.69
634.923	191.69
635.129	187.69
635.335	178.69
635.541	178.69
635.747	183.69
635.952	188.69
636.158	202.69
636.364	198.69
636.57	203.69
636.775	194.69
636.981	190.69
637.187	191.69
637.392	192.69
637.598	183.69
637.804	203.69
638.009	174.69
638.215	195.69
638.421	190.69
638.626	186.69
638.832	195.69
639.037	180.69
639.243	169.69
639.448	158.69
639.654	185.69
639.859	173.69
640.065	188.69
640.27	175.69
640.475	160.69
640.681	174.69
640.886	192.69
641.091	167.69
641.297	200.69
641.502	180.69
641.707	182.69
641.913	191.69
642.118	178.69
642.323	171.69
642.528	188.69
642.733	175.69
642.939	170.69
643.144	172.69
643.349	163.69
643.554	168.69
643.759	186.69
643.964	156.69
644.169	175.69
644.374	161.69
644.579	177.69
644.784	172.69
644.989	180.69
645.194	159.69
645.399	180.69
645.604	176.69
645.809	167.69
646.014	176.69
646.219	179.69
646.423	175.69
646.628	168.69
646.833	154.69
647.038	176.69
647.243	176.69
647.447	171.69
647.652	168.69
647.857	169.69
648.062	177.69
648.266	174.69
648.471	185.69
648.676	194.69
648.88	180.69
649.085	175.69
649.289	171.69
649.494	170.69
649.698	183.69
649.903	194.69
650.107	171.69
650.312	169.69
650.516	170.69
650.721	166.69
650.925	151.69
651.13	152.69
651.334	145.69
651.539	142.69
651.743	159.69
651.947	154.69
652.152	161.69
652.356	143.69
652.56	140.69
652.764	144.69
652.969	155.69
653.173	150.69
653.377	158.69
653.581	127.69
653.785	140.69
653.99	133.69
654.194	143.69
654.398	138.69
654.602	160.69
654.806	143.69
655.01	154.69
655.214	140.69
655.418	144.69
655.622	125.69
655.826	129.69
656.03	138.69
656.234	138.69
656.438	133.69
656.642	140.69
656.846	131.69
657.049	145.69
657.253	120.69
657.457	133.69
657.661	118.69
657.865	110.69
658.068	109.69
658.272	107.69
658.476	104.69
658.68	102.69
658.883	98.69
659.087	100.69
659.291	100.69
659.494	112.69
659.698	103.69
659.901	114.69
660.105	99.69
660.309	96.69
660.512	95.69
660.716	96.69
660.919	83.69
661.123	98.69
661.326	83.69
661.53	81.69
661.733	92.69
661.936	100.69
662.14	77.69
662.343	80.69
662.546	72.69
662.75	72.69
662.953	79.69
663.156	82.69
663.36	77.69
663.563	85.69
663.766	89.69
663.969	93.69
664.173	66.69
664.376	82.69
664.579	76.69
664.782	87.69
664.985	86.69
665.188	82.69
665.391	90.69
665.594	71.69
665.797	73.69
666	82.69
666.203	81.69
666.406	79.69
666.609	80.69
666.812	76.69
667.015	79.69
667.218	94.69
667.421	74.69
667.624	93.69
667.827	74.69
668.03	68.69
668.232	84.69
668.435	84.69
668.638	66.69
668.841	95.69
669.043	73.69
669.246	86.69
669.449	85.69
669.651	80.69
669.854	80.69
670.057	74.69
670.259	78.69
670.462	75.69
670.665	76.69
670.867	82.69
671.07	79.69
671.272	72.69
671.475	99.69
671.677	62.69
671.88	88.69
672.082	59.69
672.284	62.69
672.487	81.69
672.689	71.69
672.892	82.69
