Data from 1975.PennyLincolnUp.Lamp.En5.5.200Scan.071719.P1.Changed Mount._HRD10591_15-56-30-858.txt Node
Date: Thu Jul 18 15:56:30 EDT 2019
User: cochatt
Spectrometer: HR+D1059
Trigger mode: 1
Integration Time (sec): 1.000000E-1
Scans to average: 1
Electric dark correction enabled: true
Nonlinearity correction enabled: false
Boxcar width: 0
XAxis mode: Wavelengths
Number of Pixels in Spectrum: 2048
>>>>>Begin Spectral Data<<<<<
223.165	-25.12
223.4	-25.12
223.635	-25.12
223.869	-36.12
224.104	-19.12
224.338	-6.12
224.573	-12.12
224.808	-7.12
225.042	-3.12
225.277	-10.12
225.511	-6.12
225.746	7.88
225.98	9.88
226.215	24.88
226.449	21.88
226.683	12.88
226.918	20.88
227.152	26.88
227.387	22.88
227.621	40.88
227.856	39.88
228.09	40.88
228.324	51.88
228.559	63.88
228.793	64.88
229.027	91.88
229.262	100.88
229.496	113.88
229.73	123.88
229.964	148.88
230.199	115.88
230.433	105.88
230.667	106.88
230.901	113.88
231.136	105.88
231.37	106.88
231.604	114.88
231.838	123.88
232.072	109.88
232.306	114.88
232.541	109.88
232.775	111.88
233.009	119.88
233.243	120.88
233.477	103.88
233.711	105.88
233.945	106.88
234.179	113.88
234.413	120.88
234.647	117.88
234.881	119.88
235.115	115.88
235.349	119.88
235.583	123.88
235.817	112.88
236.051	115.88
236.285	123.88
236.519	128.88
236.753	124.88
236.987	143.88
237.221	168.88
237.455	227.88
237.689	172.88
237.922	147.88
238.156	136.88
238.39	120.88
238.624	125.88
238.858	120.88
239.091	127.88
239.325	124.88
239.559	137.88
239.793	124.88
240.027	139.88
240.26	131.88
240.494	160.88
240.728	151.88
240.961	154.88
241.195	146.88
241.429	143.88
241.662	127.88
241.896	153.88
242.13	131.88
242.363	138.88
242.597	132.88
242.83	131.88
243.064	134.88
243.298	128.88
243.531	140.88
243.765	132.88
243.998	152.88
244.232	149.88
244.465	163.88
244.699	159.88
244.932	145.88
245.166	151.88
245.399	154.88
245.633	131.88
245.866	146.88
246.099	157.88
246.333	160.88
246.566	139.88
246.8	138.88
247.033	147.88
247.266	171.88
247.5	170.88
247.733	154.88
247.966	165.88
248.2	164.88
248.433	163.88
248.666	160.88
248.899	180.88
249.133	189.88
249.366	197.88
249.599	198.88
249.832	168.88
250.066	189.88
250.299	164.88
250.532	183.88
250.765	205.88
250.998	217.88
251.231	215.88
251.465	209.88
251.698	204.88
251.931	213.88
252.164	202.88
252.397	189.88
252.63	201.88
252.863	181.88
253.096	215.88
253.329	217.88
253.562	236.88
253.795	223.88
254.028	224.88
254.261	215.88
254.494	224.88
254.727	241.88
254.96	263.88
255.193	261.88
255.426	261.88
255.659	233.88
255.892	231.88
256.124	228.88
256.357	232.88
256.59	213.88
256.823	203.88
257.056	212.88
257.289	215.88
257.521	199.88
257.754	201.88
257.987	198.88
258.22	204.88
258.452	200.88
258.685	223.88
258.918	193.88
259.151	205.88
259.383	227.88
259.616	208.88
259.849	227.88
260.081	226.88
260.314	251.88
260.547	259.88
260.779	241.88
261.012	235.88
261.244	236.88
261.477	204.88
261.71	218.88
261.942	209.88
262.175	227.88
262.407	224.88
262.64	199.88
262.872	197.88
263.105	200.88
263.337	208.88
263.57	217.88
263.802	229.88
264.035	210.88
264.267	209.88
264.499	212.88
264.732	224.88
264.964	247.88
265.197	227.88
265.429	224.88
265.661	208.88
265.894	232.88
266.126	227.88
266.358	217.88
266.591	213.88
266.823	215.88
267.055	226.88
267.287	225.88
267.52	241.88
267.752	215.88
267.984	233.88
268.216	224.88
268.448	249.88
268.681	236.88
268.913	247.88
269.145	239.88
269.377	276.88
269.609	273.88
269.841	276.88
270.073	260.88
270.306	295.88
270.538	319.88
270.77	307.88
271.002	295.88
271.234	295.88
271.466	300.88
271.698	318.88
271.93	297.88
272.162	322.88
272.394	313.88
272.626	322.88
272.858	279.88
273.09	267.88
273.322	285.88
273.553	257.88
273.785	278.88
274.017	275.88
274.249	268.88
274.481	270.88
274.713	244.88
274.945	288.88
275.176	245.88
275.408	239.88
275.64	261.88
275.872	273.88
276.104	256.88
276.335	274.88
276.567	269.88
276.799	287.88
277.031	298.88
277.262	314.88
277.494	309.88
277.726	295.88
277.957	304.88
278.189	287.88
278.421	283.88
278.652	280.88
278.884	271.88
279.115	275.88
279.347	264.88
279.579	279.88
279.81	271.88
280.042	271.88
280.273	276.88
280.505	268.88
280.736	278.88
280.968	261.88
281.199	269.88
281.431	285.88
281.662	277.88
281.894	266.88
282.125	279.88
282.356	270.88
282.588	278.88
282.819	298.88
283.051	285.88
283.282	276.88
283.513	275.88
283.745	291.88
283.976	292.88
284.207	297.88
284.439	271.88
284.67	296.88
284.901	299.88
285.132	275.88
285.364	301.88
285.595	289.88
285.826	280.88
286.057	307.88
286.288	286.88
286.52	280.88
286.751	284.88
286.982	298.88
287.213	300.88
287.444	299.88
287.675	297.88
287.906	305.88
288.138	321.88
288.369	307.88
288.6	311.88
288.831	319.88
289.062	316.88
289.293	307.88
289.524	307.88
289.755	306.88
289.986	288.88
290.217	307.88
290.448	287.88
290.679	312.88
290.91	294.88
291.141	303.88
291.371	305.88
291.602	291.88
291.833	294.88
292.064	293.88
292.295	325.88
292.526	304.88
292.757	314.88
292.987	297.88
293.218	291.88
293.449	290.88
293.68	306.88
293.91	289.88
294.141	307.88
294.372	311.88
294.603	323.88
294.833	311.88
295.064	300.88
295.295	307.88
295.525	331.88
295.756	312.88
295.987	311.88
296.217	329.88
296.448	339.88
296.679	332.88
296.909	317.88
297.14	319.88
297.37	299.88
297.601	308.88
297.831	319.88
298.062	300.88
298.292	297.88
298.523	312.88
298.753	321.88
298.984	315.88
299.214	319.88
299.445	338.88
299.675	295.88
299.905	301.88
300.136	320.88
300.366	322.88
300.597	327.88
300.827	332.88
301.057	338.88
301.288	341.88
301.518	330.88
301.748	327.88
301.979	352.88
302.209	347.88
302.439	330.88
302.669	321.88
302.9	361.88
303.13	326.88
303.36	346.88
303.59	353.88
303.82	355.88
304.051	327.88
304.281	334.88
304.511	326.88
304.741	337.88
304.971	347.88
305.201	335.88
305.431	326.88
305.661	335.88
305.891	347.88
306.121	319.88
306.352	322.88
306.582	340.88
306.812	317.88
307.042	337.88
307.272	359.88
307.502	328.88
307.731	364.88
307.961	344.88
308.191	331.88
308.421	349.88
308.651	359.88
308.881	347.88
309.111	337.88
309.341	361.88
309.571	361.88
309.8	355.88
310.03	351.88
310.26	363.88
310.49	374.88
310.72	360.88
310.949	389.88
311.179	381.88
311.409	388.88
311.639	379.88
311.868	385.88
312.098	371.88
312.328	398.88
312.557	385.88
312.787	376.88
313.017	393.88
313.246	386.88
313.476	387.88
313.706	368.88
313.935	387.88
314.165	411.88
314.394	374.88
314.624	394.88
314.853	375.88
315.083	385.88
315.312	408.88
315.542	385.88
315.771	373.88
316.001	367.88
316.23	387.88
316.46	385.88
316.689	370.88
316.919	379.88
317.148	393.88
317.377	381.88
317.607	383.88
317.836	401.88
318.065	382.88
318.295	398.88
318.524	396.88
318.753	381.88
318.983	383.88
319.212	377.88
319.441	392.88
319.67	370.88
319.9	389.88
320.129	373.88
320.358	385.88
320.587	375.88
320.816	390.88
321.046	399.88
321.275	388.88
321.504	391.88
321.733	401.88
321.962	411.88
322.191	391.88
322.42	433.88
322.649	428.88
322.878	426.88
323.108	421.88
323.337	444.88
323.566	457.88
323.795	475.88
324.024	521.88
324.253	594.88
324.482	804.88
324.71	1183.88
324.939	1761.88
325.168	1583.88
325.397	793.88
325.626	529.88
325.855	475.88
326.084	463.88
326.313	440.88
326.542	451.88
326.77	500.88
326.999	556.88
327.228	712.88
327.457	1091.88
327.686	1354.88
327.914	927.88
328.143	617.88
328.372	577.88
328.6	534.88
328.829	503.88
329.058	521.88
329.287	522.88
329.515	515.88
329.744	481.88
329.972	482.88
330.201	492.88
330.43	536.88
330.658	571.88
330.887	568.88
331.115	537.88
331.344	506.88
331.572	476.88
331.801	457.88
332.03	466.88
332.258	458.88
332.486	468.88
332.715	472.88
332.943	469.88
333.172	467.88
333.4	460.88
333.629	464.88
333.857	503.88
334.085	497.88
334.314	513.88
334.542	551.88
334.771	572.88
334.999	544.88
335.227	484.88
335.455	471.88
335.684	470.88
335.912	471.88
336.14	460.88
336.369	473.88
336.597	467.88
336.825	463.88
337.053	451.88
337.281	449.88
337.51	431.88
337.738	449.88
337.966	434.88
338.194	436.88
338.422	463.88
338.65	443.88
338.878	432.88
339.106	443.88
339.334	447.88
339.562	442.88
339.79	440.88
340.018	428.88
340.246	435.88
340.474	448.88
340.702	432.88
340.93	445.88
341.158	425.88
341.386	427.88
341.614	440.88
341.842	439.88
342.07	437.88
342.298	441.88
342.526	412.88
342.754	431.88
342.981	421.88
343.209	428.88
343.437	433.88
343.665	453.88
343.893	481.88
344.12	469.88
344.348	461.88
344.576	461.88
344.804	480.88
345.031	458.88
345.259	452.88
345.487	432.88
345.714	434.88
345.942	433.88
346.17	408.88
346.397	410.88
346.625	430.88
346.853	424.88
347.08	413.88
347.308	419.88
347.535	434.88
347.763	425.88
347.99	426.88
348.218	428.88
348.445	440.88
348.673	436.88
348.9	412.88
349.128	427.88
349.355	432.88
349.583	415.88
349.81	416.88
350.037	410.88
350.265	419.88
350.492	417.88
350.72	427.88
350.947	414.88
351.174	425.88
351.402	398.88
351.629	422.88
351.856	427.88
352.083	416.88
352.311	423.88
352.538	417.88
352.765	440.88
352.992	418.88
353.22	421.88
353.447	403.88
353.674	433.88
353.901	399.88
354.128	395.88
354.355	394.88
354.583	401.88
354.81	403.88
355.037	403.88
355.264	409.88
355.491	411.88
355.718	403.88
355.945	388.88
356.172	412.88
356.399	411.88
356.626	396.88
356.853	393.88
357.08	409.88
357.307	398.88
357.534	395.88
357.761	396.88
357.988	419.88
358.215	398.88
358.441	399.88
358.668	391.88
358.895	378.88
359.122	395.88
359.349	409.88
359.576	408.88
359.802	423.88
360.029	460.88
360.256	467.88
360.483	451.88
360.709	432.88
360.936	410.88
361.163	407.88
361.39	435.88
361.616	433.88
361.843	424.88
362.07	426.88
362.296	416.88
362.523	407.88
362.749	432.88
362.976	415.88
363.203	400.88
363.429	416.88
363.656	423.88
363.882	403.88
364.109	423.88
364.335	424.88
364.562	400.88
364.788	412.88
365.015	404.88
365.241	422.88
365.468	405.88
365.694	391.88
365.92	417.88
366.147	414.88
366.373	420.88
366.599	407.88
366.826	409.88
367.052	402.88
367.278	413.88
367.505	419.88
367.731	418.88
367.957	412.88
368.184	413.88
368.41	410.88
368.636	422.88
368.862	420.88
369.089	415.88
369.315	395.88
369.541	412.88
369.767	397.88
369.993	434.88
370.219	393.88
370.445	417.88
370.672	426.88
370.898	401.88
371.124	420.88
371.35	453.88
371.576	426.88
371.802	425.88
372.028	403.88
372.254	407.88
372.48	405.88
372.706	437.88
372.932	421.88
373.158	429.88
373.384	442.88
373.61	413.88
373.835	409.88
374.061	419.88
374.287	425.88
374.513	421.88
374.739	428.88
374.965	433.88
375.191	428.88
375.416	441.88
375.642	420.88
375.868	431.88
376.094	412.88
376.319	413.88
376.545	445.88
376.771	438.88
376.997	428.88
377.222	426.88
377.448	396.88
377.674	428.88
377.899	388.88
378.125	418.88
378.35	428.88
378.576	422.88
378.802	410.88
379.027	426.88
379.253	399.88
379.478	421.88
379.704	428.88
379.929	440.88
380.155	433.88
380.38	423.88
380.606	439.88
380.831	416.88
381.057	427.88
381.282	427.88
381.507	427.88
381.733	420.88
381.958	427.88
382.184	436.88
382.409	439.88
382.634	443.88
382.86	463.88
383.085	442.88
383.31	454.88
383.535	445.88
383.761	445.88
383.986	433.88
384.211	441.88
384.436	448.88
384.662	466.88
384.887	452.88
385.112	459.88
385.337	460.88
385.562	468.88
385.787	471.88
386.013	484.88
386.238	456.88
386.463	483.88
386.688	474.88
386.913	452.88
387.138	483.88
387.363	461.88
387.588	472.88
387.813	499.88
388.038	488.88
388.263	479.88
388.488	455.88
388.713	458.88
388.938	473.88
389.163	468.88
389.387	488.88
389.612	467.88
389.837	451.88
390.062	461.88
390.287	470.88
390.512	482.88
390.736	475.88
390.961	479.88
391.186	490.88
391.411	495.88
391.636	469.88
391.86	521.88
392.085	495.88
392.31	505.88
392.534	479.88
392.759	478.88
392.984	471.88
393.208	483.88
393.433	475.88
393.658	482.88
393.882	476.88
394.107	482.88
394.331	485.88
394.556	489.88
394.78	499.88
395.005	482.88
395.229	478.88
395.454	487.88
395.678	526.88
395.903	515.88
396.127	518.88
396.352	520.88
396.576	516.88
396.801	476.88
397.025	489.88
397.249	511.88
397.474	523.88
397.698	495.88
397.922	513.88
398.147	536.88
398.371	557.88
398.595	524.88
398.82	560.88
399.044	571.88
399.268	597.88
399.492	645.88
399.717	684.88
399.941	697.88
400.165	707.88
400.389	687.88
400.613	626.88
400.837	572.88
401.062	569.88
401.286	559.88
401.51	575.88
401.734	539.88
401.958	554.88
402.182	566.88
402.406	565.88
402.63	577.88
402.854	573.88
403.078	573.88
403.302	562.88
403.526	588.88
403.75	579.88
403.974	572.88
404.198	579.88
404.422	596.88
404.645	576.88
404.869	620.88
405.093	630.88
405.317	671.88
405.541	697.88
405.765	630.88
405.988	590.88
406.212	610.88
406.436	632.88
406.66	652.88
406.883	621.88
407.107	664.88
407.331	687.88
407.555	761.88
407.778	767.88
408.002	681.88
408.226	661.88
408.449	640.88
408.673	647.88
408.896	677.88
409.12	692.88
409.344	666.88
409.567	608.88
409.791	595.88
410.014	576.88
410.238	538.88
410.461	568.88
410.685	584.88
410.908	597.88
411.132	632.88
411.355	661.88
411.578	616.88
411.802	595.88
412.025	593.88
412.249	577.88
412.472	604.88
412.695	666.88
412.919	653.88
413.142	582.88
413.365	556.88
413.589	547.88
413.812	573.88
414.035	545.88
414.258	543.88
414.482	548.88
414.705	525.88
414.928	533.88
415.151	554.88
415.374	548.88
415.597	531.88
415.821	540.88
416.044	545.88
416.267	545.88
416.49	559.88
416.713	533.88
416.936	541.88
417.159	545.88
417.382	563.88
417.605	544.88
417.828	547.88
418.051	555.88
418.274	562.88
418.497	561.88
418.72	545.88
418.943	553.88
419.166	584.88
419.389	602.88
419.611	608.88
419.834	562.88
420.057	553.88
420.28	591.88
420.503	573.88
420.726	598.88
420.948	588.88
421.171	619.88
421.394	647.88
421.617	598.88
421.839	552.88
422.062	585.88
422.285	593.88
422.507	639.88
422.73	718.88
422.953	695.88
423.175	626.88
423.398	583.88
423.621	581.88
423.843	621.88
424.066	612.88
424.288	613.88
424.511	626.88
424.733	659.88
424.956	745.88
425.178	693.88
425.401	705.88
425.623	762.88
425.846	645.88
426.068	616.88
426.291	596.88
426.513	602.88
426.735	598.88
426.958	643.88
427.18	712.88
427.402	845.88
427.625	961.88
427.847	803.88
428.069	689.88
428.292	647.88
428.514	567.88
428.736	558.88
428.958	542.88
429.181	535.88
429.403	538.88
429.625	571.88
429.847	571.88
430.069	642.88
430.292	645.88
430.514	573.88
430.736	551.88
430.958	535.88
431.18	536.88
431.402	536.88
431.624	538.88
431.846	538.88
432.068	527.88
432.29	535.88
432.512	535.88
432.734	543.88
432.956	548.88
433.178	564.88
433.4	533.88
433.622	550.88
433.844	534.88
434.066	524.88
434.287	536.88
434.509	501.88
434.731	535.88
434.953	563.88
435.175	567.88
435.397	579.88
435.618	602.88
435.84	631.88
436.062	726.88
436.284	768.88
436.505	662.88
436.727	603.88
436.949	566.88
437.17	553.88
437.392	544.88
437.614	551.88
437.835	578.88
438.057	658.88
438.278	769.88
438.5	746.88
438.721	887.88
438.943	838.88
439.165	651.88
439.386	615.88
439.608	580.88
439.829	599.88
440.05	617.88
440.272	643.88
440.493	631.88
440.715	596.88
440.936	557.88
441.158	555.88
441.379	550.88
441.6	583.88
441.822	600.88
442.043	617.88
442.264	716.88
442.486	773.88
442.707	643.88
442.928	607.88
443.149	604.88
443.371	619.88
443.592	676.88
443.813	779.88
444.034	842.88
444.255	708.88
444.476	625.88
444.698	643.88
444.919	610.88
445.14	746.88
445.361	668.88
445.582	645.88
445.803	702.88
446.024	797.88
446.245	797.88
446.466	719.88
446.687	628.88
446.908	596.88
447.129	563.88
447.35	555.88
447.571	560.88
447.792	540.88
448.013	513.88
448.234	553.88
448.455	589.88
448.675	732.88
448.896	864.88
449.117	717.88
449.338	649.88
449.559	778.88
449.779	912.88
450	710.88
450.221	591.88
450.442	539.88
450.662	532.88
450.883	525.88
451.104	546.88
451.324	523.88
451.545	521.88
451.766	499.88
451.986	485.88
452.207	485.88
452.428	492.88
452.648	479.88
452.869	482.88
453.089	475.88
453.31	504.88
453.53	488.88
453.751	480.88
453.971	485.88
454.192	519.88
454.412	477.88
454.633	492.88
454.853	470.88
455.073	502.88
455.294	488.88
455.514	581.88
455.734	539.88
455.955	485.88
456.175	456.88
456.395	467.88
456.616	456.88
456.836	437.88
457.056	440.88
457.276	439.88
457.497	459.88
457.717	456.88
457.937	477.88
458.157	465.88
458.377	491.88
458.598	501.88
458.818	536.88
459.038	610.88
459.258	632.88
459.478	553.88
459.698	535.88
459.918	518.88
460.138	526.88
460.358	527.88
460.578	527.88
460.798	562.88
461.018	564.88
461.238	555.88
461.458	546.88
461.678	531.88
461.898	547.88
462.118	551.88
462.338	596.88
462.558	564.88
462.777	608.88
462.997	587.88
463.217	607.88
463.437	613.88
463.657	579.88
463.876	610.88
464.096	599.88
464.316	570.88
464.536	588.88
464.755	614.88
464.975	611.88
465.195	600.88
465.414	622.88
465.634	583.88
465.854	561.88
466.073	559.88
466.293	516.88
466.512	519.88
466.732	526.88
466.951	501.88
467.171	486.88
467.391	492.88
467.61	525.88
467.829	531.88
468.049	499.88
468.268	492.88
468.488	508.88
468.707	484.88
468.927	496.88
469.146	483.88
469.365	491.88
469.585	510.88
469.804	507.88
470.023	514.88
470.243	518.88
470.462	529.88
470.681	524.88
470.901	531.88
471.12	513.88
471.339	525.88
471.558	483.88
471.777	511.88
471.997	524.88
472.216	516.88
472.435	538.88
472.654	524.88
472.873	507.88
473.092	497.88
473.311	518.88
473.53	515.88
473.749	493.88
473.968	543.88
474.187	652.88
474.406	668.88
474.625	547.88
474.844	525.88
475.063	497.88
475.282	521.88
475.501	492.88
475.72	534.88
475.939	501.88
476.158	545.88
476.377	528.88
476.596	536.88
476.814	537.88
477.033	534.88
477.252	519.88
477.471	543.88
477.69	542.88
477.908	560.88
478.127	566.88
478.346	562.88
478.564	585.88
478.783	565.88
479.002	576.88
479.22	582.88
479.439	604.88
479.658	600.88
479.876	619.88
480.095	623.88
480.313	636.88
480.532	636.88
480.751	627.88
480.969	639.88
481.188	685.88
481.406	729.88
481.624	641.88
481.843	648.88
482.061	595.88
482.28	609.88
482.498	590.88
482.717	569.88
482.935	611.88
483.153	593.88
483.372	601.88
483.59	614.88
483.808	616.88
484.027	602.88
484.245	597.88
484.463	595.88
484.681	600.88
484.9	615.88
485.118	606.88
485.336	618.88
485.554	606.88
485.772	610.88
485.99	625.88
486.209	631.88
486.427	615.88
486.645	610.88
486.863	636.88
487.081	625.88
487.299	652.88
487.517	627.88
487.735	620.88
487.953	631.88
488.171	642.88
488.389	637.88
488.607	651.88
488.825	667.88
489.043	634.88
489.261	663.88
489.479	659.88
489.696	666.88
489.914	653.88
490.132	665.88
490.35	665.88
490.568	665.88
490.786	660.88
491.003	702.88
491.221	709.88
491.439	704.88
491.657	732.88
491.874	705.88
492.092	756.88
492.31	758.88
492.527	745.88
492.745	758.88
492.963	759.88
493.18	746.88
493.398	727.88
493.615	762.88
493.833	765.88
494.05	756.88
494.268	749.88
494.485	735.88
494.703	744.88
494.92	762.88
495.138	755.88
495.355	755.88
495.573	735.88
495.79	757.88
496.008	763.88
496.225	741.88
496.442	769.88
496.66	771.88
496.877	773.88
497.094	785.88
497.312	759.88
497.529	774.88
497.746	804.88
497.963	819.88
498.181	820.88
498.398	845.88
498.615	872.88
498.832	896.88
499.049	893.88
499.267	960.88
499.484	959.88
499.701	1048.88
499.918	1113.88
500.135	1139.88
500.352	1211.88
500.569	1209.88
500.786	1234.88
501.003	1237.88
501.22	1146.88
501.437	1097.88
501.654	1049.88
501.871	1002.88
502.088	958.88
502.305	936.88
502.522	913.88
502.739	876.88
502.956	841.88
503.172	825.88
503.389	802.88
503.606	791.88
503.823	791.88
504.04	795.88
504.256	808.88
504.473	780.88
504.69	772.88
504.907	809.88
505.123	769.88
505.34	736.88
505.557	723.88
505.773	735.88
505.99	723.88
506.207	738.88
506.423	726.88
506.64	706.88
506.856	692.88
507.073	682.88
507.289	672.88
507.506	664.88
507.722	678.88
507.939	704.88
508.155	681.88
508.372	683.88
508.588	666.88
508.805	664.88
509.021	650.88
509.238	697.88
509.454	692.88
509.67	680.88
509.887	668.88
510.103	647.88
510.319	652.88
510.536	729.88
510.752	1050.88
510.968	901.88
511.184	662.88
511.401	635.88
511.617	649.88
511.833	614.88
512.049	631.88
512.265	627.88
512.481	647.88
512.698	602.88
512.914	616.88
513.13	628.88
513.346	605.88
513.562	593.88
513.778	611.88
513.994	610.88
514.21	620.88
514.426	637.88
514.642	675.88
514.858	702.88
515.074	708.88
515.29	785.88
515.506	1073.88
515.721	937.88
515.937	695.88
516.153	677.88
516.369	661.88
516.585	643.88
516.801	655.88
517.016	664.88
517.232	682.88
517.448	673.88
517.664	669.88
517.879	693.88
518.095	682.88
518.311	679.88
518.527	668.88
518.742	663.88
518.958	644.88
519.173	651.88
519.389	636.88
519.605	620.88
519.82	627.88
520.036	637.88
520.251	644.88
520.467	640.88
520.682	664.88
520.898	632.88
521.113	640.88
521.329	661.88
521.544	731.88
521.76	853.88
521.975	1258.88
522.19	1269.88
522.406	841.88
522.621	664.88
522.836	592.88
523.052	592.88
523.267	567.88
523.482	569.88
523.698	546.88
523.913	573.88
524.128	563.88
524.343	555.88
524.559	548.88
524.774	533.88
524.989	544.88
525.204	555.88
525.419	540.88
525.634	541.88
525.849	562.88
526.064	527.88
526.28	537.88
526.495	545.88
526.71	531.88
526.925	515.88
527.14	530.88
527.355	522.88
527.57	517.88
527.785	509.88
527.999	529.88
528.214	520.88
528.429	505.88
528.644	504.88
528.859	529.88
529.074	512.88
529.289	539.88
529.503	591.88
529.718	560.88
529.933	537.88
530.148	513.88
530.363	531.88
530.577	505.88
530.792	501.88
531.007	497.88
531.221	514.88
531.436	509.88
531.651	498.88
531.865	498.88
532.08	498.88
532.295	504.88
532.509	483.88
532.724	488.88
532.938	508.88
533.153	518.88
533.367	510.88
533.582	504.88
533.796	535.88
534.011	504.88
534.225	475.88
534.44	491.88
534.654	481.88
534.868	488.88
535.083	508.88
535.297	487.88
535.511	500.88
535.726	531.88
535.94	521.88
536.154	512.88
536.369	499.88
536.583	469.88
536.797	481.88
537.011	485.88
537.225	467.88
537.44	457.88
537.654	466.88
537.868	458.88
538.082	486.88
538.296	487.88
538.51	497.88
538.724	513.88
538.938	488.88
539.153	473.88
539.367	506.88
539.581	505.88
539.795	474.88
540.009	487.88
540.222	439.88
540.436	475.88
540.65	495.88
540.864	484.88
541.078	482.88
541.292	513.88
541.506	486.88
541.72	497.88
541.934	465.88
542.147	480.88
542.361	492.88
542.575	476.88
542.789	500.88
543.002	490.88
543.216	480.88
543.43	486.88
543.644	482.88
543.857	512.88
544.071	493.88
544.285	468.88
544.498	471.88
544.712	481.88
544.925	471.88
545.139	471.88
545.352	478.88
545.566	470.88
545.779	479.88
545.993	479.88
546.206	489.88
546.42	498.88
546.633	463.88
546.847	489.88
547.06	491.88
547.274	480.88
547.487	482.88
547.7	459.88
547.914	492.88
548.127	470.88
548.34	466.88
548.554	487.88
548.767	449.88
548.98	455.88
549.193	475.88
549.407	476.88
549.62	489.88
549.833	475.88
550.046	483.88
550.259	470.88
550.473	482.88
550.686	475.88
550.899	442.88
551.112	455.88
551.325	450.88
551.538	462.88
551.751	450.88
551.964	436.88
552.177	456.88
552.39	465.88
552.603	447.88
552.816	472.88
553.029	478.88
553.242	472.88
553.455	491.88
553.667	488.88
553.88	476.88
554.093	475.88
554.306	460.88
554.519	443.88
554.732	488.88
554.944	455.88
555.157	453.88
555.37	457.88
555.583	461.88
555.795	458.88
556.008	445.88
556.221	462.88
556.433	433.88
556.646	424.88
556.859	444.88
557.071	450.88
557.284	422.88
557.496	424.88
557.709	426.88
557.921	430.88
558.134	427.88
558.346	414.88
558.559	423.88
558.771	438.88
558.984	398.88
559.196	435.88
559.409	429.88
559.621	428.88
559.833	419.88
560.046	418.88
560.258	423.88
560.47	399.88
560.683	416.88
560.895	423.88
561.107	419.88
561.32	422.88
561.532	398.88
561.744	445.88
561.956	412.88
562.168	418.88
562.381	412.88
562.593	415.88
562.805	422.88
563.017	417.88
563.229	435.88
563.441	418.88
563.653	435.88
563.865	452.88
564.077	405.88
564.289	429.88
564.501	423.88
564.713	435.88
564.925	416.88
565.137	444.88
565.349	439.88
565.561	492.88
565.773	496.88
565.985	481.88
566.197	511.88
566.408	516.88
566.62	516.88
566.832	547.88
567.044	526.88
567.255	564.88
567.467	573.88
567.679	555.88
567.891	601.88
568.102	595.88
568.314	556.88
568.526	551.88
568.737	529.88
568.949	512.88
569.161	490.88
569.372	445.88
569.584	459.88
569.795	432.88
570.007	431.88
570.218	447.88
570.43	456.88
570.641	420.88
570.853	403.88
571.064	412.88
571.276	416.88
571.487	429.88
571.698	424.88
571.91	405.88
572.121	390.88
572.333	401.88
572.544	357.88
572.755	376.88
572.966	372.88
573.178	385.88
573.389	381.88
573.6	373.88
573.811	389.88
574.023	362.88
574.234	379.88
574.445	379.88
574.656	344.88
574.867	370.88
575.078	363.88
575.289	375.88
575.501	353.88
575.712	347.88
575.923	361.88
576.134	344.88
576.345	359.88
576.556	362.88
576.767	350.88
576.978	340.88
577.188	351.88
577.399	363.88
577.61	356.88
577.821	346.88
578.032	349.88
578.243	384.88
578.454	499.88
578.665	399.88
578.875	335.88
579.086	328.88
579.297	346.88
579.508	345.88
579.718	352.88
579.929	329.88
580.14	323.88
580.35	325.88
580.561	323.88
580.772	345.88
580.982	340.88
581.193	322.88
581.403	328.88
581.614	332.88
581.825	340.88
582.035	333.88
582.246	305.88
582.456	329.88
582.667	314.88
582.877	313.88
583.087	312.88
583.298	301.88
583.508	332.88
583.719	338.88
583.929	314.88
584.139	299.88
584.35	309.88
584.56	323.88
584.77	321.88
584.981	290.88
585.191	319.88
585.401	333.88
585.611	333.88
585.821	325.88
586.032	314.88
586.242	307.88
586.452	311.88
586.662	330.88
586.872	317.88
587.082	316.88
587.292	296.88
587.502	282.88
587.713	309.88
587.923	319.88
588.133	316.88
588.343	315.88
588.553	321.88
588.762	319.88
588.972	317.88
589.182	310.88
589.392	328.88
589.602	315.88
589.812	323.88
590.022	327.88
590.232	323.88
590.441	305.88
590.651	314.88
590.861	311.88
591.071	309.88
591.281	325.88
591.49	333.88
591.7	309.88
591.91	336.88
592.119	335.88
592.329	331.88
592.539	327.88
592.748	332.88
592.958	346.88
593.167	340.88
593.377	325.88
593.587	379.88
593.796	355.88
594.006	362.88
594.215	369.88
594.424	370.88
594.634	352.88
594.843	369.88
595.053	354.88
595.262	331.88
595.472	324.88
595.681	322.88
595.89	330.88
596.1	296.88
596.309	310.88
596.518	317.88
596.727	304.88
596.937	288.88
597.146	308.88
597.355	303.88
597.564	310.88
597.774	290.88
597.983	296.88
598.192	287.88
598.401	300.88
598.61	289.88
598.819	287.88
599.028	270.88
599.237	274.88
599.446	285.88
599.655	289.88
599.864	265.88
600.073	275.88
600.282	283.88
600.491	272.88
600.7	273.88
600.909	287.88
601.118	278.88
601.327	269.88
601.536	282.88
601.745	304.88
601.953	285.88
602.162	269.88
602.371	275.88
602.58	271.88
602.789	273.88
602.997	274.88
603.206	281.88
603.415	267.88
603.623	266.88
603.832	259.88
604.041	260.88
604.249	277.88
604.458	263.88
604.666	269.88
604.875	241.88
605.084	263.88
605.292	268.88
605.501	280.88
605.709	261.88
605.918	277.88
606.126	276.88
606.334	280.88
606.543	268.88
606.751	275.88
606.96	247.88
607.168	267.88
607.376	245.88
607.585	259.88
607.793	260.88
608.001	269.88
608.21	229.88
608.418	261.88
608.626	273.88
608.834	259.88
609.043	263.88
609.251	247.88
609.459	251.88
609.667	247.88
609.875	261.88
610.083	268.88
610.291	250.88
610.499	259.88
610.707	250.88
610.916	256.88
611.124	264.88
611.332	254.88
611.54	262.88
611.748	276.88
611.955	272.88
612.163	276.88
612.371	251.88
612.579	242.88
612.787	244.88
612.995	257.88
613.203	261.88
613.411	247.88
613.618	250.88
613.826	237.88
614.034	255.88
614.242	244.88
614.449	255.88
614.657	239.88
614.865	249.88
615.072	255.88
615.28	243.88
615.488	248.88
615.695	245.88
615.903	269.88
616.111	244.88
616.318	271.88
616.526	257.88
616.733	271.88
616.941	252.88
617.148	250.88
617.356	245.88
617.563	246.88
617.771	245.88
617.978	231.88
618.185	261.88
618.393	236.88
618.6	269.88
618.807	247.88
619.015	251.88
619.222	243.88
619.429	240.88
619.637	235.88
619.844	232.88
620.051	243.88
620.258	231.88
620.466	231.88
620.673	232.88
620.88	229.88
621.087	231.88
621.294	227.88
621.501	237.88
621.708	217.88
621.915	230.88
622.122	236.88
622.329	247.88
622.536	215.88
622.743	231.88
622.95	235.88
623.157	226.88
623.364	228.88
623.571	246.88
623.778	249.88
623.985	217.88
624.192	213.88
624.399	228.88
624.606	261.88
624.812	226.88
625.019	215.88
625.226	225.88
625.433	217.88
625.639	229.88
625.846	222.88
626.053	219.88
626.259	227.88
626.466	216.88
626.673	211.88
626.879	216.88
627.086	220.88
627.293	205.88
627.499	218.88
627.706	226.88
627.912	233.88
628.119	214.88
628.325	231.88
628.532	221.88
628.738	231.88
628.945	216.88
629.151	200.88
629.357	213.88
629.564	197.88
629.77	206.88
629.976	210.88
630.183	211.88
630.389	198.88
630.595	199.88
630.802	205.88
631.008	205.88
631.214	202.88
631.42	205.88
631.627	205.88
631.833	198.88
632.039	203.88
632.245	197.88
632.451	200.88
632.657	196.88
632.863	199.88
633.069	193.88
633.275	210.88
633.481	197.88
633.688	194.88
633.893	187.88
634.099	207.88
634.305	204.88
634.511	171.88
634.717	188.88
634.923	186.88
635.129	195.88
635.335	188.88
635.541	212.88
635.747	197.88
635.952	197.88
636.158	201.88
636.364	191.88
636.57	189.88
636.775	198.88
636.981	183.88
637.187	196.88
637.392	205.88
637.598	190.88
637.804	194.88
638.009	203.88
638.215	183.88
638.421	196.88
638.626	190.88
638.832	195.88
639.037	198.88
639.243	189.88
639.448	171.88
639.654	161.88
639.859	193.88
640.065	166.88
640.27	193.88
640.475	179.88
640.681	187.88
640.886	179.88
641.091	186.88
641.297	179.88
641.502	175.88
641.707	178.88
641.913	185.88
642.118	183.88
642.323	162.88
642.528	179.88
642.733	185.88
642.939	187.88
643.144	165.88
643.349	183.88
643.554	176.88
643.759	173.88
643.964	176.88
644.169	172.88
644.374	176.88
644.579	169.88
644.784	186.88
644.989	179.88
645.194	183.88
645.399	182.88
645.604	189.88
645.809	172.88
646.014	166.88
646.219	169.88
646.423	177.88
646.628	164.88
646.833	171.88
647.038	177.88
647.243	170.88
647.447	182.88
647.652	187.88
647.857	169.88
648.062	173.88
648.266	184.88
648.471	182.88
648.676	187.88
648.88	190.88
649.085	180.88
649.289	179.88
649.494	181.88
649.698	184.88
649.903	169.88
650.107	165.88
650.312	173.88
650.516	166.88
650.721	167.88
650.925	169.88
651.13	184.88
651.334	155.88
651.539	166.88
651.743	165.88
651.947	145.88
652.152	167.88
652.356	149.88
652.56	153.88
652.764	176.88
652.969	167.88
653.173	140.88
653.377	154.88
653.581	144.88
653.785	139.88
653.99	147.88
654.194	151.88
654.398	150.88
654.602	140.88
654.806	142.88
655.01	151.88
655.214	151.88
655.418	137.88
655.622	123.88
655.826	131.88
656.03	142.88
656.234	145.88
656.438	149.88
656.642	134.88
656.846	148.88
657.049	124.88
657.253	130.88
657.457	127.88
657.661	119.88
657.865	108.88
658.068	137.88
658.272	116.88
658.476	115.88
658.68	107.88
658.883	112.88
659.087	90.88
659.291	103.88
659.494	98.88
659.698	117.88
659.901	112.88
660.105	93.88
660.309	87.88
660.512	86.88
660.716	84.88
660.919	108.88
661.123	104.88
661.326	85.88
661.53	82.88
661.733	80.88
661.936	86.88
662.14	91.88
662.343	90.88
662.546	75.88
662.75	82.88
662.953	82.88
663.156	85.88
663.36	98.88
663.563	79.88
663.766	70.88
663.969	96.88
664.173	74.88
664.376	71.88
664.579	79.88
664.782	73.88
664.985	82.88
665.188	82.88
665.391	92.88
665.594	80.88
665.797	103.88
666	80.88
666.203	72.88
666.406	75.88
666.609	73.88
666.812	83.88
667.015	92.88
667.218	87.88
667.421	85.88
667.624	84.88
667.827	89.88
668.03	72.88
668.232	67.88
668.435	72.88
668.638	69.88
668.841	87.88
669.043	91.88
669.246	90.88
669.449	96.88
669.651	84.88
669.854	75.88
670.057	82.88
670.259	82.88
670.462	78.88
670.665	71.88
670.867	77.88
671.07	85.88
671.272	81.88
671.475	87.88
671.677	82.88
671.88	73.88
672.082	89.88
672.284	83.88
672.487	74.88
672.689	86.88
672.892	82.88
