Data from 1975.PennyLincolnUp.Lamp.En5.5.200Scan.071719.P1.Changed Mount._HRD10591_15-57-32-859.txt Node
Date: Thu Jul 18 15:57:32 EDT 2019
User: cochatt
Spectrometer: HR+D1059
Trigger mode: 1
Integration Time (sec): 1.000000E-1
Scans to average: 1
Electric dark correction enabled: true
Nonlinearity correction enabled: false
Boxcar width: 0
XAxis mode: Wavelengths
Number of Pixels in Spectrum: 2048
>>>>>Begin Spectral Data<<<<<
223.165	-16.12
223.4	-16.12
223.635	-16.12
223.869	-15.12
224.104	-20.12
224.338	-7.12
224.573	-17.12
224.808	-22.12
225.042	13.88
225.277	2.88
225.511	-10.12
225.746	19.88
225.98	1.88
226.215	14.88
226.449	3.88
226.683	12.88
226.918	-2.12
227.152	39.88
227.387	19.88
227.621	30.88
227.856	49.88
228.09	36.88
228.324	45.88
228.559	57.88
228.793	51.88
229.027	91.88
229.262	96.88
229.496	116.88
229.73	112.88
229.964	147.88
230.199	127.88
230.433	110.88
230.667	108.88
230.901	121.88
231.136	103.88
231.37	109.88
231.604	99.88
231.838	115.88
232.072	121.88
232.306	120.88
232.541	109.88
232.775	128.88
233.009	107.88
233.243	114.88
233.477	105.88
233.711	113.88
233.945	118.88
234.179	126.88
234.413	113.88
234.647	116.88
234.881	118.88
235.115	118.88
235.349	126.88
235.583	135.88
235.817	116.88
236.051	119.88
236.285	115.88
236.519	115.88
236.753	136.88
236.987	145.88
237.221	164.88
237.455	228.88
237.689	173.88
237.922	148.88
238.156	131.88
238.39	128.88
238.624	120.88
238.858	115.88
239.091	131.88
239.325	111.88
239.559	120.88
239.793	123.88
240.027	131.88
240.26	137.88
240.494	135.88
240.728	149.88
240.961	146.88
241.195	153.88
241.429	151.88
241.662	140.88
241.896	133.88
242.13	145.88
242.363	145.88
242.597	143.88
242.83	152.88
243.064	138.88
243.298	138.88
243.531	140.88
243.765	144.88
243.998	150.88
244.232	134.88
244.465	160.88
244.699	143.88
244.932	142.88
245.166	151.88
245.399	138.88
245.633	143.88
245.866	138.88
246.099	163.88
246.333	152.88
246.566	156.88
246.8	151.88
247.033	155.88
247.266	159.88
247.5	159.88
247.733	172.88
247.966	179.88
248.2	177.88
248.433	185.88
248.666	178.88
248.899	179.88
249.133	175.88
249.366	214.88
249.599	207.88
249.832	177.88
250.066	177.88
250.299	171.88
250.532	194.88
250.765	202.88
250.998	217.88
251.231	239.88
251.465	210.88
251.698	205.88
251.931	212.88
252.164	178.88
252.397	194.88
252.63	211.88
252.863	205.88
253.096	213.88
253.329	215.88
253.562	221.88
253.795	209.88
254.028	224.88
254.261	212.88
254.494	208.88
254.727	245.88
254.96	281.88
255.193	275.88
255.426	243.88
255.659	220.88
255.892	230.88
256.124	226.88
256.357	230.88
256.59	223.88
256.823	223.88
257.056	224.88
257.289	221.88
257.521	203.88
257.754	207.88
257.987	220.88
258.22	212.88
258.452	211.88
258.685	196.88
258.918	201.88
259.151	221.88
259.383	236.88
259.616	232.88
259.849	225.88
260.081	224.88
260.314	241.88
260.547	264.88
260.779	233.88
261.012	230.88
261.244	229.88
261.477	216.88
261.71	205.88
261.942	221.88
262.175	238.88
262.407	215.88
262.64	237.88
262.872	211.88
263.105	209.88
263.337	220.88
263.57	241.88
263.802	223.88
264.035	218.88
264.267	216.88
264.499	214.88
264.732	240.88
264.964	219.88
265.197	223.88
265.429	216.88
265.661	226.88
265.894	217.88
266.126	224.88
266.358	224.88
266.591	235.88
266.823	228.88
267.055	219.88
267.287	233.88
267.52	233.88
267.752	234.88
267.984	221.88
268.216	231.88
268.448	219.88
268.681	259.88
268.913	253.88
269.145	262.88
269.377	289.88
269.609	285.88
269.841	272.88
270.073	290.88
270.306	289.88
270.538	294.88
270.77	317.88
271.002	314.88
271.234	296.88
271.466	283.88
271.698	315.88
271.93	303.88
272.162	319.88
272.394	306.88
272.626	318.88
272.858	284.88
273.09	289.88
273.322	279.88
273.553	275.88
273.785	268.88
274.017	265.88
274.249	275.88
274.481	267.88
274.713	268.88
274.945	265.88
275.176	279.88
275.408	282.88
275.64	272.88
275.872	265.88
276.104	260.88
276.335	273.88
276.567	268.88
276.799	324.88
277.031	322.88
277.262	310.88
277.494	321.88
277.726	323.88
277.957	268.88
278.189	285.88
278.421	268.88
278.652	289.88
278.884	277.88
279.115	277.88
279.347	273.88
279.579	281.88
279.81	262.88
280.042	288.88
280.273	262.88
280.505	276.88
280.736	282.88
280.968	270.88
281.199	261.88
281.431	284.88
281.662	272.88
281.894	249.88
282.125	291.88
282.356	278.88
282.588	300.88
282.819	295.88
283.051	283.88
283.282	291.88
283.513	291.88
283.745	287.88
283.976	279.88
284.207	323.88
284.439	296.88
284.67	300.88
284.901	305.88
285.132	277.88
285.364	300.88
285.595	306.88
285.826	303.88
286.057	289.88
286.288	296.88
286.52	291.88
286.751	299.88
286.982	298.88
287.213	276.88
287.444	291.88
287.675	283.88
287.906	309.88
288.138	319.88
288.369	329.88
288.6	312.88
288.831	324.88
289.062	325.88
289.293	304.88
289.524	320.88
289.755	312.88
289.986	308.88
290.217	287.88
290.448	283.88
290.679	315.88
290.91	310.88
291.141	298.88
291.371	310.88
291.602	300.88
291.833	289.88
292.064	303.88
292.295	301.88
292.526	293.88
292.757	307.88
292.987	306.88
293.218	291.88
293.449	310.88
293.68	315.88
293.91	284.88
294.141	299.88
294.372	299.88
294.603	296.88
294.833	311.88
295.064	310.88
295.295	313.88
295.525	322.88
295.756	309.88
295.987	323.88
296.217	328.88
296.448	329.88
296.679	326.88
296.909	311.88
297.14	320.88
297.37	317.88
297.601	315.88
297.831	321.88
298.062	324.88
298.292	307.88
298.523	334.88
298.753	331.88
298.984	331.88
299.214	315.88
299.445	338.88
299.675	315.88
299.905	324.88
300.136	327.88
300.366	331.88
300.597	333.88
300.827	328.88
301.057	327.88
301.288	325.88
301.518	331.88
301.748	362.88
301.979	320.88
302.209	355.88
302.439	353.88
302.669	350.88
302.9	339.88
303.13	323.88
303.36	344.88
303.59	339.88
303.82	336.88
304.051	354.88
304.281	332.88
304.511	361.88
304.741	332.88
304.971	339.88
305.201	347.88
305.431	340.88
305.661	328.88
305.891	341.88
306.121	332.88
306.352	343.88
306.582	347.88
306.812	333.88
307.042	331.88
307.272	344.88
307.502	353.88
307.731	343.88
307.961	342.88
308.191	351.88
308.421	335.88
308.651	367.88
308.881	356.88
309.111	356.88
309.341	370.88
309.571	350.88
309.8	371.88
310.03	375.88
310.26	365.88
310.49	375.88
310.72	357.88
310.949	378.88
311.179	401.88
311.409	369.88
311.639	376.88
311.868	394.88
312.098	374.88
312.328	369.88
312.557	396.88
312.787	416.88
313.017	384.88
313.246	378.88
313.476	379.88
313.706	395.88
313.935	392.88
314.165	396.88
314.394	417.88
314.624	384.88
314.853	380.88
315.083	383.88
315.312	366.88
315.542	372.88
315.771	399.88
316.001	369.88
316.23	373.88
316.46	381.88
316.689	390.88
316.919	381.88
317.148	385.88
317.377	404.88
317.607	396.88
317.836	394.88
318.065	401.88
318.295	364.88
318.524	377.88
318.753	383.88
318.983	407.88
319.212	371.88
319.441	383.88
319.67	417.88
319.9	387.88
320.129	394.88
320.358	390.88
320.587	403.88
320.816	410.88
321.046	400.88
321.275	419.88
321.504	398.88
321.733	423.88
321.962	403.88
322.191	406.88
322.42	419.88
322.649	436.88
322.878	439.88
323.108	435.88
323.337	467.88
323.566	486.88
323.795	503.88
324.024	526.88
324.253	603.88
324.482	815.88
324.71	1236.88
324.939	1946.88
325.168	1657.88
325.397	833.88
325.626	572.88
325.855	521.88
326.084	479.88
326.313	463.88
326.542	482.88
326.77	526.88
326.999	592.88
327.228	762.88
327.457	1165.88
327.686	1438.88
327.914	979.88
328.143	650.88
328.372	572.88
328.6	540.88
328.829	502.88
329.058	540.88
329.287	561.88
329.515	523.88
329.744	490.88
329.972	503.88
330.201	509.88
330.43	547.88
330.658	548.88
330.887	578.88
331.115	587.88
331.344	499.88
331.572	488.88
331.801	499.88
332.03	503.88
332.258	475.88
332.486	475.88
332.715	492.88
332.943	459.88
333.172	491.88
333.4	480.88
333.629	480.88
333.857	491.88
334.085	503.88
334.314	535.88
334.542	547.88
334.771	552.88
334.999	527.88
335.227	504.88
335.455	491.88
335.684	472.88
335.912	479.88
336.14	471.88
336.369	482.88
336.597	475.88
336.825	483.88
337.053	467.88
337.281	476.88
337.51	454.88
337.738	443.88
337.966	453.88
338.194	451.88
338.422	479.88
338.65	450.88
338.878	441.88
339.106	447.88
339.334	439.88
339.562	434.88
339.79	438.88
340.018	444.88
340.246	456.88
340.474	460.88
340.702	457.88
340.93	434.88
341.158	449.88
341.386	426.88
341.614	426.88
341.842	454.88
342.07	452.88
342.298	431.88
342.526	443.88
342.754	442.88
342.981	461.88
343.209	439.88
343.437	425.88
343.665	458.88
343.893	474.88
344.12	470.88
344.348	467.88
344.576	460.88
344.804	466.88
345.031	458.88
345.259	458.88
345.487	452.88
345.714	465.88
345.942	423.88
346.17	430.88
346.397	443.88
346.625	428.88
346.853	408.88
347.08	409.88
347.308	428.88
347.535	428.88
347.763	443.88
347.99	435.88
348.218	443.88
348.445	465.88
348.673	422.88
348.9	428.88
349.128	434.88
349.355	415.88
349.583	417.88
349.81	407.88
350.037	415.88
350.265	418.88
350.492	418.88
350.72	420.88
350.947	431.88
351.174	427.88
351.402	441.88
351.629	435.88
351.856	456.88
352.083	447.88
352.311	427.88
352.538	424.88
352.765	416.88
352.992	450.88
353.22	417.88
353.447	426.88
353.674	406.88
353.901	420.88
354.128	406.88
354.355	399.88
354.583	423.88
354.81	422.88
355.037	413.88
355.264	415.88
355.491	381.88
355.718	375.88
355.945	404.88
356.172	427.88
356.399	385.88
356.626	385.88
356.853	400.88
357.08	401.88
357.307	431.88
357.534	396.88
357.761	399.88
357.988	443.88
358.215	408.88
358.441	395.88
358.668	413.88
358.895	402.88
359.122	399.88
359.349	407.88
359.576	433.88
359.802	453.88
360.029	452.88
360.256	461.88
360.483	454.88
360.709	435.88
360.936	436.88
361.163	429.88
361.39	439.88
361.616	443.88
361.843	435.88
362.07	423.88
362.296	446.88
362.523	407.88
362.749	438.88
362.976	422.88
363.203	438.88
363.429	406.88
363.656	433.88
363.882	408.88
364.109	403.88
364.335	424.88
364.562	403.88
364.788	408.88
365.015	426.88
365.241	407.88
365.468	425.88
365.694	423.88
365.92	431.88
366.147	409.88
366.373	417.88
366.599	404.88
366.826	407.88
367.052	425.88
367.278	407.88
367.505	413.88
367.731	405.88
367.957	421.88
368.184	424.88
368.41	425.88
368.636	404.88
368.862	439.88
369.089	418.88
369.315	425.88
369.541	425.88
369.767	451.88
369.993	414.88
370.219	406.88
370.445	417.88
370.672	410.88
370.898	403.88
371.124	426.88
371.35	424.88
371.576	424.88
371.802	423.88
372.028	428.88
372.254	435.88
372.48	415.88
372.706	418.88
372.932	441.88
373.158	427.88
373.384	432.88
373.61	416.88
373.835	436.88
374.061	406.88
374.287	416.88
374.513	432.88
374.739	447.88
374.965	446.88
375.191	427.88
375.416	431.88
375.642	437.88
375.868	422.88
376.094	424.88
376.319	420.88
376.545	419.88
376.771	426.88
376.997	419.88
377.222	423.88
377.448	427.88
377.674	415.88
377.899	415.88
378.125	428.88
378.35	427.88
378.576	435.88
378.802	435.88
379.027	426.88
379.253	419.88
379.478	406.88
379.704	417.88
379.929	420.88
380.155	423.88
380.38	428.88
380.606	432.88
380.831	433.88
381.057	456.88
381.282	443.88
381.507	424.88
381.733	438.88
381.958	417.88
382.184	405.88
382.409	446.88
382.634	447.88
382.86	432.88
383.085	432.88
383.31	453.88
383.535	461.88
383.761	453.88
383.986	454.88
384.211	456.88
384.436	455.88
384.662	462.88
384.887	486.88
385.112	469.88
385.337	485.88
385.562	480.88
385.787	478.88
386.013	506.88
386.238	485.88
386.463	482.88
386.688	457.88
386.913	457.88
387.138	479.88
387.363	471.88
387.588	479.88
387.813	465.88
388.038	453.88
388.263	485.88
388.488	502.88
388.713	485.88
388.938	486.88
389.163	479.88
389.387	459.88
389.612	472.88
389.837	491.88
390.062	467.88
390.287	461.88
390.512	459.88
390.736	464.88
390.961	464.88
391.186	498.88
391.411	475.88
391.636	484.88
391.86	479.88
392.085	494.88
392.31	497.88
392.534	501.88
392.759	482.88
392.984	487.88
393.208	456.88
393.433	471.88
393.658	478.88
393.882	501.88
394.107	492.88
394.331	492.88
394.556	460.88
394.78	472.88
395.005	478.88
395.229	494.88
395.454	500.88
395.678	488.88
395.903	522.88
396.127	523.88
396.352	533.88
396.576	522.88
396.801	500.88
397.025	482.88
397.249	521.88
397.474	525.88
397.698	513.88
397.922	523.88
398.147	532.88
398.371	537.88
398.595	547.88
398.82	531.88
399.044	594.88
399.268	590.88
399.492	619.88
399.717	676.88
399.941	695.88
400.165	701.88
400.389	705.88
400.613	650.88
400.837	596.88
401.062	581.88
401.286	561.88
401.51	554.88
401.734	548.88
401.958	541.88
402.182	592.88
402.406	569.88
402.63	567.88
402.854	590.88
403.078	583.88
403.302	583.88
403.526	604.88
403.75	607.88
403.974	608.88
404.198	577.88
404.422	579.88
404.645	597.88
404.869	584.88
405.093	632.88
405.317	666.88
405.541	706.88
405.765	639.88
405.988	592.88
406.212	637.88
406.436	635.88
406.66	611.88
406.883	627.88
407.107	649.88
407.331	715.88
407.555	790.88
407.778	756.88
408.002	681.88
408.226	663.88
408.449	620.88
408.673	615.88
408.896	647.88
409.12	706.88
409.344	671.88
409.567	623.88
409.791	608.88
410.014	586.88
410.238	596.88
410.461	595.88
410.685	582.88
410.908	620.88
411.132	629.88
411.355	655.88
411.578	639.88
411.802	599.88
412.025	582.88
412.249	598.88
412.472	618.88
412.695	665.88
412.919	643.88
413.142	596.88
413.365	595.88
413.589	555.88
413.812	552.88
414.035	573.88
414.258	542.88
414.482	541.88
414.705	573.88
414.928	545.88
415.151	535.88
415.374	553.88
415.597	558.88
415.821	549.88
416.044	549.88
416.267	564.88
416.49	533.88
416.713	552.88
416.936	557.88
417.159	559.88
417.382	540.88
417.605	546.88
417.828	557.88
418.051	597.88
418.274	566.88
418.497	549.88
418.72	566.88
418.943	552.88
419.166	591.88
419.389	596.88
419.611	604.88
419.834	560.88
420.057	598.88
420.28	560.88
420.503	600.88
420.726	594.88
420.948	581.88
421.171	615.88
421.394	663.88
421.617	601.88
421.839	568.88
422.062	536.88
422.285	573.88
422.507	645.88
422.73	721.88
422.953	689.88
423.175	621.88
423.398	602.88
423.621	593.88
423.843	620.88
424.066	611.88
424.288	594.88
424.511	626.88
424.733	699.88
424.956	753.88
425.178	745.88
425.401	737.88
425.623	751.88
425.846	675.88
426.068	603.88
426.291	593.88
426.513	600.88
426.735	598.88
426.958	634.88
427.18	730.88
427.402	853.88
427.625	958.88
427.847	789.88
428.069	721.88
428.292	642.88
428.514	579.88
428.736	561.88
428.958	578.88
429.181	554.88
429.403	542.88
429.625	567.88
429.847	595.88
430.069	674.88
430.292	651.88
430.514	581.88
430.736	569.88
430.958	565.88
431.18	554.88
431.402	517.88
431.624	521.88
431.846	514.88
432.068	518.88
432.29	527.88
432.512	525.88
432.734	561.88
432.956	531.88
433.178	528.88
433.4	559.88
433.622	535.88
433.844	551.88
434.066	525.88
434.287	553.88
434.509	562.88
434.731	561.88
434.953	564.88
435.175	586.88
435.397	603.88
435.618	604.88
435.84	636.88
436.062	723.88
436.284	812.88
436.505	686.88
436.727	619.88
436.949	568.88
437.17	563.88
437.392	553.88
437.614	585.88
437.835	591.88
438.057	679.88
438.278	787.88
438.5	782.88
438.721	895.88
438.943	866.88
439.165	664.88
439.386	617.88
439.608	608.88
439.829	627.88
440.05	609.88
440.272	666.88
440.493	613.88
440.715	591.88
440.936	569.88
441.158	559.88
441.379	557.88
441.6	590.88
441.822	589.88
442.043	631.88
442.264	742.88
442.486	778.88
442.707	662.88
442.928	608.88
443.149	615.88
443.371	645.88
443.592	706.88
443.813	769.88
444.034	844.88
444.255	713.88
444.476	640.88
444.698	651.88
444.919	610.88
445.14	747.88
445.361	682.88
445.582	633.88
445.803	703.88
446.024	823.88
446.245	809.88
446.466	752.88
446.687	632.88
446.908	602.88
447.129	553.88
447.35	559.88
447.571	516.88
447.792	555.88
448.013	544.88
448.234	570.88
448.455	607.88
448.675	712.88
448.896	865.88
449.117	719.88
449.338	665.88
449.559	761.88
449.779	899.88
450	703.88
450.221	582.88
450.442	562.88
450.662	535.88
450.883	529.88
451.104	559.88
451.324	564.88
451.545	550.88
451.766	524.88
451.986	489.88
452.207	490.88
452.428	521.88
452.648	479.88
452.869	508.88
453.089	487.88
453.31	521.88
453.53	469.88
453.751	507.88
453.971	476.88
454.192	498.88
454.412	512.88
454.633	469.88
454.853	471.88
455.073	483.88
455.294	499.88
455.514	561.88
455.734	561.88
455.955	466.88
456.175	479.88
456.395	452.88
456.616	471.88
456.836	478.88
457.056	457.88
457.276	428.88
457.497	438.88
457.717	449.88
457.937	459.88
458.157	473.88
458.377	479.88
458.598	513.88
458.818	536.88
459.038	608.88
459.258	666.88
459.478	573.88
459.698	539.88
459.918	529.88
460.138	541.88
460.358	566.88
460.578	543.88
460.798	552.88
461.018	558.88
461.238	561.88
461.458	563.88
461.678	544.88
461.898	557.88
462.118	551.88
462.338	560.88
462.558	575.88
462.777	578.88
462.997	594.88
463.217	635.88
463.437	631.88
463.657	625.88
463.876	604.88
464.096	607.88
464.316	584.88
464.536	601.88
464.755	595.88
464.975	585.88
465.195	589.88
465.414	634.88
465.634	569.88
465.854	561.88
466.073	546.88
466.293	508.88
466.512	502.88
466.732	525.88
466.951	496.88
467.171	535.88
467.391	529.88
467.61	507.88
467.829	528.88
468.049	509.88
468.268	516.88
468.488	507.88
468.707	498.88
468.927	498.88
469.146	511.88
469.365	511.88
469.585	499.88
469.804	484.88
470.023	507.88
470.243	510.88
470.462	543.88
470.681	527.88
470.901	516.88
471.12	501.88
471.339	522.88
471.558	505.88
471.777	525.88
471.997	522.88
472.216	482.88
472.435	547.88
472.654	531.88
472.873	506.88
473.092	500.88
473.311	523.88
473.53	521.88
473.749	531.88
473.968	552.88
474.187	640.88
474.406	673.88
474.625	570.88
474.844	525.88
475.063	524.88
475.282	519.88
475.501	516.88
475.72	525.88
475.939	504.88
476.158	538.88
476.377	525.88
476.596	527.88
476.814	521.88
477.033	537.88
477.252	544.88
477.471	535.88
477.69	556.88
477.908	560.88
478.127	569.88
478.346	569.88
478.564	582.88
478.783	570.88
479.002	589.88
479.22	571.88
479.439	606.88
479.658	608.88
479.876	618.88
480.095	635.88
480.313	641.88
480.532	639.88
480.751	643.88
480.969	648.88
481.188	699.88
481.406	735.88
481.624	657.88
481.843	620.88
482.061	596.88
482.28	589.88
482.498	605.88
482.717	600.88
482.935	594.88
483.153	610.88
483.372	573.88
483.59	587.88
483.808	595.88
484.027	594.88
484.245	599.88
484.463	598.88
484.681	584.88
484.9	631.88
485.118	618.88
485.336	609.88
485.554	611.88
485.772	615.88
485.99	623.88
486.209	622.88
486.427	602.88
486.645	641.88
486.863	659.88
487.081	658.88
487.299	620.88
487.517	646.88
487.735	631.88
487.953	645.88
488.171	659.88
488.389	667.88
488.607	642.88
488.825	658.88
489.043	664.88
489.261	648.88
489.479	665.88
489.696	648.88
489.914	657.88
490.132	674.88
490.35	673.88
490.568	676.88
490.786	693.88
491.003	713.88
491.221	717.88
491.439	731.88
491.657	733.88
491.874	740.88
492.092	741.88
492.31	763.88
492.527	753.88
492.745	748.88
492.963	767.88
493.18	749.88
493.398	765.88
493.615	776.88
493.833	787.88
494.05	759.88
494.268	744.88
494.485	767.88
494.703	787.88
494.92	766.88
495.138	743.88
495.355	772.88
495.573	771.88
495.79	779.88
496.008	758.88
496.225	773.88
496.442	757.88
496.66	767.88
496.877	779.88
497.094	782.88
497.312	798.88
497.529	811.88
497.746	807.88
497.963	824.88
498.181	866.88
498.398	863.88
498.615	871.88
498.832	891.88
499.049	909.88
499.267	980.88
499.484	996.88
499.701	997.88
499.918	1050.88
500.135	1132.88
500.352	1192.88
500.569	1249.88
500.786	1251.88
501.003	1195.88
501.22	1153.88
501.437	1128.88
501.654	1091.88
501.871	1002.88
502.088	981.88
502.305	919.88
502.522	895.88
502.739	895.88
502.956	852.88
503.172	851.88
503.389	799.88
503.606	811.88
503.823	820.88
504.04	798.88
504.256	797.88
504.473	787.88
504.69	777.88
504.907	781.88
505.123	747.88
505.34	767.88
505.557	735.88
505.773	764.88
505.99	748.88
506.207	731.88
506.423	731.88
506.64	718.88
506.856	699.88
507.073	698.88
507.289	728.88
507.506	710.88
507.722	722.88
507.939	717.88
508.155	662.88
508.372	691.88
508.588	687.88
508.805	679.88
509.021	661.88
509.238	693.88
509.454	700.88
509.67	693.88
509.887	673.88
510.103	677.88
510.319	698.88
510.536	735.88
510.752	1052.88
510.968	888.88
511.184	666.88
511.401	663.88
511.617	664.88
511.833	644.88
512.049	644.88
512.265	637.88
512.481	625.88
512.698	629.88
512.914	653.88
513.13	616.88
513.346	633.88
513.562	634.88
513.778	617.88
513.994	643.88
514.21	644.88
514.426	639.88
514.642	681.88
514.858	711.88
515.074	701.88
515.29	834.88
515.506	1092.88
515.721	958.88
515.937	728.88
516.153	680.88
516.369	688.88
516.585	674.88
516.801	660.88
517.016	668.88
517.232	676.88
517.448	690.88
517.664	689.88
517.879	673.88
518.095	708.88
518.311	679.88
518.527	683.88
518.742	637.88
518.958	664.88
519.173	641.88
519.389	635.88
519.605	631.88
519.82	643.88
520.036	635.88
520.251	632.88
520.467	647.88
520.682	675.88
520.898	661.88
521.113	668.88
521.329	717.88
521.544	755.88
521.76	867.88
521.975	1293.88
522.19	1327.88
522.406	843.88
522.621	677.88
522.836	634.88
523.052	602.88
523.267	575.88
523.482	592.88
523.698	584.88
523.913	582.88
524.128	563.88
524.343	585.88
524.559	563.88
524.774	552.88
524.989	563.88
525.204	561.88
525.419	563.88
525.634	546.88
525.849	545.88
526.064	523.88
526.28	531.88
526.495	517.88
526.71	534.88
526.925	525.88
527.14	514.88
527.355	530.88
527.57	536.88
527.785	520.88
527.999	542.88
528.214	506.88
528.429	508.88
528.644	522.88
528.859	532.88
529.074	520.88
529.289	550.88
529.503	589.88
529.718	586.88
529.933	555.88
530.148	545.88
530.363	547.88
530.577	547.88
530.792	524.88
531.007	512.88
531.221	525.88
531.436	531.88
531.651	517.88
531.865	517.88
532.08	526.88
532.295	499.88
532.509	499.88
532.724	503.88
532.938	510.88
533.153	503.88
533.367	512.88
533.582	514.88
533.796	490.88
534.011	485.88
534.225	516.88
534.44	497.88
534.654	487.88
534.868	502.88
535.083	496.88
535.297	523.88
535.511	527.88
535.726	511.88
535.94	523.88
536.154	502.88
536.369	516.88
536.583	498.88
536.797	484.88
537.011	485.88
537.225	496.88
537.44	476.88
537.654	484.88
537.868	493.88
538.082	495.88
538.296	496.88
538.51	475.88
538.724	492.88
538.938	491.88
539.153	496.88
539.367	501.88
539.581	495.88
539.795	495.88
540.009	481.88
540.222	484.88
540.436	479.88
540.65	474.88
540.864	482.88
541.078	505.88
541.292	510.88
541.506	493.88
541.72	490.88
541.934	500.88
542.147	484.88
542.361	480.88
542.575	491.88
542.789	481.88
543.002	480.88
543.216	491.88
543.43	493.88
543.644	484.88
543.857	499.88
544.071	501.88
544.285	474.88
544.498	466.88
544.712	479.88
544.925	494.88
545.139	484.88
545.352	477.88
545.566	508.88
545.779	477.88
545.993	479.88
546.206	492.88
546.42	479.88
546.633	481.88
546.847	485.88
547.06	490.88
547.274	473.88
547.487	462.88
547.7	490.88
547.914	468.88
548.127	444.88
548.34	475.88
548.554	463.88
548.767	482.88
548.98	478.88
549.193	454.88
549.407	467.88
549.62	452.88
549.833	483.88
550.046	472.88
550.259	472.88
550.473	471.88
550.686	467.88
550.899	476.88
551.112	459.88
551.325	467.88
551.538	475.88
551.751	458.88
551.964	461.88
552.177	470.88
552.39	495.88
552.603	471.88
552.816	487.88
553.029	496.88
553.242	495.88
553.455	472.88
553.667	498.88
553.88	519.88
554.093	476.88
554.306	473.88
554.519	470.88
554.732	477.88
554.944	450.88
555.157	469.88
555.37	489.88
555.583	461.88
555.795	449.88
556.008	421.88
556.221	436.88
556.433	430.88
556.646	440.88
556.859	417.88
557.071	439.88
557.284	439.88
557.496	419.88
557.709	414.88
557.921	415.88
558.134	424.88
558.346	426.88
558.559	410.88
558.771	430.88
558.984	421.88
559.196	412.88
559.409	412.88
559.621	411.88
559.833	431.88
560.046	403.88
560.258	419.88
560.47	411.88
560.683	413.88
560.895	426.88
561.107	417.88
561.32	404.88
561.532	420.88
561.744	396.88
561.956	412.88
562.168	432.88
562.381	419.88
562.593	416.88
562.805	406.88
563.017	421.88
563.229	415.88
563.441	427.88
563.653	422.88
563.865	435.88
564.077	435.88
564.289	422.88
564.501	453.88
564.713	425.88
564.925	446.88
565.137	453.88
565.349	467.88
565.561	479.88
565.773	491.88
565.985	478.88
566.197	507.88
566.408	513.88
566.62	508.88
566.832	553.88
567.044	539.88
567.255	571.88
567.467	548.88
567.679	565.88
567.891	595.88
568.102	596.88
568.314	577.88
568.526	570.88
568.737	539.88
568.949	509.88
569.161	462.88
569.372	481.88
569.584	458.88
569.795	458.88
570.007	439.88
570.218	467.88
570.43	448.88
570.641	439.88
570.853	403.88
571.064	409.88
571.276	420.88
571.487	409.88
571.698	409.88
571.91	402.88
572.121	404.88
572.333	389.88
572.544	406.88
572.755	367.88
572.966	382.88
573.178	390.88
573.389	384.88
573.6	362.88
573.811	369.88
574.023	377.88
574.234	355.88
574.445	377.88
574.656	357.88
574.867	347.88
575.078	365.88
575.289	364.88
575.501	353.88
575.712	358.88
575.923	355.88
576.134	357.88
576.345	361.88
576.556	356.88
576.767	354.88
576.978	362.88
577.188	364.88
577.399	355.88
577.61	354.88
577.821	362.88
578.032	351.88
578.243	378.88
578.454	517.88
578.665	398.88
578.875	363.88
579.086	350.88
579.297	326.88
579.508	338.88
579.718	323.88
579.929	319.88
580.14	337.88
580.35	338.88
580.561	327.88
580.772	351.88
580.982	332.88
581.193	331.88
581.403	346.88
581.614	329.88
581.825	315.88
582.035	310.88
582.246	322.88
582.456	318.88
582.667	327.88
582.877	341.88
583.087	325.88
583.298	321.88
583.508	321.88
583.719	323.88
583.929	328.88
584.139	344.88
584.35	316.88
584.56	308.88
584.77	306.88
584.981	313.88
585.191	323.88
585.401	320.88
585.611	311.88
585.821	298.88
586.032	322.88
586.242	311.88
586.452	322.88
586.662	313.88
586.872	330.88
587.082	303.88
587.292	323.88
587.502	309.88
587.713	303.88
587.923	324.88
588.133	312.88
588.343	291.88
588.553	319.88
588.762	329.88
588.972	324.88
589.182	316.88
589.392	330.88
589.602	312.88
589.812	307.88
590.022	307.88
590.232	316.88
590.441	311.88
590.651	314.88
590.861	298.88
591.071	320.88
591.281	317.88
591.49	309.88
591.7	327.88
591.91	323.88
592.119	316.88
592.329	325.88
592.539	336.88
592.748	344.88
592.958	350.88
593.167	348.88
593.377	349.88
593.587	379.88
593.796	364.88
594.006	363.88
594.215	319.88
594.424	349.88
594.634	350.88
594.843	343.88
595.053	343.88
595.262	343.88
595.472	329.88
595.681	307.88
595.89	319.88
596.1	292.88
596.309	303.88
596.518	295.88
596.727	293.88
596.937	298.88
597.146	306.88
597.355	299.88
597.564	298.88
597.774	287.88
597.983	303.88
598.192	292.88
598.401	292.88
598.61	281.88
598.819	289.88
599.028	274.88
599.237	277.88
599.446	283.88
599.655	261.88
599.864	284.88
600.073	287.88
600.282	272.88
600.491	277.88
600.7	269.88
600.909	275.88
601.118	267.88
601.327	283.88
601.536	259.88
601.745	259.88
601.953	264.88
602.162	291.88
602.371	268.88
602.58	264.88
602.789	272.88
602.997	278.88
603.206	272.88
603.415	277.88
603.623	266.88
603.832	264.88
604.041	254.88
604.249	265.88
604.458	258.88
604.666	267.88
604.875	265.88
605.084	271.88
605.292	259.88
605.501	248.88
605.709	266.88
605.918	257.88
606.126	266.88
606.334	277.88
606.543	266.88
606.751	262.88
606.96	269.88
607.168	267.88
607.376	260.88
607.585	268.88
607.793	265.88
608.001	263.88
608.21	264.88
608.418	259.88
608.626	246.88
608.834	273.88
609.043	262.88
609.251	255.88
609.459	268.88
609.667	246.88
609.875	248.88
610.083	268.88
610.291	259.88
610.499	256.88
610.707	245.88
610.916	256.88
611.124	264.88
611.332	272.88
611.54	261.88
611.748	275.88
611.955	248.88
612.163	248.88
612.371	263.88
612.579	256.88
612.787	246.88
612.995	256.88
613.203	263.88
613.411	264.88
613.618	262.88
613.826	247.88
614.034	245.88
614.242	262.88
614.449	261.88
614.657	251.88
614.865	260.88
615.072	257.88
615.28	246.88
615.488	245.88
615.695	246.88
615.903	258.88
616.111	244.88
616.318	254.88
616.526	252.88
616.733	257.88
616.941	249.88
617.148	257.88
617.356	235.88
617.563	250.88
617.771	266.88
617.978	242.88
618.185	261.88
618.393	243.88
618.6	244.88
618.807	235.88
619.015	257.88
619.222	251.88
619.429	239.88
619.637	242.88
619.844	238.88
620.051	242.88
620.258	251.88
620.466	255.88
620.673	235.88
620.88	235.88
621.087	207.88
621.294	231.88
621.501	233.88
621.708	240.88
621.915	227.88
622.122	246.88
622.329	253.88
622.536	241.88
622.743	227.88
622.95	224.88
623.157	221.88
623.364	217.88
623.571	241.88
623.778	224.88
623.985	225.88
624.192	217.88
624.399	230.88
624.606	222.88
624.812	226.88
625.019	239.88
625.226	219.88
625.433	248.88
625.639	214.88
625.846	234.88
626.053	224.88
626.259	211.88
626.466	221.88
626.673	229.88
626.879	215.88
627.086	233.88
627.293	216.88
627.499	221.88
627.706	210.88
627.912	222.88
628.119	212.88
628.325	218.88
628.532	220.88
628.738	213.88
628.945	213.88
629.151	202.88
629.357	226.88
629.564	222.88
629.77	206.88
629.976	205.88
630.183	223.88
630.389	206.88
630.595	220.88
630.802	220.88
631.008	201.88
631.214	192.88
631.42	230.88
631.627	205.88
631.833	196.88
632.039	190.88
632.245	183.88
632.451	193.88
632.657	210.88
632.863	211.88
633.069	190.88
633.275	204.88
633.481	187.88
633.688	197.88
633.893	204.88
634.099	193.88
634.305	206.88
634.511	186.88
634.717	197.88
634.923	202.88
635.129	203.88
635.335	195.88
635.541	187.88
635.747	186.88
635.952	188.88
636.158	181.88
636.364	190.88
636.57	189.88
636.775	193.88
636.981	196.88
637.187	196.88
637.392	196.88
637.598	214.88
637.804	200.88
638.009	196.88
638.215	180.88
638.421	194.88
638.626	184.88
638.832	179.88
639.037	171.88
639.243	184.88
639.448	187.88
639.654	191.88
639.859	161.88
640.065	173.88
640.27	180.88
640.475	181.88
640.681	182.88
640.886	188.88
641.091	182.88
641.297	182.88
641.502	199.88
641.707	187.88
641.913	186.88
642.118	193.88
642.323	168.88
642.528	171.88
642.733	182.88
642.939	173.88
643.144	179.88
643.349	184.88
643.554	198.88
643.759	165.88
643.964	179.88
644.169	179.88
644.374	158.88
644.579	165.88
644.784	173.88
644.989	171.88
645.194	162.88
645.399	190.88
645.604	178.88
645.809	170.88
646.014	184.88
646.219	163.88
646.423	175.88
646.628	175.88
646.833	171.88
647.038	159.88
647.243	173.88
647.447	180.88
647.652	177.88
647.857	180.88
648.062	192.88
648.266	179.88
648.471	187.88
648.676	189.88
648.88	188.88
649.085	170.88
649.289	185.88
649.494	187.88
649.698	186.88
649.903	181.88
650.107	177.88
650.312	179.88
650.516	165.88
650.721	165.88
650.925	175.88
651.13	159.88
651.334	167.88
651.539	163.88
651.743	155.88
651.947	164.88
652.152	153.88
652.356	132.88
652.56	147.88
652.764	127.88
652.969	155.88
653.173	137.88
653.377	138.88
653.581	145.88
653.785	131.88
653.99	147.88
654.194	144.88
654.398	137.88
654.602	147.88
654.806	138.88
655.01	138.88
655.214	142.88
655.418	135.88
655.622	144.88
655.826	143.88
656.03	132.88
656.234	139.88
656.438	152.88
656.642	151.88
656.846	140.88
657.049	128.88
657.253	123.88
657.457	131.88
657.661	116.88
657.865	113.88
658.068	120.88
658.272	113.88
658.476	114.88
658.68	108.88
658.883	100.88
659.087	114.88
659.291	100.88
659.494	109.88
659.698	97.88
659.901	105.88
660.105	97.88
660.309	112.88
660.512	106.88
660.716	104.88
660.919	93.88
661.123	100.88
661.326	87.88
661.53	81.88
661.733	76.88
661.936	85.88
662.14	92.88
662.343	90.88
662.546	89.88
662.75	89.88
662.953	85.88
663.156	88.88
663.36	75.88
663.563	89.88
663.766	87.88
663.969	79.88
664.173	85.88
664.376	93.88
664.579	83.88
664.782	84.88
664.985	96.88
665.188	82.88
665.391	80.88
665.594	82.88
665.797	74.88
666	86.88
666.203	81.88
666.406	77.88
666.609	79.88
666.812	84.88
667.015	92.88
667.218	82.88
667.421	85.88
667.624	93.88
667.827	84.88
668.03	77.88
668.232	74.88
668.435	72.88
668.638	88.88
668.841	80.88
669.043	77.88
669.246	73.88
669.449	81.88
669.651	81.88
669.854	73.88
670.057	96.88
670.259	81.88
670.462	80.88
670.665	78.88
670.867	72.88
671.07	82.88
671.272	72.88
671.475	84.88
671.677	84.88
671.88	91.88
672.082	101.88
672.284	79.88
672.487	90.88
672.689	61.88
672.892	74.88
