Data from 1975.PennyLincolnUp.Lamp.En5.5.200Scan.071719.P1.Changed Mount._HRD10591_15-56-09-858.txt Node
Date: Thu Jul 18 15:56:09 EDT 2019
User: cochatt
Spectrometer: HR+D1059
Trigger mode: 1
Integration Time (sec): 1.000000E-1
Scans to average: 1
Electric dark correction enabled: true
Nonlinearity correction enabled: false
Boxcar width: 0
XAxis mode: Wavelengths
Number of Pixels in Spectrum: 2048
>>>>>Begin Spectral Data<<<<<
223.165	-15.75
223.4	-15.75
223.635	-15.75
223.869	-14.75
224.104	-13.75
224.338	-20.75
224.573	-17.75
224.808	-20.75
225.042	-7.75
225.277	3.25
225.511	-1.75
225.746	-8.75
225.98	20.25
226.215	12.25
226.449	18.25
226.683	9.25
226.918	22.25
227.152	36.25
227.387	25.25
227.621	28.25
227.856	43.25
228.09	38.25
228.324	36.25
228.559	48.25
228.793	70.25
229.027	77.25
229.262	87.25
229.496	101.25
229.73	113.25
229.964	134.25
230.199	118.25
230.433	102.25
230.667	112.25
230.901	113.25
231.136	116.25
231.37	107.25
231.604	91.25
231.838	104.25
232.072	110.25
232.306	120.25
232.541	122.25
232.775	112.25
233.009	105.25
233.243	97.25
233.477	105.25
233.711	111.25
233.945	126.25
234.179	112.25
234.413	124.25
234.647	104.25
234.881	105.25
235.115	107.25
235.349	110.25
235.583	110.25
235.817	124.25
236.051	115.25
236.285	114.25
236.519	123.25
236.753	136.25
236.987	141.25
237.221	177.25
237.455	220.25
237.689	175.25
237.922	130.25
238.156	123.25
238.39	105.25
238.624	126.25
238.858	121.25
239.091	126.25
239.325	120.25
239.559	114.25
239.793	125.25
240.027	117.25
240.26	130.25
240.494	147.25
240.728	146.25
240.961	127.25
241.195	147.25
241.429	138.25
241.662	132.25
241.896	127.25
242.13	129.25
242.363	140.25
242.597	137.25
242.83	127.25
243.064	136.25
243.298	128.25
243.531	137.25
243.765	155.25
243.998	132.25
244.232	123.25
244.465	146.25
244.699	149.25
244.932	141.25
245.166	146.25
245.399	137.25
245.633	163.25
245.866	134.25
246.099	152.25
246.333	162.25
246.566	147.25
246.8	146.25
247.033	156.25
247.266	140.25
247.5	158.25
247.733	154.25
247.966	169.25
248.2	174.25
248.433	180.25
248.666	169.25
248.899	168.25
249.133	189.25
249.366	196.25
249.599	187.25
249.832	174.25
250.066	174.25
250.299	170.25
250.532	178.25
250.765	182.25
250.998	209.25
251.231	214.25
251.465	206.25
251.698	212.25
251.931	183.25
252.164	196.25
252.397	190.25
252.63	193.25
252.863	188.25
253.096	203.25
253.329	236.25
253.562	216.25
253.795	197.25
254.028	206.25
254.261	195.25
254.494	201.25
254.727	230.25
254.96	264.25
255.193	265.25
255.426	214.25
255.659	210.25
255.892	217.25
256.124	216.25
256.357	233.25
256.59	213.25
256.823	216.25
257.056	201.25
257.289	199.25
257.521	213.25
257.754	213.25
257.987	188.25
258.22	181.25
258.452	191.25
258.685	198.25
258.918	208.25
259.151	204.25
259.383	219.25
259.616	225.25
259.849	203.25
260.081	226.25
260.314	234.25
260.547	236.25
260.779	225.25
261.012	219.25
261.244	219.25
261.477	214.25
261.71	210.25
261.942	207.25
262.175	211.25
262.407	212.25
262.64	203.25
262.872	212.25
263.105	196.25
263.337	191.25
263.57	188.25
263.802	185.25
264.035	202.25
264.267	211.25
264.499	200.25
264.732	210.25
264.964	208.25
265.197	202.25
265.429	217.25
265.661	221.25
265.894	193.25
266.126	219.25
266.358	211.25
266.591	208.25
266.823	218.25
267.055	222.25
267.287	206.25
267.52	220.25
267.752	238.25
267.984	211.25
268.216	208.25
268.448	196.25
268.681	230.25
268.913	230.25
269.145	236.25
269.377	262.25
269.609	267.25
269.841	258.25
270.073	259.25
270.306	263.25
270.538	293.25
270.77	306.25
271.002	269.25
271.234	274.25
271.466	285.25
271.698	284.25
271.93	296.25
272.162	292.25
272.394	302.25
272.626	306.25
272.858	277.25
273.09	257.25
273.322	259.25
273.553	262.25
273.785	264.25
274.017	260.25
274.249	239.25
274.481	236.25
274.713	268.25
274.945	250.25
275.176	234.25
275.408	255.25
275.64	236.25
275.872	256.25
276.104	244.25
276.335	239.25
276.567	265.25
276.799	288.25
277.031	268.25
277.262	295.25
277.494	298.25
277.726	294.25
277.957	290.25
278.189	274.25
278.421	254.25
278.652	258.25
278.884	262.25
279.115	265.25
279.347	262.25
279.579	263.25
279.81	261.25
280.042	266.25
280.273	278.25
280.505	235.25
280.736	258.25
280.968	266.25
281.199	267.25
281.431	239.25
281.662	258.25
281.894	281.25
282.125	256.25
282.356	271.25
282.588	296.25
282.819	290.25
283.051	269.25
283.282	255.25
283.513	271.25
283.745	266.25
283.976	259.25
284.207	267.25
284.439	276.25
284.67	282.25
284.901	268.25
285.132	279.25
285.364	278.25
285.595	255.25
285.826	281.25
286.057	280.25
286.288	266.25
286.52	280.25
286.751	296.25
286.982	278.25
287.213	252.25
287.444	294.25
287.675	290.25
287.906	295.25
288.138	288.25
288.369	305.25
288.6	282.25
288.831	282.25
289.062	300.25
289.293	286.25
289.524	282.25
289.755	278.25
289.986	265.25
290.217	273.25
290.448	274.25
290.679	294.25
290.91	279.25
291.141	292.25
291.371	293.25
291.602	284.25
291.833	287.25
292.064	274.25
292.295	275.25
292.526	282.25
292.757	284.25
292.987	292.25
293.218	265.25
293.449	281.25
293.68	295.25
293.91	287.25
294.141	283.25
294.372	307.25
294.603	298.25
294.833	289.25
295.064	301.25
295.295	304.25
295.525	297.25
295.756	313.25
295.987	289.25
296.217	302.25
296.448	302.25
296.679	302.25
296.909	300.25
297.14	294.25
297.37	295.25
297.601	307.25
297.831	303.25
298.062	284.25
298.292	281.25
298.523	307.25
298.753	316.25
298.984	304.25
299.214	306.25
299.445	299.25
299.675	298.25
299.905	310.25
300.136	302.25
300.366	292.25
300.597	311.25
300.827	298.25
301.057	312.25
301.288	307.25
301.518	337.25
301.748	336.25
301.979	327.25
302.209	327.25
302.439	322.25
302.669	317.25
302.9	335.25
303.13	310.25
303.36	325.25
303.59	331.25
303.82	328.25
304.051	319.25
304.281	351.25
304.511	326.25
304.741	326.25
304.971	313.25
305.201	306.25
305.431	328.25
305.661	305.25
305.891	327.25
306.121	322.25
306.352	323.25
306.582	328.25
306.812	335.25
307.042	324.25
307.272	318.25
307.502	318.25
307.731	318.25
307.961	344.25
308.191	308.25
308.421	314.25
308.651	346.25
308.881	321.25
309.111	331.25
309.341	326.25
309.571	334.25
309.8	342.25
310.03	361.25
310.26	368.25
310.49	351.25
310.72	362.25
310.949	355.25
311.179	374.25
311.409	366.25
311.639	371.25
311.868	358.25
312.098	350.25
312.328	370.25
312.557	393.25
312.787	382.25
313.017	373.25
313.246	354.25
313.476	354.25
313.706	354.25
313.935	379.25
314.165	376.25
314.394	352.25
314.624	382.25
314.853	368.25
315.083	363.25
315.312	382.25
315.542	368.25
315.771	358.25
316.001	347.25
316.23	340.25
316.46	344.25
316.689	366.25
316.919	358.25
317.148	357.25
317.377	374.25
317.607	370.25
317.836	363.25
318.065	356.25
318.295	355.25
318.524	361.25
318.753	360.25
318.983	359.25
319.212	361.25
319.441	358.25
319.67	376.25
319.9	374.25
320.129	371.25
320.358	354.25
320.587	385.25
320.816	377.25
321.046	358.25
321.275	374.25
321.504	372.25
321.733	380.25
321.962	381.25
322.191	382.25
322.42	390.25
322.649	400.25
322.878	407.25
323.108	425.25
323.337	419.25
323.566	445.25
323.795	436.25
324.024	492.25
324.253	549.25
324.482	732.25
324.71	1136.25
324.939	1667.25
325.168	1492.25
325.397	735.25
325.626	523.25
325.855	474.25
326.084	424.25
326.313	423.25
326.542	454.25
326.77	480.25
326.999	525.25
327.228	674.25
327.457	1031.25
327.686	1301.25
327.914	871.25
328.143	580.25
328.372	524.25
328.6	484.25
328.829	474.25
329.058	482.25
329.287	489.25
329.515	465.25
329.744	462.25
329.972	446.25
330.201	456.25
330.43	507.25
330.658	498.25
330.887	539.25
331.115	506.25
331.344	477.25
331.572	456.25
331.801	464.25
332.03	449.25
332.258	433.25
332.486	432.25
332.715	426.25
332.943	448.25
333.172	430.25
333.4	441.25
333.629	440.25
333.857	451.25
334.085	485.25
334.314	510.25
334.542	534.25
334.771	533.25
334.999	495.25
335.227	446.25
335.455	434.25
335.684	449.25
335.912	455.25
336.14	464.25
336.369	417.25
336.597	430.25
336.825	434.25
337.053	430.25
337.281	462.25
337.51	430.25
337.738	422.25
337.966	422.25
338.194	432.25
338.422	441.25
338.65	418.25
338.878	418.25
339.106	435.25
339.334	415.25
339.562	417.25
339.79	406.25
340.018	422.25
340.246	422.25
340.474	431.25
340.702	425.25
340.93	414.25
341.158	419.25
341.386	425.25
341.614	415.25
341.842	419.25
342.07	392.25
342.298	422.25
342.526	423.25
342.754	399.25
342.981	395.25
343.209	394.25
343.437	403.25
343.665	422.25
343.893	441.25
344.12	450.25
344.348	451.25
344.576	435.25
344.804	432.25
345.031	426.25
345.259	444.25
345.487	431.25
345.714	417.25
345.942	411.25
346.17	403.25
346.397	396.25
346.625	413.25
346.853	376.25
347.08	416.25
347.308	397.25
347.535	414.25
347.763	409.25
347.99	402.25
348.218	380.25
348.445	412.25
348.673	381.25
348.9	403.25
349.128	394.25
349.355	400.25
349.583	391.25
349.81	389.25
350.037	406.25
350.265	384.25
350.492	383.25
350.72	383.25
350.947	400.25
351.174	387.25
351.402	396.25
351.629	377.25
351.856	404.25
352.083	401.25
352.311	404.25
352.538	400.25
352.765	384.25
352.992	416.25
353.22	421.25
353.447	405.25
353.674	391.25
353.901	388.25
354.128	363.25
354.355	376.25
354.583	386.25
354.81	373.25
355.037	383.25
355.264	381.25
355.491	387.25
355.718	378.25
355.945	378.25
356.172	388.25
356.399	369.25
356.626	374.25
356.853	401.25
357.08	369.25
357.307	378.25
357.534	356.25
357.761	376.25
357.988	394.25
358.215	371.25
358.441	390.25
358.668	391.25
358.895	385.25
359.122	396.25
359.349	397.25
359.576	407.25
359.802	405.25
360.029	451.25
360.256	449.25
360.483	431.25
360.709	414.25
360.936	384.25
361.163	386.25
361.39	389.25
361.616	397.25
361.843	398.25
362.07	417.25
362.296	406.25
362.523	408.25
362.749	392.25
362.976	390.25
363.203	383.25
363.429	383.25
363.656	396.25
363.882	389.25
364.109	394.25
364.335	386.25
364.562	393.25
364.788	394.25
365.015	391.25
365.241	370.25
365.468	401.25
365.694	417.25
365.92	405.25
366.147	384.25
366.373	374.25
366.599	393.25
366.826	383.25
367.052	401.25
367.278	380.25
367.505	377.25
367.731	388.25
367.957	393.25
368.184	386.25
368.41	397.25
368.636	412.25
368.862	420.25
369.089	399.25
369.315	399.25
369.541	403.25
369.767	385.25
369.993	403.25
370.219	386.25
370.445	398.25
370.672	399.25
370.898	403.25
371.124	390.25
371.35	420.25
371.576	402.25
371.802	399.25
372.028	401.25
372.254	419.25
372.48	390.25
372.706	398.25
372.932	396.25
373.158	397.25
373.384	401.25
373.61	412.25
373.835	407.25
374.061	395.25
374.287	389.25
374.513	427.25
374.739	418.25
374.965	414.25
375.191	407.25
375.416	420.25
375.642	415.25
375.868	415.25
376.094	404.25
376.319	412.25
376.545	408.25
376.771	394.25
376.997	399.25
377.222	388.25
377.448	402.25
377.674	403.25
377.899	390.25
378.125	403.25
378.35	377.25
378.576	404.25
378.802	398.25
379.027	388.25
379.253	390.25
379.478	400.25
379.704	403.25
379.929	399.25
380.155	411.25
380.38	401.25
380.606	378.25
380.831	374.25
381.057	419.25
381.282	416.25
381.507	406.25
381.733	413.25
381.958	409.25
382.184	403.25
382.409	411.25
382.634	409.25
382.86	422.25
383.085	416.25
383.31	414.25
383.535	424.25
383.761	406.25
383.986	421.25
384.211	422.25
384.436	428.25
384.662	424.25
384.887	448.25
385.112	434.25
385.337	441.25
385.562	455.25
385.787	446.25
386.013	434.25
386.238	461.25
386.463	476.25
386.688	456.25
386.913	448.25
387.138	433.25
387.363	455.25
387.588	457.25
387.813	458.25
388.038	453.25
388.263	451.25
388.488	454.25
388.713	452.25
388.938	440.25
389.163	439.25
389.387	451.25
389.612	436.25
389.837	481.25
390.062	454.25
390.287	438.25
390.512	432.25
390.736	445.25
390.961	441.25
391.186	448.25
391.411	458.25
391.636	451.25
391.86	459.25
392.085	470.25
392.31	459.25
392.534	449.25
392.759	462.25
392.984	468.25
393.208	444.25
393.433	452.25
393.658	475.25
393.882	436.25
394.107	444.25
394.331	446.25
394.556	434.25
394.78	452.25
395.005	474.25
395.229	455.25
395.454	470.25
395.678	471.25
395.903	449.25
396.127	506.25
396.352	484.25
396.576	471.25
396.801	487.25
397.025	463.25
397.249	462.25
397.474	485.25
397.698	502.25
397.922	527.25
398.147	533.25
398.371	514.25
398.595	500.25
398.82	535.25
399.044	549.25
399.268	566.25
399.492	605.25
399.717	637.25
399.941	666.25
400.165	683.25
400.389	663.25
400.613	605.25
400.837	564.25
401.062	546.25
401.286	542.25
401.51	520.25
401.734	548.25
401.958	498.25
402.182	539.25
402.406	528.25
402.63	532.25
402.854	555.25
403.078	544.25
403.302	551.25
403.526	569.25
403.75	550.25
403.974	557.25
404.198	573.25
404.422	559.25
404.645	529.25
404.869	548.25
405.093	626.25
405.317	619.25
405.541	664.25
405.765	603.25
405.988	568.25
406.212	582.25
406.436	603.25
406.66	592.25
406.883	569.25
407.107	619.25
407.331	666.25
407.555	723.25
407.778	717.25
408.002	664.25
408.226	609.25
408.449	581.25
408.673	613.25
408.896	623.25
409.12	659.25
409.344	654.25
409.567	574.25
409.791	548.25
410.014	554.25
410.238	534.25
410.461	536.25
410.685	549.25
410.908	574.25
411.132	572.25
411.355	617.25
411.578	608.25
411.802	561.25
412.025	531.25
412.249	552.25
412.472	574.25
412.695	602.25
412.919	595.25
413.142	563.25
413.365	570.25
413.589	544.25
413.812	528.25
414.035	539.25
414.258	505.25
414.482	512.25
414.705	485.25
414.928	494.25
415.151	515.25
415.374	518.25
415.597	510.25
415.821	504.25
416.044	530.25
416.267	531.25
416.49	500.25
416.713	513.25
416.936	514.25
417.159	525.25
417.382	499.25
417.605	510.25
417.828	538.25
418.051	542.25
418.274	526.25
418.497	502.25
418.72	533.25
418.943	519.25
419.166	558.25
419.389	589.25
419.611	558.25
419.834	543.25
420.057	553.25
420.28	537.25
420.503	575.25
420.726	549.25
420.948	558.25
421.171	590.25
421.394	594.25
421.617	552.25
421.839	534.25
422.062	560.25
422.285	572.25
422.507	618.25
422.73	699.25
422.953	639.25
423.175	566.25
423.398	573.25
423.621	552.25
423.843	579.25
424.066	563.25
424.288	596.25
424.511	608.25
424.733	626.25
424.956	706.25
425.178	690.25
425.401	665.25
425.623	690.25
425.846	617.25
426.068	575.25
426.291	561.25
426.513	571.25
426.735	560.25
426.958	604.25
427.18	690.25
427.402	846.25
427.625	882.25
427.847	746.25
428.069	652.25
428.292	601.25
428.514	555.25
428.736	532.25
428.958	531.25
429.181	517.25
429.403	519.25
429.625	511.25
429.847	554.25
430.069	634.25
430.292	616.25
430.514	521.25
430.736	497.25
430.958	518.25
431.18	512.25
431.402	520.25
431.624	506.25
431.846	495.25
432.068	466.25
432.29	501.25
432.512	484.25
432.734	530.25
432.956	502.25
433.178	524.25
433.4	508.25
433.622	523.25
433.844	518.25
434.066	496.25
434.287	507.25
434.509	500.25
434.731	525.25
434.953	512.25
435.175	554.25
435.397	591.25
435.618	567.25
435.84	607.25
436.062	666.25
436.284	748.25
436.505	615.25
436.727	554.25
436.949	543.25
437.17	500.25
437.392	500.25
437.614	535.25
437.835	558.25
438.057	646.25
438.278	739.25
438.5	751.25
438.721	810.25
438.943	799.25
439.165	630.25
439.386	578.25
439.608	544.25
439.829	571.25
440.05	582.25
440.272	624.25
440.493	597.25
440.715	542.25
440.936	535.25
441.158	539.25
441.379	528.25
441.6	551.25
441.822	554.25
442.043	577.25
442.264	698.25
442.486	720.25
442.707	625.25
442.928	587.25
443.149	610.25
443.371	603.25
443.592	655.25
443.813	713.25
444.034	785.25
444.255	672.25
444.476	598.25
444.698	608.25
444.919	584.25
445.14	670.25
445.361	603.25
445.582	607.25
445.803	681.25
446.024	760.25
446.245	755.25
446.466	667.25
446.687	601.25
446.908	566.25
447.129	524.25
447.35	527.25
447.571	522.25
447.792	512.25
448.013	525.25
448.234	522.25
448.455	574.25
448.675	672.25
448.896	787.25
449.117	674.25
449.338	629.25
449.559	746.25
449.779	841.25
450	684.25
450.221	578.25
450.442	518.25
450.662	491.25
450.883	514.25
451.104	501.25
451.324	506.25
451.545	479.25
451.766	471.25
451.986	463.25
452.207	461.25
452.428	463.25
452.648	466.25
452.869	491.25
453.089	459.25
453.31	492.25
453.53	464.25
453.751	438.25
453.971	473.25
454.192	460.25
454.412	459.25
454.633	427.25
454.853	467.25
455.073	463.25
455.294	460.25
455.514	530.25
455.734	544.25
455.955	469.25
456.175	427.25
456.395	415.25
456.616	433.25
456.836	449.25
457.056	408.25
457.276	428.25
457.497	427.25
457.717	432.25
457.937	451.25
458.157	458.25
458.377	472.25
458.598	459.25
458.818	518.25
459.038	580.25
459.258	607.25
459.478	542.25
459.698	496.25
459.918	485.25
460.138	508.25
460.358	514.25
460.578	526.25
460.798	496.25
461.018	530.25
461.238	514.25
461.458	523.25
461.678	521.25
461.898	516.25
462.118	538.25
462.338	532.25
462.558	546.25
462.777	551.25
462.997	567.25
463.217	593.25
463.437	610.25
463.657	570.25
463.876	570.25
464.096	572.25
464.316	565.25
464.536	578.25
464.755	574.25
464.975	560.25
465.195	579.25
465.414	617.25
465.634	552.25
465.854	500.25
466.073	502.25
466.293	496.25
466.512	487.25
466.732	488.25
466.951	483.25
467.171	471.25
467.391	474.25
467.61	498.25
467.829	520.25
468.049	476.25
468.268	478.25
468.488	478.25
468.707	458.25
468.927	456.25
469.146	457.25
469.365	455.25
469.585	457.25
469.804	459.25
470.023	506.25
470.243	510.25
470.462	512.25
470.681	490.25
470.901	488.25
471.12	495.25
471.339	485.25
471.558	490.25
471.777	486.25
471.997	480.25
472.216	501.25
472.435	520.25
472.654	489.25
472.873	486.25
473.092	466.25
473.311	473.25
473.53	487.25
473.749	495.25
473.968	520.25
474.187	610.25
474.406	640.25
474.625	522.25
474.844	483.25
475.063	468.25
475.282	472.25
475.501	481.25
475.72	494.25
475.939	521.25
476.158	502.25
476.377	499.25
476.596	475.25
476.814	502.25
477.033	504.25
477.252	494.25
477.471	506.25
477.69	530.25
477.908	539.25
478.127	548.25
478.346	527.25
478.564	542.25
478.783	546.25
479.002	578.25
479.22	547.25
479.439	560.25
479.658	582.25
479.876	580.25
480.095	602.25
480.313	625.25
480.532	615.25
480.751	608.25
480.969	614.25
481.188	623.25
481.406	668.25
481.624	619.25
481.843	607.25
482.061	555.25
482.28	605.25
482.498	589.25
482.717	603.25
482.935	562.25
483.153	580.25
483.372	570.25
483.59	572.25
483.808	552.25
484.027	566.25
484.245	578.25
484.463	560.25
484.681	581.25
484.9	597.25
485.118	565.25
485.336	564.25
485.554	601.25
485.772	588.25
485.99	573.25
486.209	594.25
486.427	578.25
486.645	597.25
486.863	616.25
487.081	625.25
487.299	586.25
487.517	618.25
487.735	576.25
487.953	613.25
488.171	626.25
488.389	614.25
488.607	606.25
488.825	633.25
489.043	596.25
489.261	630.25
489.479	612.25
489.696	622.25
489.914	610.25
490.132	631.25
490.35	615.25
490.568	628.25
490.786	651.25
491.003	642.25
491.221	672.25
491.439	670.25
491.657	689.25
491.874	688.25
492.092	714.25
492.31	676.25
492.527	696.25
492.745	710.25
492.963	717.25
493.18	736.25
493.398	748.25
493.615	723.25
493.833	714.25
494.05	725.25
494.268	731.25
494.485	703.25
494.703	708.25
494.92	694.25
495.138	708.25
495.355	698.25
495.573	718.25
495.79	738.25
496.008	720.25
496.225	718.25
496.442	732.25
496.66	720.25
496.877	721.25
497.094	732.25
497.312	762.25
497.529	744.25
497.746	750.25
497.963	775.25
498.181	814.25
498.398	805.25
498.615	820.25
498.832	846.25
499.049	860.25
499.267	882.25
499.484	913.25
499.701	957.25
499.918	1009.25
500.135	1063.25
500.352	1131.25
500.569	1160.25
500.786	1151.25
501.003	1136.25
501.22	1091.25
501.437	1046.25
501.654	993.25
501.871	977.25
502.088	936.25
502.305	907.25
502.522	840.25
502.739	830.25
502.956	805.25
503.172	783.25
503.389	756.25
503.606	743.25
503.823	751.25
504.04	768.25
504.256	743.25
504.473	751.25
504.69	751.25
504.907	736.25
505.123	719.25
505.34	701.25
505.557	705.25
505.773	690.25
505.99	696.25
506.207	687.25
506.423	670.25
506.64	662.25
506.856	650.25
507.073	647.25
507.289	664.25
507.506	640.25
507.722	652.25
507.939	677.25
508.155	660.25
508.372	642.25
508.588	617.25
508.805	645.25
509.021	644.25
509.238	624.25
509.454	659.25
509.67	631.25
509.887	648.25
510.103	637.25
510.319	628.25
510.536	671.25
510.752	1001.25
510.968	866.25
511.184	619.25
511.401	622.25
511.617	614.25
511.833	611.25
512.049	602.25
512.265	603.25
512.481	594.25
512.698	588.25
512.914	600.25
513.13	601.25
513.346	611.25
513.562	587.25
513.778	595.25
513.994	585.25
514.21	601.25
514.426	613.25
514.642	668.25
514.858	629.25
515.074	678.25
515.29	760.25
515.506	966.25
515.721	873.25
515.937	654.25
516.153	638.25
516.369	624.25
516.585	618.25
516.801	634.25
517.016	646.25
517.232	636.25
517.448	640.25
517.664	649.25
517.879	639.25
518.095	632.25
518.311	660.25
518.527	619.25
518.742	628.25
518.958	628.25
519.173	626.25
519.389	602.25
519.605	601.25
519.82	602.25
520.036	597.25
520.251	612.25
520.467	650.25
520.682	646.25
520.898	627.25
521.113	642.25
521.329	656.25
521.544	715.25
521.76	827.25
521.975	1228.25
522.19	1231.25
522.406	772.25
522.621	644.25
522.836	590.25
523.052	576.25
523.267	583.25
523.482	545.25
523.698	554.25
523.913	525.25
524.128	539.25
524.343	519.25
524.559	518.25
524.774	526.25
524.989	515.25
525.204	535.25
525.419	522.25
525.634	495.25
525.849	511.25
526.064	499.25
526.28	499.25
526.495	494.25
526.71	486.25
526.925	483.25
527.14	493.25
527.355	487.25
527.57	508.25
527.785	504.25
527.999	510.25
528.214	495.25
528.429	504.25
528.644	502.25
528.859	486.25
529.074	504.25
529.289	509.25
529.503	568.25
529.718	558.25
529.933	510.25
530.148	505.25
530.363	490.25
530.577	484.25
530.792	488.25
531.007	496.25
531.221	501.25
531.436	496.25
531.651	489.25
531.865	476.25
532.08	478.25
532.295	499.25
532.509	471.25
532.724	491.25
532.938	488.25
533.153	496.25
533.367	494.25
533.582	460.25
533.796	484.25
534.011	472.25
534.225	478.25
534.44	486.25
534.654	448.25
534.868	488.25
535.083	465.25
535.297	465.25
535.511	473.25
535.726	486.25
535.94	490.25
536.154	471.25
536.369	471.25
536.583	461.25
536.797	456.25
537.011	464.25
537.225	452.25
537.44	453.25
537.654	473.25
537.868	472.25
538.082	473.25
538.296	463.25
538.51	479.25
538.724	456.25
538.938	443.25
539.153	456.25
539.367	470.25
539.581	480.25
539.795	456.25
540.009	463.25
540.222	438.25
540.436	465.25
540.65	457.25
540.864	468.25
541.078	468.25
541.292	458.25
541.506	472.25
541.72	468.25
541.934	476.25
542.147	471.25
542.361	471.25
542.575	458.25
542.789	461.25
543.002	460.25
543.216	454.25
543.43	460.25
543.644	442.25
543.857	466.25
544.071	446.25
544.285	481.25
544.498	476.25
544.712	463.25
544.925	439.25
545.139	466.25
545.352	452.25
545.566	438.25
545.779	451.25
545.993	498.25
546.206	469.25
546.42	470.25
546.633	472.25
546.847	445.25
547.06	445.25
547.274	446.25
547.487	444.25
547.7	442.25
547.914	442.25
548.127	443.25
548.34	438.25
548.554	439.25
548.767	457.25
548.98	460.25
549.193	455.25
549.407	427.25
549.62	465.25
549.833	459.25
550.046	446.25
550.259	452.25
550.473	447.25
550.686	460.25
550.899	448.25
551.112	457.25
551.325	442.25
551.538	455.25
551.751	428.25
551.964	455.25
552.177	449.25
552.39	448.25
552.603	442.25
552.816	425.25
553.029	453.25
553.242	451.25
553.455	436.25
553.667	458.25
553.88	482.25
554.093	463.25
554.306	454.25
554.519	458.25
554.732	451.25
554.944	425.25
555.157	447.25
555.37	428.25
555.583	421.25
555.795	416.25
556.008	405.25
556.221	404.25
556.433	402.25
556.646	419.25
556.859	414.25
557.071	408.25
557.284	407.25
557.496	422.25
557.709	398.25
557.921	392.25
558.134	397.25
558.346	417.25
558.559	395.25
558.771	386.25
558.984	408.25
559.196	403.25
559.409	414.25
559.621	385.25
559.833	394.25
560.046	388.25
560.258	395.25
560.47	414.25
560.683	402.25
560.895	395.25
561.107	395.25
561.32	397.25
561.532	396.25
561.744	378.25
561.956	404.25
562.168	414.25
562.381	406.25
562.593	409.25
562.805	408.25
563.017	420.25
563.229	417.25
563.441	399.25
563.653	396.25
563.865	399.25
564.077	396.25
564.289	414.25
564.501	391.25
564.713	412.25
564.925	418.25
565.137	443.25
565.349	430.25
565.561	436.25
565.773	450.25
565.985	480.25
566.197	482.25
566.408	471.25
566.62	502.25
566.832	512.25
567.044	530.25
567.255	532.25
567.467	531.25
567.679	539.25
567.891	563.25
568.102	568.25
568.314	559.25
568.526	506.25
568.737	500.25
568.949	488.25
569.161	455.25
569.372	430.25
569.584	418.25
569.795	434.25
570.007	418.25
570.218	448.25
570.43	419.25
570.641	408.25
570.853	390.25
571.064	402.25
571.276	392.25
571.487	382.25
571.698	384.25
571.91	383.25
572.121	378.25
572.333	376.25
572.544	359.25
572.755	358.25
572.966	367.25
573.178	384.25
573.389	381.25
573.6	355.25
573.811	354.25
574.023	346.25
574.234	340.25
574.445	322.25
574.656	345.25
574.867	331.25
575.078	331.25
575.289	341.25
575.501	344.25
575.712	338.25
575.923	352.25
576.134	331.25
576.345	343.25
576.556	340.25
576.767	347.25
576.978	356.25
577.188	337.25
577.399	328.25
577.61	329.25
577.821	351.25
578.032	343.25
578.243	351.25
578.454	494.25
578.665	390.25
578.875	328.25
579.086	326.25
579.297	319.25
579.508	313.25
579.718	340.25
579.929	318.25
580.14	295.25
580.35	325.25
580.561	326.25
580.772	332.25
580.982	321.25
581.193	311.25
581.403	306.25
581.614	311.25
581.825	308.25
582.035	301.25
582.246	308.25
582.456	321.25
582.667	313.25
582.877	304.25
583.087	313.25
583.298	295.25
583.508	308.25
583.719	330.25
583.929	314.25
584.139	299.25
584.35	306.25
584.56	307.25
584.77	306.25
584.981	305.25
585.191	317.25
585.401	294.25
585.611	320.25
585.821	300.25
586.032	311.25
586.242	311.25
586.452	306.25
586.662	278.25
586.872	314.25
587.082	307.25
587.292	294.25
587.502	297.25
587.713	299.25
587.923	305.25
588.133	309.25
588.343	313.25
588.553	306.25
588.762	311.25
588.972	297.25
589.182	310.25
589.392	315.25
589.602	295.25
589.812	290.25
590.022	306.25
590.232	295.25
590.441	312.25
590.651	288.25
590.861	302.25
591.071	308.25
591.281	313.25
591.49	296.25
591.7	310.25
591.91	342.25
592.119	319.25
592.329	319.25
592.539	314.25
592.748	331.25
592.958	324.25
593.167	328.25
593.377	310.25
593.587	340.25
593.796	344.25
594.006	338.25
594.215	342.25
594.424	335.25
594.634	355.25
594.843	356.25
595.053	331.25
595.262	328.25
595.472	293.25
595.681	293.25
595.89	285.25
596.1	279.25
596.309	297.25
596.518	297.25
596.727	286.25
596.937	290.25
597.146	286.25
597.355	275.25
597.564	295.25
597.774	269.25
597.983	261.25
598.192	283.25
598.401	271.25
598.61	278.25
598.819	278.25
599.028	273.25
599.237	258.25
599.446	270.25
599.655	264.25
599.864	273.25
600.073	259.25
600.282	255.25
600.491	255.25
600.7	257.25
600.909	263.25
601.118	281.25
601.327	267.25
601.536	266.25
601.745	268.25
601.953	265.25
602.162	283.25
602.371	258.25
602.58	271.25
602.789	272.25
602.997	270.25
603.206	270.25
603.415	269.25
603.623	250.25
603.832	247.25
604.041	262.25
604.249	254.25
604.458	249.25
604.666	263.25
604.875	261.25
605.084	243.25
605.292	247.25
605.501	253.25
605.709	238.25
605.918	256.25
606.126	256.25
606.334	228.25
606.543	246.25
606.751	246.25
606.96	236.25
607.168	243.25
607.376	257.25
607.585	254.25
607.793	244.25
608.001	259.25
608.21	242.25
608.418	249.25
608.626	249.25
608.834	235.25
609.043	250.25
609.251	244.25
609.459	238.25
609.667	232.25
609.875	227.25
610.083	240.25
610.291	244.25
610.499	243.25
610.707	256.25
610.916	262.25
611.124	260.25
611.332	278.25
611.54	246.25
611.748	239.25
611.955	241.25
612.163	250.25
612.371	249.25
612.579	244.25
612.787	269.25
612.995	237.25
613.203	243.25
613.411	240.25
613.618	260.25
613.826	256.25
614.034	246.25
614.242	252.25
614.449	249.25
614.657	226.25
614.865	265.25
615.072	244.25
615.28	239.25
615.488	234.25
615.695	232.25
615.903	247.25
616.111	247.25
616.318	239.25
616.526	243.25
616.733	249.25
616.941	249.25
617.148	239.25
617.356	251.25
617.563	239.25
617.771	233.25
617.978	230.25
618.185	222.25
618.393	243.25
618.6	246.25
618.807	238.25
619.015	230.25
619.222	238.25
619.429	215.25
619.637	232.25
619.844	244.25
620.051	235.25
620.258	245.25
620.466	227.25
620.673	211.25
620.88	217.25
621.087	231.25
621.294	227.25
621.501	244.25
621.708	230.25
621.915	242.25
622.122	229.25
622.329	232.25
622.536	227.25
622.743	231.25
622.95	211.25
623.157	222.25
623.364	225.25
623.571	229.25
623.778	224.25
623.985	217.25
624.192	215.25
624.399	216.25
624.606	214.25
624.812	205.25
625.019	215.25
625.226	221.25
625.433	206.25
625.639	207.25
625.846	207.25
626.053	212.25
626.259	209.25
626.466	205.25
626.673	210.25
626.879	208.25
627.086	219.25
627.293	216.25
627.499	202.25
627.706	196.25
627.912	212.25
628.119	215.25
628.325	210.25
628.532	216.25
628.738	194.25
628.945	193.25
629.151	206.25
629.357	208.25
629.564	203.25
629.77	206.25
629.976	200.25
630.183	204.25
630.389	206.25
630.595	202.25
630.802	188.25
631.008	192.25
631.214	182.25
631.42	201.25
631.627	208.25
631.833	201.25
632.039	207.25
632.245	186.25
632.451	186.25
632.657	177.25
632.863	196.25
633.069	191.25
633.275	203.25
633.481	180.25
633.688	191.25
633.893	197.25
634.099	206.25
634.305	190.25
634.511	175.25
634.717	170.25
634.923	177.25
635.129	190.25
635.335	188.25
635.541	183.25
635.747	174.25
635.952	195.25
636.158	200.25
636.364	190.25
636.57	166.25
636.775	186.25
636.981	195.25
637.187	190.25
637.392	200.25
637.598	185.25
637.804	183.25
638.009	180.25
638.215	178.25
638.421	178.25
638.626	182.25
638.832	179.25
639.037	184.25
639.243	186.25
639.448	175.25
639.654	179.25
639.859	171.25
640.065	154.25
640.27	161.25
640.475	179.25
640.681	176.25
640.886	192.25
641.091	181.25
641.297	182.25
641.502	170.25
641.707	158.25
641.913	157.25
642.118	164.25
642.323	186.25
642.528	162.25
642.733	177.25
642.939	180.25
643.144	169.25
643.349	156.25
643.554	172.25
643.759	173.25
643.964	164.25
644.169	170.25
644.374	166.25
644.579	174.25
644.784	174.25
644.989	160.25
645.194	176.25
645.399	161.25
645.604	175.25
645.809	158.25
646.014	158.25
646.219	169.25
646.423	186.25
646.628	170.25
646.833	161.25
647.038	171.25
647.243	176.25
647.447	189.25
647.652	168.25
647.857	180.25
648.062	172.25
648.266	172.25
648.471	178.25
648.676	184.25
648.88	186.25
649.085	182.25
649.289	167.25
649.494	164.25
649.698	189.25
649.903	176.25
650.107	170.25
650.312	169.25
650.516	149.25
650.721	161.25
650.925	168.25
651.13	168.25
651.334	143.25
651.539	150.25
651.743	154.25
651.947	164.25
652.152	162.25
652.356	155.25
652.56	135.25
652.764	138.25
652.969	138.25
653.173	148.25
653.377	150.25
653.581	143.25
653.785	136.25
653.99	136.25
654.194	146.25
654.398	144.25
654.602	128.25
654.806	143.25
655.01	129.25
655.214	133.25
655.418	127.25
655.622	151.25
655.826	138.25
656.03	146.25
656.234	141.25
656.438	149.25
656.642	152.25
656.846	134.25
657.049	144.25
657.253	144.25
657.457	135.25
657.661	124.25
657.865	119.25
658.068	113.25
658.272	101.25
658.476	107.25
658.68	117.25
658.883	103.25
659.087	98.25
659.291	111.25
659.494	105.25
659.698	95.25
659.901	94.25
660.105	95.25
660.309	98.25
660.512	89.25
660.716	82.25
660.919	105.25
661.123	95.25
661.326	97.25
661.53	87.25
661.733	86.25
661.936	86.25
662.14	77.25
662.343	78.25
662.546	89.25
662.75	78.25
662.953	73.25
663.156	81.25
663.36	83.25
663.563	92.25
663.766	91.25
663.969	79.25
664.173	83.25
664.376	91.25
664.579	87.25
664.782	86.25
664.985	82.25
665.188	80.25
665.391	88.25
665.594	83.25
665.797	91.25
666	83.25
666.203	81.25
666.406	81.25
666.609	76.25
666.812	81.25
667.015	85.25
667.218	84.25
667.421	90.25
667.624	73.25
667.827	72.25
668.03	72.25
668.232	77.25
668.435	66.25
668.638	87.25
668.841	77.25
669.043	71.25
669.246	85.25
669.449	87.25
669.651	82.25
669.854	58.25
670.057	72.25
670.259	71.25
670.462	97.25
670.665	81.25
670.867	76.25
671.07	85.25
671.272	75.25
671.475	83.25
671.677	94.25
671.88	87.25
672.082	80.25
672.284	77.25
672.487	97.25
672.689	87.25
672.892	96.25
