Data from 1975.PennyLincolnUp.Lamp.En5.5.200Scan.071719.P1.Changed Mount._HRD10591_15-58-23-860.txt Node
Date: Thu Jul 18 15:58:23 EDT 2019
User: cochatt
Spectrometer: HR+D1059
Trigger mode: 1
Integration Time (sec): 1.000000E-1
Scans to average: 1
Electric dark correction enabled: true
Nonlinearity correction enabled: false
Boxcar width: 0
XAxis mode: Wavelengths
Number of Pixels in Spectrum: 2048
>>>>>Begin Spectral Data<<<<<
223.165	-19.62
223.4	-19.62
223.635	-19.62
223.869	-17.62
224.104	-19.62
224.338	-17.62
224.573	-25.62
224.808	-0.62
225.042	18.38
225.277	-1.62
225.511	2.38
225.746	7.38
225.98	8.38
226.215	-3.62
226.449	10.38
226.683	10.38
226.918	20.38
227.152	28.38
227.387	52.38
227.621	53.38
227.856	56.38
228.09	42.38
228.324	63.38
228.559	52.38
228.793	52.38
229.027	98.38
229.262	108.38
229.496	114.38
229.73	135.38
229.964	159.38
230.199	123.38
230.433	111.38
230.667	109.38
230.901	120.38
231.136	110.38
231.37	112.38
231.604	125.38
231.838	104.38
232.072	110.38
232.306	117.38
232.541	105.38
232.775	119.38
233.009	120.38
233.243	125.38
233.477	128.38
233.711	118.38
233.945	134.38
234.179	128.38
234.413	131.38
234.647	135.38
234.881	126.38
235.115	128.38
235.349	122.38
235.583	131.38
235.817	123.38
236.051	136.38
236.285	139.38
236.519	133.38
236.753	151.38
236.987	133.38
237.221	193.38
237.455	247.38
237.689	208.38
237.922	139.38
238.156	145.38
238.39	128.38
238.624	129.38
238.858	137.38
239.091	127.38
239.325	120.38
239.559	138.38
239.793	157.38
240.027	142.38
240.26	152.38
240.494	167.38
240.728	167.38
240.961	141.38
241.195	146.38
241.429	145.38
241.662	161.38
241.896	144.38
242.13	153.38
242.363	156.38
242.597	149.38
242.83	150.38
243.064	147.38
243.298	157.38
243.531	157.38
243.765	147.38
243.998	145.38
244.232	156.38
244.465	145.38
244.699	151.38
244.932	149.38
245.166	160.38
245.399	150.38
245.633	165.38
245.866	145.38
246.099	140.38
246.333	158.38
246.566	158.38
246.8	158.38
247.033	166.38
247.266	174.38
247.5	175.38
247.733	188.38
247.966	184.38
248.2	182.38
248.433	184.38
248.666	187.38
248.899	206.38
249.133	212.38
249.366	209.38
249.599	192.38
249.832	188.38
250.066	189.38
250.299	192.38
250.532	208.38
250.765	219.38
250.998	230.38
251.231	247.38
251.465	235.38
251.698	221.38
251.931	209.38
252.164	198.38
252.397	208.38
252.63	205.38
252.863	215.38
253.096	220.38
253.329	233.38
253.562	231.38
253.795	230.38
254.028	230.38
254.261	223.38
254.494	230.38
254.727	276.38
254.96	291.38
255.193	278.38
255.426	267.38
255.659	251.38
255.892	249.38
256.124	237.38
256.357	248.38
256.59	227.38
256.823	231.38
257.056	224.38
257.289	219.38
257.521	218.38
257.754	215.38
257.987	216.38
258.22	227.38
258.452	219.38
258.685	220.38
258.918	201.38
259.151	219.38
259.383	220.38
259.616	222.38
259.849	230.38
260.081	261.38
260.314	273.38
260.547	281.38
260.779	252.38
261.012	229.38
261.244	231.38
261.477	234.38
261.71	223.38
261.942	235.38
262.175	250.38
262.407	232.38
262.64	225.38
262.872	216.38
263.105	239.38
263.337	234.38
263.57	226.38
263.802	237.38
264.035	207.38
264.267	222.38
264.499	221.38
264.732	224.38
264.964	220.38
265.197	222.38
265.429	219.38
265.661	220.38
265.894	238.38
266.126	224.38
266.358	216.38
266.591	237.38
266.823	238.38
267.055	259.38
267.287	254.38
267.52	227.38
267.752	233.38
267.984	243.38
268.216	261.38
268.448	257.38
268.681	245.38
268.913	261.38
269.145	269.38
269.377	287.38
269.609	297.38
269.841	304.38
270.073	290.38
270.306	289.38
270.538	333.38
270.77	332.38
271.002	315.38
271.234	296.38
271.466	299.38
271.698	320.38
271.93	333.38
272.162	331.38
272.394	341.38
272.626	320.38
272.858	300.38
273.09	303.38
273.322	274.38
273.553	284.38
273.785	288.38
274.017	288.38
274.249	275.38
274.481	281.38
274.713	286.38
274.945	291.38
275.176	295.38
275.408	285.38
275.64	279.38
275.872	264.38
276.104	291.38
276.335	283.38
276.567	299.38
276.799	301.38
277.031	316.38
277.262	334.38
277.494	350.38
277.726	317.38
277.957	310.38
278.189	291.38
278.421	291.38
278.652	291.38
278.884	292.38
279.115	296.38
279.347	301.38
279.579	289.38
279.81	285.38
280.042	277.38
280.273	288.38
280.505	277.38
280.736	288.38
280.968	287.38
281.199	300.38
281.431	291.38
281.662	279.38
281.894	288.38
282.125	272.38
282.356	303.38
282.588	327.38
282.819	324.38
283.051	301.38
283.282	287.38
283.513	291.38
283.745	295.38
283.976	296.38
284.207	309.38
284.439	322.38
284.67	320.38
284.901	309.38
285.132	300.38
285.364	303.38
285.595	305.38
285.826	293.38
286.057	306.38
286.288	303.38
286.52	289.38
286.751	305.38
286.982	316.38
287.213	296.38
287.444	317.38
287.675	311.38
287.906	317.38
288.138	299.38
288.369	302.38
288.6	326.38
288.831	306.38
289.062	324.38
289.293	313.38
289.524	311.38
289.755	299.38
289.986	310.38
290.217	298.38
290.448	298.38
290.679	320.38
290.91	316.38
291.141	317.38
291.371	307.38
291.602	336.38
291.833	301.38
292.064	321.38
292.295	320.38
292.526	320.38
292.757	316.38
292.987	317.38
293.218	307.38
293.449	312.38
293.68	319.38
293.91	312.38
294.141	309.38
294.372	331.38
294.603	307.38
294.833	314.38
295.064	295.38
295.295	324.38
295.525	309.38
295.756	307.38
295.987	336.38
296.217	343.38
296.448	346.38
296.679	324.38
296.909	325.38
297.14	323.38
297.37	328.38
297.601	339.38
297.831	326.38
298.062	325.38
298.292	315.38
298.523	340.38
298.753	347.38
298.984	319.38
299.214	327.38
299.445	327.38
299.675	324.38
299.905	335.38
300.136	323.38
300.366	337.38
300.597	332.38
300.827	364.38
301.057	330.38
301.288	367.38
301.518	343.38
301.748	355.38
301.979	353.38
302.209	351.38
302.439	358.38
302.669	337.38
302.9	345.38
303.13	333.38
303.36	375.38
303.59	366.38
303.82	352.38
304.051	362.38
304.281	344.38
304.511	355.38
304.741	352.38
304.971	348.38
305.201	326.38
305.431	340.38
305.661	346.38
305.891	345.38
306.121	373.38
306.352	362.38
306.582	361.38
306.812	363.38
307.042	347.38
307.272	353.38
307.502	355.38
307.731	336.38
307.961	345.38
308.191	360.38
308.421	356.38
308.651	367.38
308.881	359.38
309.111	365.38
309.341	382.38
309.571	378.38
309.8	384.38
310.03	378.38
310.26	402.38
310.49	392.38
310.72	417.38
310.949	402.38
311.179	422.38
311.409	421.38
311.639	388.38
311.868	395.38
312.098	395.38
312.328	394.38
312.557	388.38
312.787	428.38
313.017	428.38
313.246	419.38
313.476	385.38
313.706	385.38
313.935	395.38
314.165	409.38
314.394	413.38
314.624	440.38
314.853	399.38
315.083	387.38
315.312	390.38
315.542	400.38
315.771	396.38
316.001	387.38
316.23	389.38
316.46	406.38
316.689	413.38
316.919	389.38
317.148	413.38
317.377	405.38
317.607	404.38
317.836	396.38
318.065	389.38
318.295	415.38
318.524	391.38
318.753	391.38
318.983	406.38
319.212	398.38
319.441	406.38
319.67	419.38
319.9	398.38
320.129	384.38
320.358	377.38
320.587	399.38
320.816	405.38
321.046	407.38
321.275	406.38
321.504	432.38
321.733	437.38
321.962	429.38
322.191	446.38
322.42	438.38
322.649	463.38
322.878	465.38
323.108	448.38
323.337	489.38
323.566	511.38
323.795	501.38
324.024	509.38
324.253	652.38
324.482	863.38
324.71	1328.38
324.939	1944.38
325.168	1735.38
325.397	888.38
325.626	627.38
325.855	531.38
326.084	521.38
326.313	470.38
326.542	486.38
326.77	522.38
326.999	596.38
327.228	813.38
327.457	1218.38
327.686	1531.38
327.914	984.38
328.143	670.38
328.372	584.38
328.6	569.38
328.829	539.38
329.058	557.38
329.287	550.38
329.515	533.38
329.744	499.38
329.972	524.38
330.201	554.38
330.43	582.38
330.658	578.38
330.887	606.38
331.115	586.38
331.344	527.38
331.572	483.38
331.801	502.38
332.03	515.38
332.258	502.38
332.486	474.38
332.715	471.38
332.943	473.38
333.172	477.38
333.4	529.38
333.629	512.38
333.857	523.38
334.085	534.38
334.314	559.38
334.542	567.38
334.771	587.38
334.999	541.38
335.227	511.38
335.455	497.38
335.684	495.38
335.912	502.38
336.14	478.38
336.369	503.38
336.597	487.38
336.825	481.38
337.053	500.38
337.281	454.38
337.51	460.38
337.738	465.38
337.966	452.38
338.194	476.38
338.422	466.38
338.65	454.38
338.878	451.38
339.106	437.38
339.334	456.38
339.562	475.38
339.79	460.38
340.018	459.38
340.246	454.38
340.474	459.38
340.702	440.38
340.93	448.38
341.158	435.38
341.386	449.38
341.614	470.38
341.842	470.38
342.07	453.38
342.298	443.38
342.526	443.38
342.754	452.38
342.981	441.38
343.209	443.38
343.437	459.38
343.665	454.38
343.893	470.38
344.12	476.38
344.348	477.38
344.576	475.38
344.804	475.38
345.031	473.38
345.259	470.38
345.487	485.38
345.714	460.38
345.942	470.38
346.17	446.38
346.397	447.38
346.625	419.38
346.853	445.38
347.08	451.38
347.308	461.38
347.535	463.38
347.763	473.38
347.99	444.38
348.218	469.38
348.445	455.38
348.673	465.38
348.9	461.38
349.128	455.38
349.355	447.38
349.583	424.38
349.81	447.38
350.037	428.38
350.265	417.38
350.492	412.38
350.72	421.38
350.947	427.38
351.174	452.38
351.402	446.38
351.629	456.38
351.856	447.38
352.083	457.38
352.311	446.38
352.538	435.38
352.765	448.38
352.992	436.38
353.22	437.38
353.447	446.38
353.674	435.38
353.901	419.38
354.128	435.38
354.355	427.38
354.583	401.38
354.81	413.38
355.037	399.38
355.264	409.38
355.491	399.38
355.718	425.38
355.945	445.38
356.172	423.38
356.399	412.38
356.626	424.38
356.853	421.38
357.08	436.38
357.307	420.38
357.534	412.38
357.761	428.38
357.988	414.38
358.215	415.38
358.441	438.38
358.668	441.38
358.895	426.38
359.122	421.38
359.349	435.38
359.576	425.38
359.802	455.38
360.029	491.38
360.256	479.38
360.483	456.38
360.709	448.38
360.936	454.38
361.163	445.38
361.39	452.38
361.616	442.38
361.843	427.38
362.07	451.38
362.296	439.38
362.523	430.38
362.749	423.38
362.976	440.38
363.203	433.38
363.429	423.38
363.656	437.38
363.882	415.38
364.109	416.38
364.335	404.38
364.562	423.38
364.788	422.38
365.015	417.38
365.241	444.38
365.468	446.38
365.694	449.38
365.92	455.38
366.147	419.38
366.373	417.38
366.599	405.38
366.826	413.38
367.052	430.38
367.278	423.38
367.505	423.38
367.731	432.38
367.957	423.38
368.184	433.38
368.41	428.38
368.636	440.38
368.862	440.38
369.089	447.38
369.315	444.38
369.541	420.38
369.767	419.38
369.993	413.38
370.219	417.38
370.445	407.38
370.672	439.38
370.898	425.38
371.124	452.38
371.35	425.38
371.576	431.38
371.802	446.38
372.028	447.38
372.254	424.38
372.48	443.38
372.706	435.38
372.932	444.38
373.158	451.38
373.384	455.38
373.61	436.38
373.835	449.38
374.061	445.38
374.287	439.38
374.513	440.38
374.739	468.38
374.965	448.38
375.191	447.38
375.416	463.38
375.642	443.38
375.868	445.38
376.094	450.38
376.319	439.38
376.545	451.38
376.771	432.38
376.997	431.38
377.222	446.38
377.448	431.38
377.674	439.38
377.899	423.38
378.125	437.38
378.35	427.38
378.576	432.38
378.802	424.38
379.027	419.38
379.253	436.38
379.478	441.38
379.704	449.38
379.929	441.38
380.155	413.38
380.38	436.38
380.606	443.38
380.831	432.38
381.057	445.38
381.282	414.38
381.507	453.38
381.733	459.38
381.958	454.38
382.184	448.38
382.409	446.38
382.634	443.38
382.86	440.38
383.085	457.38
383.31	449.38
383.535	430.38
383.761	438.38
383.986	467.38
384.211	459.38
384.436	453.38
384.662	476.38
384.887	478.38
385.112	464.38
385.337	481.38
385.562	493.38
385.787	483.38
386.013	494.38
386.238	491.38
386.463	504.38
386.688	479.38
386.913	472.38
387.138	516.38
387.363	494.38
387.588	487.38
387.813	492.38
388.038	482.38
388.263	485.38
388.488	492.38
388.713	467.38
388.938	506.38
389.163	501.38
389.387	496.38
389.612	470.38
389.837	495.38
390.062	470.38
390.287	475.38
390.512	499.38
390.736	471.38
390.961	476.38
391.186	472.38
391.411	487.38
391.636	519.38
391.86	516.38
392.085	522.38
392.31	523.38
392.534	488.38
392.759	490.38
392.984	487.38
393.208	494.38
393.433	479.38
393.658	486.38
393.882	485.38
394.107	504.38
394.331	492.38
394.556	484.38
394.78	504.38
395.005	509.38
395.229	483.38
395.454	517.38
395.678	518.38
395.903	524.38
396.127	539.38
396.352	545.38
396.576	516.38
396.801	507.38
397.025	508.38
397.249	501.38
397.474	510.38
397.698	515.38
397.922	537.38
398.147	574.38
398.371	556.38
398.595	549.38
398.82	569.38
399.044	588.38
399.268	617.38
399.492	636.38
399.717	688.38
399.941	752.38
400.165	726.38
400.389	722.38
400.613	651.38
400.837	598.38
401.062	607.38
401.286	576.38
401.51	559.38
401.734	575.38
401.958	557.38
402.182	575.38
402.406	595.38
402.63	599.38
402.854	572.38
403.078	569.38
403.302	584.38
403.526	589.38
403.75	585.38
403.974	609.38
404.198	575.38
404.422	599.38
404.645	620.38
404.869	601.38
405.093	617.38
405.317	703.38
405.541	727.38
405.765	646.38
405.988	644.38
406.212	623.38
406.436	661.38
406.66	662.38
406.883	629.38
407.107	654.38
407.331	699.38
407.555	807.38
407.778	807.38
408.002	715.38
408.226	660.38
408.449	669.38
408.673	663.38
408.896	684.38
409.12	727.38
409.344	683.38
409.567	609.38
409.791	612.38
410.014	604.38
410.238	596.38
410.461	602.38
410.685	596.38
410.908	615.38
411.132	631.38
411.355	687.38
411.578	659.38
411.802	596.38
412.025	588.38
412.249	602.38
412.472	634.38
412.695	657.38
412.919	649.38
413.142	611.38
413.365	591.38
413.589	602.38
413.812	566.38
414.035	548.38
414.258	571.38
414.482	567.38
414.705	569.38
414.928	548.38
415.151	591.38
415.374	580.38
415.597	541.38
415.821	559.38
416.044	587.38
416.267	568.38
416.49	560.38
416.713	565.38
416.936	551.38
417.159	532.38
417.382	571.38
417.605	549.38
417.828	567.38
418.051	587.38
418.274	569.38
418.497	550.38
418.72	575.38
418.943	570.38
419.166	587.38
419.389	608.38
419.611	617.38
419.834	611.38
420.057	595.38
420.28	581.38
420.503	584.38
420.726	611.38
420.948	607.38
421.171	645.38
421.394	709.38
421.617	601.38
421.839	597.38
422.062	573.38
422.285	606.38
422.507	661.38
422.73	757.38
422.953	700.38
423.175	633.38
423.398	613.38
423.621	626.38
423.843	639.38
424.066	628.38
424.288	619.38
424.511	634.38
424.733	691.38
424.956	776.38
425.178	761.38
425.401	747.38
425.623	771.38
425.846	679.38
426.068	640.38
426.291	606.38
426.513	620.38
426.735	609.38
426.958	661.38
427.18	763.38
427.402	899.38
427.625	971.38
427.847	829.38
428.069	720.38
428.292	658.38
428.514	589.38
428.736	580.38
428.958	569.38
429.181	569.38
429.403	554.38
429.625	588.38
429.847	592.38
430.069	663.38
430.292	672.38
430.514	591.38
430.736	552.38
430.958	569.38
431.18	547.38
431.402	569.38
431.624	536.38
431.846	550.38
432.068	542.38
432.29	558.38
432.512	527.38
432.734	560.38
432.956	550.38
433.178	574.38
433.4	574.38
433.622	556.38
433.844	553.38
434.066	523.38
434.287	529.38
434.509	540.38
434.731	585.38
434.953	566.38
435.175	596.38
435.397	619.38
435.618	622.38
435.84	659.38
436.062	759.38
436.284	836.38
436.505	690.38
436.727	625.38
436.949	591.38
437.17	572.38
437.392	550.38
437.614	585.38
437.835	600.38
438.057	677.38
438.278	835.38
438.5	814.38
438.721	886.38
438.943	866.38
439.165	683.38
439.386	639.38
439.608	636.38
439.829	615.38
440.05	635.38
440.272	681.38
440.493	667.38
440.715	607.38
440.936	587.38
441.158	582.38
441.379	578.38
441.6	601.38
441.822	589.38
442.043	667.38
442.264	762.38
442.486	779.38
442.707	640.38
442.928	639.38
443.149	627.38
443.371	643.38
443.592	700.38
443.813	805.38
444.034	899.38
444.255	724.38
444.476	657.38
444.698	648.38
444.919	640.38
445.14	760.38
445.361	699.38
445.582	661.38
445.803	721.38
446.024	840.38
446.245	857.38
446.466	763.38
446.687	651.38
446.908	615.38
447.129	602.38
447.35	569.38
447.571	558.38
447.792	544.38
448.013	562.38
448.234	601.38
448.455	637.38
448.675	745.38
448.896	890.38
449.117	740.38
449.338	722.38
449.559	814.38
449.779	928.38
450	771.38
450.221	618.38
450.442	556.38
450.662	541.38
450.883	547.38
451.104	561.38
451.324	552.38
451.545	532.38
451.766	522.38
451.986	499.38
452.207	502.38
452.428	525.38
452.648	512.38
452.869	494.38
453.089	492.38
453.31	524.38
453.53	541.38
453.751	518.38
453.971	511.38
454.192	511.38
454.412	511.38
454.633	505.38
454.853	514.38
455.073	519.38
455.294	513.38
455.514	584.38
455.734	584.38
455.955	526.38
456.175	506.38
456.395	456.38
456.616	477.38
456.836	517.38
457.056	473.38
457.276	483.38
457.497	501.38
457.717	475.38
457.937	485.38
458.157	464.38
458.377	529.38
458.598	517.38
458.818	561.38
459.038	621.38
459.258	664.38
459.478	575.38
459.698	542.38
459.918	551.38
460.138	566.38
460.358	565.38
460.578	570.38
460.798	567.38
461.018	586.38
461.238	560.38
461.458	573.38
461.678	543.38
461.898	565.38
462.118	584.38
462.338	602.38
462.558	591.38
462.777	603.38
462.997	623.38
463.217	610.38
463.437	662.38
463.657	635.38
463.876	624.38
464.096	613.38
464.316	623.38
464.536	612.38
464.755	602.38
464.975	604.38
465.195	622.38
465.414	662.38
465.634	616.38
465.854	585.38
466.073	564.38
466.293	524.38
466.512	517.38
466.732	535.38
466.951	518.38
467.171	529.38
467.391	515.38
467.61	536.38
467.829	551.38
468.049	548.38
468.268	522.38
468.488	524.38
468.707	503.38
468.927	503.38
469.146	507.38
469.365	507.38
469.585	533.38
469.804	510.38
470.023	540.38
470.243	534.38
470.462	521.38
470.681	567.38
470.901	545.38
471.12	539.38
471.339	531.38
471.558	519.38
471.777	549.38
471.997	520.38
472.216	528.38
472.435	554.38
472.654	549.38
472.873	527.38
473.092	543.38
473.311	535.38
473.53	523.38
473.749	544.38
473.968	567.38
474.187	671.38
474.406	709.38
474.625	597.38
474.844	542.38
475.063	546.38
475.282	535.38
475.501	532.38
475.72	539.38
475.939	548.38
476.158	537.38
476.377	543.38
476.596	539.38
476.814	550.38
477.033	559.38
477.252	572.38
477.471	552.38
477.69	553.38
477.908	580.38
478.127	594.38
478.346	600.38
478.564	602.38
478.783	603.38
479.002	616.38
479.22	607.38
479.439	597.38
479.658	623.38
479.876	643.38
480.095	635.38
480.313	701.38
480.532	654.38
480.751	661.38
480.969	655.38
481.188	712.38
481.406	739.38
481.624	662.38
481.843	629.38
482.061	613.38
482.28	639.38
482.498	635.38
482.717	629.38
482.935	604.38
483.153	592.38
483.372	614.38
483.59	629.38
483.808	630.38
484.027	619.38
484.245	605.38
484.463	638.38
484.681	632.38
484.9	629.38
485.118	647.38
485.336	634.38
485.554	627.38
485.772	636.38
485.99	635.38
486.209	637.38
486.427	647.38
486.645	647.38
486.863	660.38
487.081	665.38
487.299	644.38
487.517	680.38
487.735	650.38
487.953	645.38
488.171	652.38
488.389	670.38
488.607	671.38
488.825	660.38
489.043	664.38
489.261	675.38
489.479	675.38
489.696	686.38
489.914	676.38
490.132	685.38
490.35	693.38
490.568	712.38
490.786	702.38
491.003	712.38
491.221	732.38
491.439	735.38
491.657	728.38
491.874	720.38
492.092	755.38
492.31	745.38
492.527	790.38
492.745	783.38
492.963	760.38
493.18	760.38
493.398	788.38
493.615	780.38
493.833	810.38
494.05	780.38
494.268	811.38
494.485	797.38
494.703	774.38
494.92	800.38
495.138	804.38
495.355	791.38
495.573	790.38
495.79	761.38
496.008	807.38
496.225	799.38
496.442	808.38
496.66	781.38
496.877	805.38
497.094	807.38
497.312	816.38
497.529	841.38
497.746	837.38
497.963	829.38
498.181	845.38
498.398	876.38
498.615	899.38
498.832	893.38
499.049	931.38
499.267	957.38
499.484	1045.38
499.701	1029.38
499.918	1096.38
500.135	1171.38
500.352	1251.38
500.569	1254.38
500.786	1256.38
501.003	1235.38
501.22	1245.38
501.437	1146.38
501.654	1118.38
501.871	1047.38
502.088	1015.38
502.305	996.38
502.522	932.38
502.739	908.38
502.956	859.38
503.172	871.38
503.389	848.38
503.606	815.38
503.823	813.38
504.04	811.38
504.256	845.38
504.473	792.38
504.69	803.38
504.907	782.38
505.123	799.38
505.34	749.38
505.557	773.38
505.773	750.38
505.99	775.38
506.207	752.38
506.423	737.38
506.64	721.38
506.856	735.38
507.073	728.38
507.289	709.38
507.506	707.38
507.722	732.38
507.939	731.38
508.155	729.38
508.372	705.38
508.588	683.38
508.805	689.38
509.021	695.38
509.238	715.38
509.454	709.38
509.67	698.38
509.887	688.38
510.103	709.38
510.319	693.38
510.536	752.38
510.752	1113.38
510.968	955.38
511.184	684.38
511.401	683.38
511.617	662.38
511.833	642.38
512.049	673.38
512.265	652.38
512.481	649.38
512.698	662.38
512.914	636.38
513.13	656.38
513.346	620.38
513.562	652.38
513.778	645.38
513.994	671.38
514.21	680.38
514.426	695.38
514.642	692.38
514.858	728.38
515.074	762.38
515.29	833.38
515.506	1121.38
515.721	979.38
515.937	739.38
516.153	697.38
516.369	709.38
516.585	697.38
516.801	677.38
517.016	680.38
517.232	695.38
517.448	712.38
517.664	704.38
517.879	704.38
518.095	715.38
518.311	718.38
518.527	702.38
518.742	680.38
518.958	665.38
519.173	673.38
519.389	653.38
519.605	651.38
519.82	658.38
520.036	656.38
520.251	681.38
520.467	695.38
520.682	687.38
520.898	665.38
521.113	695.38
521.329	708.38
521.544	767.38
521.76	929.38
521.975	1419.38
522.19	1384.38
522.406	841.38
522.621	693.38
522.836	634.38
523.052	622.38
523.267	612.38
523.482	611.38
523.698	574.38
523.913	589.38
524.128	596.38
524.343	573.38
524.559	555.38
524.774	565.38
524.989	577.38
525.204	559.38
525.419	565.38
525.634	561.38
525.849	553.38
526.064	559.38
526.28	557.38
526.495	556.38
526.71	541.38
526.925	525.38
527.14	533.38
527.355	546.38
527.57	563.38
527.785	536.38
527.999	533.38
528.214	529.38
528.429	524.38
528.644	536.38
528.859	552.38
529.074	537.38
529.289	576.38
529.503	617.38
529.718	603.38
529.933	569.38
530.148	561.38
530.363	564.38
530.577	539.38
530.792	535.38
531.007	529.38
531.221	534.38
531.436	539.38
531.651	510.38
531.865	541.38
532.08	534.38
532.295	543.38
532.509	535.38
532.724	504.38
532.938	535.38
533.153	526.38
533.367	533.38
533.582	535.38
533.796	499.38
534.011	507.38
534.225	513.38
534.44	493.38
534.654	491.38
534.868	509.38
535.083	532.38
535.297	518.38
535.511	521.38
535.726	530.38
535.94	521.38
536.154	494.38
536.369	493.38
536.583	514.38
536.797	507.38
537.011	518.38
537.225	485.38
537.44	506.38
537.654	496.38
537.868	506.38
538.082	502.38
538.296	510.38
538.51	500.38
538.724	493.38
538.938	517.38
539.153	500.38
539.367	506.38
539.581	507.38
539.795	496.38
540.009	483.38
540.222	493.38
540.436	518.38
540.65	499.38
540.864	526.38
541.078	522.38
541.292	504.38
541.506	508.38
541.72	519.38
541.934	501.38
542.147	518.38
542.361	509.38
542.575	496.38
542.789	480.38
543.002	481.38
543.216	486.38
543.43	500.38
543.644	494.38
543.857	501.38
544.071	497.38
544.285	525.38
544.498	502.38
544.712	493.38
544.925	483.38
545.139	492.38
545.352	484.38
545.566	505.38
545.779	486.38
545.993	489.38
546.206	489.38
546.42	505.38
546.633	467.38
546.847	485.38
547.06	489.38
547.274	492.38
547.487	479.38
547.7	475.38
547.914	488.38
548.127	497.38
548.34	492.38
548.554	482.38
548.767	492.38
548.98	494.38
549.193	494.38
549.407	480.38
549.62	485.38
549.833	470.38
550.046	484.38
550.259	463.38
550.473	464.38
550.686	468.38
550.899	497.38
551.112	452.38
551.325	486.38
551.538	472.38
551.751	466.38
551.964	479.38
552.177	461.38
552.39	459.38
552.603	476.38
552.816	492.38
553.029	481.38
553.242	504.38
553.455	503.38
553.667	510.38
553.88	504.38
554.093	474.38
554.306	490.38
554.519	499.38
554.732	485.38
554.944	490.38
555.157	480.38
555.37	479.38
555.583	469.38
555.795	466.38
556.008	425.38
556.221	450.38
556.433	452.38
556.646	463.38
556.859	446.38
557.071	444.38
557.284	448.38
557.496	422.38
557.709	440.38
557.921	436.38
558.134	421.38
558.346	415.38
558.559	435.38
558.771	439.38
558.984	442.38
559.196	430.38
559.409	436.38
559.621	422.38
559.833	433.38
560.046	440.38
560.258	422.38
560.47	433.38
560.683	423.38
560.895	409.38
561.107	399.38
561.32	414.38
561.532	431.38
561.744	436.38
561.956	418.38
562.168	432.38
562.381	449.38
562.593	430.38
562.805	447.38
563.017	425.38
563.229	450.38
563.441	447.38
563.653	419.38
563.865	451.38
564.077	441.38
564.289	442.38
564.501	452.38
564.713	461.38
564.925	465.38
565.137	497.38
565.349	464.38
565.561	469.38
565.773	483.38
565.985	499.38
566.197	501.38
566.408	494.38
566.62	545.38
566.832	569.38
567.044	563.38
567.255	572.38
567.467	578.38
567.679	565.38
567.891	613.38
568.102	609.38
568.314	606.38
568.526	550.38
568.737	520.38
568.949	530.38
569.161	491.38
569.372	487.38
569.584	447.38
569.795	439.38
570.007	454.38
570.218	464.38
570.43	449.38
570.641	425.38
570.853	423.38
571.064	429.38
571.276	427.38
571.487	440.38
571.698	419.38
571.91	413.38
572.121	394.38
572.333	388.38
572.544	371.38
572.755	384.38
572.966	403.38
573.178	394.38
573.389	376.38
573.6	365.38
573.811	385.38
574.023	375.38
574.234	377.38
574.445	364.38
574.656	382.38
574.867	383.38
575.078	375.38
575.289	393.38
575.501	364.38
575.712	352.38
575.923	373.38
576.134	385.38
576.345	371.38
576.556	376.38
576.767	373.38
576.978	359.38
577.188	357.38
577.399	367.38
577.61	365.38
577.821	340.38
578.032	334.38
578.243	383.38
578.454	553.38
578.665	439.38
578.875	349.38
579.086	349.38
579.297	350.38
579.508	339.38
579.718	347.38
579.929	334.38
580.14	329.38
580.35	324.38
580.561	342.38
580.772	329.38
580.982	351.38
581.193	324.38
581.403	334.38
581.614	335.38
581.825	330.38
582.035	329.38
582.246	346.38
582.456	317.38
582.667	346.38
582.877	325.38
583.087	332.38
583.298	316.38
583.508	346.38
583.719	334.38
583.929	321.38
584.139	349.38
584.35	326.38
584.56	340.38
584.77	340.38
584.981	328.38
585.191	324.38
585.401	320.38
585.611	341.38
585.821	317.38
586.032	342.38
586.242	316.38
586.452	321.38
586.662	318.38
586.872	313.38
587.082	327.38
587.292	336.38
587.502	321.38
587.713	306.38
587.923	322.38
588.133	316.38
588.343	316.38
588.553	307.38
588.762	330.38
588.972	342.38
589.182	323.38
589.392	323.38
589.602	315.38
589.812	333.38
590.022	312.38
590.232	304.38
590.441	315.38
590.651	323.38
590.861	321.38
591.071	320.38
591.281	330.38
591.49	326.38
591.7	319.38
591.91	346.38
592.119	336.38
592.329	321.38
592.539	332.38
592.748	351.38
592.958	328.38
593.167	351.38
593.377	366.38
593.587	367.38
593.796	331.38
594.006	373.38
594.215	357.38
594.424	370.38
594.634	357.38
594.843	351.38
595.053	357.38
595.262	339.38
595.472	337.38
595.681	331.38
595.89	313.38
596.1	330.38
596.309	315.38
596.518	331.38
596.727	325.38
596.937	328.38
597.146	305.38
597.355	325.38
597.564	307.38
597.774	303.38
597.983	303.38
598.192	287.38
598.401	299.38
598.61	285.38
598.819	295.38
599.028	294.38
599.237	293.38
599.446	276.38
599.655	273.38
599.864	281.38
600.073	279.38
600.282	286.38
600.491	288.38
600.7	279.38
600.909	289.38
601.118	273.38
601.327	282.38
601.536	276.38
601.745	268.38
601.953	283.38
602.162	302.38
602.371	287.38
602.58	294.38
602.789	285.38
602.997	275.38
603.206	296.38
603.415	268.38
603.623	256.38
603.832	296.38
604.041	281.38
604.249	280.38
604.458	257.38
604.666	261.38
604.875	261.38
605.084	274.38
605.292	265.38
605.501	252.38
605.709	279.38
605.918	265.38
606.126	271.38
606.334	291.38
606.543	282.38
606.751	291.38
606.96	261.38
607.168	284.38
607.376	248.38
607.585	261.38
607.793	254.38
608.001	252.38
608.21	259.38
608.418	250.38
608.626	253.38
608.834	248.38
609.043	243.38
609.251	282.38
609.459	257.38
609.667	273.38
609.875	243.38
610.083	281.38
610.291	245.38
610.499	279.38
610.707	270.38
610.916	277.38
611.124	262.38
611.332	271.38
611.54	266.38
611.748	263.38
611.955	245.38
612.163	250.38
612.371	261.38
612.579	268.38
612.787	253.38
612.995	260.38
613.203	283.38
613.411	254.38
613.618	270.38
613.826	253.38
614.034	258.38
614.242	259.38
614.449	250.38
614.657	261.38
614.865	251.38
615.072	238.38
615.28	253.38
615.488	268.38
615.695	249.38
615.903	264.38
616.111	263.38
616.318	268.38
616.526	269.38
616.733	257.38
616.941	276.38
617.148	254.38
617.356	253.38
617.563	273.38
617.771	260.38
617.978	264.38
618.185	263.38
618.393	248.38
618.6	255.38
618.807	248.38
619.015	251.38
619.222	264.38
619.429	259.38
619.637	253.38
619.844	247.38
620.051	259.38
620.258	229.38
620.466	245.38
620.673	224.38
620.88	219.38
621.087	238.38
621.294	261.38
621.501	234.38
621.708	231.38
621.915	266.38
622.122	238.38
622.329	240.38
622.536	249.38
622.743	225.38
622.95	232.38
623.157	243.38
623.364	247.38
623.571	242.38
623.778	229.38
623.985	245.38
624.192	229.38
624.399	231.38
624.606	235.38
624.812	227.38
625.019	243.38
625.226	229.38
625.433	252.38
625.639	226.38
625.846	222.38
626.053	222.38
626.259	221.38
626.466	219.38
626.673	234.38
626.879	229.38
627.086	219.38
627.293	237.38
627.499	229.38
627.706	235.38
627.912	213.38
628.119	224.38
628.325	227.38
628.532	225.38
628.738	210.38
628.945	217.38
629.151	246.38
629.357	222.38
629.564	220.38
629.77	217.38
629.976	215.38
630.183	219.38
630.389	201.38
630.595	218.38
630.802	223.38
631.008	220.38
631.214	230.38
631.42	211.38
631.627	226.38
631.833	212.38
632.039	200.38
632.245	216.38
632.451	208.38
632.657	222.38
632.863	207.38
633.069	200.38
633.275	195.38
633.481	208.38
633.688	196.38
633.893	198.38
634.099	211.38
634.305	205.38
634.511	171.38
634.717	218.38
634.923	192.38
635.129	185.38
635.335	189.38
635.541	190.38
635.747	199.38
635.952	193.38
636.158	201.38
636.364	209.38
636.57	192.38
636.775	197.38
636.981	202.38
637.187	192.38
637.392	200.38
637.598	196.38
637.804	205.38
638.009	213.38
638.215	202.38
638.421	201.38
638.626	187.38
638.832	190.38
639.037	187.38
639.243	182.38
639.448	197.38
639.654	176.38
639.859	189.38
640.065	183.38
640.27	196.38
640.475	186.38
640.681	188.38
640.886	202.38
641.091	183.38
641.297	199.38
641.502	180.38
641.707	195.38
641.913	184.38
642.118	194.38
642.323	165.38
642.528	179.38
642.733	172.38
642.939	191.38
643.144	196.38
643.349	195.38
643.554	172.38
643.759	192.38
643.964	171.38
644.169	179.38
644.374	192.38
644.579	187.38
644.784	193.38
644.989	185.38
645.194	181.38
645.399	172.38
645.604	171.38
645.809	172.38
646.014	190.38
646.219	192.38
646.423	179.38
646.628	191.38
646.833	182.38
647.038	173.38
647.243	183.38
647.447	176.38
647.652	189.38
647.857	188.38
648.062	191.38
648.266	193.38
648.471	167.38
648.676	177.38
648.88	192.38
649.085	189.38
649.289	157.38
649.494	185.38
649.698	206.38
649.903	200.38
650.107	202.38
650.312	188.38
650.516	158.38
650.721	171.38
650.925	162.38
651.13	167.38
651.334	174.38
651.539	159.38
651.743	163.38
651.947	173.38
652.152	160.38
652.356	146.38
652.56	157.38
652.764	153.38
652.969	154.38
653.173	145.38
653.377	155.38
653.581	149.38
653.785	139.38
653.99	142.38
654.194	150.38
654.398	153.38
654.602	157.38
654.806	158.38
655.01	146.38
655.214	129.38
655.418	148.38
655.622	158.38
655.826	157.38
656.03	138.38
656.234	144.38
656.438	137.38
656.642	165.38
656.846	157.38
657.049	151.38
657.253	139.38
657.457	136.38
657.661	136.38
657.865	134.38
658.068	114.38
658.272	112.38
658.476	112.38
658.68	120.38
658.883	110.38
659.087	94.38
659.291	105.38
659.494	108.38
659.698	110.38
659.901	103.38
660.105	93.38
660.309	93.38
660.512	94.38
660.716	109.38
660.919	94.38
661.123	101.38
661.326	90.38
661.53	99.38
661.733	96.38
661.936	86.38
662.14	84.38
662.343	93.38
662.546	91.38
662.75	94.38
662.953	100.38
663.156	86.38
663.36	95.38
663.563	79.38
663.766	87.38
663.969	84.38
664.173	72.38
664.376	90.38
664.579	92.38
664.782	75.38
664.985	94.38
665.188	83.38
665.391	76.38
665.594	83.38
665.797	81.38
666	93.38
666.203	95.38
666.406	79.38
666.609	88.38
666.812	78.38
667.015	90.38
667.218	89.38
667.421	87.38
667.624	87.38
667.827	104.38
668.03	87.38
668.232	92.38
668.435	83.38
668.638	87.38
668.841	84.38
669.043	93.38
669.246	79.38
669.449	85.38
669.651	87.38
669.854	88.38
670.057	74.38
670.259	87.38
670.462	93.38
670.665	80.38
670.867	99.38
671.07	95.38
671.272	93.38
671.475	84.38
671.677	87.38
671.88	82.38
672.082	89.38
672.284	81.38
672.487	92.38
672.689	63.38
672.892	84.38
