Data from 1975.PennyLincolnUp.Lamp.En5.5.200Scan.071719.P1.Changed Mount._HRD10591_15-56-38-859.txt Node
Date: Thu Jul 18 15:56:38 EDT 2019
User: cochatt
Spectrometer: HR+D1059
Trigger mode: 1
Integration Time (sec): 1.000000E-1
Scans to average: 1
Electric dark correction enabled: true
Nonlinearity correction enabled: false
Boxcar width: 0
XAxis mode: Wavelengths
Number of Pixels in Spectrum: 2048
>>>>>Begin Spectral Data<<<<<
223.165	-15.75
223.4	-15.75
223.635	-15.75
223.869	-21.75
224.104	-15.75
224.338	-14.75
224.573	-6.75
224.808	-12.75
225.042	-20.75
225.277	1.25
225.511	-0.75
225.746	-6.75
225.98	10.25
226.215	21.25
226.449	1.25
226.683	17.25
226.918	27.25
227.152	37.25
227.387	14.25
227.621	29.25
227.856	38.25
228.09	34.25
228.324	51.25
228.559	48.25
228.793	77.25
229.027	89.25
229.262	105.25
229.496	106.25
229.73	129.25
229.964	132.25
230.199	118.25
230.433	93.25
230.667	109.25
230.901	108.25
231.136	100.25
231.37	132.25
231.604	92.25
231.838	97.25
232.072	115.25
232.306	120.25
232.541	101.25
232.775	102.25
233.009	109.25
233.243	112.25
233.477	109.25
233.711	124.25
233.945	123.25
234.179	121.25
234.413	118.25
234.647	119.25
234.881	115.25
235.115	116.25
235.349	128.25
235.583	111.25
235.817	122.25
236.051	120.25
236.285	131.25
236.519	126.25
236.753	133.25
236.987	132.25
237.221	184.25
237.455	218.25
237.689	180.25
237.922	142.25
238.156	121.25
238.39	128.25
238.624	122.25
238.858	123.25
239.091	122.25
239.325	113.25
239.559	115.25
239.793	138.25
240.027	130.25
240.26	141.25
240.494	162.25
240.728	159.25
240.961	153.25
241.195	134.25
241.429	134.25
241.662	128.25
241.896	121.25
242.13	131.25
242.363	131.25
242.597	120.25
242.83	134.25
243.064	138.25
243.298	138.25
243.531	143.25
243.765	142.25
243.998	143.25
244.232	142.25
244.465	142.25
244.699	154.25
244.932	153.25
245.166	135.25
245.399	152.25
245.633	146.25
245.866	136.25
246.099	141.25
246.333	152.25
246.566	173.25
246.8	156.25
247.033	155.25
247.266	164.25
247.5	170.25
247.733	155.25
247.966	180.25
248.2	164.25
248.433	166.25
248.666	153.25
248.899	186.25
249.133	179.25
249.366	200.25
249.599	196.25
249.832	179.25
250.066	152.25
250.299	192.25
250.532	182.25
250.765	201.25
250.998	200.25
251.231	212.25
251.465	233.25
251.698	190.25
251.931	200.25
252.164	199.25
252.397	197.25
252.63	193.25
252.863	189.25
253.096	213.25
253.329	228.25
253.562	221.25
253.795	222.25
254.028	207.25
254.261	214.25
254.494	209.25
254.727	249.25
254.96	262.25
255.193	264.25
255.426	238.25
255.659	237.25
255.892	236.25
256.124	242.25
256.357	220.25
256.59	237.25
256.823	222.25
257.056	210.25
257.289	218.25
257.521	197.25
257.754	212.25
257.987	203.25
258.22	228.25
258.452	201.25
258.685	211.25
258.918	212.25
259.151	204.25
259.383	219.25
259.616	205.25
259.849	226.25
260.081	226.25
260.314	247.25
260.547	256.25
260.779	238.25
261.012	218.25
261.244	228.25
261.477	231.25
261.71	212.25
261.942	217.25
262.175	223.25
262.407	200.25
262.64	212.25
262.872	220.25
263.105	230.25
263.337	219.25
263.57	196.25
263.802	212.25
264.035	209.25
264.267	211.25
264.499	200.25
264.732	200.25
264.964	221.25
265.197	195.25
265.429	220.25
265.661	206.25
265.894	217.25
266.126	218.25
266.358	230.25
266.591	210.25
266.823	232.25
267.055	220.25
267.287	229.25
267.52	216.25
267.752	227.25
267.984	222.25
268.216	221.25
268.448	236.25
268.681	231.25
268.913	247.25
269.145	269.25
269.377	265.25
269.609	268.25
269.841	276.25
270.073	268.25
270.306	279.25
270.538	305.25
270.77	301.25
271.002	290.25
271.234	278.25
271.466	280.25
271.698	292.25
271.93	298.25
272.162	312.25
272.394	295.25
272.626	295.25
272.858	272.25
273.09	261.25
273.322	264.25
273.553	275.25
273.785	262.25
274.017	258.25
274.249	288.25
274.481	256.25
274.713	262.25
274.945	276.25
275.176	284.25
275.408	263.25
275.64	272.25
275.872	259.25
276.104	265.25
276.335	269.25
276.567	286.25
276.799	289.25
277.031	303.25
277.262	317.25
277.494	319.25
277.726	276.25
277.957	285.25
278.189	284.25
278.421	247.25
278.652	272.25
278.884	274.25
279.115	265.25
279.347	264.25
279.579	256.25
279.81	248.25
280.042	280.25
280.273	273.25
280.505	264.25
280.736	289.25
280.968	260.25
281.199	253.25
281.431	266.25
281.662	258.25
281.894	286.25
282.125	269.25
282.356	284.25
282.588	310.25
282.819	312.25
283.051	291.25
283.282	270.25
283.513	287.25
283.745	278.25
283.976	271.25
284.207	282.25
284.439	286.25
284.67	278.25
284.901	285.25
285.132	284.25
285.364	291.25
285.595	267.25
285.826	268.25
286.057	271.25
286.288	294.25
286.52	290.25
286.751	298.25
286.982	289.25
287.213	284.25
287.444	292.25
287.675	281.25
287.906	281.25
288.138	308.25
288.369	303.25
288.6	317.25
288.831	292.25
289.062	296.25
289.293	306.25
289.524	292.25
289.755	300.25
289.986	306.25
290.217	294.25
290.448	311.25
290.679	290.25
290.91	299.25
291.141	284.25
291.371	309.25
291.602	293.25
291.833	292.25
292.064	296.25
292.295	312.25
292.526	303.25
292.757	293.25
292.987	305.25
293.218	286.25
293.449	301.25
293.68	287.25
293.91	284.25
294.141	291.25
294.372	292.25
294.603	300.25
294.833	298.25
295.064	300.25
295.295	293.25
295.525	298.25
295.756	293.25
295.987	313.25
296.217	301.25
296.448	326.25
296.679	316.25
296.909	315.25
297.14	320.25
297.37	314.25
297.601	305.25
297.831	318.25
298.062	318.25
298.292	317.25
298.523	291.25
298.753	311.25
298.984	301.25
299.214	322.25
299.445	324.25
299.675	324.25
299.905	319.25
300.136	321.25
300.366	330.25
300.597	323.25
300.827	323.25
301.057	325.25
301.288	347.25
301.518	328.25
301.748	327.25
301.979	327.25
302.209	337.25
302.439	331.25
302.669	348.25
302.9	336.25
303.13	340.25
303.36	353.25
303.59	322.25
303.82	334.25
304.051	340.25
304.281	338.25
304.511	341.25
304.741	339.25
304.971	328.25
305.201	344.25
305.431	315.25
305.661	353.25
305.891	333.25
306.121	321.25
306.352	322.25
306.582	332.25
306.812	316.25
307.042	331.25
307.272	345.25
307.502	338.25
307.731	332.25
307.961	334.25
308.191	336.25
308.421	333.25
308.651	334.25
308.881	348.25
309.111	336.25
309.341	362.25
309.571	343.25
309.8	354.25
310.03	349.25
310.26	346.25
310.49	371.25
310.72	372.25
310.949	379.25
311.179	393.25
311.409	369.25
311.639	364.25
311.868	384.25
312.098	380.25
312.328	370.25
312.557	402.25
312.787	406.25
313.017	398.25
313.246	378.25
313.476	369.25
313.706	382.25
313.935	369.25
314.165	386.25
314.394	398.25
314.624	388.25
314.853	380.25
315.083	383.25
315.312	382.25
315.542	372.25
315.771	380.25
316.001	379.25
316.23	358.25
316.46	364.25
316.689	368.25
316.919	364.25
317.148	388.25
317.377	393.25
317.607	382.25
317.836	387.25
318.065	372.25
318.295	362.25
318.524	375.25
318.753	372.25
318.983	379.25
319.212	386.25
319.441	391.25
319.67	380.25
319.9	368.25
320.129	375.25
320.358	362.25
320.587	367.25
320.816	370.25
321.046	399.25
321.275	406.25
321.504	402.25
321.733	389.25
321.962	406.25
322.191	396.25
322.42	409.25
322.649	433.25
322.878	409.25
323.108	420.25
323.337	448.25
323.566	436.25
323.795	466.25
324.024	509.25
324.253	585.25
324.482	773.25
324.71	1187.25
324.939	1797.25
325.168	1548.25
325.397	771.25
325.626	559.25
325.855	498.25
326.084	461.25
326.313	463.25
326.542	453.25
326.77	497.25
326.999	555.25
327.228	716.25
327.457	1064.25
327.686	1377.25
327.914	901.25
328.143	608.25
328.372	532.25
328.6	538.25
328.829	502.25
329.058	512.25
329.287	532.25
329.515	486.25
329.744	460.25
329.972	472.25
330.201	489.25
330.43	527.25
330.658	551.25
330.887	562.25
331.115	530.25
331.344	492.25
331.572	445.25
331.801	486.25
332.03	483.25
332.258	458.25
332.486	459.25
332.715	452.25
332.943	485.25
333.172	465.25
333.4	470.25
333.629	485.25
333.857	518.25
334.085	510.25
334.314	509.25
334.542	527.25
334.771	535.25
334.999	520.25
335.227	486.25
335.455	453.25
335.684	471.25
335.912	482.25
336.14	439.25
336.369	448.25
336.597	459.25
336.825	449.25
337.053	449.25
337.281	432.25
337.51	453.25
337.738	458.25
337.966	434.25
338.194	441.25
338.422	450.25
338.65	461.25
338.878	453.25
339.106	442.25
339.334	452.25
339.562	417.25
339.79	436.25
340.018	428.25
340.246	446.25
340.474	460.25
340.702	422.25
340.93	436.25
341.158	417.25
341.386	437.25
341.614	429.25
341.842	429.25
342.07	403.25
342.298	422.25
342.526	425.25
342.754	405.25
342.981	421.25
343.209	430.25
343.437	436.25
343.665	442.25
343.893	449.25
344.12	444.25
344.348	455.25
344.576	440.25
344.804	448.25
345.031	450.25
345.259	452.25
345.487	449.25
345.714	428.25
345.942	451.25
346.17	441.25
346.397	421.25
346.625	422.25
346.853	401.25
347.08	405.25
347.308	438.25
347.535	402.25
347.763	427.25
347.99	440.25
348.218	414.25
348.445	436.25
348.673	415.25
348.9	425.25
349.128	424.25
349.355	422.25
349.583	406.25
349.81	443.25
350.037	400.25
350.265	397.25
350.492	404.25
350.72	419.25
350.947	403.25
351.174	426.25
351.402	434.25
351.629	408.25
351.856	435.25
352.083	436.25
352.311	409.25
352.538	427.25
352.765	438.25
352.992	436.25
353.22	404.25
353.447	422.25
353.674	405.25
353.901	397.25
354.128	412.25
354.355	410.25
354.583	402.25
354.81	386.25
355.037	411.25
355.264	414.25
355.491	401.25
355.718	396.25
355.945	409.25
356.172	408.25
356.399	405.25
356.626	418.25
356.853	399.25
357.08	394.25
357.307	385.25
357.534	389.25
357.761	396.25
357.988	390.25
358.215	392.25
358.441	404.25
358.668	409.25
358.895	385.25
359.122	404.25
359.349	404.25
359.576	427.25
359.802	426.25
360.029	461.25
360.256	454.25
360.483	442.25
360.709	411.25
360.936	436.25
361.163	411.25
361.39	424.25
361.616	430.25
361.843	419.25
362.07	420.25
362.296	441.25
362.523	401.25
362.749	416.25
362.976	416.25
363.203	422.25
363.429	409.25
363.656	408.25
363.882	415.25
364.109	420.25
364.335	420.25
364.562	410.25
364.788	401.25
365.015	403.25
365.241	405.25
365.468	401.25
365.694	416.25
365.92	407.25
366.147	376.25
366.373	396.25
366.599	384.25
366.826	412.25
367.052	392.25
367.278	407.25
367.505	407.25
367.731	408.25
367.957	401.25
368.184	396.25
368.41	417.25
368.636	406.25
368.862	413.25
369.089	407.25
369.315	397.25
369.541	392.25
369.767	412.25
369.993	421.25
370.219	432.25
370.445	418.25
370.672	424.25
370.898	411.25
371.124	408.25
371.35	417.25
371.576	420.25
371.802	410.25
372.028	436.25
372.254	442.25
372.48	417.25
372.706	430.25
372.932	401.25
373.158	420.25
373.384	425.25
373.61	428.25
373.835	419.25
374.061	429.25
374.287	437.25
374.513	441.25
374.739	405.25
374.965	451.25
375.191	427.25
375.416	434.25
375.642	429.25
375.868	430.25
376.094	428.25
376.319	417.25
376.545	438.25
376.771	408.25
376.997	428.25
377.222	433.25
377.448	434.25
377.674	416.25
377.899	406.25
378.125	421.25
378.35	419.25
378.576	427.25
378.802	407.25
379.027	409.25
379.253	433.25
379.478	409.25
379.704	428.25
379.929	408.25
380.155	425.25
380.38	432.25
380.606	434.25
380.831	420.25
381.057	406.25
381.282	422.25
381.507	408.25
381.733	420.25
381.958	420.25
382.184	438.25
382.409	430.25
382.634	418.25
382.86	437.25
383.085	439.25
383.31	432.25
383.535	434.25
383.761	460.25
383.986	437.25
384.211	453.25
384.436	453.25
384.662	456.25
384.887	459.25
385.112	476.25
385.337	462.25
385.562	460.25
385.787	460.25
386.013	473.25
386.238	484.25
386.463	501.25
386.688	449.25
386.913	464.25
387.138	493.25
387.363	468.25
387.588	467.25
387.813	466.25
388.038	480.25
388.263	470.25
388.488	473.25
388.713	458.25
388.938	478.25
389.163	461.25
389.387	476.25
389.612	466.25
389.837	460.25
390.062	466.25
390.287	459.25
390.512	466.25
390.736	454.25
390.961	465.25
391.186	460.25
391.411	475.25
391.636	488.25
391.86	484.25
392.085	494.25
392.31	486.25
392.534	502.25
392.759	473.25
392.984	485.25
393.208	486.25
393.433	487.25
393.658	466.25
393.882	466.25
394.107	455.25
394.331	474.25
394.556	480.25
394.78	471.25
395.005	462.25
395.229	482.25
395.454	487.25
395.678	504.25
395.903	512.25
396.127	537.25
396.352	516.25
396.576	478.25
396.801	498.25
397.025	480.25
397.249	492.25
397.474	525.25
397.698	510.25
397.922	526.25
398.147	524.25
398.371	532.25
398.595	534.25
398.82	551.25
399.044	569.25
399.268	600.25
399.492	613.25
399.717	658.25
399.941	672.25
400.165	693.25
400.389	697.25
400.613	641.25
400.837	606.25
401.062	562.25
401.286	576.25
401.51	549.25
401.734	563.25
401.958	540.25
402.182	564.25
402.406	572.25
402.63	557.25
402.854	564.25
403.078	573.25
403.302	569.25
403.526	570.25
403.75	579.25
403.974	579.25
404.198	557.25
404.422	585.25
404.645	576.25
404.869	586.25
405.093	640.25
405.317	683.25
405.541	686.25
405.765	646.25
405.988	595.25
406.212	621.25
406.436	610.25
406.66	615.25
406.883	613.25
407.107	641.25
407.331	702.25
407.555	740.25
407.778	754.25
408.002	700.25
408.226	632.25
408.449	624.25
408.673	617.25
408.896	660.25
409.12	682.25
409.344	681.25
409.567	605.25
409.791	579.25
410.014	570.25
410.238	576.25
410.461	574.25
410.685	582.25
410.908	594.25
411.132	611.25
411.355	645.25
411.578	634.25
411.802	572.25
412.025	563.25
412.249	593.25
412.472	582.25
412.695	668.25
412.919	630.25
413.142	602.25
413.365	574.25
413.589	560.25
413.812	564.25
414.035	549.25
414.258	540.25
414.482	540.25
414.705	548.25
414.928	536.25
415.151	523.25
415.374	526.25
415.597	534.25
415.821	541.25
416.044	529.25
416.267	558.25
416.49	538.25
416.713	536.25
416.936	535.25
417.159	530.25
417.382	532.25
417.605	527.25
417.828	553.25
418.051	551.25
418.274	570.25
418.497	539.25
418.72	551.25
418.943	546.25
419.166	577.25
419.389	579.25
419.611	600.25
419.834	570.25
420.057	598.25
420.28	578.25
420.503	585.25
420.726	578.25
420.948	572.25
421.171	609.25
421.394	648.25
421.617	598.25
421.839	551.25
422.062	573.25
422.285	589.25
422.507	630.25
422.73	703.25
422.953	666.25
423.175	591.25
423.398	584.25
423.621	585.25
423.843	633.25
424.066	600.25
424.288	584.25
424.511	609.25
424.733	664.25
424.956	721.25
425.178	712.25
425.401	722.25
425.623	743.25
425.846	635.25
426.068	583.25
426.291	577.25
426.513	562.25
426.735	587.25
426.958	634.25
427.18	702.25
427.402	846.25
427.625	916.25
427.847	802.25
428.069	678.25
428.292	637.25
428.514	590.25
428.736	560.25
428.958	547.25
429.181	541.25
429.403	562.25
429.625	538.25
429.847	601.25
430.069	640.25
430.292	640.25
430.514	557.25
430.736	552.25
430.958	525.25
431.18	501.25
431.402	526.25
431.624	505.25
431.846	522.25
432.068	502.25
432.29	525.25
432.512	545.25
432.734	552.25
432.956	530.25
433.178	532.25
433.4	545.25
433.622	537.25
433.844	518.25
434.066	529.25
434.287	542.25
434.509	525.25
434.731	528.25
434.953	570.25
435.175	577.25
435.397	586.25
435.618	576.25
435.84	609.25
436.062	709.25
436.284	799.25
436.505	648.25
436.727	588.25
436.949	553.25
437.17	552.25
437.392	521.25
437.614	547.25
437.835	574.25
438.057	664.25
438.278	770.25
438.5	809.25
438.721	846.25
438.943	824.25
439.165	650.25
439.386	585.25
439.608	591.25
439.829	592.25
440.05	614.25
440.272	626.25
440.493	637.25
440.715	577.25
440.936	586.25
441.158	550.25
441.379	549.25
441.6	572.25
441.822	574.25
442.043	645.25
442.264	719.25
442.486	757.25
442.707	670.25
442.928	616.25
443.149	608.25
443.371	637.25
443.592	676.25
443.813	757.25
444.034	843.25
444.255	677.25
444.476	634.25
444.698	615.25
444.919	629.25
445.14	736.25
445.361	681.25
445.582	648.25
445.803	692.25
446.024	783.25
446.245	802.25
446.466	725.25
446.687	648.25
446.908	580.25
447.129	554.25
447.35	535.25
447.571	550.25
447.792	536.25
448.013	542.25
448.234	547.25
448.455	621.25
448.675	688.25
448.896	856.25
449.117	710.25
449.338	640.25
449.559	780.25
449.779	869.25
450	698.25
450.221	574.25
450.442	531.25
450.662	521.25
450.883	539.25
451.104	529.25
451.324	526.25
451.545	505.25
451.766	504.25
451.986	496.25
452.207	473.25
452.428	461.25
452.648	480.25
452.869	493.25
453.089	480.25
453.31	499.25
453.53	488.25
453.751	467.25
453.971	481.25
454.192	506.25
454.412	494.25
454.633	476.25
454.853	474.25
455.073	437.25
455.294	472.25
455.514	548.25
455.734	538.25
455.955	493.25
456.175	454.25
456.395	457.25
456.616	462.25
456.836	454.25
457.056	453.25
457.276	447.25
457.497	445.25
457.717	466.25
457.937	466.25
458.157	477.25
458.377	480.25
458.598	497.25
458.818	530.25
459.038	613.25
459.258	637.25
459.478	572.25
459.698	520.25
459.918	514.25
460.138	530.25
460.358	520.25
460.578	557.25
460.798	540.25
461.018	569.25
461.238	560.25
461.458	557.25
461.678	547.25
461.898	549.25
462.118	540.25
462.338	570.25
462.558	582.25
462.777	573.25
462.997	611.25
463.217	614.25
463.437	624.25
463.657	591.25
463.876	605.25
464.096	576.25
464.316	579.25
464.536	601.25
464.755	584.25
464.975	582.25
465.195	590.25
465.414	624.25
465.634	596.25
465.854	562.25
466.073	526.25
466.293	511.25
466.512	519.25
466.732	523.25
466.951	498.25
467.171	506.25
467.391	527.25
467.61	514.25
467.829	509.25
468.049	504.25
468.268	502.25
468.488	485.25
468.707	479.25
468.927	475.25
469.146	484.25
469.365	484.25
469.585	493.25
469.804	499.25
470.023	480.25
470.243	502.25
470.462	534.25
470.681	543.25
470.901	515.25
471.12	513.25
471.339	515.25
471.558	486.25
471.777	514.25
471.997	503.25
472.216	503.25
472.435	525.25
472.654	532.25
472.873	514.25
473.092	491.25
473.311	506.25
473.53	518.25
473.749	526.25
473.968	545.25
474.187	639.25
474.406	657.25
474.625	566.25
474.844	514.25
475.063	525.25
475.282	531.25
475.501	513.25
475.72	524.25
475.939	531.25
476.158	534.25
476.377	537.25
476.596	523.25
476.814	528.25
477.033	519.25
477.252	560.25
477.471	536.25
477.69	566.25
477.908	554.25
478.127	582.25
478.346	554.25
478.564	565.25
478.783	546.25
479.002	564.25
479.22	599.25
479.439	588.25
479.658	605.25
479.876	626.25
480.095	596.25
480.313	649.25
480.532	666.25
480.751	665.25
480.969	661.25
481.188	678.25
481.406	692.25
481.624	646.25
481.843	624.25
482.061	612.25
482.28	596.25
482.498	601.25
482.717	564.25
482.935	601.25
483.153	585.25
483.372	588.25
483.59	596.25
483.808	583.25
484.027	590.25
484.245	592.25
484.463	594.25
484.681	592.25
484.9	591.25
485.118	589.25
485.336	592.25
485.554	597.25
485.772	611.25
485.99	601.25
486.209	609.25
486.427	620.25
486.645	612.25
486.863	618.25
487.081	643.25
487.299	642.25
487.517	644.25
487.735	641.25
487.953	646.25
488.171	646.25
488.389	636.25
488.607	646.25
488.825	637.25
489.043	596.25
489.261	628.25
489.479	658.25
489.696	638.25
489.914	651.25
490.132	664.25
490.35	660.25
490.568	668.25
490.786	694.25
491.003	668.25
491.221	703.25
491.439	721.25
491.657	726.25
491.874	734.25
492.092	716.25
492.31	721.25
492.527	742.25
492.745	742.25
492.963	756.25
493.18	747.25
493.398	759.25
493.615	772.25
493.833	745.25
494.05	744.25
494.268	752.25
494.485	734.25
494.703	760.25
494.92	745.25
495.138	733.25
495.355	753.25
495.573	752.25
495.79	745.25
496.008	741.25
496.225	742.25
496.442	764.25
496.66	767.25
496.877	762.25
497.094	769.25
497.312	802.25
497.529	781.25
497.746	794.25
497.963	808.25
498.181	836.25
498.398	857.25
498.615	867.25
498.832	903.25
499.049	892.25
499.267	940.25
499.484	976.25
499.701	1018.25
499.918	1039.25
500.135	1118.25
500.352	1186.25
500.569	1192.25
500.786	1230.25
501.003	1199.25
501.22	1141.25
501.437	1076.25
501.654	1042.25
501.871	1006.25
502.088	952.25
502.305	910.25
502.522	872.25
502.739	843.25
502.956	823.25
503.172	798.25
503.389	794.25
503.606	801.25
503.823	792.25
504.04	796.25
504.256	759.25
504.473	783.25
504.69	764.25
504.907	797.25
505.123	741.25
505.34	722.25
505.557	715.25
505.773	758.25
505.99	732.25
506.207	720.25
506.423	708.25
506.64	719.25
506.856	696.25
507.073	700.25
507.289	678.25
507.506	708.25
507.722	677.25
507.939	678.25
508.155	665.25
508.372	674.25
508.588	653.25
508.805	673.25
509.021	651.25
509.238	670.25
509.454	674.25
509.67	666.25
509.887	672.25
510.103	630.25
510.319	652.25
510.536	721.25
510.752	1048.25
510.968	866.25
511.184	648.25
511.401	606.25
511.617	601.25
511.833	628.25
512.049	626.25
512.265	622.25
512.481	606.25
512.698	594.25
512.914	612.25
513.13	627.25
513.346	618.25
513.562	620.25
513.778	624.25
513.994	620.25
514.21	625.25
514.426	632.25
514.642	679.25
514.858	682.25
515.074	697.25
515.29	805.25
515.506	1056.25
515.721	924.25
515.937	685.25
516.153	681.25
516.369	655.25
516.585	653.25
516.801	650.25
517.016	650.25
517.232	653.25
517.448	666.25
517.664	660.25
517.879	689.25
518.095	668.25
518.311	662.25
518.527	672.25
518.742	663.25
518.958	647.25
519.173	626.25
519.389	631.25
519.605	577.25
519.82	614.25
520.036	633.25
520.251	630.25
520.467	648.25
520.682	664.25
520.898	648.25
521.113	660.25
521.329	690.25
521.544	714.25
521.76	859.25
521.975	1273.25
522.19	1300.25
522.406	794.25
522.621	638.25
522.836	596.25
523.052	574.25
523.267	585.25
523.482	586.25
523.698	563.25
523.913	554.25
524.128	570.25
524.343	563.25
524.559	533.25
524.774	552.25
524.989	531.25
525.204	556.25
525.419	550.25
525.634	530.25
525.849	550.25
526.064	540.25
526.28	536.25
526.495	522.25
526.71	506.25
526.925	514.25
527.14	480.25
527.355	512.25
527.57	510.25
527.785	503.25
527.999	534.25
528.214	536.25
528.429	515.25
528.644	522.25
528.859	514.25
529.074	525.25
529.289	533.25
529.503	560.25
529.718	586.25
529.933	534.25
530.148	531.25
530.363	534.25
530.577	541.25
530.792	524.25
531.007	503.25
531.221	525.25
531.436	516.25
531.651	516.25
531.865	513.25
532.08	512.25
532.295	473.25
532.509	514.25
532.724	469.25
532.938	502.25
533.153	494.25
533.367	488.25
533.582	510.25
533.796	489.25
534.011	496.25
534.225	510.25
534.44	487.25
534.654	484.25
534.868	497.25
535.083	496.25
535.297	504.25
535.511	496.25
535.726	500.25
535.94	486.25
536.154	486.25
536.369	508.25
536.583	465.25
536.797	489.25
537.011	482.25
537.225	491.25
537.44	485.25
537.654	500.25
537.868	482.25
538.082	494.25
538.296	478.25
538.51	500.25
538.724	487.25
538.938	475.25
539.153	480.25
539.367	496.25
539.581	476.25
539.795	479.25
540.009	460.25
540.222	489.25
540.436	455.25
540.65	469.25
540.864	473.25
541.078	473.25
541.292	495.25
541.506	487.25
541.72	486.25
541.934	451.25
542.147	461.25
542.361	485.25
542.575	463.25
542.789	452.25
543.002	475.25
543.216	484.25
543.43	471.25
543.644	488.25
543.857	477.25
544.071	485.25
544.285	479.25
544.498	496.25
544.712	485.25
544.925	480.25
545.139	472.25
545.352	460.25
545.566	480.25
545.779	469.25
545.993	467.25
546.206	489.25
546.42	475.25
546.633	475.25
546.847	473.25
547.06	453.25
547.274	453.25
547.487	462.25
547.7	484.25
547.914	452.25
548.127	465.25
548.34	478.25
548.554	465.25
548.767	476.25
548.98	464.25
549.193	471.25
549.407	469.25
549.62	477.25
549.833	466.25
550.046	474.25
550.259	470.25
550.473	456.25
550.686	470.25
550.899	468.25
551.112	454.25
551.325	474.25
551.538	458.25
551.751	460.25
551.964	454.25
552.177	464.25
552.39	461.25
552.603	487.25
552.816	498.25
553.029	483.25
553.242	482.25
553.455	487.25
553.667	488.25
553.88	489.25
554.093	475.25
554.306	485.25
554.519	477.25
554.732	473.25
554.944	456.25
555.157	450.25
555.37	455.25
555.583	441.25
555.795	430.25
556.008	461.25
556.221	439.25
556.433	418.25
556.646	432.25
556.859	421.25
557.071	418.25
557.284	441.25
557.496	435.25
557.709	437.25
557.921	440.25
558.134	425.25
558.346	420.25
558.559	422.25
558.771	414.25
558.984	414.25
559.196	427.25
559.409	407.25
559.621	423.25
559.833	420.25
560.046	400.25
560.258	414.25
560.47	427.25
560.683	426.25
560.895	431.25
561.107	413.25
561.32	432.25
561.532	419.25
561.744	427.25
561.956	423.25
562.168	437.25
562.381	421.25
562.593	415.25
562.805	422.25
563.017	423.25
563.229	424.25
563.441	419.25
563.653	433.25
563.865	422.25
564.077	431.25
564.289	409.25
564.501	438.25
564.713	416.25
564.925	437.25
565.137	461.25
565.349	450.25
565.561	447.25
565.773	492.25
565.985	481.25
566.197	489.25
566.408	493.25
566.62	532.25
566.832	532.25
567.044	564.25
567.255	551.25
567.467	557.25
567.679	582.25
567.891	573.25
568.102	604.25
568.314	564.25
568.526	542.25
568.737	525.25
568.949	509.25
569.161	483.25
569.372	464.25
569.584	450.25
569.795	439.25
570.007	439.25
570.218	453.25
570.43	441.25
570.641	412.25
570.853	425.25
571.064	416.25
571.276	392.25
571.487	400.25
571.698	404.25
571.91	392.25
572.121	384.25
572.333	369.25
572.544	394.25
572.755	364.25
572.966	388.25
573.178	380.25
573.389	365.25
573.6	352.25
573.811	363.25
574.023	363.25
574.234	364.25
574.445	358.25
574.656	358.25
574.867	370.25
575.078	371.25
575.289	356.25
575.501	370.25
575.712	376.25
575.923	371.25
576.134	346.25
576.345	338.25
576.556	349.25
576.767	352.25
576.978	336.25
577.188	332.25
577.399	336.25
577.61	338.25
577.821	351.25
578.032	342.25
578.243	353.25
578.454	510.25
578.665	423.25
578.875	340.25
579.086	333.25
579.297	310.25
579.508	323.25
579.718	336.25
579.929	334.25
580.14	332.25
580.35	317.25
580.561	337.25
580.772	329.25
580.982	320.25
581.193	318.25
581.403	319.25
581.614	313.25
581.825	331.25
582.035	314.25
582.246	311.25
582.456	336.25
582.667	317.25
582.877	301.25
583.087	310.25
583.298	300.25
583.508	314.25
583.719	325.25
583.929	311.25
584.139	326.25
584.35	309.25
584.56	326.25
584.77	311.25
584.981	318.25
585.191	320.25
585.401	297.25
585.611	290.25
585.821	324.25
586.032	318.25
586.242	297.25
586.452	327.25
586.662	312.25
586.872	316.25
587.082	308.25
587.292	302.25
587.502	309.25
587.713	299.25
587.923	290.25
588.133	305.25
588.343	315.25
588.553	297.25
588.762	294.25
588.972	325.25
589.182	310.25
589.392	328.25
589.602	308.25
589.812	309.25
590.022	301.25
590.232	309.25
590.441	324.25
590.651	319.25
590.861	299.25
591.071	312.25
591.281	306.25
591.49	312.25
591.7	321.25
591.91	316.25
592.119	317.25
592.329	332.25
592.539	344.25
592.748	336.25
592.958	343.25
593.167	347.25
593.377	353.25
593.587	371.25
593.796	340.25
594.006	342.25
594.215	347.25
594.424	333.25
594.634	324.25
594.843	331.25
595.053	346.25
595.262	315.25
595.472	310.25
595.681	312.25
595.89	319.25
596.1	325.25
596.309	298.25
596.518	304.25
596.727	303.25
596.937	302.25
597.146	290.25
597.355	294.25
597.564	314.25
597.774	304.25
597.983	286.25
598.192	288.25
598.401	284.25
598.61	283.25
598.819	290.25
599.028	275.25
599.237	269.25
599.446	263.25
599.655	274.25
599.864	270.25
600.073	274.25
600.282	298.25
600.491	272.25
600.7	274.25
600.909	269.25
601.118	270.25
601.327	277.25
601.536	284.25
601.745	259.25
601.953	262.25
602.162	260.25
602.371	247.25
602.58	264.25
602.789	264.25
602.997	277.25
603.206	235.25
603.415	256.25
603.623	271.25
603.832	274.25
604.041	243.25
604.249	271.25
604.458	266.25
604.666	276.25
604.875	268.25
605.084	259.25
605.292	259.25
605.501	262.25
605.709	269.25
605.918	262.25
606.126	240.25
606.334	270.25
606.543	259.25
606.751	253.25
606.96	262.25
607.168	255.25
607.376	258.25
607.585	256.25
607.793	241.25
608.001	247.25
608.21	258.25
608.418	252.25
608.626	261.25
608.834	245.25
609.043	242.25
609.251	245.25
609.459	253.25
609.667	253.25
609.875	253.25
610.083	236.25
610.291	231.25
610.499	258.25
610.707	256.25
610.916	261.25
611.124	257.25
611.332	266.25
611.54	261.25
611.748	251.25
611.955	253.25
612.163	255.25
612.371	258.25
612.579	246.25
612.787	253.25
612.995	244.25
613.203	254.25
613.411	267.25
613.618	263.25
613.826	241.25
614.034	249.25
614.242	250.25
614.449	246.25
614.657	243.25
614.865	245.25
615.072	247.25
615.28	253.25
615.488	266.25
615.695	251.25
615.903	265.25
616.111	232.25
616.318	249.25
616.526	256.25
616.733	256.25
616.941	248.25
617.148	237.25
617.356	246.25
617.563	228.25
617.771	254.25
617.978	238.25
618.185	254.25
618.393	245.25
618.6	261.25
618.807	244.25
619.015	254.25
619.222	232.25
619.429	244.25
619.637	246.25
619.844	247.25
620.051	248.25
620.258	229.25
620.466	230.25
620.673	247.25
620.88	231.25
621.087	243.25
621.294	229.25
621.501	256.25
621.708	228.25
621.915	238.25
622.122	217.25
622.329	229.25
622.536	249.25
622.743	226.25
622.95	223.25
623.157	219.25
623.364	242.25
623.571	232.25
623.778	224.25
623.985	241.25
624.192	229.25
624.399	221.25
624.606	227.25
624.812	230.25
625.019	217.25
625.226	220.25
625.433	224.25
625.639	220.25
625.846	223.25
626.053	205.25
626.259	233.25
626.466	224.25
626.673	212.25
626.879	211.25
627.086	229.25
627.293	204.25
627.499	206.25
627.706	216.25
627.912	207.25
628.119	225.25
628.325	210.25
628.532	205.25
628.738	211.25
628.945	224.25
629.151	237.25
629.357	215.25
629.564	220.25
629.77	213.25
629.976	214.25
630.183	214.25
630.389	209.25
630.595	205.25
630.802	204.25
631.008	215.25
631.214	209.25
631.42	195.25
631.627	218.25
631.833	200.25
632.039	198.25
632.245	213.25
632.451	205.25
632.657	188.25
632.863	196.25
633.069	202.25
633.275	189.25
633.481	186.25
633.688	198.25
633.893	187.25
634.099	199.25
634.305	181.25
634.511	198.25
634.717	188.25
634.923	181.25
635.129	183.25
635.335	205.25
635.541	192.25
635.747	181.25
635.952	207.25
636.158	181.25
636.364	183.25
636.57	194.25
636.775	201.25
636.981	182.25
637.187	182.25
637.392	190.25
637.598	193.25
637.804	190.25
638.009	199.25
638.215	180.25
638.421	196.25
638.626	186.25
638.832	186.25
639.037	195.25
639.243	185.25
639.448	186.25
639.654	182.25
639.859	188.25
640.065	173.25
640.27	199.25
640.475	183.25
640.681	185.25
640.886	199.25
641.091	171.25
641.297	168.25
641.502	159.25
641.707	197.25
641.913	183.25
642.118	173.25
642.323	176.25
642.528	186.25
642.733	172.25
642.939	178.25
643.144	165.25
643.349	182.25
643.554	168.25
643.759	187.25
643.964	188.25
644.169	170.25
644.374	164.25
644.579	171.25
644.784	170.25
644.989	189.25
645.194	181.25
645.399	188.25
645.604	187.25
645.809	165.25
646.014	180.25
646.219	178.25
646.423	185.25
646.628	188.25
646.833	167.25
647.038	172.25
647.243	180.25
647.447	182.25
647.652	194.25
647.857	173.25
648.062	170.25
648.266	187.25
648.471	180.25
648.676	178.25
648.88	176.25
649.085	164.25
649.289	160.25
649.494	201.25
649.698	172.25
649.903	188.25
650.107	191.25
650.312	161.25
650.516	159.25
650.721	171.25
650.925	155.25
651.13	163.25
651.334	150.25
651.539	150.25
651.743	176.25
651.947	161.25
652.152	146.25
652.356	155.25
652.56	136.25
652.764	152.25
652.969	136.25
653.173	160.25
653.377	141.25
653.581	157.25
653.785	141.25
653.99	135.25
654.194	164.25
654.398	134.25
654.602	126.25
654.806	139.25
655.01	159.25
655.214	144.25
655.418	131.25
655.622	134.25
655.826	129.25
656.03	142.25
656.234	140.25
656.438	159.25
656.642	146.25
656.846	138.25
657.049	135.25
657.253	131.25
657.457	123.25
657.661	115.25
657.865	124.25
658.068	108.25
658.272	124.25
658.476	99.25
658.68	109.25
658.883	113.25
659.087	97.25
659.291	101.25
659.494	110.25
659.698	108.25
659.901	115.25
660.105	97.25
660.309	101.25
660.512	91.25
660.716	88.25
660.919	94.25
661.123	99.25
661.326	84.25
661.53	100.25
661.733	97.25
661.936	93.25
662.14	77.25
662.343	77.25
662.546	86.25
662.75	87.25
662.953	93.25
663.156	91.25
663.36	79.25
663.563	86.25
663.766	84.25
663.969	99.25
664.173	81.25
664.376	82.25
664.579	86.25
664.782	90.25
664.985	87.25
665.188	100.25
665.391	71.25
665.594	74.25
665.797	88.25
666	89.25
666.203	84.25
666.406	92.25
666.609	85.25
666.812	86.25
667.015	75.25
667.218	85.25
667.421	72.25
667.624	83.25
667.827	85.25
668.03	84.25
668.232	89.25
668.435	88.25
668.638	98.25
668.841	68.25
669.043	87.25
669.246	88.25
669.449	70.25
669.651	85.25
669.854	90.25
670.057	81.25
670.259	78.25
670.462	85.25
670.665	95.25
670.867	77.25
671.07	80.25
671.272	89.25
671.475	86.25
671.677	90.25
671.88	88.25
672.082	77.25
672.284	90.25
672.487	83.25
672.689	74.25
672.892	77.25
