Data from 1975.PennyLincolnUp.Lamp.En5.5.200Scan.071719.P1.Changed Mount._HRD10591_15-56-13-858.txt Node
Date: Thu Jul 18 15:56:13 EDT 2019
User: cochatt
Spectrometer: HR+D1059
Trigger mode: 1
Integration Time (sec): 1.000000E-1
Scans to average: 1
Electric dark correction enabled: true
Nonlinearity correction enabled: false
Boxcar width: 0
XAxis mode: Wavelengths
Number of Pixels in Spectrum: 2048
>>>>>Begin Spectral Data<<<<<
223.165	-16.31
223.4	-16.31
223.635	-16.31
223.869	-13.31
224.104	-14.31
224.338	-7.31
224.573	-10.31
224.808	-12.31
225.042	-16.31
225.277	-4.31
225.511	-14.31
225.746	-0.31
225.98	5.69
226.215	10.69
226.449	25.69
226.683	19.69
226.918	27.69
227.152	19.69
227.387	25.69
227.621	29.69
227.856	42.69
228.09	39.69
228.324	62.69
228.559	70.69
228.793	81.69
229.027	89.69
229.262	105.69
229.496	104.69
229.73	108.69
229.964	134.69
230.199	118.69
230.433	97.69
230.667	89.69
230.901	110.69
231.136	114.69
231.37	98.69
231.604	105.69
231.838	119.69
232.072	92.69
232.306	103.69
232.541	107.69
232.775	118.69
233.009	118.69
233.243	116.69
233.477	104.69
233.711	111.69
233.945	121.69
234.179	111.69
234.413	113.69
234.647	109.69
234.881	104.69
235.115	115.69
235.349	116.69
235.583	122.69
235.817	112.69
236.051	125.69
236.285	129.69
236.519	113.69
236.753	133.69
236.987	127.69
237.221	154.69
237.455	205.69
237.689	194.69
237.922	137.69
238.156	140.69
238.39	142.69
238.624	131.69
238.858	124.69
239.091	106.69
239.325	109.69
239.559	120.69
239.793	127.69
240.027	129.69
240.26	131.69
240.494	147.69
240.728	144.69
240.961	146.69
241.195	146.69
241.429	133.69
241.662	135.69
241.896	133.69
242.13	118.69
242.363	120.69
242.597	132.69
242.83	141.69
243.064	137.69
243.298	149.69
243.531	132.69
243.765	129.69
243.998	148.69
244.232	143.69
244.465	151.69
244.699	128.69
244.932	147.69
245.166	132.69
245.399	157.69
245.633	157.69
245.866	155.69
246.099	124.69
246.333	150.69
246.566	138.69
246.8	141.69
247.033	151.69
247.266	161.69
247.5	170.69
247.733	172.69
247.966	172.69
248.2	154.69
248.433	170.69
248.666	175.69
248.899	177.69
249.133	196.69
249.366	210.69
249.599	198.69
249.832	159.69
250.066	185.69
250.299	188.69
250.532	191.69
250.765	206.69
250.998	193.69
251.231	213.69
251.465	207.69
251.698	194.69
251.931	205.69
252.164	194.69
252.397	179.69
252.63	188.69
252.863	193.69
253.096	209.69
253.329	228.69
253.562	212.69
253.795	205.69
254.028	223.69
254.261	210.69
254.494	208.69
254.727	234.69
254.96	263.69
255.193	247.69
255.426	244.69
255.659	212.69
255.892	214.69
256.124	233.69
256.357	231.69
256.59	231.69
256.823	219.69
257.056	206.69
257.289	213.69
257.521	200.69
257.754	193.69
257.987	177.69
258.22	196.69
258.452	200.69
258.685	195.69
258.918	224.69
259.151	195.69
259.383	218.69
259.616	213.69
259.849	214.69
260.081	220.69
260.314	233.69
260.547	266.69
260.779	233.69
261.012	213.69
261.244	226.69
261.477	235.69
261.71	225.69
261.942	209.69
262.175	215.69
262.407	215.69
262.64	208.69
262.872	201.69
263.105	209.69
263.337	202.69
263.57	204.69
263.802	201.69
264.035	216.69
264.267	209.69
264.499	198.69
264.732	209.69
264.964	226.69
265.197	211.69
265.429	208.69
265.661	198.69
265.894	212.69
266.126	209.69
266.358	222.69
266.591	207.69
266.823	216.69
267.055	224.69
267.287	230.69
267.52	228.69
267.752	243.69
267.984	226.69
268.216	222.69
268.448	237.69
268.681	223.69
268.913	248.69
269.145	244.69
269.377	264.69
269.609	237.69
269.841	279.69
270.073	260.69
270.306	273.69
270.538	283.69
270.77	292.69
271.002	279.69
271.234	288.69
271.466	287.69
271.698	285.69
271.93	298.69
272.162	285.69
272.394	311.69
272.626	289.69
272.858	276.69
273.09	265.69
273.322	275.69
273.553	265.69
273.785	248.69
274.017	254.69
274.249	266.69
274.481	259.69
274.713	251.69
274.945	255.69
275.176	254.69
275.408	267.69
275.64	253.69
275.872	242.69
276.104	260.69
276.335	259.69
276.567	260.69
276.799	269.69
277.031	287.69
277.262	300.69
277.494	304.69
277.726	287.69
277.957	267.69
278.189	282.69
278.421	261.69
278.652	264.69
278.884	272.69
279.115	268.69
279.347	257.69
279.579	252.69
279.81	270.69
280.042	248.69
280.273	265.69
280.505	253.69
280.736	277.69
280.968	258.69
281.199	270.69
281.431	278.69
281.662	276.69
281.894	263.69
282.125	261.69
282.356	283.69
282.588	295.69
282.819	299.69
283.051	263.69
283.282	274.69
283.513	278.69
283.745	273.69
283.976	284.69
284.207	302.69
284.439	285.69
284.67	282.69
284.901	266.69
285.132	263.69
285.364	260.69
285.595	283.69
285.826	291.69
286.057	279.69
286.288	285.69
286.52	286.69
286.751	279.69
286.982	291.69
287.213	289.69
287.444	285.69
287.675	258.69
287.906	297.69
288.138	280.69
288.369	303.69
288.6	309.69
288.831	280.69
289.062	293.69
289.293	296.69
289.524	276.69
289.755	276.69
289.986	279.69
290.217	277.69
290.448	310.69
290.679	290.69
290.91	291.69
291.141	276.69
291.371	278.69
291.602	281.69
291.833	291.69
292.064	299.69
292.295	291.69
292.526	294.69
292.757	275.69
292.987	287.69
293.218	291.69
293.449	307.69
293.68	287.69
293.91	298.69
294.141	307.69
294.372	270.69
294.603	291.69
294.833	281.69
295.064	290.69
295.295	275.69
295.525	294.69
295.756	301.69
295.987	292.69
296.217	300.69
296.448	314.69
296.679	306.69
296.909	283.69
297.14	309.69
297.37	298.69
297.601	289.69
297.831	293.69
298.062	307.69
298.292	299.69
298.523	307.69
298.753	307.69
298.984	289.69
299.214	325.69
299.445	321.69
299.675	308.69
299.905	303.69
300.136	305.69
300.366	308.69
300.597	316.69
300.827	298.69
301.057	336.69
301.288	336.69
301.518	325.69
301.748	335.69
301.979	322.69
302.209	339.69
302.439	322.69
302.669	327.69
302.9	317.69
303.13	319.69
303.36	307.69
303.59	326.69
303.82	329.69
304.051	345.69
304.281	322.69
304.511	307.69
304.741	321.69
304.971	315.69
305.201	316.69
305.431	322.69
305.661	311.69
305.891	341.69
306.121	339.69
306.352	319.69
306.582	337.69
306.812	328.69
307.042	338.69
307.272	330.69
307.502	321.69
307.731	324.69
307.961	328.69
308.191	306.69
308.421	333.69
308.651	323.69
308.881	319.69
309.111	343.69
309.341	332.69
309.571	331.69
309.8	356.69
310.03	339.69
310.26	369.69
310.49	351.69
310.72	345.69
310.949	360.69
311.179	363.69
311.409	335.69
311.639	358.69
311.868	348.69
312.098	380.69
312.328	374.69
312.557	370.69
312.787	362.69
313.017	370.69
313.246	382.69
313.476	372.69
313.706	363.69
313.935	356.69
314.165	357.69
314.394	377.69
314.624	370.69
314.853	369.69
315.083	352.69
315.312	351.69
315.542	374.69
315.771	358.69
316.001	359.69
316.23	375.69
316.46	355.69
316.689	352.69
316.919	375.69
317.148	359.69
317.377	377.69
317.607	373.69
317.836	364.69
318.065	359.69
318.295	363.69
318.524	360.69
318.753	355.69
318.983	364.69
319.212	357.69
319.441	370.69
319.67	356.69
319.9	347.69
320.129	358.69
320.358	379.69
320.587	389.69
320.816	397.69
321.046	376.69
321.275	373.69
321.504	369.69
321.733	364.69
321.962	360.69
322.191	360.69
322.42	419.69
322.649	387.69
322.878	397.69
323.108	413.69
323.337	441.69
323.566	445.69
323.795	438.69
324.024	461.69
324.253	548.69
324.482	735.69
324.71	1111.69
324.939	1651.69
325.168	1477.69
325.397	737.69
325.626	548.69
325.855	473.69
326.084	424.69
326.313	426.69
326.542	466.69
326.77	486.69
326.999	522.69
327.228	673.69
327.457	1027.69
327.686	1251.69
327.914	841.69
328.143	579.69
328.372	504.69
328.6	484.69
328.829	477.69
329.058	504.69
329.287	496.69
329.515	478.69
329.744	457.69
329.972	455.69
330.201	463.69
330.43	498.69
330.658	518.69
330.887	522.69
331.115	511.69
331.344	468.69
331.572	442.69
331.801	439.69
332.03	473.69
332.258	429.69
332.486	428.69
332.715	419.69
332.943	439.69
333.172	450.69
333.4	462.69
333.629	455.69
333.857	475.69
334.085	480.69
334.314	493.69
334.542	496.69
334.771	507.69
334.999	483.69
335.227	473.69
335.455	465.69
335.684	441.69
335.912	439.69
336.14	429.69
336.369	436.69
336.597	460.69
336.825	445.69
337.053	445.69
337.281	432.69
337.51	426.69
337.738	441.69
337.966	443.69
338.194	416.69
338.422	440.69
338.65	420.69
338.878	419.69
339.106	416.69
339.334	424.69
339.562	419.69
339.79	416.69
340.018	445.69
340.246	421.69
340.474	423.69
340.702	405.69
340.93	436.69
341.158	393.69
341.386	427.69
341.614	430.69
341.842	427.69
342.07	409.69
342.298	418.69
342.526	417.69
342.754	417.69
342.981	414.69
343.209	400.69
343.437	417.69
343.665	437.69
343.893	443.69
344.12	453.69
344.348	449.69
344.576	434.69
344.804	443.69
345.031	434.69
345.259	446.69
345.487	435.69
345.714	401.69
345.942	406.69
346.17	423.69
346.397	401.69
346.625	408.69
346.853	397.69
347.08	401.69
347.308	405.69
347.535	427.69
347.763	409.69
347.99	420.69
348.218	397.69
348.445	436.69
348.673	395.69
348.9	407.69
349.128	415.69
349.355	418.69
349.583	394.69
349.81	390.69
350.037	414.69
350.265	395.69
350.492	406.69
350.72	401.69
350.947	401.69
351.174	376.69
351.402	417.69
351.629	399.69
351.856	421.69
352.083	404.69
352.311	406.69
352.538	410.69
352.765	431.69
352.992	407.69
353.22	403.69
353.447	403.69
353.674	407.69
353.901	387.69
354.128	368.69
354.355	393.69
354.583	374.69
354.81	392.69
355.037	369.69
355.264	372.69
355.491	382.69
355.718	373.69
355.945	379.69
356.172	391.69
356.399	406.69
356.626	398.69
356.853	376.69
357.08	384.69
357.307	371.69
357.534	368.69
357.761	383.69
357.988	385.69
358.215	387.69
358.441	416.69
358.668	397.69
358.895	387.69
359.122	410.69
359.349	413.69
359.576	438.69
359.802	422.69
360.029	431.69
360.256	450.69
360.483	417.69
360.709	413.69
360.936	429.69
361.163	412.69
361.39	393.69
361.616	405.69
361.843	403.69
362.07	393.69
362.296	391.69
362.523	397.69
362.749	391.69
362.976	405.69
363.203	397.69
363.429	380.69
363.656	402.69
363.882	395.69
364.109	386.69
364.335	377.69
364.562	395.69
364.788	412.69
365.015	378.69
365.241	401.69
365.468	378.69
365.694	394.69
365.92	379.69
366.147	398.69
366.373	393.69
366.599	386.69
366.826	387.69
367.052	385.69
367.278	391.69
367.505	389.69
367.731	424.69
367.957	371.69
368.184	399.69
368.41	416.69
368.636	421.69
368.862	422.69
369.089	405.69
369.315	387.69
369.541	394.69
369.767	407.69
369.993	385.69
370.219	403.69
370.445	432.69
370.672	401.69
370.898	394.69
371.124	401.69
371.35	402.69
371.576	405.69
371.802	394.69
372.028	385.69
372.254	394.69
372.48	406.69
372.706	391.69
372.932	413.69
373.158	408.69
373.384	410.69
373.61	412.69
373.835	413.69
374.061	413.69
374.287	419.69
374.513	411.69
374.739	441.69
374.965	414.69
375.191	431.69
375.416	426.69
375.642	407.69
375.868	417.69
376.094	414.69
376.319	418.69
376.545	397.69
376.771	401.69
376.997	413.69
377.222	418.69
377.448	409.69
377.674	401.69
377.899	406.69
378.125	405.69
378.35	411.69
378.576	383.69
378.802	398.69
379.027	394.69
379.253	421.69
379.478	414.69
379.704	406.69
379.929	409.69
380.155	392.69
380.38	406.69
380.606	421.69
380.831	423.69
381.057	433.69
381.282	427.69
381.507	428.69
381.733	438.69
381.958	402.69
382.184	415.69
382.409	419.69
382.634	417.69
382.86	419.69
383.085	420.69
383.31	425.69
383.535	424.69
383.761	424.69
383.986	415.69
384.211	454.69
384.436	439.69
384.662	438.69
384.887	458.69
385.112	430.69
385.337	469.69
385.562	451.69
385.787	444.69
386.013	479.69
386.238	472.69
386.463	477.69
386.688	449.69
386.913	444.69
387.138	450.69
387.363	480.69
387.588	441.69
387.813	460.69
388.038	458.69
388.263	442.69
388.488	461.69
388.713	463.69
388.938	458.69
389.163	449.69
389.387	477.69
389.612	436.69
389.837	469.69
390.062	460.69
390.287	459.69
390.512	460.69
390.736	459.69
390.961	441.69
391.186	464.69
391.411	471.69
391.636	492.69
391.86	475.69
392.085	479.69
392.31	483.69
392.534	469.69
392.759	483.69
392.984	468.69
393.208	454.69
393.433	461.69
393.658	459.69
393.882	460.69
394.107	437.69
394.331	479.69
394.556	488.69
394.78	464.69
395.005	470.69
395.229	486.69
395.454	477.69
395.678	498.69
395.903	467.69
396.127	499.69
396.352	523.69
396.576	487.69
396.801	490.69
397.025	476.69
397.249	493.69
397.474	498.69
397.698	502.69
397.922	497.69
398.147	550.69
398.371	546.69
398.595	509.69
398.82	516.69
399.044	543.69
399.268	559.69
399.492	605.69
399.717	653.69
399.941	663.69
400.165	685.69
400.389	672.69
400.613	605.69
400.837	579.69
401.062	570.69
401.286	523.69
401.51	520.69
401.734	525.69
401.958	522.69
402.182	534.69
402.406	552.69
402.63	538.69
402.854	562.69
403.078	539.69
403.302	554.69
403.526	571.69
403.75	553.69
403.974	553.69
404.198	570.69
404.422	583.69
404.645	575.69
404.869	581.69
405.093	632.69
405.317	629.69
405.541	660.69
405.765	624.69
405.988	584.69
406.212	617.69
406.436	628.69
406.66	609.69
406.883	604.69
407.107	634.69
407.331	659.69
407.555	737.69
407.778	722.69
408.002	700.69
408.226	638.69
408.449	635.69
408.673	634.69
408.896	639.69
409.12	651.69
409.344	628.69
409.567	563.69
409.791	577.69
410.014	551.69
410.238	532.69
410.461	535.69
410.685	571.69
410.908	580.69
411.132	596.69
411.355	631.69
411.578	615.69
411.802	585.69
412.025	559.69
412.249	565.69
412.472	594.69
412.695	628.69
412.919	625.69
413.142	564.69
413.365	553.69
413.589	559.69
413.812	543.69
414.035	540.69
414.258	515.69
414.482	526.69
414.705	536.69
414.928	522.69
415.151	524.69
415.374	529.69
415.597	523.69
415.821	504.69
416.044	534.69
416.267	531.69
416.49	499.69
416.713	531.69
416.936	518.69
417.159	529.69
417.382	537.69
417.605	531.69
417.828	533.69
418.051	549.69
418.274	536.69
418.497	517.69
418.72	529.69
418.943	541.69
419.166	548.69
419.389	571.69
419.611	561.69
419.834	567.69
420.057	547.69
420.28	561.69
420.503	564.69
420.726	559.69
420.948	557.69
421.171	598.69
421.394	633.69
421.617	586.69
421.839	533.69
422.062	547.69
422.285	561.69
422.507	618.69
422.73	681.69
422.953	655.69
423.175	607.69
423.398	561.69
423.621	561.69
423.843	611.69
424.066	603.69
424.288	572.69
424.511	607.69
424.733	661.69
424.956	717.69
425.178	671.69
425.401	662.69
425.623	713.69
425.846	613.69
426.068	581.69
426.291	590.69
426.513	567.69
426.735	575.69
426.958	608.69
427.18	691.69
427.402	815.69
427.625	910.69
427.847	773.69
428.069	676.69
428.292	603.69
428.514	555.69
428.736	557.69
428.958	536.69
429.181	529.69
429.403	539.69
429.625	559.69
429.847	564.69
430.069	633.69
430.292	623.69
430.514	556.69
430.736	540.69
430.958	526.69
431.18	513.69
431.402	482.69
431.624	495.69
431.846	511.69
432.068	511.69
432.29	512.69
432.512	511.69
432.734	499.69
432.956	509.69
433.178	513.69
433.4	509.69
433.622	547.69
433.844	513.69
434.066	537.69
434.287	497.69
434.509	523.69
434.731	530.69
434.953	540.69
435.175	563.69
435.397	574.69
435.618	548.69
435.84	581.69
436.062	684.69
436.284	777.69
436.505	612.69
436.727	567.69
436.949	549.69
437.17	535.69
437.392	518.69
437.614	539.69
437.835	571.69
438.057	649.69
438.278	734.69
438.5	743.69
438.721	827.69
438.943	804.69
439.165	635.69
439.386	589.69
439.608	581.69
439.829	576.69
440.05	587.69
440.272	621.69
440.493	609.69
440.715	580.69
440.936	541.69
441.158	529.69
441.379	537.69
441.6	550.69
441.822	563.69
442.043	617.69
442.264	673.69
442.486	752.69
442.707	650.69
442.928	590.69
443.149	605.69
443.371	609.69
443.592	632.69
443.813	749.69
444.034	805.69
444.255	657.69
444.476	627.69
444.698	598.69
444.919	599.69
445.14	696.69
445.361	637.69
445.582	595.69
445.803	673.69
446.024	752.69
446.245	794.69
446.466	711.69
446.687	598.69
446.908	575.69
447.129	549.69
447.35	540.69
447.571	516.69
447.792	496.69
448.013	527.69
448.234	523.69
448.455	555.69
448.675	689.69
448.896	798.69
449.117	691.69
449.338	631.69
449.559	751.69
449.779	824.69
450	633.69
450.221	570.69
450.442	541.69
450.662	508.69
450.883	513.69
451.104	520.69
451.324	525.69
451.545	509.69
451.766	497.69
451.986	466.69
452.207	458.69
452.428	460.69
452.648	471.69
452.869	451.69
453.089	472.69
453.31	471.69
453.53	473.69
453.751	456.69
453.971	475.69
454.192	479.69
454.412	466.69
454.633	475.69
454.853	460.69
455.073	468.69
455.294	505.69
455.514	551.69
455.734	520.69
455.955	490.69
456.175	447.69
456.395	459.69
456.616	458.69
456.836	447.69
457.056	449.69
457.276	447.69
457.497	448.69
457.717	442.69
457.937	431.69
458.157	460.69
458.377	467.69
458.598	473.69
458.818	500.69
459.038	579.69
459.258	623.69
459.478	564.69
459.698	509.69
459.918	497.69
460.138	509.69
460.358	542.69
460.578	545.69
460.798	523.69
461.018	549.69
461.238	516.69
461.458	540.69
461.678	531.69
461.898	533.69
462.118	533.69
462.338	557.69
462.558	547.69
462.777	573.69
462.997	569.69
463.217	609.69
463.437	592.69
463.657	588.69
463.876	564.69
464.096	580.69
464.316	575.69
464.536	571.69
464.755	540.69
464.975	556.69
465.195	576.69
465.414	609.69
465.634	565.69
465.854	531.69
466.073	529.69
466.293	515.69
466.512	479.69
466.732	487.69
466.951	486.69
467.171	475.69
467.391	479.69
467.61	480.69
467.829	490.69
468.049	486.69
468.268	482.69
468.488	489.69
468.707	490.69
468.927	483.69
469.146	460.69
469.365	479.69
469.585	497.69
469.804	515.69
470.023	476.69
470.243	479.69
470.462	512.69
470.681	512.69
470.901	504.69
471.12	491.69
471.339	483.69
471.558	496.69
471.777	472.69
471.997	468.69
472.216	502.69
472.435	515.69
472.654	507.69
472.873	476.69
473.092	476.69
473.311	491.69
473.53	507.69
473.749	519.69
473.968	522.69
474.187	626.69
474.406	630.69
474.625	553.69
474.844	529.69
475.063	501.69
475.282	482.69
475.501	490.69
475.72	491.69
475.939	497.69
476.158	502.69
476.377	524.69
476.596	525.69
476.814	513.69
477.033	523.69
477.252	491.69
477.471	519.69
477.69	531.69
477.908	529.69
478.127	551.69
478.346	553.69
478.564	550.69
478.783	554.69
479.002	560.69
479.22	575.69
479.439	575.69
479.658	579.69
479.876	593.69
480.095	585.69
480.313	619.69
480.532	621.69
480.751	641.69
480.969	621.69
481.188	639.69
481.406	672.69
481.624	602.69
481.843	604.69
482.061	587.69
482.28	555.69
482.498	594.69
482.717	582.69
482.935	572.69
483.153	580.69
483.372	571.69
483.59	581.69
483.808	575.69
484.027	591.69
484.245	589.69
484.463	577.69
484.681	592.69
484.9	612.69
485.118	601.69
485.336	612.69
485.554	615.69
485.772	595.69
485.99	575.69
486.209	600.69
486.427	602.69
486.645	605.69
486.863	628.69
487.081	604.69
487.299	621.69
487.517	607.69
487.735	603.69
487.953	603.69
488.171	602.69
488.389	623.69
488.607	615.69
488.825	615.69
489.043	629.69
489.261	645.69
489.479	610.69
489.696	642.69
489.914	641.69
490.132	633.69
490.35	655.69
490.568	639.69
490.786	645.69
491.003	664.69
491.221	667.69
491.439	700.69
491.657	712.69
491.874	688.69
492.092	708.69
492.31	690.69
492.527	735.69
492.745	711.69
492.963	727.69
493.18	722.69
493.398	733.69
493.615	728.69
493.833	716.69
494.05	752.69
494.268	720.69
494.485	732.69
494.703	722.69
494.92	736.69
495.138	733.69
495.355	748.69
495.573	725.69
495.79	723.69
496.008	742.69
496.225	719.69
496.442	735.69
496.66	757.69
496.877	740.69
497.094	767.69
497.312	771.69
497.529	773.69
497.746	786.69
497.963	790.69
498.181	797.69
498.398	799.69
498.615	823.69
498.832	843.69
499.049	848.69
499.267	915.69
499.484	961.69
499.701	1015.69
499.918	1073.69
500.135	1107.69
500.352	1131.69
500.569	1175.69
500.786	1181.69
501.003	1196.69
501.22	1114.69
501.437	1057.69
501.654	993.69
501.871	983.69
502.088	937.69
502.305	869.69
502.522	858.69
502.739	860.69
502.956	843.69
503.172	801.69
503.389	763.69
503.606	771.69
503.823	763.69
504.04	760.69
504.256	761.69
504.473	735.69
504.69	738.69
504.907	740.69
505.123	737.69
505.34	711.69
505.557	690.69
505.773	703.69
505.99	687.69
506.207	659.69
506.423	692.69
506.64	703.69
506.856	668.69
507.073	668.69
507.289	635.69
507.506	660.69
507.722	665.69
507.939	692.69
508.155	665.69
508.372	643.69
508.588	657.69
508.805	657.69
509.021	629.69
509.238	630.69
509.454	655.69
509.67	651.69
509.887	659.69
510.103	636.69
510.319	641.69
510.536	694.69
510.752	975.69
510.968	831.69
511.184	625.69
511.401	620.69
511.617	597.69
511.833	602.69
512.049	611.69
512.265	614.69
512.481	606.69
512.698	584.69
512.914	611.69
513.13	598.69
513.346	608.69
513.562	583.69
513.778	609.69
513.994	582.69
514.21	608.69
514.426	615.69
514.642	658.69
514.858	661.69
515.074	644.69
515.29	756.69
515.506	979.69
515.721	855.69
515.937	703.69
516.153	634.69
516.369	641.69
516.585	628.69
516.801	643.69
517.016	652.69
517.232	660.69
517.448	660.69
517.664	657.69
517.879	643.69
518.095	674.69
518.311	663.69
518.527	657.69
518.742	649.69
518.958	617.69
519.173	636.69
519.389	645.69
519.605	608.69
519.82	589.69
520.036	599.69
520.251	639.69
520.467	627.69
520.682	645.69
520.898	620.69
521.113	629.69
521.329	647.69
521.544	648.69
521.76	795.69
521.975	1168.69
522.19	1174.69
522.406	745.69
522.621	643.69
522.836	588.69
523.052	578.69
523.267	580.69
523.482	575.69
523.698	526.69
523.913	556.69
524.128	548.69
524.343	535.69
524.559	549.69
524.774	535.69
524.989	534.69
525.204	555.69
525.419	538.69
525.634	513.69
525.849	517.69
526.064	507.69
526.28	515.69
526.495	510.69
526.71	534.69
526.925	498.69
527.14	505.69
527.355	516.69
527.57	484.69
527.785	517.69
527.999	523.69
528.214	492.69
528.429	497.69
528.644	507.69
528.859	516.69
529.074	491.69
529.289	511.69
529.503	563.69
529.718	557.69
529.933	523.69
530.148	517.69
530.363	511.69
530.577	473.69
530.792	485.69
531.007	498.69
531.221	511.69
531.436	514.69
531.651	469.69
531.865	500.69
532.08	490.69
532.295	484.69
532.509	467.69
532.724	510.69
532.938	499.69
533.153	488.69
533.367	489.69
533.582	484.69
533.796	484.69
534.011	472.69
534.225	465.69
534.44	468.69
534.654	472.69
534.868	459.69
535.083	476.69
535.297	478.69
535.511	488.69
535.726	472.69
535.94	471.69
536.154	473.69
536.369	479.69
536.583	460.69
536.797	461.69
537.011	455.69
537.225	470.69
537.44	470.69
537.654	467.69
537.868	475.69
538.082	454.69
538.296	455.69
538.51	455.69
538.724	480.69
538.938	469.69
539.153	477.69
539.367	484.69
539.581	462.69
539.795	455.69
540.009	450.69
540.222	469.69
540.436	468.69
540.65	472.69
540.864	463.69
541.078	458.69
541.292	452.69
541.506	447.69
541.72	476.69
541.934	483.69
542.147	465.69
542.361	483.69
542.575	455.69
542.789	472.69
543.002	454.69
543.216	450.69
543.43	455.69
543.644	445.69
543.857	446.69
544.071	478.69
544.285	474.69
544.498	453.69
544.712	458.69
544.925	470.69
545.139	462.69
545.352	448.69
545.566	459.69
545.779	459.69
545.993	458.69
546.206	460.69
546.42	461.69
546.633	447.69
546.847	484.69
547.06	447.69
547.274	473.69
547.487	466.69
547.7	465.69
547.914	469.69
548.127	460.69
548.34	460.69
548.554	451.69
548.767	461.69
548.98	446.69
549.193	445.69
549.407	453.69
549.62	452.69
549.833	454.69
550.046	455.69
550.259	449.69
550.473	445.69
550.686	468.69
550.899	436.69
551.112	453.69
551.325	469.69
551.538	437.69
551.751	451.69
551.964	448.69
552.177	444.69
552.39	480.69
552.603	452.69
552.816	460.69
553.029	452.69
553.242	474.69
553.455	465.69
553.667	467.69
553.88	480.69
554.093	466.69
554.306	472.69
554.519	453.69
554.732	456.69
554.944	443.69
555.157	425.69
555.37	453.69
555.583	453.69
555.795	409.69
556.008	445.69
556.221	423.69
556.433	412.69
556.646	416.69
556.859	418.69
557.071	403.69
557.284	419.69
557.496	420.69
557.709	421.69
557.921	422.69
558.134	415.69
558.346	398.69
558.559	409.69
558.771	417.69
558.984	406.69
559.196	400.69
559.409	397.69
559.621	405.69
559.833	401.69
560.046	407.69
560.258	419.69
560.47	406.69
560.683	395.69
560.895	397.69
561.107	412.69
561.32	424.69
561.532	401.69
561.744	410.69
561.956	379.69
562.168	403.69
562.381	394.69
562.593	415.69
562.805	399.69
563.017	395.69
563.229	413.69
563.441	422.69
563.653	407.69
563.865	415.69
564.077	415.69
564.289	417.69
564.501	428.69
564.713	427.69
564.925	433.69
565.137	448.69
565.349	452.69
565.561	459.69
565.773	468.69
565.985	463.69
566.197	457.69
566.408	478.69
566.62	520.69
566.832	525.69
567.044	538.69
567.255	534.69
567.467	553.69
567.679	555.69
567.891	578.69
568.102	584.69
568.314	569.69
568.526	544.69
568.737	513.69
568.949	510.69
569.161	460.69
569.372	460.69
569.584	417.69
569.795	442.69
570.007	431.69
570.218	449.69
570.43	429.69
570.641	405.69
570.853	416.69
571.064	417.69
571.276	402.69
571.487	380.69
571.698	399.69
571.91	376.69
572.121	386.69
572.333	394.69
572.544	375.69
572.755	373.69
572.966	383.69
573.178	361.69
573.389	331.69
573.6	359.69
573.811	348.69
574.023	339.69
574.234	361.69
574.445	373.69
574.656	353.69
574.867	363.69
575.078	353.69
575.289	335.69
575.501	356.69
575.712	352.69
575.923	367.69
576.134	350.69
576.345	335.69
576.556	327.69
576.767	327.69
576.978	341.69
577.188	342.69
577.399	332.69
577.61	311.69
577.821	325.69
578.032	331.69
578.243	356.69
578.454	476.69
578.665	399.69
578.875	346.69
579.086	331.69
579.297	310.69
579.508	313.69
579.718	317.69
579.929	319.69
580.14	336.69
580.35	320.69
580.561	333.69
580.772	340.69
580.982	316.69
581.193	307.69
581.403	313.69
581.614	307.69
581.825	328.69
582.035	302.69
582.246	310.69
582.456	320.69
582.667	317.69
582.877	318.69
583.087	303.69
583.298	333.69
583.508	323.69
583.719	311.69
583.929	308.69
584.139	291.69
584.35	327.69
584.56	327.69
584.77	316.69
584.981	314.69
585.191	308.69
585.401	320.69
585.611	294.69
585.821	330.69
586.032	289.69
586.242	292.69
586.452	315.69
586.662	293.69
586.872	284.69
587.082	304.69
587.292	331.69
587.502	300.69
587.713	320.69
587.923	306.69
588.133	296.69
588.343	296.69
588.553	315.69
588.762	306.69
588.972	293.69
589.182	293.69
589.392	324.69
589.602	307.69
589.812	287.69
590.022	327.69
590.232	284.69
590.441	297.69
590.651	310.69
590.861	322.69
591.071	333.69
591.281	304.69
591.49	316.69
591.7	316.69
591.91	323.69
592.119	306.69
592.329	331.69
592.539	339.69
592.748	319.69
592.958	354.69
593.167	316.69
593.377	349.69
593.587	345.69
593.796	336.69
594.006	328.69
594.215	337.69
594.424	345.69
594.634	348.69
594.843	333.69
595.053	329.69
595.262	312.69
595.472	312.69
595.681	308.69
595.89	295.69
596.1	312.69
596.309	291.69
596.518	305.69
596.727	308.69
596.937	278.69
597.146	299.69
597.355	273.69
597.564	283.69
597.774	278.69
597.983	277.69
598.192	284.69
598.401	276.69
598.61	262.69
598.819	263.69
599.028	284.69
599.237	281.69
599.446	267.69
599.655	265.69
599.864	283.69
600.073	264.69
600.282	247.69
600.491	278.69
600.7	264.69
600.909	284.69
601.118	272.69
601.327	274.69
601.536	272.69
601.745	257.69
601.953	269.69
602.162	255.69
602.371	267.69
602.58	277.69
602.789	264.69
602.997	273.69
603.206	255.69
603.415	254.69
603.623	282.69
603.832	277.69
604.041	271.69
604.249	248.69
604.458	268.69
604.666	262.69
604.875	256.69
605.084	266.69
605.292	257.69
605.501	249.69
605.709	246.69
605.918	259.69
606.126	242.69
606.334	263.69
606.543	220.69
606.751	259.69
606.96	251.69
607.168	252.69
607.376	248.69
607.585	269.69
607.793	249.69
608.001	256.69
608.21	263.69
608.418	262.69
608.626	266.69
608.834	257.69
609.043	255.69
609.251	256.69
609.459	253.69
609.667	265.69
609.875	272.69
610.083	255.69
610.291	259.69
610.499	245.69
610.707	270.69
610.916	251.69
611.124	247.69
611.332	245.69
611.54	277.69
611.748	260.69
611.955	264.69
612.163	244.69
612.371	237.69
612.579	255.69
612.787	237.69
612.995	256.69
613.203	249.69
613.411	242.69
613.618	262.69
613.826	260.69
614.034	259.69
614.242	237.69
614.449	255.69
614.657	253.69
614.865	244.69
615.072	247.69
615.28	243.69
615.488	241.69
615.695	243.69
615.903	251.69
616.111	248.69
616.318	258.69
616.526	236.69
616.733	242.69
616.941	259.69
617.148	256.69
617.356	234.69
617.563	246.69
617.771	244.69
617.978	237.69
618.185	241.69
618.393	247.69
618.6	235.69
618.807	235.69
619.015	237.69
619.222	244.69
619.429	234.69
619.637	241.69
619.844	233.69
620.051	244.69
620.258	234.69
620.466	239.69
620.673	217.69
620.88	224.69
621.087	235.69
621.294	241.69
621.501	223.69
621.708	234.69
621.915	230.69
622.122	228.69
622.329	235.69
622.536	237.69
622.743	231.69
622.95	221.69
623.157	226.69
623.364	218.69
623.571	240.69
623.778	231.69
623.985	223.69
624.192	229.69
624.399	213.69
624.606	225.69
624.812	217.69
625.019	211.69
625.226	229.69
625.433	221.69
625.639	220.69
625.846	211.69
626.053	211.69
626.259	215.69
626.466	215.69
626.673	205.69
626.879	212.69
627.086	211.69
627.293	215.69
627.499	223.69
627.706	202.69
627.912	213.69
628.119	201.69
628.325	208.69
628.532	212.69
628.738	201.69
628.945	226.69
629.151	215.69
629.357	199.69
629.564	223.69
629.77	213.69
629.976	199.69
630.183	207.69
630.389	180.69
630.595	183.69
630.802	198.69
631.008	199.69
631.214	214.69
631.42	211.69
631.627	205.69
631.833	202.69
632.039	187.69
632.245	195.69
632.451	191.69
632.657	207.69
632.863	194.69
633.069	207.69
633.275	192.69
633.481	192.69
633.688	187.69
633.893	177.69
634.099	190.69
634.305	203.69
634.511	197.69
634.717	165.69
634.923	175.69
635.129	189.69
635.335	185.69
635.541	176.69
635.747	195.69
635.952	187.69
636.158	194.69
636.364	187.69
636.57	187.69
636.775	184.69
636.981	179.69
637.187	170.69
637.392	184.69
637.598	171.69
637.804	175.69
638.009	196.69
638.215	188.69
638.421	189.69
638.626	189.69
638.832	185.69
639.037	177.69
639.243	180.69
639.448	188.69
639.654	178.69
639.859	168.69
640.065	185.69
640.27	204.69
640.475	187.69
640.681	182.69
640.886	181.69
641.091	190.69
641.297	173.69
641.502	179.69
641.707	194.69
641.913	166.69
642.118	160.69
642.323	176.69
642.528	174.69
642.733	179.69
642.939	153.69
643.144	184.69
643.349	159.69
643.554	172.69
643.759	163.69
643.964	165.69
644.169	186.69
644.374	168.69
644.579	179.69
644.784	169.69
644.989	176.69
645.194	178.69
645.399	167.69
645.604	173.69
645.809	177.69
646.014	183.69
646.219	161.69
646.423	159.69
646.628	160.69
646.833	168.69
647.038	188.69
647.243	175.69
647.447	177.69
647.652	181.69
647.857	175.69
648.062	181.69
648.266	163.69
648.471	176.69
648.676	183.69
648.88	193.69
649.085	151.69
649.289	179.69
649.494	195.69
649.698	181.69
649.903	173.69
650.107	181.69
650.312	170.69
650.516	176.69
650.721	167.69
650.925	161.69
651.13	161.69
651.334	161.69
651.539	152.69
651.743	147.69
651.947	156.69
652.152	159.69
652.356	151.69
652.56	150.69
652.764	160.69
652.969	145.69
653.173	147.69
653.377	145.69
653.581	146.69
653.785	136.69
653.99	134.69
654.194	142.69
654.398	148.69
654.602	155.69
654.806	137.69
655.01	131.69
655.214	141.69
655.418	135.69
655.622	127.69
655.826	131.69
656.03	148.69
656.234	163.69
656.438	150.69
656.642	140.69
656.846	135.69
657.049	146.69
657.253	113.69
657.457	119.69
657.661	123.69
657.865	123.69
658.068	105.69
658.272	127.69
658.476	100.69
658.68	114.69
658.883	109.69
659.087	105.69
659.291	92.69
659.494	100.69
659.698	93.69
659.901	106.69
660.105	106.69
660.309	99.69
660.512	99.69
660.716	101.69
660.919	91.69
661.123	93.69
661.326	101.69
661.53	90.69
661.733	99.69
661.936	90.69
662.14	84.69
662.343	93.69
662.546	89.69
662.75	77.69
662.953	83.69
663.156	89.69
663.36	92.69
663.563	86.69
663.766	88.69
663.969	91.69
664.173	89.69
664.376	67.69
664.579	88.69
664.782	83.69
664.985	76.69
665.188	83.69
665.391	81.69
665.594	89.69
665.797	74.69
666	92.69
666.203	81.69
666.406	79.69
666.609	88.69
666.812	84.69
667.015	86.69
667.218	82.69
667.421	74.69
667.624	69.69
667.827	81.69
668.03	69.69
668.232	87.69
668.435	78.69
668.638	92.69
668.841	77.69
669.043	92.69
669.246	83.69
669.449	84.69
669.651	92.69
669.854	94.69
670.057	77.69
670.259	81.69
670.462	90.69
670.665	81.69
670.867	74.69
671.07	81.69
671.272	91.69
671.475	88.69
671.677	92.69
671.88	77.69
672.082	83.69
672.284	78.69
672.487	71.69
672.689	82.69
672.892	75.69
