Data from 1975.PennyLincolnUp.Lamp.En5.5.200Scan.071719.P1.Changed Mount._HRD10591_15-56-19-859.txt Node
Date: Thu Jul 18 15:56:19 EDT 2019
User: cochatt
Spectrometer: HR+D1059
Trigger mode: 1
Integration Time (sec): 1.000000E-1
Scans to average: 1
Electric dark correction enabled: true
Nonlinearity correction enabled: false
Boxcar width: 0
XAxis mode: Wavelengths
Number of Pixels in Spectrum: 2048
>>>>>Begin Spectral Data<<<<<
223.165	-12.06
223.4	-12.06
223.635	-12.06
223.869	-20.06
224.104	-19.06
224.338	-22.06
224.573	-21.06
224.808	-24.06
225.042	-5.06
225.277	10.94
225.511	-7.06
225.746	13.94
225.98	10.94
226.215	20.94
226.449	18.94
226.683	27.94
226.918	13.94
227.152	12.94
227.387	41.94
227.621	40.94
227.856	38.94
228.09	47.94
228.324	41.94
228.559	36.94
228.793	57.94
229.027	89.94
229.262	117.94
229.496	111.94
229.73	132.94
229.964	151.94
230.199	123.94
230.433	100.94
230.667	102.94
230.901	105.94
231.136	92.94
231.37	114.94
231.604	91.94
231.838	102.94
232.072	112.94
232.306	119.94
232.541	111.94
232.775	117.94
233.009	115.94
233.243	107.94
233.477	104.94
233.711	108.94
233.945	120.94
234.179	116.94
234.413	100.94
234.647	111.94
234.881	111.94
235.115	117.94
235.349	132.94
235.583	139.94
235.817	125.94
236.051	114.94
236.285	137.94
236.519	123.94
236.753	130.94
236.987	146.94
237.221	170.94
237.455	218.94
237.689	164.94
237.922	123.94
238.156	127.94
238.39	135.94
238.624	121.94
238.858	122.94
239.091	108.94
239.325	123.94
239.559	127.94
239.793	132.94
240.027	129.94
240.26	131.94
240.494	149.94
240.728	168.94
240.961	154.94
241.195	138.94
241.429	135.94
241.662	127.94
241.896	136.94
242.13	132.94
242.363	127.94
242.597	120.94
242.83	149.94
243.064	147.94
243.298	133.94
243.531	147.94
243.765	135.94
243.998	156.94
244.232	138.94
244.465	152.94
244.699	139.94
244.932	161.94
245.166	154.94
245.399	138.94
245.633	156.94
245.866	147.94
246.099	149.94
246.333	149.94
246.566	159.94
246.8	136.94
247.033	156.94
247.266	145.94
247.5	140.94
247.733	178.94
247.966	172.94
248.2	164.94
248.433	174.94
248.666	187.94
248.899	175.94
249.133	193.94
249.366	182.94
249.599	187.94
249.832	172.94
250.066	188.94
250.299	183.94
250.532	199.94
250.765	212.94
250.998	240.94
251.231	221.94
251.465	218.94
251.698	193.94
251.931	199.94
252.164	183.94
252.397	216.94
252.63	199.94
252.863	196.94
253.096	211.94
253.329	218.94
253.562	226.94
253.795	217.94
254.028	218.94
254.261	215.94
254.494	231.94
254.727	226.94
254.96	261.94
255.193	247.94
255.426	255.94
255.659	219.94
255.892	228.94
256.124	215.94
256.357	224.94
256.59	221.94
256.823	210.94
257.056	223.94
257.289	211.94
257.521	204.94
257.754	206.94
257.987	220.94
258.22	194.94
258.452	203.94
258.685	202.94
258.918	195.94
259.151	199.94
259.383	220.94
259.616	236.94
259.849	207.94
260.081	227.94
260.314	246.94
260.547	255.94
260.779	215.94
261.012	212.94
261.244	225.94
261.477	227.94
261.71	218.94
261.942	200.94
262.175	216.94
262.407	229.94
262.64	215.94
262.872	199.94
263.105	197.94
263.337	213.94
263.57	205.94
263.802	219.94
264.035	218.94
264.267	213.94
264.499	231.94
264.732	213.94
264.964	210.94
265.197	210.94
265.429	220.94
265.661	208.94
265.894	216.94
266.126	224.94
266.358	208.94
266.591	229.94
266.823	213.94
267.055	229.94
267.287	226.94
267.52	237.94
267.752	235.94
267.984	211.94
268.216	226.94
268.448	223.94
268.681	239.94
268.913	242.94
269.145	258.94
269.377	278.94
269.609	261.94
269.841	268.94
270.073	257.94
270.306	289.94
270.538	300.94
270.77	300.94
271.002	319.94
271.234	296.94
271.466	267.94
271.698	293.94
271.93	282.94
272.162	298.94
272.394	304.94
272.626	309.94
272.858	293.94
273.09	280.94
273.322	273.94
273.553	271.94
273.785	259.94
274.017	269.94
274.249	265.94
274.481	283.94
274.713	257.94
274.945	273.94
275.176	271.94
275.408	255.94
275.64	267.94
275.872	275.94
276.104	265.94
276.335	257.94
276.567	256.94
276.799	282.94
277.031	311.94
277.262	322.94
277.494	306.94
277.726	299.94
277.957	288.94
278.189	283.94
278.421	259.94
278.652	276.94
278.884	275.94
279.115	253.94
279.347	286.94
279.579	274.94
279.81	282.94
280.042	270.94
280.273	265.94
280.505	271.94
280.736	271.94
280.968	266.94
281.199	264.94
281.431	279.94
281.662	281.94
281.894	281.94
282.125	262.94
282.356	281.94
282.588	290.94
282.819	308.94
283.051	282.94
283.282	277.94
283.513	262.94
283.745	296.94
283.976	283.94
284.207	289.94
284.439	264.94
284.67	281.94
284.901	296.94
285.132	287.94
285.364	289.94
285.595	274.94
285.826	284.94
286.057	298.94
286.288	298.94
286.52	287.94
286.751	294.94
286.982	300.94
287.213	293.94
287.444	287.94
287.675	300.94
287.906	285.94
288.138	294.94
288.369	292.94
288.6	314.94
288.831	304.94
289.062	303.94
289.293	309.94
289.524	296.94
289.755	312.94
289.986	296.94
290.217	304.94
290.448	292.94
290.679	283.94
290.91	291.94
291.141	292.94
291.371	290.94
291.602	293.94
291.833	299.94
292.064	305.94
292.295	311.94
292.526	307.94
292.757	303.94
292.987	300.94
293.218	327.94
293.449	307.94
293.68	306.94
293.91	303.94
294.141	281.94
294.372	306.94
294.603	298.94
294.833	305.94
295.064	298.94
295.295	295.94
295.525	322.94
295.756	305.94
295.987	300.94
296.217	314.94
296.448	323.94
296.679	316.94
296.909	307.94
297.14	293.94
297.37	308.94
297.601	303.94
297.831	320.94
298.062	321.94
298.292	321.94
298.523	303.94
298.753	315.94
298.984	321.94
299.214	332.94
299.445	323.94
299.675	327.94
299.905	317.94
300.136	339.94
300.366	314.94
300.597	325.94
300.827	324.94
301.057	349.94
301.288	334.94
301.518	338.94
301.748	346.94
301.979	337.94
302.209	347.94
302.439	312.94
302.669	317.94
302.9	339.94
303.13	324.94
303.36	356.94
303.59	340.94
303.82	337.94
304.051	343.94
304.281	331.94
304.511	348.94
304.741	323.94
304.971	330.94
305.201	336.94
305.431	337.94
305.661	329.94
305.891	339.94
306.121	339.94
306.352	346.94
306.582	318.94
306.812	338.94
307.042	336.94
307.272	345.94
307.502	336.94
307.731	337.94
307.961	333.94
308.191	344.94
308.421	348.94
308.651	361.94
308.881	339.94
309.111	359.94
309.341	342.94
309.571	354.94
309.8	348.94
310.03	369.94
310.26	372.94
310.49	340.94
310.72	351.94
310.949	392.94
311.179	374.94
311.409	398.94
311.639	355.94
311.868	371.94
312.098	356.94
312.328	367.94
312.557	376.94
312.787	379.94
313.017	385.94
313.246	380.94
313.476	383.94
313.706	349.94
313.935	376.94
314.165	380.94
314.394	368.94
314.624	381.94
314.853	374.94
315.083	377.94
315.312	371.94
315.542	362.94
315.771	364.94
316.001	349.94
316.23	363.94
316.46	380.94
316.689	371.94
316.919	370.94
317.148	368.94
317.377	384.94
317.607	351.94
317.836	380.94
318.065	375.94
318.295	394.94
318.524	376.94
318.753	361.94
318.983	362.94
319.212	378.94
319.441	376.94
319.67	394.94
319.9	369.94
320.129	375.94
320.358	377.94
320.587	390.94
320.816	393.94
321.046	386.94
321.275	375.94
321.504	399.94
321.733	385.94
321.962	404.94
322.191	391.94
322.42	380.94
322.649	417.94
322.878	408.94
323.108	404.94
323.337	466.94
323.566	453.94
323.795	461.94
324.024	485.94
324.253	561.94
324.482	785.94
324.71	1158.94
324.939	1696.94
325.168	1504.94
325.397	770.94
325.626	548.94
325.855	483.94
326.084	434.94
326.313	454.94
326.542	448.94
326.77	491.94
326.999	547.94
327.228	701.94
327.457	1043.94
327.686	1324.94
327.914	896.94
328.143	625.94
328.372	554.94
328.6	516.94
328.829	493.94
329.058	486.94
329.287	521.94
329.515	485.94
329.744	471.94
329.972	459.94
330.201	499.94
330.43	511.94
330.658	504.94
330.887	528.94
331.115	517.94
331.344	495.94
331.572	442.94
331.801	467.94
332.03	464.94
332.258	468.94
332.486	451.94
332.715	444.94
332.943	467.94
333.172	456.94
333.4	468.94
333.629	469.94
333.857	502.94
334.085	489.94
334.314	519.94
334.542	529.94
334.771	535.94
334.999	517.94
335.227	495.94
335.455	480.94
335.684	469.94
335.912	473.94
336.14	445.94
336.369	461.94
336.597	477.94
336.825	466.94
337.053	447.94
337.281	451.94
337.51	449.94
337.738	439.94
337.966	441.94
338.194	439.94
338.422	442.94
338.65	444.94
338.878	447.94
339.106	427.94
339.334	420.94
339.562	411.94
339.79	429.94
340.018	420.94
340.246	416.94
340.474	445.94
340.702	422.94
340.93	431.94
341.158	459.94
341.386	449.94
341.614	434.94
341.842	443.94
342.07	426.94
342.298	419.94
342.526	436.94
342.754	401.94
342.981	415.94
343.209	418.94
343.437	446.94
343.665	437.94
343.893	449.94
344.12	474.94
344.348	465.94
344.576	456.94
344.804	453.94
345.031	471.94
345.259	465.94
345.487	439.94
345.714	421.94
345.942	410.94
346.17	419.94
346.397	381.94
346.625	417.94
346.853	412.94
347.08	439.94
347.308	416.94
347.535	418.94
347.763	419.94
347.99	437.94
348.218	394.94
348.445	422.94
348.673	411.94
348.9	415.94
349.128	416.94
349.355	427.94
349.583	410.94
349.81	399.94
350.037	407.94
350.265	404.94
350.492	412.94
350.72	409.94
350.947	404.94
351.174	417.94
351.402	425.94
351.629	427.94
351.856	409.94
352.083	438.94
352.311	413.94
352.538	435.94
352.765	413.94
352.992	415.94
353.22	411.94
353.447	422.94
353.674	413.94
353.901	400.94
354.128	416.94
354.355	404.94
354.583	398.94
354.81	391.94
355.037	392.94
355.264	385.94
355.491	394.94
355.718	403.94
355.945	392.94
356.172	395.94
356.399	393.94
356.626	388.94
356.853	405.94
357.08	407.94
357.307	393.94
357.534	381.94
357.761	383.94
357.988	400.94
358.215	414.94
358.441	408.94
358.668	400.94
358.895	404.94
359.122	405.94
359.349	408.94
359.576	395.94
359.802	410.94
360.029	453.94
360.256	449.94
360.483	444.94
360.709	439.94
360.936	417.94
361.163	433.94
361.39	409.94
361.616	397.94
361.843	414.94
362.07	412.94
362.296	417.94
362.523	418.94
362.749	427.94
362.976	388.94
363.203	449.94
363.429	403.94
363.656	406.94
363.882	407.94
364.109	408.94
364.335	413.94
364.562	414.94
364.788	389.94
365.015	396.94
365.241	400.94
365.468	417.94
365.694	410.94
365.92	418.94
366.147	405.94
366.373	415.94
366.599	417.94
366.826	406.94
367.052	400.94
367.278	402.94
367.505	417.94
367.731	425.94
367.957	400.94
368.184	400.94
368.41	400.94
368.636	426.94
368.862	423.94
369.089	425.94
369.315	411.94
369.541	411.94
369.767	404.94
369.993	429.94
370.219	423.94
370.445	407.94
370.672	424.94
370.898	416.94
371.124	425.94
371.35	419.94
371.576	416.94
371.802	420.94
372.028	408.94
372.254	424.94
372.48	419.94
372.706	427.94
372.932	411.94
373.158	419.94
373.384	411.94
373.61	412.94
373.835	422.94
374.061	432.94
374.287	426.94
374.513	418.94
374.739	443.94
374.965	431.94
375.191	442.94
375.416	428.94
375.642	436.94
375.868	423.94
376.094	436.94
376.319	437.94
376.545	405.94
376.771	409.94
376.997	435.94
377.222	420.94
377.448	422.94
377.674	432.94
377.899	412.94
378.125	419.94
378.35	423.94
378.576	440.94
378.802	401.94
379.027	419.94
379.253	430.94
379.478	404.94
379.704	431.94
379.929	421.94
380.155	415.94
380.38	397.94
380.606	420.94
380.831	421.94
381.057	440.94
381.282	445.94
381.507	428.94
381.733	417.94
381.958	432.94
382.184	427.94
382.409	435.94
382.634	440.94
382.86	429.94
383.085	431.94
383.31	453.94
383.535	439.94
383.761	456.94
383.986	431.94
384.211	443.94
384.436	459.94
384.662	458.94
384.887	473.94
385.112	461.94
385.337	463.94
385.562	473.94
385.787	457.94
386.013	485.94
386.238	497.94
386.463	480.94
386.688	466.94
386.913	457.94
387.138	482.94
387.363	484.94
387.588	464.94
387.813	469.94
388.038	487.94
388.263	495.94
388.488	463.94
388.713	489.94
388.938	469.94
389.163	475.94
389.387	468.94
389.612	458.94
389.837	463.94
390.062	455.94
390.287	464.94
390.512	474.94
390.736	466.94
390.961	482.94
391.186	467.94
391.411	458.94
391.636	488.94
391.86	505.94
392.085	491.94
392.31	486.94
392.534	467.94
392.759	479.94
392.984	486.94
393.208	475.94
393.433	492.94
393.658	476.94
393.882	480.94
394.107	487.94
394.331	487.94
394.556	482.94
394.78	486.94
395.005	481.94
395.229	475.94
395.454	490.94
395.678	504.94
395.903	504.94
396.127	521.94
396.352	512.94
396.576	517.94
396.801	496.94
397.025	482.94
397.249	491.94
397.474	495.94
397.698	486.94
397.922	514.94
398.147	538.94
398.371	542.94
398.595	532.94
398.82	529.94
399.044	543.94
399.268	591.94
399.492	629.94
399.717	659.94
399.941	706.94
400.165	696.94
400.389	675.94
400.613	623.94
400.837	578.94
401.062	582.94
401.286	534.94
401.51	555.94
401.734	553.94
401.958	555.94
402.182	551.94
402.406	549.94
402.63	556.94
402.854	548.94
403.078	563.94
403.302	588.94
403.526	583.94
403.75	570.94
403.974	593.94
404.198	588.94
404.422	588.94
404.645	569.94
404.869	567.94
405.093	616.94
405.317	672.94
405.541	695.94
405.765	651.94
405.988	605.94
406.212	622.94
406.436	594.94
406.66	626.94
406.883	625.94
407.107	637.94
407.331	674.94
407.555	759.94
407.778	746.94
408.002	682.94
408.226	653.94
408.449	634.94
408.673	631.94
408.896	641.94
409.12	681.94
409.344	643.94
409.567	592.94
409.791	576.94
410.014	572.94
410.238	568.94
410.461	573.94
410.685	569.94
410.908	598.94
411.132	613.94
411.355	639.94
411.578	639.94
411.802	579.94
412.025	580.94
412.249	579.94
412.472	604.94
412.695	655.94
412.919	628.94
413.142	573.94
413.365	567.94
413.589	551.94
413.812	561.94
414.035	537.94
414.258	535.94
414.482	551.94
414.705	546.94
414.928	553.94
415.151	550.94
415.374	555.94
415.597	561.94
415.821	544.94
416.044	542.94
416.267	547.94
416.49	531.94
416.713	537.94
416.936	515.94
417.159	511.94
417.382	544.94
417.605	539.94
417.828	549.94
418.051	569.94
418.274	562.94
418.497	528.94
418.72	543.94
418.943	571.94
419.166	570.94
419.389	595.94
419.611	601.94
419.834	580.94
420.057	562.94
420.28	584.94
420.503	571.94
420.726	582.94
420.948	590.94
421.171	619.94
421.394	637.94
421.617	598.94
421.839	551.94
422.062	559.94
422.285	595.94
422.507	645.94
422.73	716.94
422.953	694.94
423.175	619.94
423.398	585.94
423.621	587.94
423.843	612.94
424.066	633.94
424.288	629.94
424.511	619.94
424.733	665.94
424.956	744.94
425.178	725.94
425.401	695.94
425.623	735.94
425.846	628.94
426.068	591.94
426.291	576.94
426.513	574.94
426.735	603.94
426.958	625.94
427.18	703.94
427.402	813.94
427.625	907.94
427.847	789.94
428.069	678.94
428.292	637.94
428.514	557.94
428.736	556.94
428.958	560.94
429.181	535.94
429.403	538.94
429.625	541.94
429.847	575.94
430.069	631.94
430.292	641.94
430.514	562.94
430.736	547.94
430.958	567.94
431.18	513.94
431.402	532.94
431.624	499.94
431.846	506.94
432.068	491.94
432.29	532.94
432.512	522.94
432.734	537.94
432.956	537.94
433.178	549.94
433.4	557.94
433.622	516.94
433.844	533.94
434.066	515.94
434.287	525.94
434.509	528.94
434.731	537.94
434.953	572.94
435.175	568.94
435.397	591.94
435.618	565.94
435.84	616.94
436.062	715.94
436.284	788.94
436.505	675.94
436.727	583.94
436.949	569.94
437.17	554.94
437.392	529.94
437.614	557.94
437.835	576.94
438.057	655.94
438.278	737.94
438.5	768.94
438.721	856.94
438.943	783.94
439.165	643.94
439.386	602.94
439.608	608.94
439.829	589.94
440.05	607.94
440.272	641.94
440.493	603.94
440.715	572.94
440.936	541.94
441.158	567.94
441.379	567.94
441.6	554.94
441.822	579.94
442.043	630.94
442.264	684.94
442.486	747.94
442.707	668.94
442.928	625.94
443.149	610.94
443.371	624.94
443.592	663.94
443.813	751.94
444.034	823.94
444.255	708.94
444.476	614.94
444.698	611.94
444.919	615.94
445.14	731.94
445.361	662.94
445.582	649.94
445.803	697.94
446.024	776.94
446.245	785.94
446.466	732.94
446.687	622.94
446.908	559.94
447.129	571.94
447.35	592.94
447.571	554.94
447.792	527.94
448.013	537.94
448.234	546.94
448.455	595.94
448.675	712.94
448.896	821.94
449.117	687.94
449.338	656.94
449.559	732.94
449.779	842.94
450	719.94
450.221	595.94
450.442	541.94
450.662	520.94
450.883	529.94
451.104	519.94
451.324	499.94
451.545	499.94
451.766	496.94
451.986	474.94
452.207	462.94
452.428	484.94
452.648	482.94
452.869	456.94
453.089	497.94
453.31	495.94
453.53	484.94
453.751	477.94
453.971	461.94
454.192	497.94
454.412	479.94
454.633	490.94
454.853	479.94
455.073	479.94
455.294	488.94
455.514	576.94
455.734	538.94
455.955	483.94
456.175	467.94
456.395	458.94
456.616	438.94
456.836	454.94
457.056	457.94
457.276	426.94
457.497	480.94
457.717	459.94
457.937	480.94
458.157	456.94
458.377	441.94
458.598	494.94
458.818	538.94
459.038	601.94
459.258	639.94
459.478	554.94
459.698	533.94
459.918	516.94
460.138	545.94
460.358	529.94
460.578	543.94
460.798	539.94
461.018	553.94
461.238	565.94
461.458	545.94
461.678	526.94
461.898	555.94
462.118	535.94
462.338	577.94
462.558	590.94
462.777	575.94
462.997	601.94
463.217	633.94
463.437	628.94
463.657	608.94
463.876	592.94
464.096	579.94
464.316	589.94
464.536	595.94
464.755	606.94
464.975	579.94
465.195	586.94
465.414	615.94
465.634	599.94
465.854	550.94
466.073	515.94
466.293	503.94
466.512	501.94
466.732	499.94
466.951	467.94
467.171	507.94
467.391	511.94
467.61	480.94
467.829	488.94
468.049	492.94
468.268	498.94
468.488	505.94
468.707	485.94
468.927	483.94
469.146	475.94
469.365	495.94
469.585	491.94
469.804	499.94
470.023	520.94
470.243	524.94
470.462	531.94
470.681	523.94
470.901	523.94
471.12	506.94
471.339	507.94
471.558	525.94
471.777	505.94
471.997	499.94
472.216	490.94
472.435	531.94
472.654	525.94
472.873	501.94
473.092	481.94
473.311	488.94
473.53	504.94
473.749	514.94
473.968	535.94
474.187	613.94
474.406	660.94
474.625	552.94
474.844	515.94
475.063	501.94
475.282	509.94
475.501	505.94
475.72	514.94
475.939	500.94
476.158	530.94
476.377	516.94
476.596	530.94
476.814	533.94
477.033	513.94
477.252	549.94
477.471	532.94
477.69	542.94
477.908	529.94
478.127	569.94
478.346	572.94
478.564	587.94
478.783	562.94
479.002	589.94
479.22	581.94
479.439	607.94
479.658	608.94
479.876	603.94
480.095	610.94
480.313	651.94
480.532	630.94
480.751	627.94
480.969	637.94
481.188	690.94
481.406	691.94
481.624	642.94
481.843	596.94
482.061	614.94
482.28	579.94
482.498	615.94
482.717	610.94
482.935	611.94
483.153	576.94
483.372	596.94
483.59	617.94
483.808	599.94
484.027	600.94
484.245	561.94
484.463	601.94
484.681	598.94
484.9	610.94
485.118	590.94
485.336	594.94
485.554	608.94
485.772	604.94
485.99	635.94
486.209	611.94
486.427	628.94
486.645	619.94
486.863	645.94
487.081	650.94
487.299	657.94
487.517	637.94
487.735	625.94
487.953	632.94
488.171	623.94
488.389	617.94
488.607	624.94
488.825	634.94
489.043	643.94
489.261	637.94
489.479	657.94
489.696	664.94
489.914	643.94
490.132	651.94
490.35	680.94
490.568	661.94
490.786	664.94
491.003	691.94
491.221	701.94
491.439	703.94
491.657	715.94
491.874	731.94
492.092	755.94
492.31	747.94
492.527	745.94
492.745	743.94
492.963	751.94
493.18	756.94
493.398	735.94
493.615	757.94
493.833	752.94
494.05	756.94
494.268	741.94
494.485	743.94
494.703	754.94
494.92	746.94
495.138	764.94
495.355	739.94
495.573	769.94
495.79	753.94
496.008	743.94
496.225	767.94
496.442	746.94
496.66	767.94
496.877	780.94
497.094	766.94
497.312	772.94
497.529	754.94
497.746	787.94
497.963	816.94
498.181	833.94
498.398	829.94
498.615	860.94
498.832	893.94
499.049	894.94
499.267	904.94
499.484	967.94
499.701	1043.94
499.918	1059.94
500.135	1123.94
500.352	1196.94
500.569	1206.94
500.786	1257.94
501.003	1180.94
501.22	1139.94
501.437	1083.94
501.654	1033.94
501.871	1017.94
502.088	971.94
502.305	922.94
502.522	903.94
502.739	871.94
502.956	819.94
503.172	823.94
503.389	818.94
503.606	787.94
503.823	799.94
504.04	785.94
504.256	807.94
504.473	754.94
504.69	759.94
504.907	761.94
505.123	757.94
505.34	724.94
505.557	726.94
505.773	722.94
505.99	690.94
506.207	715.94
506.423	714.94
506.64	696.94
506.856	676.94
507.073	689.94
507.289	691.94
507.506	664.94
507.722	679.94
507.939	685.94
508.155	646.94
508.372	654.94
508.588	638.94
508.805	684.94
509.021	653.94
509.238	668.94
509.454	724.94
509.67	669.94
509.887	669.94
510.103	663.94
510.319	641.94
510.536	683.94
510.752	1015.94
510.968	843.94
511.184	648.94
511.401	618.94
511.617	625.94
511.833	627.94
512.049	624.94
512.265	615.94
512.481	609.94
512.698	588.94
512.914	603.94
513.13	600.94
513.346	599.94
513.562	608.94
513.778	596.94
513.994	631.94
514.21	602.94
514.426	643.94
514.642	650.94
514.858	656.94
515.074	693.94
515.29	815.94
515.506	1008.94
515.721	886.94
515.937	675.94
516.153	671.94
516.369	647.94
516.585	615.94
516.801	648.94
517.016	644.94
517.232	658.94
517.448	665.94
517.664	685.94
517.879	667.94
518.095	682.94
518.311	679.94
518.527	653.94
518.742	645.94
518.958	629.94
519.173	625.94
519.389	613.94
519.605	629.94
519.82	641.94
520.036	622.94
520.251	612.94
520.467	669.94
520.682	633.94
520.898	661.94
521.113	651.94
521.329	671.94
521.544	706.94
521.76	826.94
521.975	1217.94
522.19	1211.94
522.406	779.94
522.621	628.94
522.836	593.94
523.052	589.94
523.267	573.94
523.482	573.94
523.698	561.94
523.913	537.94
524.128	569.94
524.343	556.94
524.559	550.94
524.774	524.94
524.989	521.94
525.204	552.94
525.419	563.94
525.634	528.94
525.849	555.94
526.064	535.94
526.28	539.94
526.495	537.94
526.71	504.94
526.925	521.94
527.14	528.94
527.355	513.94
527.57	527.94
527.785	527.94
527.999	496.94
528.214	498.94
528.429	520.94
528.644	497.94
528.859	502.94
529.074	492.94
529.289	534.94
529.503	566.94
529.718	546.94
529.933	531.94
530.148	533.94
530.363	529.94
530.577	497.94
530.792	534.94
531.007	533.94
531.221	502.94
531.436	515.94
531.651	503.94
531.865	519.94
532.08	507.94
532.295	497.94
532.509	498.94
532.724	481.94
532.938	511.94
533.153	510.94
533.367	504.94
533.582	505.94
533.796	521.94
534.011	501.94
534.225	495.94
534.44	492.94
534.654	487.94
534.868	492.94
535.083	528.94
535.297	502.94
535.511	487.94
535.726	495.94
535.94	486.94
536.154	492.94
536.369	511.94
536.583	468.94
536.797	473.94
537.011	480.94
537.225	471.94
537.44	482.94
537.654	472.94
537.868	481.94
538.082	483.94
538.296	477.94
538.51	480.94
538.724	495.94
538.938	475.94
539.153	468.94
539.367	480.94
539.581	483.94
539.795	489.94
540.009	469.94
540.222	484.94
540.436	458.94
540.65	489.94
540.864	489.94
541.078	498.94
541.292	496.94
541.506	471.94
541.72	469.94
541.934	472.94
542.147	496.94
542.361	476.94
542.575	462.94
542.789	467.94
543.002	451.94
543.216	475.94
543.43	489.94
543.644	487.94
543.857	465.94
544.071	447.94
544.285	486.94
544.498	475.94
544.712	467.94
544.925	477.94
545.139	473.94
545.352	479.94
545.566	473.94
545.779	477.94
545.993	467.94
546.206	480.94
546.42	479.94
546.633	469.94
546.847	466.94
547.06	460.94
547.274	459.94
547.487	456.94
547.7	476.94
547.914	458.94
548.127	466.94
548.34	466.94
548.554	456.94
548.767	497.94
548.98	484.94
549.193	445.94
549.407	458.94
549.62	435.94
549.833	473.94
550.046	473.94
550.259	466.94
550.473	474.94
550.686	458.94
550.899	485.94
551.112	452.94
551.325	448.94
551.538	456.94
551.751	459.94
551.964	470.94
552.177	460.94
552.39	460.94
552.603	483.94
552.816	468.94
553.029	468.94
553.242	471.94
553.455	480.94
553.667	497.94
553.88	481.94
554.093	466.94
554.306	481.94
554.519	481.94
554.732	461.94
554.944	487.94
555.157	451.94
555.37	459.94
555.583	426.94
555.795	431.94
556.008	433.94
556.221	461.94
556.433	440.94
556.646	431.94
556.859	421.94
557.071	435.94
557.284	407.94
557.496	413.94
557.709	424.94
557.921	424.94
558.134	427.94
558.346	410.94
558.559	415.94
558.771	427.94
558.984	426.94
559.196	420.94
559.409	408.94
559.621	410.94
559.833	405.94
560.046	404.94
560.258	407.94
560.47	430.94
560.683	416.94
560.895	413.94
561.107	410.94
561.32	391.94
561.532	431.94
561.744	412.94
561.956	426.94
562.168	415.94
562.381	410.94
562.593	413.94
562.805	431.94
563.017	408.94
563.229	401.94
563.441	427.94
563.653	420.94
563.865	412.94
564.077	425.94
564.289	411.94
564.501	420.94
564.713	428.94
564.925	427.94
565.137	459.94
565.349	473.94
565.561	464.94
565.773	463.94
565.985	461.94
566.197	487.94
566.408	483.94
566.62	553.94
566.832	544.94
567.044	535.94
567.255	565.94
567.467	583.94
567.679	583.94
567.891	595.94
568.102	596.94
568.314	571.94
568.526	559.94
568.737	522.94
568.949	526.94
569.161	468.94
569.372	471.94
569.584	437.94
569.795	430.94
570.007	425.94
570.218	445.94
570.43	433.94
570.641	423.94
570.853	417.94
571.064	391.94
571.276	426.94
571.487	412.94
571.698	392.94
571.91	385.94
572.121	410.94
572.333	399.94
572.544	378.94
572.755	381.94
572.966	377.94
573.178	379.94
573.389	378.94
573.6	393.94
573.811	365.94
574.023	363.94
574.234	353.94
574.445	373.94
574.656	363.94
574.867	363.94
575.078	367.94
575.289	349.94
575.501	358.94
575.712	361.94
575.923	343.94
576.134	360.94
576.345	359.94
576.556	334.94
576.767	351.94
576.978	355.94
577.188	348.94
577.399	340.94
577.61	328.94
577.821	326.94
578.032	343.94
578.243	361.94
578.454	490.94
578.665	403.94
578.875	339.94
579.086	334.94
579.297	312.94
579.508	334.94
579.718	350.94
579.929	325.94
580.14	342.94
580.35	339.94
580.561	332.94
580.772	344.94
580.982	310.94
581.193	340.94
581.403	324.94
581.614	332.94
581.825	320.94
582.035	315.94
582.246	307.94
582.456	327.94
582.667	327.94
582.877	333.94
583.087	321.94
583.298	327.94
583.508	321.94
583.719	321.94
583.929	343.94
584.139	333.94
584.35	324.94
584.56	336.94
584.77	340.94
584.981	322.94
585.191	308.94
585.401	328.94
585.611	299.94
585.821	296.94
586.032	314.94
586.242	325.94
586.452	303.94
586.662	314.94
586.872	304.94
587.082	316.94
587.292	323.94
587.502	307.94
587.713	295.94
587.923	304.94
588.133	284.94
588.343	315.94
588.553	307.94
588.762	303.94
588.972	299.94
589.182	316.94
589.392	313.94
589.602	306.94
589.812	319.94
590.022	319.94
590.232	330.94
590.441	298.94
590.651	315.94
590.861	311.94
591.071	303.94
591.281	309.94
591.49	327.94
591.7	333.94
591.91	316.94
592.119	333.94
592.329	327.94
592.539	339.94
592.748	327.94
592.958	361.94
593.167	343.94
593.377	335.94
593.587	385.94
593.796	375.94
594.006	344.94
594.215	357.94
594.424	337.94
594.634	345.94
594.843	329.94
595.053	334.94
595.262	327.94
595.472	330.94
595.681	323.94
595.89	312.94
596.1	311.94
596.309	312.94
596.518	295.94
596.727	295.94
596.937	304.94
597.146	303.94
597.355	291.94
597.564	287.94
597.774	294.94
597.983	293.94
598.192	282.94
598.401	296.94
598.61	287.94
598.819	283.94
599.028	273.94
599.237	265.94
599.446	291.94
599.655	280.94
599.864	301.94
600.073	280.94
600.282	286.94
600.491	281.94
600.7	271.94
600.909	283.94
601.118	271.94
601.327	280.94
601.536	293.94
601.745	273.94
601.953	274.94
602.162	282.94
602.371	287.94
602.58	277.94
602.789	263.94
602.997	286.94
603.206	284.94
603.415	277.94
603.623	283.94
603.832	265.94
604.041	262.94
604.249	247.94
604.458	244.94
604.666	240.94
604.875	265.94
605.084	275.94
605.292	270.94
605.501	267.94
605.709	244.94
605.918	270.94
606.126	271.94
606.334	267.94
606.543	243.94
606.751	263.94
606.96	264.94
607.168	256.94
607.376	256.94
607.585	254.94
607.793	249.94
608.001	242.94
608.21	251.94
608.418	267.94
608.626	251.94
608.834	259.94
609.043	255.94
609.251	264.94
609.459	260.94
609.667	261.94
609.875	257.94
610.083	249.94
610.291	253.94
610.499	248.94
610.707	254.94
610.916	248.94
611.124	278.94
611.332	255.94
611.54	243.94
611.748	258.94
611.955	260.94
612.163	250.94
612.371	254.94
612.579	257.94
612.787	266.94
612.995	249.94
613.203	248.94
613.411	250.94
613.618	257.94
613.826	241.94
614.034	251.94
614.242	240.94
614.449	245.94
614.657	253.94
614.865	245.94
615.072	241.94
615.28	253.94
615.488	247.94
615.695	239.94
615.903	257.94
616.111	255.94
616.318	262.94
616.526	254.94
616.733	236.94
616.941	240.94
617.148	257.94
617.356	259.94
617.563	237.94
617.771	265.94
617.978	267.94
618.185	250.94
618.393	250.94
618.6	236.94
618.807	240.94
619.015	257.94
619.222	241.94
619.429	232.94
619.637	244.94
619.844	251.94
620.051	229.94
620.258	242.94
620.466	228.94
620.673	229.94
620.88	249.94
621.087	240.94
621.294	215.94
621.501	235.94
621.708	217.94
621.915	227.94
622.122	242.94
622.329	231.94
622.536	244.94
622.743	227.94
622.95	206.94
623.157	236.94
623.364	222.94
623.571	215.94
623.778	235.94
623.985	242.94
624.192	216.94
624.399	238.94
624.606	228.94
624.812	202.94
625.019	231.94
625.226	229.94
625.433	215.94
625.639	227.94
625.846	230.94
626.053	208.94
626.259	217.94
626.466	220.94
626.673	235.94
626.879	222.94
627.086	201.94
627.293	247.94
627.499	214.94
627.706	216.94
627.912	208.94
628.119	218.94
628.325	211.94
628.532	218.94
628.738	223.94
628.945	207.94
629.151	232.94
629.357	222.94
629.564	201.94
629.77	204.94
629.976	203.94
630.183	215.94
630.389	209.94
630.595	201.94
630.802	201.94
631.008	199.94
631.214	207.94
631.42	197.94
631.627	217.94
631.833	196.94
632.039	198.94
632.245	203.94
632.451	196.94
632.657	212.94
632.863	188.94
633.069	182.94
633.275	201.94
633.481	188.94
633.688	182.94
633.893	204.94
634.099	199.94
634.305	190.94
634.511	193.94
634.717	193.94
634.923	195.94
635.129	202.94
635.335	197.94
635.541	194.94
635.747	193.94
635.952	183.94
636.158	192.94
636.364	204.94
636.57	203.94
636.775	198.94
636.981	194.94
637.187	192.94
637.392	214.94
637.598	194.94
637.804	187.94
638.009	188.94
638.215	211.94
638.421	191.94
638.626	191.94
638.832	172.94
639.037	170.94
639.243	193.94
639.448	180.94
639.654	170.94
639.859	190.94
640.065	165.94
640.27	183.94
640.475	173.94
640.681	185.94
640.886	181.94
641.091	183.94
641.297	178.94
641.502	195.94
641.707	175.94
641.913	174.94
642.118	156.94
642.323	173.94
642.528	177.94
642.733	173.94
642.939	185.94
643.144	175.94
643.349	172.94
643.554	169.94
643.759	188.94
643.964	158.94
644.169	167.94
644.374	187.94
644.579	198.94
644.784	172.94
644.989	169.94
645.194	176.94
645.399	186.94
645.604	168.94
645.809	169.94
646.014	168.94
646.219	170.94
646.423	185.94
646.628	175.94
646.833	172.94
647.038	177.94
647.243	181.94
647.447	159.94
647.652	165.94
647.857	169.94
648.062	189.94
648.266	169.94
648.471	195.94
648.676	186.94
648.88	171.94
649.085	179.94
649.289	167.94
649.494	155.94
649.698	183.94
649.903	177.94
650.107	187.94
650.312	165.94
650.516	178.94
650.721	157.94
650.925	170.94
651.13	165.94
651.334	177.94
651.539	153.94
651.743	151.94
651.947	152.94
652.152	155.94
652.356	151.94
652.56	144.94
652.764	139.94
652.969	159.94
653.173	157.94
653.377	141.94
653.581	141.94
653.785	140.94
653.99	149.94
654.194	134.94
654.398	140.94
654.602	145.94
654.806	139.94
655.01	161.94
655.214	147.94
655.418	140.94
655.622	137.94
655.826	140.94
656.03	128.94
656.234	148.94
656.438	147.94
656.642	141.94
656.846	133.94
657.049	144.94
657.253	132.94
657.457	136.94
657.661	111.94
657.865	121.94
658.068	122.94
658.272	119.94
658.476	113.94
658.68	109.94
658.883	106.94
659.087	103.94
659.291	96.94
659.494	114.94
659.698	96.94
659.901	111.94
660.105	107.94
660.309	101.94
660.512	94.94
660.716	83.94
660.919	87.94
661.123	96.94
661.326	97.94
661.53	88.94
661.733	88.94
661.936	98.94
662.14	81.94
662.343	96.94
662.546	89.94
662.75	103.94
662.953	91.94
663.156	79.94
663.36	82.94
663.563	88.94
663.766	96.94
663.969	79.94
664.173	94.94
664.376	99.94
664.579	73.94
664.782	82.94
664.985	97.94
665.188	84.94
665.391	80.94
665.594	96.94
665.797	88.94
666	73.94
666.203	79.94
666.406	77.94
666.609	77.94
666.812	83.94
667.015	84.94
667.218	75.94
667.421	82.94
667.624	88.94
667.827	92.94
668.03	90.94
668.232	86.94
668.435	86.94
668.638	90.94
668.841	76.94
669.043	75.94
669.246	80.94
669.449	83.94
669.651	60.94
669.854	75.94
670.057	81.94
670.259	89.94
670.462	82.94
670.665	81.94
670.867	87.94
671.07	79.94
671.272	79.94
671.475	73.94
671.677	75.94
671.88	86.94
672.082	82.94
672.284	99.94
672.487	84.94
672.689	84.94
672.892	82.94
