Data from 1975.PennyLincolnUp.Lamp.En5.5.200Scan.071719.P1.Changed Mount._HRD10591_15-58-02-860.txt Node
Date: Thu Jul 18 15:58:02 EDT 2019
User: cochatt
Spectrometer: HR+D1059
Trigger mode: 1
Integration Time (sec): 1.000000E-1
Scans to average: 1
Electric dark correction enabled: true
Nonlinearity correction enabled: false
Boxcar width: 0
XAxis mode: Wavelengths
Number of Pixels in Spectrum: 2048
>>>>>Begin Spectral Data<<<<<
223.165	-9.56
223.4	-9.56
223.635	-9.56
223.869	-29.56
224.104	-14.56
224.338	-9.56
224.573	-17.56
224.808	-14.56
225.042	0.44
225.277	-20.56
225.511	1.44
225.746	6.44
225.98	18.44
226.215	4.44
226.449	25.44
226.683	18.44
226.918	12.44
227.152	28.44
227.387	32.44
227.621	36.44
227.856	41.44
228.09	32.44
228.324	50.44
228.559	59.44
228.793	59.44
229.027	100.44
229.262	89.44
229.496	119.44
229.73	132.44
229.964	139.44
230.199	124.44
230.433	121.44
230.667	114.44
230.901	107.44
231.136	122.44
231.37	112.44
231.604	113.44
231.838	112.44
232.072	110.44
232.306	121.44
232.541	108.44
232.775	109.44
233.009	120.44
233.243	118.44
233.477	117.44
233.711	114.44
233.945	124.44
234.179	122.44
234.413	116.44
234.647	128.44
234.881	113.44
235.115	112.44
235.349	125.44
235.583	122.44
235.817	128.44
236.051	115.44
236.285	127.44
236.519	123.44
236.753	130.44
236.987	136.44
237.221	180.44
237.455	227.44
237.689	190.44
237.922	126.44
238.156	136.44
238.39	134.44
238.624	117.44
238.858	132.44
239.091	140.44
239.325	139.44
239.559	116.44
239.793	147.44
240.027	132.44
240.26	124.44
240.494	159.44
240.728	150.44
240.961	159.44
241.195	170.44
241.429	142.44
241.662	140.44
241.896	136.44
242.13	131.44
242.363	141.44
242.597	134.44
242.83	133.44
243.064	131.44
243.298	138.44
243.531	139.44
243.765	140.44
243.998	144.44
244.232	126.44
244.465	133.44
244.699	142.44
244.932	135.44
245.166	150.44
245.399	150.44
245.633	138.44
245.866	153.44
246.099	145.44
246.333	138.44
246.566	158.44
246.8	146.44
247.033	150.44
247.266	146.44
247.5	173.44
247.733	180.44
247.966	177.44
248.2	154.44
248.433	167.44
248.666	182.44
248.899	190.44
249.133	197.44
249.366	216.44
249.599	206.44
249.832	191.44
250.066	197.44
250.299	190.44
250.532	199.44
250.765	212.44
250.998	217.44
251.231	219.44
251.465	218.44
251.698	205.44
251.931	220.44
252.164	199.44
252.397	199.44
252.63	198.44
252.863	204.44
253.096	216.44
253.329	218.44
253.562	215.44
253.795	225.44
254.028	218.44
254.261	227.44
254.494	223.44
254.727	255.44
254.96	275.44
255.193	288.44
255.426	267.44
255.659	239.44
255.892	239.44
256.124	243.44
256.357	240.44
256.59	245.44
256.823	228.44
257.056	218.44
257.289	222.44
257.521	228.44
257.754	209.44
257.987	197.44
258.22	195.44
258.452	212.44
258.685	201.44
258.918	233.44
259.151	211.44
259.383	220.44
259.616	211.44
259.849	239.44
260.081	242.44
260.314	232.44
260.547	261.44
260.779	253.44
261.012	230.44
261.244	240.44
261.477	224.44
261.71	220.44
261.942	221.44
262.175	236.44
262.407	221.44
262.64	217.44
262.872	219.44
263.105	218.44
263.337	231.44
263.57	217.44
263.802	230.44
264.035	219.44
264.267	204.44
264.499	225.44
264.732	231.44
264.964	224.44
265.197	217.44
265.429	241.44
265.661	218.44
265.894	225.44
266.126	229.44
266.358	214.44
266.591	233.44
266.823	238.44
267.055	248.44
267.287	214.44
267.52	231.44
267.752	236.44
267.984	242.44
268.216	226.44
268.448	228.44
268.681	213.44
268.913	266.44
269.145	257.44
269.377	277.44
269.609	267.44
269.841	273.44
270.073	280.44
270.306	295.44
270.538	314.44
270.77	327.44
271.002	313.44
271.234	311.44
271.466	314.44
271.698	328.44
271.93	332.44
272.162	301.44
272.394	310.44
272.626	298.44
272.858	284.44
273.09	281.44
273.322	289.44
273.553	252.44
273.785	287.44
274.017	272.44
274.249	260.44
274.481	268.44
274.713	267.44
274.945	297.44
275.176	272.44
275.408	286.44
275.64	261.44
275.872	275.44
276.104	267.44
276.335	268.44
276.567	285.44
276.799	300.44
277.031	318.44
277.262	306.44
277.494	333.44
277.726	307.44
277.957	312.44
278.189	311.44
278.421	295.44
278.652	295.44
278.884	279.44
279.115	271.44
279.347	291.44
279.579	274.44
279.81	293.44
280.042	271.44
280.273	272.44
280.505	288.44
280.736	275.44
280.968	267.44
281.199	297.44
281.431	275.44
281.662	295.44
281.894	306.44
282.125	306.44
282.356	287.44
282.588	328.44
282.819	318.44
283.051	299.44
283.282	279.44
283.513	279.44
283.745	296.44
283.976	296.44
284.207	298.44
284.439	292.44
284.67	298.44
284.901	311.44
285.132	282.44
285.364	286.44
285.595	270.44
285.826	287.44
286.057	295.44
286.288	291.44
286.52	292.44
286.751	284.44
286.982	301.44
287.213	302.44
287.444	302.44
287.675	297.44
287.906	298.44
288.138	325.44
288.369	336.44
288.6	311.44
288.831	315.44
289.062	324.44
289.293	326.44
289.524	309.44
289.755	313.44
289.986	300.44
290.217	326.44
290.448	319.44
290.679	313.44
290.91	314.44
291.141	289.44
291.371	324.44
291.602	306.44
291.833	307.44
292.064	313.44
292.295	300.44
292.526	314.44
292.757	295.44
292.987	314.44
293.218	300.44
293.449	322.44
293.68	318.44
293.91	298.44
294.141	291.44
294.372	318.44
294.603	306.44
294.833	312.44
295.064	317.44
295.295	318.44
295.525	322.44
295.756	317.44
295.987	315.44
296.217	350.44
296.448	354.44
296.679	354.44
296.909	324.44
297.14	331.44
297.37	315.44
297.601	330.44
297.831	335.44
298.062	318.44
298.292	310.44
298.523	331.44
298.753	330.44
298.984	327.44
299.214	338.44
299.445	313.44
299.675	334.44
299.905	333.44
300.136	330.44
300.366	332.44
300.597	335.44
300.827	330.44
301.057	328.44
301.288	342.44
301.518	343.44
301.748	340.44
301.979	360.44
302.209	347.44
302.439	338.44
302.669	358.44
302.9	347.44
303.13	357.44
303.36	356.44
303.59	356.44
303.82	335.44
304.051	358.44
304.281	361.44
304.511	356.44
304.741	356.44
304.971	335.44
305.201	340.44
305.431	344.44
305.661	354.44
305.891	357.44
306.121	338.44
306.352	343.44
306.582	363.44
306.812	362.44
307.042	355.44
307.272	356.44
307.502	363.44
307.731	350.44
307.961	346.44
308.191	352.44
308.421	342.44
308.651	344.44
308.881	359.44
309.111	360.44
309.341	341.44
309.571	363.44
309.8	359.44
310.03	366.44
310.26	377.44
310.49	381.44
310.72	402.44
310.949	403.44
311.179	403.44
311.409	407.44
311.639	375.44
311.868	395.44
312.098	382.44
312.328	394.44
312.557	384.44
312.787	409.44
313.017	407.44
313.246	391.44
313.476	396.44
313.706	392.44
313.935	379.44
314.165	409.44
314.394	394.44
314.624	408.44
314.853	400.44
315.083	379.44
315.312	390.44
315.542	390.44
315.771	400.44
316.001	396.44
316.23	400.44
316.46	399.44
316.689	382.44
316.919	391.44
317.148	382.44
317.377	409.44
317.607	404.44
317.836	396.44
318.065	368.44
318.295	402.44
318.524	393.44
318.753	384.44
318.983	380.44
319.212	394.44
319.441	392.44
319.67	401.44
319.9	377.44
320.129	389.44
320.358	403.44
320.587	406.44
320.816	407.44
321.046	414.44
321.275	414.44
321.504	403.44
321.733	409.44
321.962	400.44
322.191	442.44
322.42	439.44
322.649	429.44
322.878	437.44
323.108	455.44
323.337	481.44
323.566	469.44
323.795	490.44
324.024	508.44
324.253	598.44
324.482	814.44
324.71	1306.44
324.939	1909.44
325.168	1702.44
325.397	879.44
325.626	603.44
325.855	511.44
326.084	472.44
326.313	479.44
326.542	487.44
326.77	527.44
326.999	558.44
327.228	791.44
327.457	1170.44
327.686	1447.44
327.914	976.44
328.143	658.44
328.372	607.44
328.6	570.44
328.829	530.44
329.058	560.44
329.287	550.44
329.515	516.44
329.744	517.44
329.972	511.44
330.201	518.44
330.43	530.44
330.658	562.44
330.887	598.44
331.115	551.44
331.344	514.44
331.572	474.44
331.801	502.44
332.03	507.44
332.258	474.44
332.486	475.44
332.715	476.44
332.943	473.44
333.172	485.44
333.4	486.44
333.629	479.44
333.857	514.44
334.085	512.44
334.314	538.44
334.542	562.44
334.771	573.44
334.999	536.44
335.227	498.44
335.455	496.44
335.684	498.44
335.912	483.44
336.14	476.44
336.369	490.44
336.597	471.44
336.825	478.44
337.053	451.44
337.281	461.44
337.51	474.44
337.738	464.44
337.966	452.44
338.194	458.44
338.422	466.44
338.65	468.44
338.878	467.44
339.106	464.44
339.334	449.44
339.562	448.44
339.79	436.44
340.018	436.44
340.246	434.44
340.474	459.44
340.702	456.44
340.93	456.44
341.158	426.44
341.386	451.44
341.614	455.44
341.842	441.44
342.07	443.44
342.298	443.44
342.526	453.44
342.754	452.44
342.981	436.44
343.209	441.44
343.437	435.44
343.665	450.44
343.893	473.44
344.12	471.44
344.348	472.44
344.576	458.44
344.804	478.44
345.031	447.44
345.259	473.44
345.487	452.44
345.714	464.44
345.942	457.44
346.17	440.44
346.397	422.44
346.625	441.44
346.853	438.44
347.08	432.44
347.308	443.44
347.535	448.44
347.763	439.44
347.99	435.44
348.218	442.44
348.445	457.44
348.673	452.44
348.9	426.44
349.128	422.44
349.355	415.44
349.583	423.44
349.81	405.44
350.037	437.44
350.265	419.44
350.492	426.44
350.72	427.44
350.947	428.44
351.174	428.44
351.402	431.44
351.629	440.44
351.856	428.44
352.083	447.44
352.311	457.44
352.538	442.44
352.765	433.44
352.992	446.44
353.22	426.44
353.447	434.44
353.674	446.44
353.901	438.44
354.128	406.44
354.355	419.44
354.583	408.44
354.81	422.44
355.037	427.44
355.264	404.44
355.491	391.44
355.718	402.44
355.945	420.44
356.172	409.44
356.399	438.44
356.626	406.44
356.853	401.44
357.08	413.44
357.307	408.44
357.534	418.44
357.761	415.44
357.988	430.44
358.215	420.44
358.441	413.44
358.668	428.44
358.895	416.44
359.122	420.44
359.349	425.44
359.576	441.44
359.802	455.44
360.029	459.44
360.256	472.44
360.483	456.44
360.709	435.44
360.936	437.44
361.163	441.44
361.39	436.44
361.616	438.44
361.843	437.44
362.07	427.44
362.296	421.44
362.523	425.44
362.749	424.44
362.976	415.44
363.203	421.44
363.429	417.44
363.656	414.44
363.882	414.44
364.109	420.44
364.335	424.44
364.562	439.44
364.788	419.44
365.015	419.44
365.241	419.44
365.468	453.44
365.694	413.44
365.92	466.44
366.147	428.44
366.373	427.44
366.599	408.44
366.826	414.44
367.052	393.44
367.278	430.44
367.505	403.44
367.731	420.44
367.957	423.44
368.184	424.44
368.41	440.44
368.636	422.44
368.862	457.44
369.089	434.44
369.315	434.44
369.541	438.44
369.767	443.44
369.993	432.44
370.219	431.44
370.445	422.44
370.672	429.44
370.898	425.44
371.124	417.44
371.35	417.44
371.576	434.44
371.802	417.44
372.028	442.44
372.254	430.44
372.48	434.44
372.706	435.44
372.932	426.44
373.158	442.44
373.384	441.44
373.61	434.44
373.835	424.44
374.061	433.44
374.287	448.44
374.513	456.44
374.739	439.44
374.965	434.44
375.191	436.44
375.416	433.44
375.642	434.44
375.868	453.44
376.094	420.44
376.319	424.44
376.545	443.44
376.771	436.44
376.997	402.44
377.222	427.44
377.448	434.44
377.674	423.44
377.899	414.44
378.125	427.44
378.35	430.44
378.576	444.44
378.802	436.44
379.027	444.44
379.253	410.44
379.478	435.44
379.704	408.44
379.929	438.44
380.155	436.44
380.38	427.44
380.606	406.44
380.831	452.44
381.057	429.44
381.282	449.44
381.507	443.44
381.733	444.44
381.958	429.44
382.184	427.44
382.409	449.44
382.634	447.44
382.86	427.44
383.085	446.44
383.31	455.44
383.535	462.44
383.761	471.44
383.986	437.44
384.211	474.44
384.436	458.44
384.662	467.44
384.887	458.44
385.112	462.44
385.337	490.44
385.562	478.44
385.787	476.44
386.013	502.44
386.238	480.44
386.463	497.44
386.688	473.44
386.913	470.44
387.138	491.44
387.363	465.44
387.588	489.44
387.813	482.44
388.038	481.44
388.263	455.44
388.488	477.44
388.713	501.44
388.938	480.44
389.163	500.44
389.387	504.44
389.612	487.44
389.837	485.44
390.062	483.44
390.287	473.44
390.512	455.44
390.736	464.44
390.961	490.44
391.186	475.44
391.411	481.44
391.636	487.44
391.86	504.44
392.085	506.44
392.31	511.44
392.534	520.44
392.759	490.44
392.984	498.44
393.208	481.44
393.433	470.44
393.658	486.44
393.882	502.44
394.107	508.44
394.331	483.44
394.556	484.44
394.78	480.44
395.005	511.44
395.229	500.44
395.454	486.44
395.678	529.44
395.903	528.44
396.127	528.44
396.352	530.44
396.576	505.44
396.801	520.44
397.025	516.44
397.249	515.44
397.474	530.44
397.698	542.44
397.922	546.44
398.147	542.44
398.371	556.44
398.595	553.44
398.82	558.44
399.044	590.44
399.268	623.44
399.492	640.44
399.717	675.44
399.941	690.44
400.165	715.44
400.389	725.44
400.613	648.44
400.837	614.44
401.062	591.44
401.286	568.44
401.51	585.44
401.734	553.44
401.958	552.44
402.182	590.44
402.406	591.44
402.63	573.44
402.854	583.44
403.078	599.44
403.302	595.44
403.526	605.44
403.75	607.44
403.974	614.44
404.198	583.44
404.422	594.44
404.645	584.44
404.869	628.44
405.093	656.44
405.317	676.44
405.541	722.44
405.765	657.44
405.988	621.44
406.212	635.44
406.436	630.44
406.66	645.44
406.883	620.44
407.107	667.44
407.331	708.44
407.555	790.44
407.778	745.44
408.002	718.44
408.226	668.44
408.449	664.44
408.673	670.44
408.896	672.44
409.12	722.44
409.344	684.44
409.567	619.44
409.791	620.44
410.014	594.44
410.238	584.44
410.461	580.44
410.685	585.44
410.908	599.44
411.132	661.44
411.355	649.44
411.578	656.44
411.802	612.44
412.025	598.44
412.249	626.44
412.472	644.44
412.695	643.44
412.919	648.44
413.142	594.44
413.365	578.44
413.589	578.44
413.812	566.44
414.035	562.44
414.258	566.44
414.482	532.44
414.705	532.44
414.928	527.44
415.151	547.44
415.374	563.44
415.597	560.44
415.821	540.44
416.044	525.44
416.267	564.44
416.49	562.44
416.713	531.44
416.936	546.44
417.159	569.44
417.382	556.44
417.605	570.44
417.828	555.44
418.051	580.44
418.274	569.44
418.497	564.44
418.72	561.44
418.943	543.44
419.166	592.44
419.389	629.44
419.611	608.44
419.834	589.44
420.057	607.44
420.28	594.44
420.503	592.44
420.726	587.44
420.948	581.44
421.171	641.44
421.394	666.44
421.617	614.44
421.839	576.44
422.062	578.44
422.285	593.44
422.507	683.44
422.73	718.44
422.953	710.44
423.175	634.44
423.398	620.44
423.621	601.44
423.843	642.44
424.066	628.44
424.288	632.44
424.511	656.44
424.733	698.44
424.956	787.44
425.178	764.44
425.401	735.44
425.623	758.44
425.846	635.44
426.068	601.44
426.291	595.44
426.513	596.44
426.735	614.44
426.958	634.44
427.18	732.44
427.402	887.44
427.625	937.44
427.847	803.44
428.069	738.44
428.292	658.44
428.514	614.44
428.736	599.44
428.958	574.44
429.181	550.44
429.403	544.44
429.625	562.44
429.847	581.44
430.069	649.44
430.292	663.44
430.514	575.44
430.736	550.44
430.958	545.44
431.18	543.44
431.402	554.44
431.624	532.44
431.846	537.44
432.068	542.44
432.29	522.44
432.512	524.44
432.734	540.44
432.956	539.44
433.178	530.44
433.4	534.44
433.622	562.44
433.844	570.44
434.066	561.44
434.287	535.44
434.509	568.44
434.731	571.44
434.953	555.44
435.175	600.44
435.397	618.44
435.618	614.44
435.84	645.44
436.062	772.44
436.284	824.44
436.505	683.44
436.727	608.44
436.949	566.44
437.17	562.44
437.392	568.44
437.614	569.44
437.835	604.44
438.057	707.44
438.278	803.44
438.5	810.44
438.721	886.44
438.943	846.44
439.165	683.44
439.386	638.44
439.608	616.44
439.829	598.44
440.05	630.44
440.272	643.44
440.493	634.44
440.715	599.44
440.936	586.44
441.158	586.44
441.379	588.44
441.6	579.44
441.822	595.44
442.043	638.44
442.264	716.44
442.486	776.44
442.707	683.44
442.928	638.44
443.149	618.44
443.371	645.44
443.592	709.44
443.813	794.44
444.034	858.44
444.255	714.44
444.476	650.44
444.698	644.44
444.919	631.44
445.14	788.44
445.361	688.44
445.582	667.44
445.803	724.44
446.024	800.44
446.245	809.44
446.466	773.44
446.687	646.44
446.908	616.44
447.129	573.44
447.35	562.44
447.571	579.44
447.792	559.44
448.013	569.44
448.234	589.44
448.455	595.44
448.675	736.44
448.896	868.44
449.117	738.44
449.338	691.44
449.559	792.44
449.779	914.44
450	720.44
450.221	614.44
450.442	553.44
450.662	521.44
450.883	539.44
451.104	559.44
451.324	543.44
451.545	543.44
451.766	495.44
451.986	498.44
452.207	503.44
452.428	502.44
452.648	496.44
452.869	494.44
453.089	513.44
453.31	520.44
453.53	493.44
453.751	478.44
453.971	483.44
454.192	518.44
454.412	505.44
454.633	498.44
454.853	483.44
455.073	472.44
455.294	517.44
455.514	554.44
455.734	569.44
455.955	501.44
456.175	476.44
456.395	486.44
456.616	474.44
456.836	478.44
457.056	456.44
457.276	462.44
457.497	487.44
457.717	453.44
457.937	468.44
458.157	499.44
458.377	477.44
458.598	520.44
458.818	563.44
459.038	641.44
459.258	655.44
459.478	574.44
459.698	548.44
459.918	532.44
460.138	550.44
460.358	538.44
460.578	553.44
460.798	572.44
461.018	593.44
461.238	578.44
461.458	581.44
461.678	539.44
461.898	574.44
462.118	536.44
462.338	555.44
462.558	578.44
462.777	608.44
462.997	635.44
463.217	644.44
463.437	634.44
463.657	640.44
463.876	620.44
464.096	618.44
464.316	587.44
464.536	594.44
464.755	602.44
464.975	617.44
465.195	617.44
465.414	645.44
465.634	587.44
465.854	560.44
466.073	558.44
466.293	501.44
466.512	507.44
466.732	530.44
466.951	508.44
467.171	531.44
467.391	548.44
467.61	531.44
467.829	525.44
468.049	528.44
468.268	518.44
468.488	521.44
468.707	510.44
468.927	519.44
469.146	506.44
469.365	508.44
469.585	511.44
469.804	523.44
470.023	520.44
470.243	508.44
470.462	537.44
470.681	522.44
470.901	540.44
471.12	502.44
471.339	527.44
471.558	535.44
471.777	527.44
471.997	533.44
472.216	505.44
472.435	554.44
472.654	538.44
472.873	521.44
473.092	499.44
473.311	506.44
473.53	535.44
473.749	533.44
473.968	588.44
474.187	650.44
474.406	688.44
474.625	572.44
474.844	534.44
475.063	514.44
475.282	515.44
475.501	535.44
475.72	530.44
475.939	552.44
476.158	542.44
476.377	538.44
476.596	552.44
476.814	510.44
477.033	533.44
477.252	547.44
477.471	553.44
477.69	565.44
477.908	562.44
478.127	583.44
478.346	567.44
478.564	586.44
478.783	594.44
479.002	585.44
479.22	617.44
479.439	629.44
479.658	642.44
479.876	631.44
480.095	658.44
480.313	680.44
480.532	673.44
480.751	655.44
480.969	635.44
481.188	689.44
481.406	738.44
481.624	676.44
481.843	643.44
482.061	642.44
482.28	629.44
482.498	611.44
482.717	604.44
482.935	601.44
483.153	594.44
483.372	628.44
483.59	593.44
483.808	622.44
484.027	588.44
484.245	604.44
484.463	598.44
484.681	628.44
484.9	633.44
485.118	634.44
485.336	615.44
485.554	630.44
485.772	625.44
485.99	626.44
486.209	633.44
486.427	634.44
486.645	636.44
486.863	641.44
487.081	647.44
487.299	675.44
487.517	639.44
487.735	664.44
487.953	630.44
488.171	640.44
488.389	665.44
488.607	649.44
488.825	664.44
489.043	662.44
489.261	649.44
489.479	658.44
489.696	654.44
489.914	673.44
490.132	695.44
490.35	668.44
490.568	688.44
490.786	696.44
491.003	708.44
491.221	721.44
491.439	722.44
491.657	727.44
491.874	731.44
492.092	759.44
492.31	763.44
492.527	746.44
492.745	745.44
492.963	744.44
493.18	768.44
493.398	762.44
493.615	789.44
493.833	781.44
494.05	786.44
494.268	774.44
494.485	766.44
494.703	780.44
494.92	790.44
495.138	785.44
495.355	789.44
495.573	786.44
495.79	772.44
496.008	796.44
496.225	778.44
496.442	773.44
496.66	800.44
496.877	767.44
497.094	807.44
497.312	789.44
497.529	788.44
497.746	810.44
497.963	827.44
498.181	884.44
498.398	874.44
498.615	874.44
498.832	936.44
499.049	942.44
499.267	980.44
499.484	1009.44
499.701	1054.44
499.918	1086.44
500.135	1154.44
500.352	1238.44
500.569	1275.44
500.786	1273.44
501.003	1241.44
501.22	1212.44
501.437	1117.44
501.654	1070.44
501.871	1038.44
502.088	996.44
502.305	962.44
502.522	936.44
502.739	895.44
502.956	859.44
503.172	849.44
503.389	839.44
503.606	825.44
503.823	799.44
504.04	815.44
504.256	809.44
504.473	816.44
504.69	808.44
504.907	814.44
505.123	790.44
505.34	747.44
505.557	759.44
505.773	719.44
505.99	722.44
506.207	725.44
506.423	750.44
506.64	714.44
506.856	699.44
507.073	723.44
507.289	720.44
507.506	718.44
507.722	704.44
507.939	751.44
508.155	718.44
508.372	688.44
508.588	691.44
508.805	679.44
509.021	683.44
509.238	688.44
509.454	715.44
509.67	683.44
509.887	680.44
510.103	644.44
510.319	699.44
510.536	727.44
510.752	1078.44
510.968	938.44
511.184	679.44
511.401	658.44
511.617	635.44
511.833	628.44
512.049	657.44
512.265	644.44
512.481	644.44
512.698	642.44
512.914	630.44
513.13	645.44
513.346	662.44
513.562	644.44
513.778	646.44
513.994	656.44
514.21	642.44
514.426	640.44
514.642	694.44
514.858	700.44
515.074	720.44
515.29	821.44
515.506	1108.44
515.721	970.44
515.937	745.44
516.153	672.44
516.369	675.44
516.585	667.44
516.801	668.44
517.016	681.44
517.232	708.44
517.448	678.44
517.664	706.44
517.879	692.44
518.095	719.44
518.311	713.44
518.527	683.44
518.742	696.44
518.958	660.44
519.173	670.44
519.389	668.44
519.605	651.44
519.82	671.44
520.036	657.44
520.251	653.44
520.467	677.44
520.682	647.44
520.898	683.44
521.113	674.44
521.329	723.44
521.544	759.44
521.76	872.44
521.975	1314.44
522.19	1317.44
522.406	821.44
522.621	677.44
522.836	624.44
523.052	616.44
523.267	599.44
523.482	597.44
523.698	579.44
523.913	598.44
524.128	563.44
524.343	560.44
524.559	578.44
524.774	580.44
524.989	560.44
525.204	575.44
525.419	566.44
525.634	551.44
525.849	564.44
526.064	544.44
526.28	542.44
526.495	537.44
526.71	532.44
526.925	537.44
527.14	533.44
527.355	556.44
527.57	542.44
527.785	526.44
527.999	525.44
528.214	524.44
528.429	530.44
528.644	566.44
528.859	538.44
529.074	558.44
529.289	528.44
529.503	602.44
529.718	600.44
529.933	563.44
530.148	542.44
530.363	550.44
530.577	517.44
530.792	522.44
531.007	518.44
531.221	535.44
531.436	539.44
531.651	516.44
531.865	528.44
532.08	510.44
532.295	517.44
532.509	518.44
532.724	502.44
532.938	515.44
533.153	531.44
533.367	516.44
533.582	495.44
533.796	539.44
534.011	508.44
534.225	515.44
534.44	504.44
534.654	514.44
534.868	509.44
535.083	521.44
535.297	530.44
535.511	515.44
535.726	513.44
535.94	504.44
536.154	517.44
536.369	519.44
536.583	495.44
536.797	499.44
537.011	506.44
537.225	497.44
537.44	463.44
537.654	501.44
537.868	460.44
538.082	501.44
538.296	518.44
538.51	495.44
538.724	507.44
538.938	487.44
539.153	487.44
539.367	482.44
539.581	513.44
539.795	497.44
540.009	514.44
540.222	495.44
540.436	481.44
540.65	487.44
540.864	482.44
541.078	500.44
541.292	509.44
541.506	510.44
541.72	500.44
541.934	513.44
542.147	505.44
542.361	500.44
542.575	479.44
542.789	486.44
543.002	490.44
543.216	500.44
543.43	475.44
543.644	484.44
543.857	473.44
544.071	502.44
544.285	494.44
544.498	503.44
544.712	506.44
544.925	489.44
545.139	487.44
545.352	495.44
545.566	484.44
545.779	466.44
545.993	504.44
546.206	502.44
546.42	492.44
546.633	497.44
546.847	496.44
547.06	477.44
547.274	456.44
547.487	475.44
547.7	479.44
547.914	490.44
548.127	486.44
548.34	489.44
548.554	474.44
548.767	486.44
548.98	465.44
549.193	472.44
549.407	489.44
549.62	489.44
549.833	494.44
550.046	485.44
550.259	473.44
550.473	462.44
550.686	491.44
550.899	474.44
551.112	507.44
551.325	459.44
551.538	460.44
551.751	490.44
551.964	476.44
552.177	496.44
552.39	504.44
552.603	492.44
552.816	507.44
553.029	475.44
553.242	501.44
553.455	513.44
553.667	498.44
553.88	505.44
554.093	484.44
554.306	495.44
554.519	478.44
554.732	479.44
554.944	475.44
555.157	459.44
555.37	476.44
555.583	449.44
555.795	442.44
556.008	423.44
556.221	451.44
556.433	449.44
556.646	428.44
556.859	423.44
557.071	433.44
557.284	424.44
557.496	435.44
557.709	434.44
557.921	433.44
558.134	426.44
558.346	423.44
558.559	418.44
558.771	422.44
558.984	420.44
559.196	425.44
559.409	428.44
559.621	433.44
559.833	414.44
560.046	424.44
560.258	421.44
560.47	436.44
560.683	410.44
560.895	433.44
561.107	418.44
561.32	433.44
561.532	430.44
561.744	425.44
561.956	422.44
562.168	441.44
562.381	424.44
562.593	420.44
562.805	408.44
563.017	409.44
563.229	415.44
563.441	418.44
563.653	440.44
563.865	428.44
564.077	422.44
564.289	447.44
564.501	428.44
564.713	460.44
564.925	468.44
565.137	458.44
565.349	478.44
565.561	441.44
565.773	479.44
565.985	472.44
566.197	496.44
566.408	503.44
566.62	541.44
566.832	534.44
567.044	568.44
567.255	565.44
567.467	563.44
567.679	598.44
567.891	612.44
568.102	618.44
568.314	590.44
568.526	548.44
568.737	537.44
568.949	520.44
569.161	494.44
569.372	469.44
569.584	468.44
569.795	457.44
570.007	449.44
570.218	492.44
570.43	459.44
570.641	425.44
570.853	415.44
571.064	446.44
571.276	407.44
571.487	416.44
571.698	418.44
571.91	399.44
572.121	394.44
572.333	404.44
572.544	399.44
572.755	387.44
572.966	382.44
573.178	378.44
573.389	390.44
573.6	370.44
573.811	370.44
574.023	375.44
574.234	361.44
574.445	366.44
574.656	376.44
574.867	371.44
575.078	352.44
575.289	360.44
575.501	369.44
575.712	376.44
575.923	359.44
576.134	348.44
576.345	357.44
576.556	342.44
576.767	351.44
576.978	354.44
577.188	367.44
577.399	354.44
577.61	343.44
577.821	343.44
578.032	353.44
578.243	384.44
578.454	517.44
578.665	434.44
578.875	339.44
579.086	349.44
579.297	332.44
579.508	373.44
579.718	329.44
579.929	324.44
580.14	311.44
580.35	319.44
580.561	339.44
580.772	328.44
580.982	334.44
581.193	340.44
581.403	345.44
581.614	308.44
581.825	318.44
582.035	325.44
582.246	305.44
582.456	321.44
582.667	331.44
582.877	311.44
583.087	344.44
583.298	331.44
583.508	329.44
583.719	314.44
583.929	335.44
584.139	321.44
584.35	329.44
584.56	328.44
584.77	314.44
584.981	326.44
585.191	308.44
585.401	327.44
585.611	334.44
585.821	323.44
586.032	341.44
586.242	315.44
586.452	321.44
586.662	308.44
586.872	322.44
587.082	329.44
587.292	326.44
587.502	327.44
587.713	298.44
587.923	325.44
588.133	310.44
588.343	321.44
588.553	320.44
588.762	305.44
588.972	294.44
589.182	310.44
589.392	324.44
589.602	296.44
589.812	320.44
590.022	335.44
590.232	302.44
590.441	318.44
590.651	325.44
590.861	318.44
591.071	324.44
591.281	328.44
591.49	342.44
591.7	323.44
591.91	331.44
592.119	312.44
592.329	339.44
592.539	337.44
592.748	345.44
592.958	325.44
593.167	337.44
593.377	367.44
593.587	370.44
593.796	340.44
594.006	354.44
594.215	369.44
594.424	331.44
594.634	369.44
594.843	356.44
595.053	313.44
595.262	327.44
595.472	325.44
595.681	316.44
595.89	307.44
596.1	290.44
596.309	329.44
596.518	325.44
596.727	316.44
596.937	303.44
597.146	284.44
597.355	305.44
597.564	294.44
597.774	314.44
597.983	277.44
598.192	293.44
598.401	289.44
598.61	282.44
598.819	291.44
599.028	291.44
599.237	287.44
599.446	292.44
599.655	309.44
599.864	302.44
600.073	286.44
600.282	268.44
600.491	287.44
600.7	274.44
600.909	293.44
601.118	280.44
601.327	278.44
601.536	258.44
601.745	265.44
601.953	290.44
602.162	280.44
602.371	274.44
602.58	253.44
602.789	255.44
602.997	297.44
603.206	264.44
603.415	268.44
603.623	274.44
603.832	258.44
604.041	270.44
604.249	280.44
604.458	260.44
604.666	260.44
604.875	261.44
605.084	260.44
605.292	275.44
605.501	260.44
605.709	268.44
605.918	267.44
606.126	263.44
606.334	259.44
606.543	263.44
606.751	272.44
606.96	255.44
607.168	244.44
607.376	260.44
607.585	251.44
607.793	269.44
608.001	267.44
608.21	265.44
608.418	257.44
608.626	281.44
608.834	265.44
609.043	275.44
609.251	267.44
609.459	254.44
609.667	281.44
609.875	268.44
610.083	278.44
610.291	245.44
610.499	247.44
610.707	263.44
610.916	273.44
611.124	261.44
611.332	273.44
611.54	272.44
611.748	274.44
611.955	249.44
612.163	256.44
612.371	270.44
612.579	258.44
612.787	252.44
612.995	256.44
613.203	256.44
613.411	251.44
613.618	274.44
613.826	254.44
614.034	272.44
614.242	251.44
614.449	260.44
614.657	249.44
614.865	266.44
615.072	250.44
615.28	233.44
615.488	267.44
615.695	254.44
615.903	257.44
616.111	260.44
616.318	255.44
616.526	250.44
616.733	238.44
616.941	260.44
617.148	259.44
617.356	251.44
617.563	247.44
617.771	247.44
617.978	243.44
618.185	243.44
618.393	258.44
618.6	262.44
618.807	243.44
619.015	234.44
619.222	233.44
619.429	243.44
619.637	250.44
619.844	239.44
620.051	228.44
620.258	240.44
620.466	240.44
620.673	222.44
620.88	239.44
621.087	222.44
621.294	232.44
621.501	248.44
621.708	238.44
621.915	242.44
622.122	237.44
622.329	240.44
622.536	243.44
622.743	216.44
622.95	235.44
623.157	238.44
623.364	238.44
623.571	239.44
623.778	248.44
623.985	223.44
624.192	215.44
624.399	254.44
624.606	231.44
624.812	210.44
625.019	217.44
625.226	246.44
625.433	248.44
625.639	215.44
625.846	206.44
626.053	228.44
626.259	220.44
626.466	243.44
626.673	217.44
626.879	227.44
627.086	230.44
627.293	218.44
627.499	230.44
627.706	218.44
627.912	214.44
628.119	222.44
628.325	214.44
628.532	204.44
628.738	222.44
628.945	226.44
629.151	209.44
629.357	201.44
629.564	210.44
629.77	221.44
629.976	194.44
630.183	216.44
630.389	211.44
630.595	203.44
630.802	201.44
631.008	211.44
631.214	203.44
631.42	198.44
631.627	204.44
631.833	210.44
632.039	193.44
632.245	217.44
632.451	192.44
632.657	197.44
632.863	206.44
633.069	174.44
633.275	197.44
633.481	195.44
633.688	190.44
633.893	184.44
634.099	185.44
634.305	197.44
634.511	182.44
634.717	195.44
634.923	183.44
635.129	188.44
635.335	184.44
635.541	193.44
635.747	182.44
635.952	185.44
636.158	193.44
636.364	207.44
636.57	202.44
636.775	207.44
636.981	188.44
637.187	174.44
637.392	194.44
637.598	194.44
637.804	189.44
638.009	191.44
638.215	190.44
638.421	190.44
638.626	197.44
638.832	194.44
639.037	183.44
639.243	188.44
639.448	179.44
639.654	201.44
639.859	171.44
640.065	181.44
640.27	182.44
640.475	179.44
640.681	186.44
640.886	194.44
641.091	179.44
641.297	154.44
641.502	181.44
641.707	187.44
641.913	166.44
642.118	176.44
642.323	192.44
642.528	187.44
642.733	180.44
642.939	186.44
643.144	181.44
643.349	177.44
643.554	185.44
643.759	170.44
643.964	153.44
644.169	168.44
644.374	177.44
644.579	163.44
644.784	158.44
644.989	171.44
645.194	162.44
645.399	167.44
645.604	177.44
645.809	178.44
646.014	167.44
646.219	166.44
646.423	177.44
646.628	174.44
646.833	169.44
647.038	180.44
647.243	194.44
647.447	191.44
647.652	176.44
647.857	176.44
648.062	159.44
648.266	175.44
648.471	167.44
648.676	162.44
648.88	178.44
649.085	178.44
649.289	183.44
649.494	170.44
649.698	206.44
649.903	202.44
650.107	190.44
650.312	177.44
650.516	167.44
650.721	160.44
650.925	172.44
651.13	166.44
651.334	174.44
651.539	155.44
651.743	150.44
651.947	149.44
652.152	164.44
652.356	154.44
652.56	139.44
652.764	141.44
652.969	154.44
653.173	148.44
653.377	140.44
653.581	150.44
653.785	140.44
653.99	134.44
654.194	129.44
654.398	151.44
654.602	152.44
654.806	129.44
655.01	129.44
655.214	140.44
655.418	124.44
655.622	137.44
655.826	149.44
656.03	145.44
656.234	150.44
656.438	152.44
656.642	134.44
656.846	145.44
657.049	127.44
657.253	111.44
657.457	120.44
657.661	126.44
657.865	121.44
658.068	104.44
658.272	114.44
658.476	117.44
658.68	112.44
658.883	117.44
659.087	100.44
659.291	111.44
659.494	105.44
659.698	90.44
659.901	107.44
660.105	112.44
660.309	91.44
660.512	99.44
660.716	97.44
660.919	89.44
661.123	96.44
661.326	90.44
661.53	90.44
661.733	78.44
661.936	79.44
662.14	84.44
662.343	100.44
662.546	75.44
662.75	91.44
662.953	88.44
663.156	95.44
663.36	90.44
663.563	68.44
663.766	90.44
663.969	79.44
664.173	77.44
664.376	84.44
664.579	68.44
664.782	68.44
664.985	70.44
665.188	84.44
665.391	81.44
665.594	78.44
665.797	71.44
666	70.44
666.203	92.44
666.406	87.44
666.609	82.44
666.812	74.44
667.015	75.44
667.218	88.44
667.421	78.44
667.624	72.44
667.827	85.44
668.03	78.44
668.232	80.44
668.435	72.44
668.638	81.44
668.841	85.44
669.043	82.44
669.246	85.44
669.449	74.44
669.651	87.44
669.854	78.44
670.057	83.44
670.259	79.44
670.462	79.44
670.665	67.44
670.867	73.44
671.07	84.44
671.272	71.44
671.475	83.44
671.677	73.44
671.88	85.44
672.082	84.44
672.284	82.44
672.487	77.44
672.689	81.44
672.892	70.44
