Data from 1975.PennyLincolnUp.Lamp.En5.5.200Scan.071719.P1.Changed Mount._HRD10591_15-56-14-858.txt Node
Date: Thu Jul 18 15:56:14 EDT 2019
User: cochatt
Spectrometer: HR+D1059
Trigger mode: 1
Integration Time (sec): 1.000000E-1
Scans to average: 1
Electric dark correction enabled: true
Nonlinearity correction enabled: false
Boxcar width: 0
XAxis mode: Wavelengths
Number of Pixels in Spectrum: 2048
>>>>>Begin Spectral Data<<<<<
223.165	-13.12
223.4	-13.12
223.635	-13.12
223.869	-14.12
224.104	-18.12
224.338	-10.12
224.573	-14.12
224.808	-17.12
225.042	-16.12
225.277	-8.12
225.511	-1.12
225.746	0.88
225.98	2.88
226.215	8.88
226.449	26.88
226.683	22.88
226.918	35.88
227.152	13.88
227.387	40.88
227.621	28.88
227.856	30.88
228.09	30.88
228.324	46.88
228.559	60.88
228.793	73.88
229.027	88.88
229.262	107.88
229.496	107.88
229.73	120.88
229.964	149.88
230.199	112.88
230.433	104.88
230.667	106.88
230.901	108.88
231.136	100.88
231.37	118.88
231.604	99.88
231.838	111.88
232.072	110.88
232.306	126.88
232.541	109.88
232.775	120.88
233.009	113.88
233.243	122.88
233.477	118.88
233.711	120.88
233.945	107.88
234.179	119.88
234.413	121.88
234.647	103.88
234.881	118.88
235.115	118.88
235.349	106.88
235.583	103.88
235.817	120.88
236.051	111.88
236.285	117.88
236.519	116.88
236.753	119.88
236.987	148.88
237.221	156.88
237.455	205.88
237.689	157.88
237.922	142.88
238.156	135.88
238.39	131.88
238.624	135.88
238.858	114.88
239.091	125.88
239.325	104.88
239.559	125.88
239.793	133.88
240.027	133.88
240.26	131.88
240.494	153.88
240.728	145.88
240.961	151.88
241.195	155.88
241.429	140.88
241.662	127.88
241.896	110.88
242.13	129.88
242.363	124.88
242.597	129.88
242.83	145.88
243.064	130.88
243.298	135.88
243.531	135.88
243.765	133.88
243.998	140.88
244.232	136.88
244.465	147.88
244.699	144.88
244.932	147.88
245.166	152.88
245.399	137.88
245.633	145.88
245.866	157.88
246.099	154.88
246.333	148.88
246.566	161.88
246.8	164.88
247.033	151.88
247.266	158.88
247.5	170.88
247.733	170.88
247.966	153.88
248.2	160.88
248.433	154.88
248.666	173.88
248.899	174.88
249.133	175.88
249.366	183.88
249.599	190.88
249.832	169.88
250.066	170.88
250.299	193.88
250.532	171.88
250.765	187.88
250.998	205.88
251.231	209.88
251.465	212.88
251.698	212.88
251.931	190.88
252.164	187.88
252.397	217.88
252.63	185.88
252.863	197.88
253.096	192.88
253.329	223.88
253.562	215.88
253.795	213.88
254.028	207.88
254.261	228.88
254.494	209.88
254.727	218.88
254.96	255.88
255.193	254.88
255.426	241.88
255.659	228.88
255.892	215.88
256.124	220.88
256.357	226.88
256.59	234.88
256.823	198.88
257.056	198.88
257.289	190.88
257.521	215.88
257.754	214.88
257.987	200.88
258.22	209.88
258.452	206.88
258.685	208.88
258.918	215.88
259.151	204.88
259.383	229.88
259.616	215.88
259.849	205.88
260.081	228.88
260.314	229.88
260.547	263.88
260.779	231.88
261.012	226.88
261.244	217.88
261.477	212.88
261.71	187.88
261.942	217.88
262.175	219.88
262.407	226.88
262.64	226.88
262.872	208.88
263.105	221.88
263.337	215.88
263.57	208.88
263.802	198.88
264.035	222.88
264.267	210.88
264.499	205.88
264.732	216.88
264.964	213.88
265.197	224.88
265.429	219.88
265.661	217.88
265.894	228.88
266.126	218.88
266.358	224.88
266.591	204.88
266.823	208.88
267.055	223.88
267.287	224.88
267.52	230.88
267.752	219.88
267.984	226.88
268.216	229.88
268.448	235.88
268.681	232.88
268.913	233.88
269.145	260.88
269.377	268.88
269.609	275.88
269.841	257.88
270.073	254.88
270.306	274.88
270.538	293.88
270.77	300.88
271.002	285.88
271.234	281.88
271.466	274.88
271.698	319.88
271.93	301.88
272.162	285.88
272.394	305.88
272.626	298.88
272.858	295.88
273.09	269.88
273.322	284.88
273.553	266.88
273.785	261.88
274.017	262.88
274.249	236.88
274.481	265.88
274.713	254.88
274.945	260.88
275.176	243.88
275.408	259.88
275.64	253.88
275.872	249.88
276.104	264.88
276.335	262.88
276.567	266.88
276.799	291.88
277.031	284.88
277.262	289.88
277.494	303.88
277.726	287.88
277.957	278.88
278.189	284.88
278.421	280.88
278.652	265.88
278.884	279.88
279.115	264.88
279.347	284.88
279.579	252.88
279.81	271.88
280.042	261.88
280.273	268.88
280.505	257.88
280.736	263.88
280.968	272.88
281.199	259.88
281.431	249.88
281.662	275.88
281.894	259.88
282.125	267.88
282.356	281.88
282.588	281.88
282.819	282.88
283.051	263.88
283.282	294.88
283.513	279.88
283.745	279.88
283.976	272.88
284.207	273.88
284.439	267.88
284.67	290.88
284.901	254.88
285.132	276.88
285.364	274.88
285.595	290.88
285.826	298.88
286.057	278.88
286.288	291.88
286.52	263.88
286.751	276.88
286.982	289.88
287.213	297.88
287.444	283.88
287.675	298.88
287.906	285.88
288.138	311.88
288.369	305.88
288.6	301.88
288.831	303.88
289.062	299.88
289.293	300.88
289.524	271.88
289.755	293.88
289.986	294.88
290.217	301.88
290.448	284.88
290.679	264.88
290.91	279.88
291.141	297.88
291.371	286.88
291.602	277.88
291.833	291.88
292.064	293.88
292.295	305.88
292.526	284.88
292.757	294.88
292.987	264.88
293.218	285.88
293.449	302.88
293.68	299.88
293.91	299.88
294.141	287.88
294.372	271.88
294.603	297.88
294.833	299.88
295.064	305.88
295.295	297.88
295.525	291.88
295.756	293.88
295.987	317.88
296.217	321.88
296.448	309.88
296.679	321.88
296.909	309.88
297.14	295.88
297.37	294.88
297.601	317.88
297.831	296.88
298.062	287.88
298.292	294.88
298.523	298.88
298.753	302.88
298.984	313.88
299.214	307.88
299.445	300.88
299.675	316.88
299.905	311.88
300.136	309.88
300.366	320.88
300.597	302.88
300.827	328.88
301.057	321.88
301.288	320.88
301.518	308.88
301.748	335.88
301.979	321.88
302.209	325.88
302.439	331.88
302.669	331.88
302.9	319.88
303.13	329.88
303.36	339.88
303.59	325.88
303.82	316.88
304.051	325.88
304.281	319.88
304.511	317.88
304.741	339.88
304.971	336.88
305.201	332.88
305.431	327.88
305.661	328.88
305.891	315.88
306.121	316.88
306.352	325.88
306.582	341.88
306.812	329.88
307.042	329.88
307.272	323.88
307.502	320.88
307.731	317.88
307.961	338.88
308.191	337.88
308.421	342.88
308.651	332.88
308.881	337.88
309.111	327.88
309.341	308.88
309.571	353.88
309.8	344.88
310.03	352.88
310.26	360.88
310.49	346.88
310.72	346.88
310.949	389.88
311.179	366.88
311.409	364.88
311.639	374.88
311.868	359.88
312.098	352.88
312.328	366.88
312.557	363.88
312.787	360.88
313.017	366.88
313.246	391.88
313.476	357.88
313.706	377.88
313.935	381.88
314.165	384.88
314.394	377.88
314.624	364.88
314.853	359.88
315.083	370.88
315.312	365.88
315.542	360.88
315.771	375.88
316.001	374.88
316.23	351.88
316.46	362.88
316.689	369.88
316.919	354.88
317.148	389.88
317.377	374.88
317.607	362.88
317.836	367.88
318.065	366.88
318.295	365.88
318.524	366.88
318.753	358.88
318.983	349.88
319.212	361.88
319.441	372.88
319.67	376.88
319.9	379.88
320.129	369.88
320.358	358.88
320.587	364.88
320.816	379.88
321.046	375.88
321.275	385.88
321.504	369.88
321.733	389.88
321.962	394.88
322.191	402.88
322.42	394.88
322.649	415.88
322.878	389.88
323.108	424.88
323.337	423.88
323.566	440.88
323.795	449.88
324.024	493.88
324.253	543.88
324.482	753.88
324.71	1132.88
324.939	1660.88
325.168	1417.88
325.397	746.88
325.626	538.88
325.855	485.88
326.084	460.88
326.313	440.88
326.542	446.88
326.77	474.88
326.999	520.88
327.228	708.88
327.457	1018.88
327.686	1265.88
327.914	851.88
328.143	570.88
328.372	527.88
328.6	517.88
328.829	491.88
329.058	505.88
329.287	507.88
329.515	485.88
329.744	453.88
329.972	482.88
330.201	469.88
330.43	501.88
330.658	535.88
330.887	553.88
331.115	513.88
331.344	458.88
331.572	436.88
331.801	444.88
332.03	448.88
332.258	429.88
332.486	426.88
332.715	411.88
332.943	442.88
333.172	458.88
333.4	461.88
333.629	473.88
333.857	468.88
334.085	471.88
334.314	487.88
334.542	542.88
334.771	523.88
334.999	499.88
335.227	457.88
335.455	480.88
335.684	450.88
335.912	464.88
336.14	464.88
336.369	461.88
336.597	457.88
336.825	450.88
337.053	421.88
337.281	435.88
337.51	415.88
337.738	417.88
337.966	443.88
338.194	453.88
338.422	455.88
338.65	438.88
338.878	420.88
339.106	424.88
339.334	425.88
339.562	422.88
339.79	436.88
340.018	414.88
340.246	425.88
340.474	411.88
340.702	420.88
340.93	414.88
341.158	421.88
341.386	430.88
341.614	427.88
341.842	417.88
342.07	421.88
342.298	409.88
342.526	413.88
342.754	408.88
342.981	405.88
343.209	419.88
343.437	441.88
343.665	435.88
343.893	414.88
344.12	468.88
344.348	448.88
344.576	438.88
344.804	451.88
345.031	443.88
345.259	455.88
345.487	442.88
345.714	423.88
345.942	400.88
346.17	410.88
346.397	394.88
346.625	417.88
346.853	405.88
347.08	419.88
347.308	394.88
347.535	414.88
347.763	424.88
347.99	397.88
348.218	425.88
348.445	392.88
348.673	427.88
348.9	402.88
349.128	400.88
349.355	395.88
349.583	395.88
349.81	405.88
350.037	407.88
350.265	389.88
350.492	412.88
350.72	413.88
350.947	399.88
351.174	427.88
351.402	426.88
351.629	404.88
351.856	425.88
352.083	392.88
352.311	415.88
352.538	418.88
352.765	409.88
352.992	417.88
353.22	413.88
353.447	411.88
353.674	401.88
353.901	410.88
354.128	386.88
354.355	399.88
354.583	395.88
354.81	409.88
355.037	375.88
355.264	389.88
355.491	408.88
355.718	384.88
355.945	376.88
356.172	373.88
356.399	380.88
356.626	392.88
356.853	397.88
357.08	407.88
357.307	393.88
357.534	393.88
357.761	380.88
357.988	389.88
358.215	395.88
358.441	390.88
358.668	393.88
358.895	401.88
359.122	409.88
359.349	389.88
359.576	379.88
359.802	409.88
360.029	429.88
360.256	439.88
360.483	419.88
360.709	400.88
360.936	407.88
361.163	417.88
361.39	383.88
361.616	399.88
361.843	388.88
362.07	400.88
362.296	396.88
362.523	413.88
362.749	420.88
362.976	401.88
363.203	396.88
363.429	398.88
363.656	390.88
363.882	390.88
364.109	380.88
364.335	401.88
364.562	390.88
364.788	411.88
365.015	410.88
365.241	401.88
365.468	383.88
365.694	397.88
365.92	405.88
366.147	383.88
366.373	407.88
366.599	370.88
366.826	393.88
367.052	399.88
367.278	415.88
367.505	387.88
367.731	407.88
367.957	403.88
368.184	383.88
368.41	422.88
368.636	428.88
368.862	419.88
369.089	407.88
369.315	410.88
369.541	425.88
369.767	391.88
369.993	401.88
370.219	396.88
370.445	401.88
370.672	397.88
370.898	395.88
371.124	402.88
371.35	392.88
371.576	410.88
371.802	400.88
372.028	414.88
372.254	403.88
372.48	419.88
372.706	418.88
372.932	431.88
373.158	396.88
373.384	409.88
373.61	416.88
373.835	422.88
374.061	433.88
374.287	417.88
374.513	426.88
374.739	427.88
374.965	429.88
375.191	420.88
375.416	416.88
375.642	431.88
375.868	435.88
376.094	410.88
376.319	421.88
376.545	429.88
376.771	408.88
376.997	412.88
377.222	412.88
377.448	428.88
377.674	394.88
377.899	403.88
378.125	397.88
378.35	405.88
378.576	392.88
378.802	397.88
379.027	415.88
379.253	420.88
379.478	400.88
379.704	409.88
379.929	397.88
380.155	402.88
380.38	398.88
380.606	439.88
380.831	398.88
381.057	423.88
381.282	417.88
381.507	417.88
381.733	418.88
381.958	411.88
382.184	422.88
382.409	424.88
382.634	423.88
382.86	420.88
383.085	405.88
383.31	424.88
383.535	420.88
383.761	429.88
383.986	443.88
384.211	434.88
384.436	452.88
384.662	459.88
384.887	460.88
385.112	453.88
385.337	473.88
385.562	462.88
385.787	454.88
386.013	458.88
386.238	472.88
386.463	454.88
386.688	430.88
386.913	463.88
387.138	439.88
387.363	472.88
387.588	445.88
387.813	463.88
388.038	463.88
388.263	472.88
388.488	474.88
388.713	449.88
388.938	448.88
389.163	438.88
389.387	467.88
389.612	467.88
389.837	468.88
390.062	470.88
390.287	471.88
390.512	474.88
390.736	445.88
390.961	454.88
391.186	441.88
391.411	475.88
391.636	478.88
391.86	461.88
392.085	482.88
392.31	486.88
392.534	482.88
392.759	480.88
392.984	473.88
393.208	456.88
393.433	449.88
393.658	471.88
393.882	470.88
394.107	467.88
394.331	475.88
394.556	461.88
394.78	472.88
395.005	467.88
395.229	483.88
395.454	485.88
395.678	474.88
395.903	487.88
396.127	525.88
396.352	512.88
396.576	511.88
396.801	501.88
397.025	469.88
397.249	499.88
397.474	491.88
397.698	505.88
397.922	511.88
398.147	511.88
398.371	528.88
398.595	529.88
398.82	538.88
399.044	539.88
399.268	537.88
399.492	605.88
399.717	654.88
399.941	679.88
400.165	679.88
400.389	667.88
400.613	610.88
400.837	569.88
401.062	559.88
401.286	561.88
401.51	541.88
401.734	513.88
401.958	546.88
402.182	546.88
402.406	570.88
402.63	580.88
402.854	559.88
403.078	556.88
403.302	579.88
403.526	565.88
403.75	574.88
403.974	558.88
404.198	529.88
404.422	564.88
404.645	556.88
404.869	571.88
405.093	595.88
405.317	599.88
405.541	678.88
405.765	634.88
405.988	604.88
406.212	587.88
406.436	617.88
406.66	610.88
406.883	607.88
407.107	599.88
407.331	670.88
407.555	730.88
407.778	728.88
408.002	674.88
408.226	626.88
408.449	618.88
408.673	599.88
408.896	661.88
409.12	676.88
409.344	638.88
409.567	593.88
409.791	579.88
410.014	571.88
410.238	554.88
410.461	569.88
410.685	547.88
410.908	575.88
411.132	609.88
411.355	645.88
411.578	617.88
411.802	574.88
412.025	575.88
412.249	582.88
412.472	604.88
412.695	629.88
412.919	606.88
413.142	569.88
413.365	545.88
413.589	542.88
413.812	529.88
414.035	555.88
414.258	568.88
414.482	549.88
414.705	547.88
414.928	537.88
415.151	530.88
415.374	534.88
415.597	516.88
415.821	533.88
416.044	539.88
416.267	543.88
416.49	549.88
416.713	519.88
416.936	547.88
417.159	515.88
417.382	521.88
417.605	536.88
417.828	550.88
418.051	557.88
418.274	546.88
418.497	519.88
418.72	532.88
418.943	545.88
419.166	560.88
419.389	593.88
419.611	579.88
419.834	572.88
420.057	562.88
420.28	586.88
420.503	545.88
420.726	563.88
420.948	557.88
421.171	606.88
421.394	619.88
421.617	573.88
421.839	565.88
422.062	531.88
422.285	553.88
422.507	611.88
422.73	703.88
422.953	633.88
423.175	569.88
423.398	595.88
423.621	579.88
423.843	596.88
424.066	605.88
424.288	595.88
424.511	613.88
424.733	645.88
424.956	727.88
425.178	683.88
425.401	693.88
425.623	710.88
425.846	604.88
426.068	575.88
426.291	593.88
426.513	574.88
426.735	576.88
426.958	608.88
427.18	671.88
427.402	815.88
427.625	913.88
427.847	759.88
428.069	660.88
428.292	605.88
428.514	550.88
428.736	559.88
428.958	552.88
429.181	527.88
429.403	517.88
429.625	533.88
429.847	562.88
430.069	617.88
430.292	626.88
430.514	552.88
430.736	518.88
430.958	542.88
431.18	509.88
431.402	528.88
431.624	512.88
431.846	531.88
432.068	536.88
432.29	505.88
432.512	490.88
432.734	499.88
432.956	523.88
433.178	514.88
433.4	520.88
433.622	486.88
433.844	512.88
434.066	514.88
434.287	502.88
434.509	520.88
434.731	512.88
434.953	537.88
435.175	563.88
435.397	577.88
435.618	582.88
435.84	597.88
436.062	703.88
436.284	805.88
436.505	649.88
436.727	579.88
436.949	543.88
437.17	501.88
437.392	523.88
437.614	557.88
437.835	553.88
438.057	627.88
438.278	739.88
438.5	741.88
438.721	805.88
438.943	800.88
439.165	636.88
439.386	593.88
439.608	574.88
439.829	558.88
440.05	583.88
440.272	664.88
440.493	569.88
440.715	572.88
440.936	544.88
441.158	539.88
441.379	540.88
441.6	533.88
441.822	578.88
442.043	602.88
442.264	692.88
442.486	743.88
442.707	621.88
442.928	587.88
443.149	603.88
443.371	607.88
443.592	636.88
443.813	719.88
444.034	821.88
444.255	674.88
444.476	612.88
444.698	602.88
444.919	619.88
445.14	693.88
445.361	635.88
445.582	614.88
445.803	664.88
446.024	740.88
446.245	780.88
446.466	691.88
446.687	602.88
446.908	580.88
447.129	547.88
447.35	531.88
447.571	537.88
447.792	523.88
448.013	525.88
448.234	536.88
448.455	575.88
448.675	714.88
448.896	809.88
449.117	672.88
449.338	638.88
449.559	758.88
449.779	856.88
450	667.88
450.221	560.88
450.442	549.88
450.662	509.88
450.883	527.88
451.104	541.88
451.324	480.88
451.545	487.88
451.766	497.88
451.986	449.88
452.207	477.88
452.428	460.88
452.648	457.88
452.869	484.88
453.089	462.88
453.31	481.88
453.53	472.88
453.751	466.88
453.971	434.88
454.192	472.88
454.412	469.88
454.633	450.88
454.853	481.88
455.073	465.88
455.294	461.88
455.514	540.88
455.734	537.88
455.955	472.88
456.175	457.88
456.395	463.88
456.616	453.88
456.836	447.88
457.056	422.88
457.276	450.88
457.497	433.88
457.717	433.88
457.937	455.88
458.157	459.88
458.377	443.88
458.598	482.88
458.818	522.88
459.038	582.88
459.258	619.88
459.478	555.88
459.698	517.88
459.918	515.88
460.138	502.88
460.358	521.88
460.578	526.88
460.798	535.88
461.018	553.88
461.238	528.88
461.458	550.88
461.678	534.88
461.898	557.88
462.118	534.88
462.338	551.88
462.558	555.88
462.777	554.88
462.997	594.88
463.217	619.88
463.437	600.88
463.657	591.88
463.876	601.88
464.096	583.88
464.316	577.88
464.536	578.88
464.755	580.88
464.975	567.88
465.195	587.88
465.414	629.88
465.634	554.88
465.854	526.88
466.073	520.88
466.293	500.88
466.512	497.88
466.732	465.88
466.951	501.88
467.171	495.88
467.391	483.88
467.61	489.88
467.829	481.88
468.049	488.88
468.268	474.88
468.488	472.88
468.707	485.88
468.927	467.88
469.146	478.88
469.365	469.88
469.585	484.88
469.804	469.88
470.023	508.88
470.243	491.88
470.462	490.88
470.681	509.88
470.901	481.88
471.12	495.88
471.339	499.88
471.558	494.88
471.777	496.88
471.997	500.88
472.216	498.88
472.435	526.88
472.654	522.88
472.873	509.88
473.092	471.88
473.311	489.88
473.53	483.88
473.749	490.88
473.968	497.88
474.187	621.88
474.406	630.88
474.625	537.88
474.844	493.88
475.063	499.88
475.282	499.88
475.501	465.88
475.72	513.88
475.939	501.88
476.158	515.88
476.377	533.88
476.596	487.88
476.814	507.88
477.033	515.88
477.252	553.88
477.471	503.88
477.69	525.88
477.908	546.88
478.127	549.88
478.346	551.88
478.564	554.88
478.783	544.88
479.002	572.88
479.22	563.88
479.439	556.88
479.658	589.88
479.876	581.88
480.095	569.88
480.313	630.88
480.532	603.88
480.751	605.88
480.969	617.88
481.188	666.88
481.406	692.88
481.624	609.88
481.843	615.88
482.061	567.88
482.28	580.88
482.498	596.88
482.717	568.88
482.935	572.88
483.153	577.88
483.372	568.88
483.59	573.88
483.808	568.88
484.027	561.88
484.245	597.88
484.463	568.88
484.681	598.88
484.9	601.88
485.118	596.88
485.336	590.88
485.554	580.88
485.772	611.88
485.99	611.88
486.209	607.88
486.427	594.88
486.645	598.88
486.863	625.88
487.081	614.88
487.299	603.88
487.517	621.88
487.735	630.88
487.953	600.88
488.171	605.88
488.389	610.88
488.607	599.88
488.825	614.88
489.043	600.88
489.261	629.88
489.479	641.88
489.696	627.88
489.914	627.88
490.132	642.88
490.35	653.88
490.568	637.88
490.786	675.88
491.003	643.88
491.221	682.88
491.439	678.88
491.657	684.88
491.874	699.88
492.092	708.88
492.31	737.88
492.527	732.88
492.745	709.88
492.963	724.88
493.18	738.88
493.398	756.88
493.615	724.88
493.833	730.88
494.05	723.88
494.268	710.88
494.485	701.88
494.703	705.88
494.92	716.88
495.138	737.88
495.355	715.88
495.573	727.88
495.79	725.88
496.008	729.88
496.225	734.88
496.442	757.88
496.66	743.88
496.877	721.88
497.094	749.88
497.312	734.88
497.529	764.88
497.746	776.88
497.963	781.88
498.181	781.88
498.398	811.88
498.615	843.88
498.832	876.88
499.049	889.88
499.267	888.88
499.484	939.88
499.701	1026.88
499.918	1027.88
500.135	1086.88
500.352	1128.88
500.569	1155.88
500.786	1192.88
501.003	1159.88
501.22	1137.88
501.437	1046.88
501.654	1015.88
501.871	963.88
502.088	940.88
502.305	890.88
502.522	877.88
502.739	829.88
502.956	804.88
503.172	799.88
503.389	775.88
503.606	788.88
503.823	769.88
504.04	781.88
504.256	758.88
504.473	735.88
504.69	733.88
504.907	771.88
505.123	740.88
505.34	707.88
505.557	698.88
505.773	713.88
505.99	714.88
506.207	671.88
506.423	681.88
506.64	664.88
506.856	669.88
507.073	654.88
507.289	665.88
507.506	661.88
507.722	653.88
507.939	656.88
508.155	647.88
508.372	663.88
508.588	631.88
508.805	669.88
509.021	652.88
509.238	647.88
509.454	634.88
509.67	643.88
509.887	647.88
510.103	634.88
510.319	632.88
510.536	674.88
510.752	981.88
510.968	823.88
511.184	622.88
511.401	595.88
511.617	620.88
511.833	599.88
512.049	616.88
512.265	617.88
512.481	618.88
512.698	598.88
512.914	615.88
513.13	601.88
513.346	617.88
513.562	607.88
513.778	610.88
513.994	609.88
514.21	606.88
514.426	634.88
514.642	641.88
514.858	682.88
515.074	679.88
515.29	737.88
515.506	982.88
515.721	857.88
515.937	701.88
516.153	664.88
516.369	641.88
516.585	623.88
516.801	626.88
517.016	632.88
517.232	641.88
517.448	647.88
517.664	648.88
517.879	655.88
518.095	625.88
518.311	666.88
518.527	653.88
518.742	641.88
518.958	630.88
519.173	628.88
519.389	607.88
519.605	606.88
519.82	619.88
520.036	607.88
520.251	628.88
520.467	636.88
520.682	631.88
520.898	629.88
521.113	641.88
521.329	664.88
521.544	719.88
521.76	814.88
521.975	1167.88
522.19	1165.88
522.406	778.88
522.621	615.88
522.836	589.88
523.052	599.88
523.267	544.88
523.482	553.88
523.698	568.88
523.913	537.88
524.128	547.88
524.343	554.88
524.559	528.88
524.774	547.88
524.989	555.88
525.204	548.88
525.419	516.88
525.634	537.88
525.849	534.88
526.064	505.88
526.28	505.88
526.495	525.88
526.71	545.88
526.925	489.88
527.14	482.88
527.355	521.88
527.57	481.88
527.785	489.88
527.999	510.88
528.214	498.88
528.429	493.88
528.644	509.88
528.859	521.88
529.074	505.88
529.289	511.88
529.503	575.88
529.718	525.88
529.933	521.88
530.148	499.88
530.363	513.88
530.577	511.88
530.792	507.88
531.007	485.88
531.221	473.88
531.436	477.88
531.651	494.88
531.865	472.88
532.08	499.88
532.295	492.88
532.509	491.88
532.724	461.88
532.938	493.88
533.153	467.88
533.367	497.88
533.582	497.88
533.796	485.88
534.011	485.88
534.225	505.88
534.44	474.88
534.654	494.88
534.868	488.88
535.083	485.88
535.297	461.88
535.511	470.88
535.726	474.88
535.94	487.88
536.154	488.88
536.369	464.88
536.583	460.88
536.797	455.88
537.011	481.88
537.225	462.88
537.44	470.88
537.654	472.88
537.868	462.88
538.082	473.88
538.296	476.88
538.51	484.88
538.724	450.88
538.938	481.88
539.153	469.88
539.367	466.88
539.581	480.88
539.795	464.88
540.009	445.88
540.222	463.88
540.436	459.88
540.65	465.88
540.864	476.88
541.078	455.88
541.292	477.88
541.506	475.88
541.72	483.88
541.934	471.88
542.147	478.88
542.361	468.88
542.575	457.88
542.789	453.88
543.002	442.88
543.216	455.88
543.43	453.88
543.644	455.88
543.857	472.88
544.071	455.88
544.285	474.88
544.498	489.88
544.712	456.88
544.925	462.88
545.139	462.88
545.352	477.88
545.566	472.88
545.779	468.88
545.993	480.88
546.206	465.88
546.42	478.88
546.633	470.88
546.847	458.88
547.06	463.88
547.274	460.88
547.487	454.88
547.7	465.88
547.914	467.88
548.127	474.88
548.34	455.88
548.554	453.88
548.767	451.88
548.98	486.88
549.193	453.88
549.407	456.88
549.62	441.88
549.833	473.88
550.046	453.88
550.259	459.88
550.473	459.88
550.686	449.88
550.899	454.88
551.112	472.88
551.325	445.88
551.538	449.88
551.751	454.88
551.964	456.88
552.177	456.88
552.39	450.88
552.603	479.88
552.816	455.88
553.029	472.88
553.242	473.88
553.455	475.88
553.667	483.88
553.88	471.88
554.093	482.88
554.306	482.88
554.519	471.88
554.732	456.88
554.944	446.88
555.157	453.88
555.37	429.88
555.583	441.88
555.795	423.88
556.008	437.88
556.221	459.88
556.433	428.88
556.646	409.88
556.859	418.88
557.071	424.88
557.284	431.88
557.496	420.88
557.709	397.88
557.921	398.88
558.134	417.88
558.346	417.88
558.559	428.88
558.771	434.88
558.984	407.88
559.196	395.88
559.409	410.88
559.621	401.88
559.833	399.88
560.046	385.88
560.258	401.88
560.47	417.88
560.683	380.88
560.895	407.88
561.107	406.88
561.32	397.88
561.532	384.88
561.744	405.88
561.956	404.88
562.168	400.88
562.381	410.88
562.593	391.88
562.805	407.88
563.017	416.88
563.229	419.88
563.441	421.88
563.653	398.88
563.865	388.88
564.077	403.88
564.289	425.88
564.501	406.88
564.713	435.88
564.925	425.88
565.137	448.88
565.349	449.88
565.561	459.88
565.773	454.88
565.985	459.88
566.197	466.88
566.408	505.88
566.62	509.88
566.832	543.88
567.044	545.88
567.255	538.88
567.467	563.88
567.679	557.88
567.891	589.88
568.102	562.88
568.314	575.88
568.526	539.88
568.737	514.88
568.949	471.88
569.161	468.88
569.372	437.88
569.584	407.88
569.795	428.88
570.007	427.88
570.218	450.88
570.43	441.88
570.641	410.88
570.853	408.88
571.064	419.88
571.276	396.88
571.487	388.88
571.698	406.88
571.91	395.88
572.121	412.88
572.333	378.88
572.544	383.88
572.755	378.88
572.966	380.88
573.178	356.88
573.389	364.88
573.6	362.88
573.811	362.88
574.023	355.88
574.234	344.88
574.445	355.88
574.656	334.88
574.867	343.88
575.078	373.88
575.289	343.88
575.501	346.88
575.712	363.88
575.923	336.88
576.134	334.88
576.345	340.88
576.556	334.88
576.767	353.88
576.978	334.88
577.188	339.88
577.399	329.88
577.61	327.88
577.821	348.88
578.032	325.88
578.243	356.88
578.454	472.88
578.665	389.88
578.875	338.88
579.086	325.88
579.297	331.88
579.508	325.88
579.718	317.88
579.929	338.88
580.14	322.88
580.35	318.88
580.561	327.88
580.772	332.88
580.982	325.88
581.193	317.88
581.403	318.88
581.614	308.88
581.825	319.88
582.035	319.88
582.246	315.88
582.456	324.88
582.667	324.88
582.877	308.88
583.087	309.88
583.298	310.88
583.508	305.88
583.719	295.88
583.929	313.88
584.139	322.88
584.35	331.88
584.56	307.88
584.77	321.88
584.981	316.88
585.191	318.88
585.401	302.88
585.611	291.88
585.821	309.88
586.032	320.88
586.242	318.88
586.452	307.88
586.662	299.88
586.872	302.88
587.082	312.88
587.292	299.88
587.502	316.88
587.713	298.88
587.923	302.88
588.133	302.88
588.343	318.88
588.553	289.88
588.762	301.88
588.972	302.88
589.182	318.88
589.392	326.88
589.602	296.88
589.812	299.88
590.022	309.88
590.232	324.88
590.441	332.88
590.651	324.88
590.861	317.88
591.071	319.88
591.281	318.88
591.49	311.88
591.7	314.88
591.91	313.88
592.119	317.88
592.329	329.88
592.539	326.88
592.748	319.88
592.958	337.88
593.167	338.88
593.377	346.88
593.587	339.88
593.796	340.88
594.006	335.88
594.215	344.88
594.424	346.88
594.634	362.88
594.843	347.88
595.053	326.88
595.262	335.88
595.472	325.88
595.681	322.88
595.89	318.88
596.1	313.88
596.309	305.88
596.518	287.88
596.727	305.88
596.937	308.88
597.146	298.88
597.355	290.88
597.564	291.88
597.774	298.88
597.983	282.88
598.192	289.88
598.401	279.88
598.61	281.88
598.819	277.88
599.028	269.88
599.237	263.88
599.446	275.88
599.655	275.88
599.864	278.88
600.073	275.88
600.282	284.88
600.491	279.88
600.7	275.88
600.909	270.88
601.118	283.88
601.327	281.88
601.536	289.88
601.745	270.88
601.953	254.88
602.162	269.88
602.371	274.88
602.58	263.88
602.789	281.88
602.997	255.88
603.206	271.88
603.415	271.88
603.623	262.88
603.832	264.88
604.041	261.88
604.249	257.88
604.458	244.88
604.666	255.88
604.875	242.88
605.084	266.88
605.292	246.88
605.501	263.88
605.709	253.88
605.918	241.88
606.126	250.88
606.334	261.88
606.543	251.88
606.751	255.88
606.96	261.88
607.168	269.88
607.376	276.88
607.585	260.88
607.793	244.88
608.001	249.88
608.21	243.88
608.418	270.88
608.626	266.88
608.834	257.88
609.043	234.88
609.251	264.88
609.459	236.88
609.667	266.88
609.875	262.88
610.083	263.88
610.291	235.88
610.499	250.88
610.707	234.88
610.916	239.88
611.124	254.88
611.332	248.88
611.54	247.88
611.748	264.88
611.955	261.88
612.163	252.88
612.371	234.88
612.579	252.88
612.787	265.88
612.995	247.88
613.203	243.88
613.411	237.88
613.618	251.88
613.826	230.88
614.034	249.88
614.242	252.88
614.449	249.88
614.657	258.88
614.865	238.88
615.072	244.88
615.28	260.88
615.488	248.88
615.695	232.88
615.903	244.88
616.111	229.88
616.318	257.88
616.526	243.88
616.733	253.88
616.941	257.88
617.148	265.88
617.356	238.88
617.563	251.88
617.771	232.88
617.978	251.88
618.185	229.88
618.393	244.88
618.6	241.88
618.807	247.88
619.015	255.88
619.222	242.88
619.429	233.88
619.637	252.88
619.844	229.88
620.051	229.88
620.258	229.88
620.466	217.88
620.673	244.88
620.88	236.88
621.087	233.88
621.294	226.88
621.501	221.88
621.708	235.88
621.915	245.88
622.122	234.88
622.329	229.88
622.536	234.88
622.743	241.88
622.95	235.88
623.157	228.88
623.364	219.88
623.571	230.88
623.778	227.88
623.985	238.88
624.192	225.88
624.399	213.88
624.606	216.88
624.812	220.88
625.019	221.88
625.226	230.88
625.433	214.88
625.639	221.88
625.846	194.88
626.053	226.88
626.259	219.88
626.466	217.88
626.673	217.88
626.879	210.88
627.086	231.88
627.293	228.88
627.499	228.88
627.706	225.88
627.912	208.88
628.119	189.88
628.325	210.88
628.532	211.88
628.738	202.88
628.945	213.88
629.151	225.88
629.357	210.88
629.564	226.88
629.77	206.88
629.976	193.88
630.183	205.88
630.389	201.88
630.595	210.88
630.802	188.88
631.008	200.88
631.214	206.88
631.42	207.88
631.627	200.88
631.833	203.88
632.039	190.88
632.245	200.88
632.451	206.88
632.657	211.88
632.863	184.88
633.069	198.88
633.275	210.88
633.481	209.88
633.688	181.88
633.893	194.88
634.099	197.88
634.305	204.88
634.511	213.88
634.717	189.88
634.923	193.88
635.129	193.88
635.335	211.88
635.541	198.88
635.747	178.88
635.952	189.88
636.158	202.88
636.364	169.88
636.57	180.88
636.775	197.88
636.981	194.88
637.187	190.88
637.392	195.88
637.598	170.88
637.804	194.88
638.009	194.88
638.215	173.88
638.421	181.88
638.626	180.88
638.832	188.88
639.037	181.88
639.243	194.88
639.448	175.88
639.654	178.88
639.859	172.88
640.065	173.88
640.27	181.88
640.475	186.88
640.681	167.88
640.886	181.88
641.091	166.88
641.297	176.88
641.502	179.88
641.707	177.88
641.913	184.88
642.118	169.88
642.323	178.88
642.528	170.88
642.733	173.88
642.939	186.88
643.144	177.88
643.349	163.88
643.554	182.88
643.759	186.88
643.964	172.88
644.169	191.88
644.374	174.88
644.579	163.88
644.784	167.88
644.989	180.88
645.194	189.88
645.399	181.88
645.604	179.88
645.809	172.88
646.014	164.88
646.219	189.88
646.423	179.88
646.628	176.88
646.833	183.88
647.038	181.88
647.243	186.88
647.447	167.88
647.652	173.88
647.857	168.88
648.062	179.88
648.266	185.88
648.471	174.88
648.676	177.88
648.88	188.88
649.085	198.88
649.289	186.88
649.494	180.88
649.698	179.88
649.903	197.88
650.107	178.88
650.312	165.88
650.516	161.88
650.721	168.88
650.925	174.88
651.13	173.88
651.334	155.88
651.539	149.88
651.743	165.88
651.947	166.88
652.152	161.88
652.356	146.88
652.56	153.88
652.764	143.88
652.969	147.88
653.173	141.88
653.377	155.88
653.581	142.88
653.785	146.88
653.99	151.88
654.194	145.88
654.398	157.88
654.602	142.88
654.806	149.88
655.01	142.88
655.214	147.88
655.418	139.88
655.622	149.88
655.826	159.88
656.03	143.88
656.234	140.88
656.438	158.88
656.642	143.88
656.846	150.88
657.049	141.88
657.253	141.88
657.457	130.88
657.661	129.88
657.865	117.88
658.068	105.88
658.272	121.88
658.476	111.88
658.68	106.88
658.883	99.88
659.087	105.88
659.291	109.88
659.494	110.88
659.698	97.88
659.901	97.88
660.105	106.88
660.309	116.88
660.512	107.88
660.716	86.88
660.919	94.88
661.123	92.88
661.326	93.88
661.53	85.88
661.733	86.88
661.936	88.88
662.14	91.88
662.343	93.88
662.546	89.88
662.75	93.88
662.953	90.88
663.156	85.88
663.36	93.88
663.563	90.88
663.766	95.88
663.969	73.88
664.173	84.88
664.376	77.88
664.579	82.88
664.782	100.88
664.985	76.88
665.188	94.88
665.391	99.88
665.594	101.88
665.797	92.88
666	88.88
666.203	78.88
666.406	64.88
666.609	92.88
666.812	92.88
667.015	84.88
667.218	92.88
667.421	89.88
667.624	85.88
667.827	85.88
668.03	79.88
668.232	71.88
668.435	77.88
668.638	67.88
668.841	92.88
669.043	87.88
669.246	69.88
669.449	85.88
669.651	75.88
669.854	100.88
670.057	89.88
670.259	79.88
670.462	78.88
670.665	71.88
670.867	85.88
671.07	92.88
671.272	83.88
671.475	77.88
671.677	67.88
671.88	85.88
672.082	88.88
672.284	74.88
672.487	88.88
672.689	66.88
672.892	79.88
