Data from 1975.PennyLincolnUp.Lamp.En5.5.200Scan.071719.P1.Changed Mount._HRD10591_15-56-18-858.txt Node
Date: Thu Jul 18 15:56:18 EDT 2019
User: cochatt
Spectrometer: HR+D1059
Trigger mode: 1
Integration Time (sec): 1.000000E-1
Scans to average: 1
Electric dark correction enabled: true
Nonlinearity correction enabled: false
Boxcar width: 0
XAxis mode: Wavelengths
Number of Pixels in Spectrum: 2048
>>>>>Begin Spectral Data<<<<<
223.165	-17.75
223.4	-17.75
223.635	-17.75
223.869	-11.75
224.104	-23.75
224.338	-10.75
224.573	-4.75
224.808	-20.75
225.042	-21.75
225.277	-1.75
225.511	8.25
225.746	2.25
225.98	8.25
226.215	20.25
226.449	17.25
226.683	9.25
226.918	21.25
227.152	26.25
227.387	28.25
227.621	37.25
227.856	44.25
228.09	43.25
228.324	47.25
228.559	59.25
228.793	53.25
229.027	95.25
229.262	104.25
229.496	109.25
229.73	130.25
229.964	143.25
230.199	134.25
230.433	108.25
230.667	104.25
230.901	88.25
231.136	100.25
231.37	114.25
231.604	119.25
231.838	107.25
232.072	115.25
232.306	117.25
232.541	110.25
232.775	114.25
233.009	104.25
233.243	113.25
233.477	113.25
233.711	118.25
233.945	120.25
234.179	111.25
234.413	117.25
234.647	102.25
234.881	114.25
235.115	96.25
235.349	116.25
235.583	113.25
235.817	127.25
236.051	128.25
236.285	122.25
236.519	118.25
236.753	132.25
236.987	156.25
237.221	175.25
237.455	220.25
237.689	183.25
237.922	150.25
238.156	118.25
238.39	128.25
238.624	132.25
238.858	135.25
239.091	127.25
239.325	135.25
239.559	127.25
239.793	125.25
240.027	122.25
240.26	144.25
240.494	156.25
240.728	138.25
240.961	154.25
241.195	161.25
241.429	134.25
241.662	132.25
241.896	139.25
242.13	143.25
242.363	129.25
242.597	126.25
242.83	138.25
243.064	145.25
243.298	126.25
243.531	141.25
243.765	128.25
243.998	147.25
244.232	146.25
244.465	137.25
244.699	141.25
244.932	140.25
245.166	145.25
245.399	151.25
245.633	157.25
245.866	141.25
246.099	150.25
246.333	162.25
246.566	159.25
246.8	156.25
247.033	156.25
247.266	154.25
247.5	155.25
247.733	168.25
247.966	170.25
248.2	166.25
248.433	166.25
248.666	172.25
248.899	199.25
249.133	204.25
249.366	191.25
249.599	185.25
249.832	178.25
250.066	179.25
250.299	191.25
250.532	182.25
250.765	210.25
250.998	215.25
251.231	224.25
251.465	207.25
251.698	195.25
251.931	172.25
252.164	199.25
252.397	210.25
252.63	189.25
252.863	211.25
253.096	211.25
253.329	222.25
253.562	230.25
253.795	214.25
254.028	208.25
254.261	199.25
254.494	208.25
254.727	236.25
254.96	255.25
255.193	258.25
255.426	236.25
255.659	230.25
255.892	227.25
256.124	241.25
256.357	223.25
256.59	218.25
256.823	222.25
257.056	210.25
257.289	212.25
257.521	223.25
257.754	214.25
257.987	195.25
258.22	187.25
258.452	209.25
258.685	199.25
258.918	197.25
259.151	210.25
259.383	215.25
259.616	230.25
259.849	221.25
260.081	231.25
260.314	232.25
260.547	261.25
260.779	236.25
261.012	230.25
261.244	217.25
261.477	222.25
261.71	216.25
261.942	215.25
262.175	234.25
262.407	214.25
262.64	217.25
262.872	200.25
263.105	218.25
263.337	211.25
263.57	196.25
263.802	206.25
264.035	201.25
264.267	224.25
264.499	218.25
264.732	225.25
264.964	199.25
265.197	210.25
265.429	224.25
265.661	218.25
265.894	217.25
266.126	221.25
266.358	217.25
266.591	213.25
266.823	219.25
267.055	242.25
267.287	227.25
267.52	205.25
267.752	221.25
267.984	238.25
268.216	227.25
268.448	238.25
268.681	235.25
268.913	258.25
269.145	249.25
269.377	277.25
269.609	272.25
269.841	266.25
270.073	255.25
270.306	271.25
270.538	292.25
270.77	288.25
271.002	306.25
271.234	297.25
271.466	295.25
271.698	310.25
271.93	302.25
272.162	306.25
272.394	291.25
272.626	293.25
272.858	274.25
273.09	291.25
273.322	256.25
273.553	254.25
273.785	266.25
274.017	268.25
274.249	261.25
274.481	268.25
274.713	269.25
274.945	271.25
275.176	256.25
275.408	269.25
275.64	256.25
275.872	267.25
276.104	244.25
276.335	277.25
276.567	288.25
276.799	278.25
277.031	307.25
277.262	315.25
277.494	317.25
277.726	301.25
277.957	282.25
278.189	281.25
278.421	265.25
278.652	258.25
278.884	252.25
279.115	291.25
279.347	274.25
279.579	267.25
279.81	273.25
280.042	262.25
280.273	274.25
280.505	290.25
280.736	277.25
280.968	282.25
281.199	266.25
281.431	274.25
281.662	261.25
281.894	280.25
282.125	271.25
282.356	272.25
282.588	293.25
282.819	297.25
283.051	277.25
283.282	273.25
283.513	272.25
283.745	291.25
283.976	285.25
284.207	282.25
284.439	269.25
284.67	276.25
284.901	281.25
285.132	289.25
285.364	300.25
285.595	280.25
285.826	281.25
286.057	297.25
286.288	287.25
286.52	294.25
286.751	284.25
286.982	283.25
287.213	288.25
287.444	289.25
287.675	290.25
287.906	299.25
288.138	302.25
288.369	290.25
288.6	295.25
288.831	294.25
289.062	310.25
289.293	303.25
289.524	306.25
289.755	290.25
289.986	298.25
290.217	291.25
290.448	296.25
290.679	296.25
290.91	299.25
291.141	292.25
291.371	296.25
291.602	304.25
291.833	298.25
292.064	295.25
292.295	292.25
292.526	301.25
292.757	290.25
292.987	303.25
293.218	294.25
293.449	308.25
293.68	304.25
293.91	297.25
294.141	310.25
294.372	308.25
294.603	310.25
294.833	309.25
295.064	309.25
295.295	315.25
295.525	296.25
295.756	311.25
295.987	299.25
296.217	313.25
296.448	327.25
296.679	317.25
296.909	307.25
297.14	317.25
297.37	322.25
297.601	297.25
297.831	304.25
298.062	306.25
298.292	300.25
298.523	313.25
298.753	330.25
298.984	311.25
299.214	318.25
299.445	312.25
299.675	310.25
299.905	323.25
300.136	324.25
300.366	333.25
300.597	332.25
300.827	315.25
301.057	338.25
301.288	313.25
301.518	338.25
301.748	329.25
301.979	320.25
302.209	302.25
302.439	331.25
302.669	327.25
302.9	324.25
303.13	319.25
303.36	314.25
303.59	331.25
303.82	343.25
304.051	328.25
304.281	343.25
304.511	336.25
304.741	298.25
304.971	319.25
305.201	324.25
305.431	312.25
305.661	327.25
305.891	330.25
306.121	314.25
306.352	330.25
306.582	335.25
306.812	351.25
307.042	327.25
307.272	337.25
307.502	339.25
307.731	341.25
307.961	351.25
308.191	346.25
308.421	335.25
308.651	345.25
308.881	336.25
309.111	343.25
309.341	333.25
309.571	344.25
309.8	355.25
310.03	344.25
310.26	349.25
310.49	365.25
310.72	361.25
310.949	380.25
311.179	369.25
311.409	374.25
311.639	347.25
311.868	365.25
312.098	373.25
312.328	372.25
312.557	394.25
312.787	394.25
313.017	378.25
313.246	379.25
313.476	372.25
313.706	360.25
313.935	364.25
314.165	380.25
314.394	393.25
314.624	391.25
314.853	386.25
315.083	382.25
315.312	367.25
315.542	381.25
315.771	378.25
316.001	378.25
316.23	348.25
316.46	370.25
316.689	360.25
316.919	365.25
317.148	374.25
317.377	383.25
317.607	386.25
317.836	359.25
318.065	374.25
318.295	367.25
318.524	356.25
318.753	365.25
318.983	380.25
319.212	363.25
319.441	383.25
319.67	379.25
319.9	370.25
320.129	364.25
320.358	358.25
320.587	351.25
320.816	383.25
321.046	389.25
321.275	376.25
321.504	386.25
321.733	356.25
321.962	401.25
322.191	386.25
322.42	378.25
322.649	411.25
322.878	420.25
323.108	405.25
323.337	461.25
323.566	443.25
323.795	475.25
324.024	502.25
324.253	557.25
324.482	749.25
324.71	1134.25
324.939	1693.25
325.168	1477.25
325.397	765.25
325.626	524.25
325.855	475.25
326.084	448.25
326.313	422.25
326.542	419.25
326.77	485.25
326.999	529.25
327.228	699.25
327.457	1038.25
327.686	1293.25
327.914	862.25
328.143	586.25
328.372	534.25
328.6	511.25
328.829	487.25
329.058	486.25
329.287	501.25
329.515	490.25
329.744	466.25
329.972	457.25
330.201	502.25
330.43	517.25
330.658	515.25
330.887	533.25
331.115	522.25
331.344	479.25
331.572	463.25
331.801	468.25
332.03	454.25
332.258	456.25
332.486	455.25
332.715	443.25
332.943	450.25
333.172	477.25
333.4	463.25
333.629	472.25
333.857	514.25
334.085	484.25
334.314	491.25
334.542	529.25
334.771	534.25
334.999	502.25
335.227	486.25
335.455	468.25
335.684	455.25
335.912	435.25
336.14	437.25
336.369	448.25
336.597	437.25
336.825	452.25
337.053	442.25
337.281	443.25
337.51	435.25
337.738	451.25
337.966	439.25
338.194	415.25
338.422	411.25
338.65	434.25
338.878	415.25
339.106	436.25
339.334	428.25
339.562	444.25
339.79	426.25
340.018	440.25
340.246	453.25
340.474	442.25
340.702	436.25
340.93	401.25
341.158	443.25
341.386	419.25
341.614	430.25
341.842	407.25
342.07	412.25
342.298	425.25
342.526	429.25
342.754	419.25
342.981	421.25
343.209	402.25
343.437	418.25
343.665	438.25
343.893	451.25
344.12	471.25
344.348	446.25
344.576	434.25
344.804	438.25
345.031	436.25
345.259	433.25
345.487	424.25
345.714	422.25
345.942	406.25
346.17	446.25
346.397	410.25
346.625	418.25
346.853	405.25
347.08	392.25
347.308	406.25
347.535	409.25
347.763	418.25
347.99	420.25
348.218	413.25
348.445	412.25
348.673	418.25
348.9	420.25
349.128	408.25
349.355	403.25
349.583	408.25
349.81	392.25
350.037	390.25
350.265	400.25
350.492	396.25
350.72	393.25
350.947	396.25
351.174	425.25
351.402	431.25
351.629	416.25
351.856	420.25
352.083	413.25
352.311	413.25
352.538	405.25
352.765	431.25
352.992	408.25
353.22	417.25
353.447	417.25
353.674	412.25
353.901	430.25
354.128	397.25
354.355	398.25
354.583	390.25
354.81	391.25
355.037	408.25
355.264	392.25
355.491	394.25
355.718	399.25
355.945	406.25
356.172	390.25
356.399	387.25
356.626	370.25
356.853	394.25
357.08	383.25
357.307	408.25
357.534	388.25
357.761	395.25
357.988	380.25
358.215	394.25
358.441	394.25
358.668	389.25
358.895	396.25
359.122	393.25
359.349	422.25
359.576	422.25
359.802	421.25
360.029	436.25
360.256	436.25
360.483	433.25
360.709	419.25
360.936	404.25
361.163	421.25
361.39	420.25
361.616	414.25
361.843	401.25
362.07	412.25
362.296	393.25
362.523	391.25
362.749	400.25
362.976	407.25
363.203	412.25
363.429	398.25
363.656	414.25
363.882	397.25
364.109	405.25
364.335	413.25
364.562	403.25
364.788	418.25
365.015	394.25
365.241	386.25
365.468	407.25
365.694	404.25
365.92	416.25
366.147	387.25
366.373	414.25
366.599	407.25
366.826	407.25
367.052	405.25
367.278	428.25
367.505	394.25
367.731	374.25
367.957	397.25
368.184	393.25
368.41	440.25
368.636	420.25
368.862	434.25
369.089	421.25
369.315	411.25
369.541	405.25
369.767	416.25
369.993	394.25
370.219	392.25
370.445	399.25
370.672	418.25
370.898	416.25
371.124	404.25
371.35	417.25
371.576	404.25
371.802	417.25
372.028	423.25
372.254	417.25
372.48	413.25
372.706	422.25
372.932	427.25
373.158	434.25
373.384	431.25
373.61	417.25
373.835	411.25
374.061	414.25
374.287	418.25
374.513	413.25
374.739	436.25
374.965	426.25
375.191	444.25
375.416	421.25
375.642	422.25
375.868	424.25
376.094	423.25
376.319	424.25
376.545	405.25
376.771	423.25
376.997	408.25
377.222	421.25
377.448	410.25
377.674	438.25
377.899	399.25
378.125	406.25
378.35	414.25
378.576	412.25
378.802	421.25
379.027	395.25
379.253	398.25
379.478	418.25
379.704	410.25
379.929	412.25
380.155	407.25
380.38	414.25
380.606	426.25
380.831	422.25
381.057	438.25
381.282	411.25
381.507	430.25
381.733	420.25
381.958	432.25
382.184	464.25
382.409	434.25
382.634	426.25
382.86	445.25
383.085	447.25
383.31	421.25
383.535	426.25
383.761	438.25
383.986	432.25
384.211	439.25
384.436	444.25
384.662	446.25
384.887	456.25
385.112	463.25
385.337	454.25
385.562	484.25
385.787	458.25
386.013	461.25
386.238	481.25
386.463	477.25
386.688	463.25
386.913	461.25
387.138	471.25
387.363	446.25
387.588	475.25
387.813	465.25
388.038	466.25
388.263	472.25
388.488	462.25
388.713	457.25
388.938	472.25
389.163	470.25
389.387	478.25
389.612	470.25
389.837	476.25
390.062	456.25
390.287	457.25
390.512	464.25
390.736	462.25
390.961	463.25
391.186	456.25
391.411	473.25
391.636	477.25
391.86	492.25
392.085	507.25
392.31	495.25
392.534	497.25
392.759	471.25
392.984	466.25
393.208	465.25
393.433	482.25
393.658	479.25
393.882	450.25
394.107	464.25
394.331	453.25
394.556	467.25
394.78	473.25
395.005	486.25
395.229	478.25
395.454	483.25
395.678	501.25
395.903	502.25
396.127	496.25
396.352	514.25
396.576	503.25
396.801	475.25
397.025	495.25
397.249	488.25
397.474	510.25
397.698	526.25
397.922	525.25
398.147	519.25
398.371	530.25
398.595	514.25
398.82	529.25
399.044	563.25
399.268	573.25
399.492	618.25
399.717	664.25
399.941	640.25
400.165	664.25
400.389	663.25
400.613	618.25
400.837	558.25
401.062	574.25
401.286	540.25
401.51	536.25
401.734	518.25
401.958	538.25
402.182	551.25
402.406	561.25
402.63	529.25
402.854	539.25
403.078	562.25
403.302	549.25
403.526	586.25
403.75	577.25
403.974	570.25
404.198	597.25
404.422	596.25
404.645	577.25
404.869	615.25
405.093	614.25
405.317	651.25
405.541	681.25
405.765	597.25
405.988	592.25
406.212	602.25
406.436	608.25
406.66	640.25
406.883	616.25
407.107	643.25
407.331	660.25
407.555	721.25
407.778	731.25
408.002	691.25
408.226	641.25
408.449	631.25
408.673	621.25
408.896	633.25
409.12	691.25
409.344	643.25
409.567	570.25
409.791	596.25
410.014	583.25
410.238	546.25
410.461	560.25
410.685	553.25
410.908	581.25
411.132	602.25
411.355	653.25
411.578	606.25
411.802	575.25
412.025	557.25
412.249	585.25
412.472	583.25
412.695	619.25
412.919	624.25
413.142	556.25
413.365	542.25
413.589	543.25
413.812	543.25
414.035	558.25
414.258	549.25
414.482	527.25
414.705	545.25
414.928	537.25
415.151	554.25
415.374	546.25
415.597	538.25
415.821	517.25
416.044	525.25
416.267	532.25
416.49	549.25
416.713	536.25
416.936	528.25
417.159	515.25
417.382	515.25
417.605	562.25
417.828	554.25
418.051	554.25
418.274	555.25
418.497	535.25
418.72	529.25
418.943	547.25
419.166	569.25
419.389	568.25
419.611	590.25
419.834	569.25
420.057	565.25
420.28	566.25
420.503	557.25
420.726	555.25
420.948	581.25
421.171	618.25
421.394	630.25
421.617	568.25
421.839	558.25
422.062	565.25
422.285	549.25
422.507	648.25
422.73	698.25
422.953	658.25
423.175	609.25
423.398	586.25
423.621	576.25
423.843	598.25
424.066	621.25
424.288	593.25
424.511	614.25
424.733	661.25
424.956	723.25
425.178	697.25
425.401	694.25
425.623	713.25
425.846	609.25
426.068	581.25
426.291	587.25
426.513	585.25
426.735	580.25
426.958	600.25
427.18	685.25
427.402	815.25
427.625	904.25
427.847	774.25
428.069	643.25
428.292	610.25
428.514	541.25
428.736	541.25
428.958	546.25
429.181	525.25
429.403	546.25
429.625	568.25
429.847	584.25
430.069	638.25
430.292	642.25
430.514	553.25
430.736	534.25
430.958	525.25
431.18	525.25
431.402	525.25
431.624	523.25
431.846	515.25
432.068	507.25
432.29	514.25
432.512	521.25
432.734	526.25
432.956	533.25
433.178	524.25
433.4	510.25
433.622	516.25
433.844	519.25
434.066	543.25
434.287	528.25
434.509	519.25
434.731	543.25
434.953	537.25
435.175	575.25
435.397	599.25
435.618	565.25
435.84	621.25
436.062	691.25
436.284	784.25
436.505	646.25
436.727	585.25
436.949	573.25
437.17	548.25
437.392	550.25
437.614	548.25
437.835	579.25
438.057	648.25
438.278	770.25
438.5	728.25
438.721	839.25
438.943	809.25
439.165	658.25
439.386	610.25
439.608	586.25
439.829	579.25
440.05	588.25
440.272	637.25
440.493	605.25
440.715	549.25
440.936	570.25
441.158	534.25
441.379	565.25
441.6	568.25
441.822	578.25
442.043	640.25
442.264	691.25
442.486	747.25
442.707	647.25
442.928	590.25
443.149	580.25
443.371	611.25
443.592	623.25
443.813	739.25
444.034	806.25
444.255	662.25
444.476	618.25
444.698	614.25
444.919	613.25
445.14	710.25
445.361	668.25
445.582	650.25
445.803	680.25
446.024	778.25
446.245	767.25
446.466	710.25
446.687	611.25
446.908	566.25
447.129	516.25
447.35	550.25
447.571	517.25
447.792	515.25
448.013	532.25
448.234	551.25
448.455	579.25
448.675	682.25
448.896	808.25
449.117	702.25
449.338	635.25
449.559	756.25
449.779	862.25
450	674.25
450.221	576.25
450.442	536.25
450.662	517.25
450.883	529.25
451.104	510.25
451.324	505.25
451.545	489.25
451.766	477.25
451.986	485.25
452.207	455.25
452.428	474.25
452.648	480.25
452.869	466.25
453.089	483.25
453.31	486.25
453.53	480.25
453.751	487.25
453.971	479.25
454.192	478.25
454.412	475.25
454.633	475.25
454.853	466.25
455.073	483.25
455.294	511.25
455.514	557.25
455.734	567.25
455.955	467.25
456.175	468.25
456.395	459.25
456.616	423.25
456.836	456.25
457.056	458.25
457.276	431.25
457.497	436.25
457.717	442.25
457.937	458.25
458.157	450.25
458.377	473.25
458.598	479.25
458.818	537.25
459.038	601.25
459.258	616.25
459.478	571.25
459.698	524.25
459.918	513.25
460.138	514.25
460.358	509.25
460.578	553.25
460.798	535.25
461.018	535.25
461.238	546.25
461.458	559.25
461.678	532.25
461.898	550.25
462.118	539.25
462.338	537.25
462.558	552.25
462.777	589.25
462.997	602.25
463.217	607.25
463.437	614.25
463.657	598.25
463.876	573.25
464.096	595.25
464.316	587.25
464.536	592.25
464.755	585.25
464.975	559.25
465.195	574.25
465.414	611.25
465.634	575.25
465.854	536.25
466.073	518.25
466.293	504.25
466.512	484.25
466.732	478.25
466.951	503.25
467.171	494.25
467.391	502.25
467.61	498.25
467.829	523.25
468.049	504.25
468.268	510.25
468.488	490.25
468.707	475.25
468.927	469.25
469.146	489.25
469.365	496.25
469.585	481.25
469.804	490.25
470.023	494.25
470.243	520.25
470.462	491.25
470.681	514.25
470.901	498.25
471.12	511.25
471.339	489.25
471.558	503.25
471.777	518.25
471.997	506.25
472.216	505.25
472.435	549.25
472.654	511.25
472.873	502.25
473.092	492.25
473.311	476.25
473.53	490.25
473.749	482.25
473.968	539.25
474.187	629.25
474.406	661.25
474.625	562.25
474.844	501.25
475.063	492.25
475.282	504.25
475.501	492.25
475.72	482.25
475.939	516.25
476.158	535.25
476.377	498.25
476.596	488.25
476.814	545.25
477.033	526.25
477.252	549.25
477.471	530.25
477.69	549.25
477.908	532.25
478.127	585.25
478.346	566.25
478.564	562.25
478.783	568.25
479.002	589.25
479.22	593.25
479.439	586.25
479.658	590.25
479.876	604.25
480.095	611.25
480.313	647.25
480.532	644.25
480.751	632.25
480.969	626.25
481.188	686.25
481.406	697.25
481.624	637.25
481.843	611.25
482.061	599.25
482.28	579.25
482.498	579.25
482.717	571.25
482.935	562.25
483.153	570.25
483.372	591.25
483.59	557.25
483.808	572.25
484.027	575.25
484.245	568.25
484.463	616.25
484.681	611.25
484.9	595.25
485.118	605.25
485.336	612.25
485.554	606.25
485.772	596.25
485.99	596.25
486.209	597.25
486.427	627.25
486.645	612.25
486.863	629.25
487.081	627.25
487.299	614.25
487.517	629.25
487.735	624.25
487.953	639.25
488.171	633.25
488.389	644.25
488.607	631.25
488.825	606.25
489.043	610.25
489.261	646.25
489.479	636.25
489.696	642.25
489.914	646.25
490.132	638.25
490.35	654.25
490.568	659.25
490.786	661.25
491.003	665.25
491.221	708.25
491.439	702.25
491.657	683.25
491.874	699.25
492.092	725.25
492.31	726.25
492.527	740.25
492.745	739.25
492.963	735.25
493.18	706.25
493.398	733.25
493.615	735.25
493.833	739.25
494.05	772.25
494.268	738.25
494.485	715.25
494.703	717.25
494.92	747.25
495.138	733.25
495.355	719.25
495.573	764.25
495.79	708.25
496.008	742.25
496.225	733.25
496.442	746.25
496.66	726.25
496.877	719.25
497.094	734.25
497.312	765.25
497.529	791.25
497.746	793.25
497.963	797.25
498.181	819.25
498.398	854.25
498.615	847.25
498.832	833.25
499.049	872.25
499.267	914.25
499.484	973.25
499.701	989.25
499.918	1054.25
500.135	1110.25
500.352	1155.25
500.569	1213.25
500.786	1221.25
501.003	1186.25
501.22	1127.25
501.437	1080.25
501.654	1056.25
501.871	1017.25
502.088	934.25
502.305	899.25
502.522	901.25
502.739	859.25
502.956	808.25
503.172	790.25
503.389	771.25
503.606	768.25
503.823	748.25
504.04	795.25
504.256	764.25
504.473	743.25
504.69	757.25
504.907	738.25
505.123	735.25
505.34	723.25
505.557	696.25
505.773	713.25
505.99	706.25
506.207	711.25
506.423	686.25
506.64	694.25
506.856	684.25
507.073	665.25
507.289	665.25
507.506	658.25
507.722	664.25
507.939	702.25
508.155	667.25
508.372	654.25
508.588	659.25
508.805	646.25
509.021	666.25
509.238	642.25
509.454	667.25
509.67	663.25
509.887	650.25
510.103	637.25
510.319	635.25
510.536	675.25
510.752	973.25
510.968	874.25
511.184	657.25
511.401	623.25
511.617	611.25
511.833	611.25
512.049	615.25
512.265	614.25
512.481	581.25
512.698	614.25
512.914	603.25
513.13	622.25
513.346	608.25
513.562	593.25
513.778	618.25
513.994	604.25
514.21	624.25
514.426	639.25
514.642	654.25
514.858	654.25
515.074	710.25
515.29	795.25
515.506	1002.25
515.721	866.25
515.937	709.25
516.153	650.25
516.369	634.25
516.585	645.25
516.801	633.25
517.016	655.25
517.232	656.25
517.448	661.25
517.664	644.25
517.879	655.25
518.095	656.25
518.311	650.25
518.527	661.25
518.742	639.25
518.958	635.25
519.173	631.25
519.389	631.25
519.605	593.25
519.82	617.25
520.036	590.25
520.251	634.25
520.467	642.25
520.682	639.25
520.898	632.25
521.113	634.25
521.329	671.25
521.544	706.25
521.76	785.25
521.975	1196.25
522.19	1190.25
522.406	725.25
522.621	635.25
522.836	591.25
523.052	571.25
523.267	572.25
523.482	538.25
523.698	548.25
523.913	544.25
524.128	546.25
524.343	537.25
524.559	537.25
524.774	526.25
524.989	538.25
525.204	555.25
525.419	541.25
525.634	526.25
525.849	507.25
526.064	512.25
526.28	515.25
526.495	522.25
526.71	495.25
526.925	522.25
527.14	495.25
527.355	498.25
527.57	502.25
527.785	499.25
527.999	497.25
528.214	502.25
528.429	512.25
528.644	508.25
528.859	509.25
529.074	504.25
529.289	524.25
529.503	580.25
529.718	569.25
529.933	554.25
530.148	540.25
530.363	523.25
530.577	530.25
530.792	506.25
531.007	500.25
531.221	500.25
531.436	504.25
531.651	500.25
531.865	499.25
532.08	492.25
532.295	495.25
532.509	514.25
532.724	481.25
532.938	476.25
533.153	500.25
533.367	486.25
533.582	488.25
533.796	506.25
534.011	488.25
534.225	482.25
534.44	477.25
534.654	487.25
534.868	504.25
535.083	462.25
535.297	474.25
535.511	504.25
535.726	514.25
535.94	487.25
536.154	483.25
536.369	493.25
536.583	501.25
536.797	482.25
537.011	470.25
537.225	472.25
537.44	469.25
537.654	485.25
537.868	470.25
538.082	474.25
538.296	487.25
538.51	499.25
538.724	470.25
538.938	464.25
539.153	472.25
539.367	483.25
539.581	489.25
539.795	486.25
540.009	472.25
540.222	472.25
540.436	481.25
540.65	484.25
540.864	477.25
541.078	487.25
541.292	502.25
541.506	459.25
541.72	459.25
541.934	460.25
542.147	474.25
542.361	488.25
542.575	441.25
542.789	478.25
543.002	468.25
543.216	469.25
543.43	483.25
543.644	476.25
543.857	488.25
544.071	481.25
544.285	478.25
544.498	463.25
544.712	457.25
544.925	475.25
545.139	478.25
545.352	468.25
545.566	458.25
545.779	470.25
545.993	473.25
546.206	489.25
546.42	470.25
546.633	448.25
546.847	461.25
547.06	481.25
547.274	462.25
547.487	456.25
547.7	479.25
547.914	457.25
548.127	463.25
548.34	463.25
548.554	454.25
548.767	468.25
548.98	473.25
549.193	448.25
549.407	462.25
549.62	457.25
549.833	471.25
550.046	459.25
550.259	450.25
550.473	456.25
550.686	469.25
550.899	455.25
551.112	467.25
551.325	457.25
551.538	442.25
551.751	460.25
551.964	447.25
552.177	451.25
552.39	470.25
552.603	492.25
552.816	487.25
553.029	459.25
553.242	474.25
553.455	476.25
553.667	492.25
553.88	484.25
554.093	472.25
554.306	465.25
554.519	461.25
554.732	485.25
554.944	450.25
555.157	454.25
555.37	438.25
555.583	438.25
555.795	442.25
556.008	451.25
556.221	438.25
556.433	414.25
556.646	415.25
556.859	426.25
557.071	412.25
557.284	397.25
557.496	419.25
557.709	404.25
557.921	413.25
558.134	406.25
558.346	411.25
558.559	409.25
558.771	406.25
558.984	417.25
559.196	398.25
559.409	381.25
559.621	420.25
559.833	413.25
560.046	405.25
560.258	405.25
560.47	394.25
560.683	404.25
560.895	406.25
561.107	412.25
561.32	394.25
561.532	397.25
561.744	412.25
561.956	417.25
562.168	398.25
562.381	422.25
562.593	414.25
562.805	406.25
563.017	412.25
563.229	406.25
563.441	419.25
563.653	424.25
563.865	422.25
564.077	429.25
564.289	419.25
564.501	409.25
564.713	417.25
564.925	452.25
565.137	456.25
565.349	441.25
565.561	468.25
565.773	456.25
565.985	478.25
566.197	472.25
566.408	509.25
566.62	503.25
566.832	531.25
567.044	547.25
567.255	543.25
567.467	527.25
567.679	564.25
567.891	583.25
568.102	573.25
568.314	572.25
568.526	542.25
568.737	507.25
568.949	476.25
569.161	473.25
569.372	463.25
569.584	450.25
569.795	433.25
570.007	422.25
570.218	454.25
570.43	460.25
570.641	427.25
570.853	430.25
571.064	425.25
571.276	405.25
571.487	404.25
571.698	393.25
571.91	378.25
572.121	378.25
572.333	381.25
572.544	370.25
572.755	385.25
572.966	360.25
573.178	353.25
573.389	366.25
573.6	334.25
573.811	345.25
574.023	371.25
574.234	344.25
574.445	347.25
574.656	367.25
574.867	348.25
575.078	370.25
575.289	354.25
575.501	350.25
575.712	356.25
575.923	347.25
576.134	349.25
576.345	328.25
576.556	358.25
576.767	341.25
576.978	354.25
577.188	363.25
577.399	363.25
577.61	335.25
577.821	334.25
578.032	350.25
578.243	357.25
578.454	485.25
578.665	410.25
578.875	344.25
579.086	320.25
579.297	323.25
579.508	329.25
579.718	322.25
579.929	346.25
580.14	336.25
580.35	316.25
580.561	320.25
580.772	322.25
580.982	338.25
581.193	329.25
581.403	309.25
581.614	339.25
581.825	330.25
582.035	321.25
582.246	318.25
582.456	329.25
582.667	316.25
582.877	325.25
583.087	331.25
583.298	333.25
583.508	326.25
583.719	326.25
583.929	327.25
584.139	308.25
584.35	316.25
584.56	317.25
584.77	296.25
584.981	322.25
585.191	317.25
585.401	308.25
585.611	312.25
585.821	317.25
586.032	294.25
586.242	331.25
586.452	297.25
586.662	307.25
586.872	317.25
587.082	307.25
587.292	312.25
587.502	307.25
587.713	305.25
587.923	300.25
588.133	307.25
588.343	322.25
588.553	301.25
588.762	329.25
588.972	298.25
589.182	310.25
589.392	314.25
589.602	320.25
589.812	308.25
590.022	306.25
590.232	321.25
590.441	287.25
590.651	311.25
590.861	306.25
591.071	322.25
591.281	317.25
591.49	302.25
591.7	325.25
591.91	326.25
592.119	314.25
592.329	331.25
592.539	331.25
592.748	348.25
592.958	346.25
593.167	335.25
593.377	338.25
593.587	352.25
593.796	343.25
594.006	363.25
594.215	358.25
594.424	355.25
594.634	343.25
594.843	338.25
595.053	327.25
595.262	334.25
595.472	315.25
595.681	311.25
595.89	316.25
596.1	304.25
596.309	300.25
596.518	300.25
596.727	278.25
596.937	306.25
597.146	309.25
597.355	294.25
597.564	283.25
597.774	287.25
597.983	300.25
598.192	276.25
598.401	297.25
598.61	286.25
598.819	294.25
599.028	286.25
599.237	291.25
599.446	292.25
599.655	292.25
599.864	284.25
600.073	299.25
600.282	270.25
600.491	273.25
600.7	266.25
600.909	258.25
601.118	267.25
601.327	253.25
601.536	281.25
601.745	290.25
601.953	260.25
602.162	272.25
602.371	251.25
602.58	268.25
602.789	269.25
602.997	266.25
603.206	278.25
603.415	265.25
603.623	260.25
603.832	280.25
604.041	260.25
604.249	274.25
604.458	254.25
604.666	246.25
604.875	251.25
605.084	239.25
605.292	266.25
605.501	260.25
605.709	271.25
605.918	268.25
606.126	252.25
606.334	262.25
606.543	272.25
606.751	237.25
606.96	262.25
607.168	254.25
607.376	262.25
607.585	259.25
607.793	259.25
608.001	272.25
608.21	253.25
608.418	249.25
608.626	239.25
608.834	263.25
609.043	268.25
609.251	265.25
609.459	244.25
609.667	245.25
609.875	238.25
610.083	253.25
610.291	249.25
610.499	265.25
610.707	272.25
610.916	259.25
611.124	243.25
611.332	264.25
611.54	268.25
611.748	259.25
611.955	234.25
612.163	245.25
612.371	260.25
612.579	248.25
612.787	235.25
612.995	238.25
613.203	260.25
613.411	242.25
613.618	260.25
613.826	255.25
614.034	263.25
614.242	270.25
614.449	262.25
614.657	238.25
614.865	232.25
615.072	253.25
615.28	251.25
615.488	262.25
615.695	238.25
615.903	262.25
616.111	258.25
616.318	264.25
616.526	263.25
616.733	273.25
616.941	242.25
617.148	239.25
617.356	237.25
617.563	248.25
617.771	260.25
617.978	257.25
618.185	249.25
618.393	236.25
618.6	242.25
618.807	246.25
619.015	255.25
619.222	242.25
619.429	217.25
619.637	228.25
619.844	241.25
620.051	231.25
620.258	232.25
620.466	230.25
620.673	235.25
620.88	226.25
621.087	244.25
621.294	234.25
621.501	229.25
621.708	223.25
621.915	232.25
622.122	227.25
622.329	222.25
622.536	239.25
622.743	226.25
622.95	230.25
623.157	236.25
623.364	227.25
623.571	215.25
623.778	238.25
623.985	232.25
624.192	237.25
624.399	216.25
624.606	233.25
624.812	245.25
625.019	221.25
625.226	218.25
625.433	222.25
625.639	222.25
625.846	211.25
626.053	206.25
626.259	233.25
626.466	226.25
626.673	206.25
626.879	213.25
627.086	229.25
627.293	199.25
627.499	215.25
627.706	223.25
627.912	225.25
628.119	213.25
628.325	229.25
628.532	211.25
628.738	227.25
628.945	217.25
629.151	208.25
629.357	219.25
629.564	212.25
629.77	198.25
629.976	203.25
630.183	212.25
630.389	217.25
630.595	205.25
630.802	208.25
631.008	201.25
631.214	207.25
631.42	198.25
631.627	205.25
631.833	211.25
632.039	209.25
632.245	194.25
632.451	202.25
632.657	206.25
632.863	214.25
633.069	198.25
633.275	203.25
633.481	210.25
633.688	194.25
633.893	194.25
634.099	195.25
634.305	184.25
634.511	199.25
634.717	187.25
634.923	194.25
635.129	186.25
635.335	184.25
635.541	192.25
635.747	202.25
635.952	181.25
636.158	183.25
636.364	185.25
636.57	208.25
636.775	193.25
636.981	182.25
637.187	195.25
637.392	196.25
637.598	194.25
637.804	178.25
638.009	190.25
638.215	205.25
638.421	178.25
638.626	182.25
638.832	182.25
639.037	196.25
639.243	184.25
639.448	191.25
639.654	175.25
639.859	167.25
640.065	184.25
640.27	200.25
640.475	188.25
640.681	169.25
640.886	174.25
641.091	184.25
641.297	190.25
641.502	184.25
641.707	168.25
641.913	167.25
642.118	167.25
642.323	169.25
642.528	184.25
642.733	165.25
642.939	182.25
643.144	159.25
643.349	178.25
643.554	174.25
643.759	166.25
643.964	190.25
644.169	180.25
644.374	171.25
644.579	182.25
644.784	162.25
644.989	175.25
645.194	185.25
645.399	169.25
645.604	188.25
645.809	176.25
646.014	171.25
646.219	178.25
646.423	165.25
646.628	192.25
646.833	184.25
647.038	171.25
647.243	168.25
647.447	169.25
647.652	183.25
647.857	165.25
648.062	188.25
648.266	177.25
648.471	183.25
648.676	183.25
648.88	186.25
649.085	181.25
649.289	192.25
649.494	184.25
649.698	187.25
649.903	194.25
650.107	180.25
650.312	166.25
650.516	170.25
650.721	169.25
650.925	171.25
651.13	160.25
651.334	159.25
651.539	157.25
651.743	156.25
651.947	144.25
652.152	148.25
652.356	166.25
652.56	157.25
652.764	140.25
652.969	132.25
653.173	158.25
653.377	154.25
653.581	140.25
653.785	138.25
653.99	143.25
654.194	154.25
654.398	148.25
654.602	163.25
654.806	133.25
655.01	137.25
655.214	143.25
655.418	131.25
655.622	150.25
655.826	150.25
656.03	127.25
656.234	126.25
656.438	152.25
656.642	136.25
656.846	143.25
657.049	138.25
657.253	138.25
657.457	128.25
657.661	115.25
657.865	113.25
658.068	116.25
658.272	136.25
658.476	108.25
658.68	115.25
658.883	127.25
659.087	101.25
659.291	107.25
659.494	101.25
659.698	101.25
659.901	101.25
660.105	96.25
660.309	98.25
660.512	106.25
660.716	106.25
660.919	88.25
661.123	108.25
661.326	89.25
661.53	97.25
661.733	93.25
661.936	83.25
662.14	73.25
662.343	96.25
662.546	84.25
662.75	93.25
662.953	91.25
663.156	91.25
663.36	99.25
663.563	89.25
663.766	88.25
663.969	88.25
664.173	77.25
664.376	84.25
664.579	79.25
664.782	80.25
664.985	70.25
665.188	86.25
665.391	91.25
665.594	85.25
665.797	92.25
666	83.25
666.203	81.25
666.406	74.25
666.609	87.25
666.812	99.25
667.015	89.25
667.218	84.25
667.421	78.25
667.624	78.25
667.827	76.25
668.03	85.25
668.232	76.25
668.435	95.25
668.638	69.25
668.841	80.25
669.043	85.25
669.246	84.25
669.449	90.25
669.651	80.25
669.854	87.25
670.057	80.25
670.259	92.25
670.462	98.25
670.665	95.25
670.867	85.25
671.07	92.25
671.272	77.25
671.475	78.25
671.677	86.25
671.88	87.25
672.082	86.25
672.284	83.25
672.487	90.25
672.689	71.25
672.892	74.25
