Data from 1975.PennyLincolnUp.Lamp.En5.5.200Scan.071719.P1.Changed Mount._HRD10591_15-56-54-859.txt Node
Date: Thu Jul 18 15:56:54 EDT 2019
User: cochatt
Spectrometer: HR+D1059
Trigger mode: 1
Integration Time (sec): 1.000000E-1
Scans to average: 1
Electric dark correction enabled: true
Nonlinearity correction enabled: false
Boxcar width: 0
XAxis mode: Wavelengths
Number of Pixels in Spectrum: 2048
>>>>>Begin Spectral Data<<<<<
223.165	-27.62
223.4	-27.62
223.635	-27.62
223.869	-15.62
224.104	-0.62
224.338	-31.62
224.573	3.38
224.808	-10.62
225.042	-2.62
225.277	-14.62
225.511	-3.62
225.746	-0.62
225.98	6.38
226.215	16.38
226.449	12.38
226.683	26.38
226.918	20.38
227.152	22.38
227.387	25.38
227.621	35.38
227.856	35.38
228.09	43.38
228.324	58.38
228.559	54.38
228.793	69.38
229.027	92.38
229.262	105.38
229.496	113.38
229.73	126.38
229.964	157.38
230.199	132.38
230.433	115.38
230.667	116.38
230.901	116.38
231.136	112.38
231.37	110.38
231.604	126.38
231.838	125.38
232.072	115.38
232.306	104.38
232.541	106.38
232.775	111.38
233.009	120.38
233.243	114.38
233.477	116.38
233.711	122.38
233.945	108.38
234.179	129.38
234.413	107.38
234.647	120.38
234.881	126.38
235.115	124.38
235.349	109.38
235.583	122.38
235.817	120.38
236.051	125.38
236.285	130.38
236.519	133.38
236.753	147.38
236.987	142.38
237.221	180.38
237.455	244.38
237.689	199.38
237.922	150.38
238.156	145.38
238.39	130.38
238.624	126.38
238.858	132.38
239.091	130.38
239.325	122.38
239.559	128.38
239.793	123.38
240.027	127.38
240.26	143.38
240.494	161.38
240.728	152.38
240.961	143.38
241.195	143.38
241.429	133.38
241.662	136.38
241.896	129.38
242.13	136.38
242.363	134.38
242.597	135.38
242.83	145.38
243.064	141.38
243.298	130.38
243.531	136.38
243.765	141.38
243.998	148.38
244.232	134.38
244.465	134.38
244.699	139.38
244.932	148.38
245.166	146.38
245.399	155.38
245.633	134.38
245.866	144.38
246.099	158.38
246.333	158.38
246.566	150.38
246.8	148.38
247.033	147.38
247.266	147.38
247.5	152.38
247.733	172.38
247.966	185.38
248.2	198.38
248.433	174.38
248.666	172.38
248.899	192.38
249.133	208.38
249.366	195.38
249.599	198.38
249.832	200.38
250.066	178.38
250.299	185.38
250.532	200.38
250.765	214.38
250.998	228.38
251.231	223.38
251.465	228.38
251.698	211.38
251.931	197.38
252.164	213.38
252.397	201.38
252.63	210.38
252.863	220.38
253.096	218.38
253.329	250.38
253.562	233.38
253.795	228.38
254.028	220.38
254.261	207.38
254.494	223.38
254.727	261.38
254.96	278.38
255.193	278.38
255.426	229.38
255.659	232.38
255.892	240.38
256.124	231.38
256.357	242.38
256.59	230.38
256.823	235.38
257.056	200.38
257.289	211.38
257.521	205.38
257.754	220.38
257.987	202.38
258.22	215.38
258.452	220.38
258.685	212.38
258.918	200.38
259.151	219.38
259.383	214.38
259.616	226.38
259.849	238.38
260.081	249.38
260.314	253.38
260.547	263.38
260.779	255.38
261.012	230.38
261.244	233.38
261.477	208.38
261.71	220.38
261.942	231.38
262.175	240.38
262.407	249.38
262.64	222.38
262.872	225.38
263.105	219.38
263.337	221.38
263.57	227.38
263.802	231.38
264.035	216.38
264.267	218.38
264.499	218.38
264.732	220.38
264.964	227.38
265.197	221.38
265.429	235.38
265.661	221.38
265.894	203.38
266.126	236.38
266.358	222.38
266.591	217.38
266.823	238.38
267.055	253.38
267.287	222.38
267.52	219.38
267.752	252.38
267.984	236.38
268.216	237.38
268.448	236.38
268.681	242.38
268.913	278.38
269.145	266.38
269.377	285.38
269.609	288.38
269.841	281.38
270.073	292.38
270.306	300.38
270.538	293.38
270.77	331.38
271.002	301.38
271.234	296.38
271.466	313.38
271.698	314.38
271.93	322.38
272.162	325.38
272.394	315.38
272.626	293.38
272.858	295.38
273.09	283.38
273.322	274.38
273.553	285.38
273.785	278.38
274.017	280.38
274.249	268.38
274.481	263.38
274.713	286.38
274.945	288.38
275.176	264.38
275.408	284.38
275.64	273.38
275.872	265.38
276.104	256.38
276.335	271.38
276.567	287.38
276.799	294.38
277.031	321.38
277.262	331.38
277.494	326.38
277.726	312.38
277.957	284.38
278.189	276.38
278.421	282.38
278.652	274.38
278.884	271.38
279.115	293.38
279.347	274.38
279.579	297.38
279.81	264.38
280.042	266.38
280.273	292.38
280.505	291.38
280.736	285.38
280.968	280.38
281.199	282.38
281.431	287.38
281.662	279.38
281.894	266.38
282.125	290.38
282.356	309.38
282.588	313.38
282.819	314.38
283.051	279.38
283.282	275.38
283.513	296.38
283.745	292.38
283.976	284.38
284.207	291.38
284.439	298.38
284.67	298.38
284.901	297.38
285.132	279.38
285.364	292.38
285.595	290.38
285.826	292.38
286.057	289.38
286.288	301.38
286.52	290.38
286.751	299.38
286.982	283.38
287.213	312.38
287.444	307.38
287.675	314.38
287.906	306.38
288.138	329.38
288.369	310.38
288.6	325.38
288.831	303.38
289.062	313.38
289.293	317.38
289.524	326.38
289.755	304.38
289.986	309.38
290.217	304.38
290.448	281.38
290.679	303.38
290.91	297.38
291.141	308.38
291.371	316.38
291.602	305.38
291.833	308.38
292.064	307.38
292.295	322.38
292.526	302.38
292.757	317.38
292.987	303.38
293.218	295.38
293.449	318.38
293.68	310.38
293.91	317.38
294.141	290.38
294.372	303.38
294.603	306.38
294.833	315.38
295.064	321.38
295.295	317.38
295.525	321.38
295.756	329.38
295.987	323.38
296.217	346.38
296.448	338.38
296.679	306.38
296.909	313.38
297.14	307.38
297.37	310.38
297.601	303.38
297.831	320.38
298.062	318.38
298.292	319.38
298.523	314.38
298.753	326.38
298.984	323.38
299.214	314.38
299.445	323.38
299.675	310.38
299.905	330.38
300.136	329.38
300.366	319.38
300.597	301.38
300.827	328.38
301.057	338.38
301.288	340.38
301.518	320.38
301.748	328.38
301.979	343.38
302.209	334.38
302.439	325.38
302.669	338.38
302.9	325.38
303.13	335.38
303.36	347.38
303.59	342.38
303.82	348.38
304.051	364.38
304.281	354.38
304.511	346.38
304.741	369.38
304.971	336.38
305.201	333.38
305.431	333.38
305.661	359.38
305.891	345.38
306.121	341.38
306.352	378.38
306.582	340.38
306.812	332.38
307.042	339.38
307.272	361.38
307.502	367.38
307.731	334.38
307.961	342.38
308.191	326.38
308.421	358.38
308.651	356.38
308.881	354.38
309.111	368.38
309.341	347.38
309.571	367.38
309.8	347.38
310.03	373.38
310.26	372.38
310.49	386.38
310.72	382.38
310.949	379.38
311.179	395.38
311.409	378.38
311.639	386.38
311.868	383.38
312.098	406.38
312.328	390.38
312.557	393.38
312.787	398.38
313.017	391.38
313.246	409.38
313.476	384.38
313.706	404.38
313.935	383.38
314.165	396.38
314.394	413.38
314.624	408.38
314.853	398.38
315.083	393.38
315.312	390.38
315.542	392.38
315.771	378.38
316.001	374.38
316.23	360.38
316.46	380.38
316.689	381.38
316.919	376.38
317.148	388.38
317.377	390.38
317.607	386.38
317.836	404.38
318.065	381.38
318.295	381.38
318.524	389.38
318.753	388.38
318.983	377.38
319.212	373.38
319.441	382.38
319.67	401.38
319.9	381.38
320.129	383.38
320.358	382.38
320.587	378.38
320.816	377.38
321.046	381.38
321.275	416.38
321.504	420.38
321.733	412.38
321.962	427.38
322.191	422.38
322.42	417.38
322.649	443.38
322.878	444.38
323.108	457.38
323.337	467.38
323.566	470.38
323.795	498.38
324.024	554.38
324.253	639.38
324.482	865.38
324.71	1312.38
324.939	1986.38
325.168	1744.38
325.397	902.38
325.626	614.38
325.855	519.38
326.084	482.38
326.313	466.38
326.542	482.38
326.77	512.38
326.999	606.38
327.228	791.38
327.457	1190.38
327.686	1530.38
327.914	999.38
328.143	678.38
328.372	624.38
328.6	551.38
328.829	524.38
329.058	543.38
329.287	550.38
329.515	532.38
329.744	508.38
329.972	478.38
330.201	518.38
330.43	551.38
330.658	566.38
330.887	598.38
331.115	592.38
331.344	508.38
331.572	466.38
331.801	498.38
332.03	504.38
332.258	486.38
332.486	457.38
332.715	458.38
332.943	486.38
333.172	478.38
333.4	446.38
333.629	487.38
333.857	505.38
334.085	507.38
334.314	540.38
334.542	565.38
334.771	585.38
334.999	519.38
335.227	518.38
335.455	493.38
335.684	479.38
335.912	465.38
336.14	489.38
336.369	456.38
336.597	469.38
336.825	462.38
337.053	470.38
337.281	463.38
337.51	464.38
337.738	452.38
337.966	460.38
338.194	461.38
338.422	443.38
338.65	461.38
338.878	445.38
339.106	460.38
339.334	455.38
339.562	456.38
339.79	437.38
340.018	458.38
340.246	464.38
340.474	467.38
340.702	438.38
340.93	437.38
341.158	417.38
341.386	434.38
341.614	447.38
341.842	458.38
342.07	431.38
342.298	440.38
342.526	451.38
342.754	444.38
342.981	426.38
343.209	408.38
343.437	422.38
343.665	429.38
343.893	458.38
344.12	460.38
344.348	458.38
344.576	450.38
344.804	456.38
345.031	456.38
345.259	446.38
345.487	471.38
345.714	434.38
345.942	435.38
346.17	434.38
346.397	437.38
346.625	426.38
346.853	441.38
347.08	432.38
347.308	428.38
347.535	425.38
347.763	436.38
347.99	432.38
348.218	440.38
348.445	444.38
348.673	438.38
348.9	432.38
349.128	419.38
349.355	445.38
349.583	420.38
349.81	401.38
350.037	419.38
350.265	394.38
350.492	399.38
350.72	405.38
350.947	423.38
351.174	442.38
351.402	439.38
351.629	440.38
351.856	438.38
352.083	439.38
352.311	442.38
352.538	452.38
352.765	458.38
352.992	420.38
353.22	420.38
353.447	406.38
353.674	420.38
353.901	433.38
354.128	416.38
354.355	418.38
354.583	412.38
354.81	411.38
355.037	415.38
355.264	414.38
355.491	400.38
355.718	414.38
355.945	406.38
356.172	405.38
356.399	394.38
356.626	392.38
356.853	399.38
357.08	392.38
357.307	404.38
357.534	412.38
357.761	412.38
357.988	403.38
358.215	397.38
358.441	414.38
358.668	423.38
358.895	401.38
359.122	422.38
359.349	410.38
359.576	452.38
359.802	412.38
360.029	449.38
360.256	458.38
360.483	479.38
360.709	426.38
360.936	428.38
361.163	423.38
361.39	436.38
361.616	426.38
361.843	418.38
362.07	445.38
362.296	428.38
362.523	437.38
362.749	418.38
362.976	406.38
363.203	406.38
363.429	409.38
363.656	418.38
363.882	403.38
364.109	423.38
364.335	410.38
364.562	406.38
364.788	403.38
365.015	406.38
365.241	420.38
365.468	416.38
365.694	420.38
365.92	412.38
366.147	424.38
366.373	419.38
366.599	415.38
366.826	411.38
367.052	380.38
367.278	382.38
367.505	384.38
367.731	416.38
367.957	410.38
368.184	420.38
368.41	423.38
368.636	435.38
368.862	423.38
369.089	424.38
369.315	440.38
369.541	442.38
369.767	420.38
369.993	408.38
370.219	417.38
370.445	422.38
370.672	425.38
370.898	426.38
371.124	415.38
371.35	409.38
371.576	439.38
371.802	418.38
372.028	422.38
372.254	402.38
372.48	418.38
372.706	411.38
372.932	436.38
373.158	415.38
373.384	396.38
373.61	424.38
373.835	416.38
374.061	408.38
374.287	430.38
374.513	423.38
374.739	441.38
374.965	442.38
375.191	439.38
375.416	438.38
375.642	440.38
375.868	462.38
376.094	427.38
376.319	436.38
376.545	422.38
376.771	410.38
376.997	416.38
377.222	427.38
377.448	418.38
377.674	405.38
377.899	410.38
378.125	418.38
378.35	427.38
378.576	415.38
378.802	428.38
379.027	422.38
379.253	427.38
379.478	420.38
379.704	392.38
379.929	410.38
380.155	434.38
380.38	430.38
380.606	444.38
380.831	414.38
381.057	418.38
381.282	428.38
381.507	421.38
381.733	434.38
381.958	436.38
382.184	430.38
382.409	447.38
382.634	430.38
382.86	436.38
383.085	428.38
383.31	445.38
383.535	451.38
383.761	430.38
383.986	436.38
384.211	442.38
384.436	439.38
384.662	447.38
384.887	478.38
385.112	432.38
385.337	461.38
385.562	477.38
385.787	466.38
386.013	489.38
386.238	468.38
386.463	495.38
386.688	456.38
386.913	459.38
387.138	463.38
387.363	473.38
387.588	476.38
387.813	459.38
388.038	470.38
388.263	453.38
388.488	467.38
388.713	446.38
388.938	485.38
389.163	477.38
389.387	450.38
389.612	480.38
389.837	484.38
390.062	479.38
390.287	450.38
390.512	483.38
390.736	475.38
390.961	472.38
391.186	476.38
391.411	471.38
391.636	482.38
391.86	502.38
392.085	502.38
392.31	501.38
392.534	502.38
392.759	465.38
392.984	480.38
393.208	480.38
393.433	478.38
393.658	480.38
393.882	479.38
394.107	486.38
394.331	465.38
394.556	479.38
394.78	471.38
395.005	477.38
395.229	476.38
395.454	518.38
395.678	490.38
395.903	509.38
396.127	534.38
396.352	509.38
396.576	499.38
396.801	486.38
397.025	502.38
397.249	520.38
397.474	501.38
397.698	514.38
397.922	524.38
398.147	525.38
398.371	544.38
398.595	519.38
398.82	551.38
399.044	567.38
399.268	560.38
399.492	608.38
399.717	646.38
399.941	694.38
400.165	686.38
400.389	678.38
400.613	622.38
400.837	593.38
401.062	559.38
401.286	570.38
401.51	547.38
401.734	550.38
401.958	542.38
402.182	561.38
402.406	563.38
402.63	568.38
402.854	559.38
403.078	557.38
403.302	585.38
403.526	570.38
403.75	594.38
403.974	563.38
404.198	576.38
404.422	590.38
404.645	601.38
404.869	564.38
405.093	618.38
405.317	650.38
405.541	679.38
405.765	642.38
405.988	591.38
406.212	600.38
406.436	614.38
406.66	630.38
406.883	630.38
407.107	635.38
407.331	660.38
407.555	736.38
407.778	761.38
408.002	680.38
408.226	657.38
408.449	644.38
408.673	638.38
408.896	661.38
409.12	734.38
409.344	648.38
409.567	589.38
409.791	586.38
410.014	569.38
410.238	586.38
410.461	597.38
410.685	572.38
410.908	612.38
411.132	605.38
411.355	682.38
411.578	624.38
411.802	591.38
412.025	575.38
412.249	583.38
412.472	611.38
412.695	638.38
412.919	630.38
413.142	587.38
413.365	576.38
413.589	585.38
413.812	553.38
414.035	569.38
414.258	555.38
414.482	519.38
414.705	532.38
414.928	532.38
415.151	570.38
415.374	538.38
415.597	552.38
415.821	542.38
416.044	562.38
416.267	533.38
416.49	531.38
416.713	513.38
416.936	539.38
417.159	537.38
417.382	564.38
417.605	562.38
417.828	575.38
418.051	579.38
418.274	564.38
418.497	540.38
418.72	541.38
418.943	556.38
419.166	578.38
419.389	594.38
419.611	577.38
419.834	567.38
420.057	559.38
420.28	583.38
420.503	580.38
420.726	601.38
420.948	594.38
421.171	629.38
421.394	652.38
421.617	598.38
421.839	544.38
422.062	542.38
422.285	588.38
422.507	664.38
422.73	724.38
422.953	687.38
423.175	616.38
423.398	596.38
423.621	581.38
423.843	594.38
424.066	586.38
424.288	608.38
424.511	616.38
424.733	660.38
424.956	764.38
425.178	727.38
425.401	731.38
425.623	748.38
425.846	645.38
426.068	584.38
426.291	584.38
426.513	583.38
426.735	614.38
426.958	637.38
427.18	728.38
427.402	859.38
427.625	970.38
427.847	845.38
428.069	702.38
428.292	645.38
428.514	563.38
428.736	550.38
428.958	555.38
429.181	551.38
429.403	550.38
429.625	570.38
429.847	596.38
430.069	654.38
430.292	675.38
430.514	574.38
430.736	551.38
430.958	551.38
431.18	521.38
431.402	534.38
431.624	542.38
431.846	516.38
432.068	516.38
432.29	527.38
432.512	532.38
432.734	542.38
432.956	520.38
433.178	542.38
433.4	549.38
433.622	534.38
433.844	550.38
434.066	538.38
434.287	520.38
434.509	536.38
434.731	504.38
434.953	559.38
435.175	558.38
435.397	591.38
435.618	612.38
435.84	628.38
436.062	708.38
436.284	779.38
436.505	672.38
436.727	600.38
436.949	577.38
437.17	544.38
437.392	552.38
437.614	539.38
437.835	575.38
438.057	653.38
438.278	780.38
438.5	794.38
438.721	872.38
438.943	830.38
439.165	666.38
439.386	638.38
439.608	592.38
439.829	580.38
440.05	629.38
440.272	682.38
440.493	604.38
440.715	592.38
440.936	560.38
441.158	576.38
441.379	554.38
441.6	578.38
441.822	559.38
442.043	636.38
442.264	715.38
442.486	785.38
442.707	648.38
442.928	601.38
443.149	623.38
443.371	651.38
443.592	692.38
443.813	788.38
444.034	856.38
444.255	712.38
444.476	651.38
444.698	624.38
444.919	638.38
445.14	767.38
445.361	695.38
445.582	627.38
445.803	698.38
446.024	792.38
446.245	800.38
446.466	774.38
446.687	639.38
446.908	606.38
447.129	560.38
447.35	572.38
447.571	540.38
447.792	544.38
448.013	531.38
448.234	563.38
448.455	622.38
448.675	722.38
448.896	856.38
449.117	721.38
449.338	678.38
449.559	765.38
449.779	892.38
450	698.38
450.221	589.38
450.442	556.38
450.662	528.38
450.883	522.38
451.104	548.38
451.324	522.38
451.545	498.38
451.766	528.38
451.986	518.38
452.207	494.38
452.428	487.38
452.648	491.38
452.869	467.38
453.089	490.38
453.31	513.38
453.53	501.38
453.751	487.38
453.971	504.38
454.192	482.38
454.412	490.38
454.633	486.38
454.853	484.38
455.073	479.38
455.294	476.38
455.514	576.38
455.734	563.38
455.955	472.38
456.175	468.38
456.395	468.38
456.616	471.38
456.836	468.38
457.056	461.38
457.276	450.38
457.497	453.38
457.717	453.38
457.937	479.38
458.157	472.38
458.377	462.38
458.598	484.38
458.818	536.38
459.038	640.38
459.258	645.38
459.478	566.38
459.698	539.38
459.918	520.38
460.138	532.38
460.358	545.38
460.578	535.38
460.798	555.38
461.018	557.38
461.238	541.38
461.458	523.38
461.678	538.38
461.898	561.38
462.118	554.38
462.338	597.38
462.558	567.38
462.777	580.38
462.997	610.38
463.217	594.38
463.437	620.38
463.657	586.38
463.876	620.38
464.096	588.38
464.316	588.38
464.536	588.38
464.755	606.38
464.975	585.38
465.195	597.38
465.414	651.38
465.634	614.38
465.854	588.38
466.073	536.38
466.293	536.38
466.512	515.38
466.732	501.38
466.951	510.38
467.171	486.38
467.391	509.38
467.61	524.38
467.829	518.38
468.049	501.38
468.268	513.38
468.488	495.38
468.707	486.38
468.927	502.38
469.146	502.38
469.365	505.38
469.585	491.38
469.804	478.38
470.023	507.38
470.243	520.38
470.462	506.38
470.681	529.38
470.901	528.38
471.12	523.38
471.339	502.38
471.558	509.38
471.777	514.38
471.997	499.38
472.216	509.38
472.435	542.38
472.654	534.38
472.873	480.38
473.092	512.38
473.311	492.38
473.53	494.38
473.749	506.38
473.968	549.38
474.187	654.38
474.406	660.38
474.625	584.38
474.844	521.38
475.063	501.38
475.282	500.38
475.501	516.38
475.72	520.38
475.939	529.38
476.158	550.38
476.377	503.38
476.596	510.38
476.814	514.38
477.033	526.38
477.252	535.38
477.471	556.38
477.69	564.38
477.908	549.38
478.127	564.38
478.346	543.38
478.564	574.38
478.783	603.38
479.002	605.38
479.22	585.38
479.439	590.38
479.658	611.38
479.876	599.38
480.095	599.38
480.313	661.38
480.532	647.38
480.751	622.38
480.969	650.38
481.188	687.38
481.406	731.38
481.624	659.38
481.843	647.38
482.061	607.38
482.28	602.38
482.498	590.38
482.717	598.38
482.935	611.38
483.153	602.38
483.372	602.38
483.59	590.38
483.808	575.38
484.027	572.38
484.245	590.38
484.463	615.38
484.681	609.38
484.9	598.38
485.118	595.38
485.336	601.38
485.554	633.38
485.772	636.38
485.99	612.38
486.209	634.38
486.427	635.38
486.645	612.38
486.863	638.38
487.081	624.38
487.299	638.38
487.517	661.38
487.735	648.38
487.953	639.38
488.171	657.38
488.389	620.38
488.607	641.38
488.825	646.38
489.043	643.38
489.261	637.38
489.479	648.38
489.696	649.38
489.914	652.38
490.132	667.38
490.35	655.38
490.568	666.38
490.786	687.38
491.003	698.38
491.221	697.38
491.439	712.38
491.657	736.38
491.874	728.38
492.092	737.38
492.31	734.38
492.527	723.38
492.745	739.38
492.963	744.38
493.18	768.38
493.398	773.38
493.615	797.38
493.833	752.38
494.05	785.38
494.268	761.38
494.485	766.38
494.703	741.38
494.92	758.38
495.138	740.38
495.355	764.38
495.573	768.38
495.79	751.38
496.008	766.38
496.225	757.38
496.442	747.38
496.66	774.38
496.877	788.38
497.094	773.38
497.312	772.38
497.529	810.38
497.746	784.38
497.963	814.38
498.181	820.38
498.398	838.38
498.615	890.38
498.832	872.38
499.049	901.38
499.267	916.38
499.484	977.38
499.701	1059.38
499.918	1030.38
500.135	1083.38
500.352	1187.38
500.569	1216.38
500.786	1196.38
501.003	1184.38
501.22	1134.38
501.437	1087.38
501.654	1033.38
501.871	1005.38
502.088	966.38
502.305	900.38
502.522	886.38
502.739	845.38
502.956	835.38
503.172	802.38
503.389	780.38
503.606	816.38
503.823	793.38
504.04	775.38
504.256	788.38
504.473	777.38
504.69	760.38
504.907	758.38
505.123	726.38
505.34	734.38
505.557	726.38
505.773	740.38
505.99	716.38
506.207	716.38
506.423	741.38
506.64	722.38
506.856	701.38
507.073	713.38
507.289	694.38
507.506	691.38
507.722	664.38
507.939	708.38
508.155	678.38
508.372	660.38
508.588	694.38
508.805	662.38
509.021	679.38
509.238	701.38
509.454	683.38
509.67	687.38
509.887	681.38
510.103	661.38
510.319	692.38
510.536	745.38
510.752	1162.38
510.968	991.38
511.184	674.38
511.401	644.38
511.617	647.38
511.833	627.38
512.049	639.38
512.265	651.38
512.481	603.38
512.698	644.38
512.914	627.38
513.13	619.38
513.346	608.38
513.562	648.38
513.778	648.38
513.994	624.38
514.21	646.38
514.426	652.38
514.642	700.38
514.858	707.38
515.074	751.38
515.29	830.38
515.506	1212.38
515.721	1048.38
515.937	767.38
516.153	678.38
516.369	670.38
516.585	650.38
516.801	654.38
517.016	675.38
517.232	653.38
517.448	663.38
517.664	687.38
517.879	675.38
518.095	685.38
518.311	673.38
518.527	698.38
518.742	651.38
518.958	655.38
519.173	651.38
519.389	643.38
519.605	651.38
519.82	620.38
520.036	644.38
520.251	636.38
520.467	690.38
520.682	658.38
520.898	683.38
521.113	685.38
521.329	709.38
521.544	779.38
521.76	951.38
521.975	1482.38
522.19	1518.38
522.406	884.38
522.621	688.38
522.836	671.38
523.052	614.38
523.267	602.38
523.482	584.38
523.698	567.38
523.913	573.38
524.128	590.38
524.343	552.38
524.559	558.38
524.774	566.38
524.989	575.38
525.204	557.38
525.419	541.38
525.634	548.38
525.849	552.38
526.064	535.38
526.28	535.38
526.495	524.38
526.71	518.38
526.925	498.38
527.14	498.38
527.355	524.38
527.57	532.38
527.785	521.38
527.999	528.38
528.214	499.38
528.429	538.38
528.644	534.38
528.859	523.38
529.074	544.38
529.289	531.38
529.503	597.38
529.718	580.38
529.933	555.38
530.148	535.38
530.363	521.38
530.577	511.38
530.792	512.38
531.007	534.38
531.221	484.38
531.436	518.38
531.651	499.38
531.865	510.38
532.08	493.38
532.295	488.38
532.509	504.38
532.724	487.38
532.938	504.38
533.153	486.38
533.367	498.38
533.582	490.38
533.796	503.38
534.011	493.38
534.225	500.38
534.44	493.38
534.654	478.38
534.868	493.38
535.083	499.38
535.297	476.38
535.511	503.38
535.726	514.38
535.94	517.38
536.154	482.38
536.369	504.38
536.583	479.38
536.797	496.38
537.011	491.38
537.225	456.38
537.44	490.38
537.654	493.38
537.868	459.38
538.082	500.38
538.296	493.38
538.51	491.38
538.724	478.38
538.938	494.38
539.153	487.38
539.367	490.38
539.581	482.38
539.795	469.38
540.009	480.38
540.222	472.38
540.436	473.38
540.65	489.38
540.864	494.38
541.078	504.38
541.292	487.38
541.506	504.38
541.72	482.38
541.934	477.38
542.147	486.38
542.361	485.38
542.575	457.38
542.789	472.38
543.002	479.38
543.216	494.38
543.43	486.38
543.644	500.38
543.857	462.38
544.071	463.38
544.285	485.38
544.498	491.38
544.712	454.38
544.925	498.38
545.139	485.38
545.352	476.38
545.566	463.38
545.779	482.38
545.993	506.38
546.206	481.38
546.42	475.38
546.633	488.38
546.847	498.38
547.06	472.38
547.274	486.38
547.487	480.38
547.7	452.38
547.914	447.38
548.127	474.38
548.34	450.38
548.554	458.38
548.767	454.38
548.98	476.38
549.193	477.38
549.407	462.38
549.62	480.38
549.833	464.38
550.046	477.38
550.259	460.38
550.473	463.38
550.686	460.38
550.899	476.38
551.112	438.38
551.325	444.38
551.538	446.38
551.751	471.38
551.964	464.38
552.177	458.38
552.39	472.38
552.603	467.38
552.816	476.38
553.029	483.38
553.242	498.38
553.455	512.38
553.667	511.38
553.88	479.38
554.093	487.38
554.306	488.38
554.519	477.38
554.732	467.38
554.944	422.38
555.157	449.38
555.37	449.38
555.583	478.38
555.795	457.38
556.008	430.38
556.221	420.38
556.433	416.38
556.646	421.38
556.859	429.38
557.071	423.38
557.284	443.38
557.496	429.38
557.709	420.38
557.921	435.38
558.134	403.38
558.346	426.38
558.559	432.38
558.771	415.38
558.984	407.38
559.196	398.38
559.409	421.38
559.621	416.38
559.833	407.38
560.046	397.38
560.258	422.38
560.47	414.38
560.683	410.38
560.895	422.38
561.107	437.38
561.32	432.38
561.532	418.38
561.744	404.38
561.956	420.38
562.168	416.38
562.381	407.38
562.593	431.38
562.805	422.38
563.017	419.38
563.229	424.38
563.441	414.38
563.653	422.38
563.865	427.38
564.077	414.38
564.289	419.38
564.501	418.38
564.713	423.38
564.925	441.38
565.137	486.38
565.349	439.38
565.561	462.38
565.773	494.38
565.985	479.38
566.197	466.38
566.408	500.38
566.62	520.38
566.832	526.38
567.044	538.38
567.255	523.38
567.467	563.38
567.679	572.38
567.891	587.38
568.102	583.38
568.314	562.38
568.526	542.38
568.737	516.38
568.949	494.38
569.161	455.38
569.372	479.38
569.584	447.38
569.795	440.38
570.007	452.38
570.218	468.38
570.43	456.38
570.641	421.38
570.853	416.38
571.064	422.38
571.276	411.38
571.487	422.38
571.698	390.38
571.91	384.38
572.121	394.38
572.333	398.38
572.544	376.38
572.755	370.38
572.966	388.38
573.178	380.38
573.389	362.38
573.6	372.38
573.811	347.38
574.023	356.38
574.234	348.38
574.445	370.38
574.656	375.38
574.867	378.38
575.078	370.38
575.289	362.38
575.501	349.38
575.712	346.38
575.923	375.38
576.134	363.38
576.345	363.38
576.556	367.38
576.767	357.38
576.978	342.38
577.188	368.38
577.399	338.38
577.61	360.38
577.821	352.38
578.032	348.38
578.243	381.38
578.454	559.38
578.665	427.38
578.875	347.38
579.086	333.38
579.297	336.38
579.508	315.38
579.718	333.38
579.929	329.38
580.14	325.38
580.35	341.38
580.561	327.38
580.772	316.38
580.982	310.38
581.193	310.38
581.403	331.38
581.614	326.38
581.825	323.38
582.035	317.38
582.246	322.38
582.456	312.38
582.667	300.38
582.877	320.38
583.087	326.38
583.298	322.38
583.508	331.38
583.719	316.38
583.929	317.38
584.139	316.38
584.35	309.38
584.56	338.38
584.77	315.38
584.981	326.38
585.191	319.38
585.401	315.38
585.611	326.38
585.821	318.38
586.032	326.38
586.242	322.38
586.452	320.38
586.662	314.38
586.872	315.38
587.082	300.38
587.292	303.38
587.502	296.38
587.713	310.38
587.923	326.38
588.133	308.38
588.343	306.38
588.553	318.38
588.762	307.38
588.972	292.38
589.182	316.38
589.392	306.38
589.602	296.38
589.812	313.38
590.022	331.38
590.232	302.38
590.441	306.38
590.651	312.38
590.861	308.38
591.071	311.38
591.281	310.38
591.49	327.38
591.7	324.38
591.91	328.38
592.119	333.38
592.329	337.38
592.539	342.38
592.748	336.38
592.958	338.38
593.167	328.38
593.377	367.38
593.587	367.38
593.796	344.38
594.006	350.38
594.215	340.38
594.424	363.38
594.634	339.38
594.843	347.38
595.053	326.38
595.262	315.38
595.472	323.38
595.681	318.38
595.89	316.38
596.1	299.38
596.309	326.38
596.518	308.38
596.727	295.38
596.937	302.38
597.146	298.38
597.355	299.38
597.564	294.38
597.774	303.38
597.983	284.38
598.192	275.38
598.401	290.38
598.61	293.38
598.819	272.38
599.028	267.38
599.237	277.38
599.446	258.38
599.655	297.38
599.864	287.38
600.073	275.38
600.282	279.38
600.491	277.38
600.7	285.38
600.909	273.38
601.118	275.38
601.327	290.38
601.536	266.38
601.745	262.38
601.953	279.38
602.162	276.38
602.371	264.38
602.58	256.38
602.789	291.38
602.997	236.38
603.206	262.38
603.415	274.38
603.623	266.38
603.832	259.38
604.041	260.38
604.249	270.38
604.458	250.38
604.666	272.38
604.875	262.38
605.084	262.38
605.292	256.38
605.501	263.38
605.709	246.38
605.918	260.38
606.126	264.38
606.334	264.38
606.543	263.38
606.751	279.38
606.96	247.38
607.168	275.38
607.376	249.38
607.585	253.38
607.793	282.38
608.001	257.38
608.21	271.38
608.418	276.38
608.626	250.38
608.834	243.38
609.043	260.38
609.251	251.38
609.459	237.38
609.667	248.38
609.875	247.38
610.083	260.38
610.291	251.38
610.499	265.38
610.707	259.38
610.916	254.38
611.124	267.38
611.332	249.38
611.54	256.38
611.748	256.38
611.955	248.38
612.163	236.38
612.371	269.38
612.579	260.38
612.787	256.38
612.995	269.38
613.203	250.38
613.411	261.38
613.618	248.38
613.826	259.38
614.034	242.38
614.242	247.38
614.449	246.38
614.657	254.38
614.865	258.38
615.072	246.38
615.28	238.38
615.488	260.38
615.695	227.38
615.903	247.38
616.111	254.38
616.318	268.38
616.526	245.38
616.733	260.38
616.941	247.38
617.148	245.38
617.356	254.38
617.563	250.38
617.771	237.38
617.978	242.38
618.185	235.38
618.393	240.38
618.6	258.38
618.807	261.38
619.015	253.38
619.222	249.38
619.429	255.38
619.637	248.38
619.844	242.38
620.051	230.38
620.258	233.38
620.466	219.38
620.673	238.38
620.88	250.38
621.087	231.38
621.294	232.38
621.501	242.38
621.708	244.38
621.915	235.38
622.122	233.38
622.329	229.38
622.536	232.38
622.743	224.38
622.95	222.38
623.157	220.38
623.364	237.38
623.571	239.38
623.778	230.38
623.985	236.38
624.192	228.38
624.399	228.38
624.606	218.38
624.812	208.38
625.019	212.38
625.226	210.38
625.433	225.38
625.639	237.38
625.846	223.38
626.053	217.38
626.259	219.38
626.466	218.38
626.673	230.38
626.879	212.38
627.086	213.38
627.293	227.38
627.499	208.38
627.706	217.38
627.912	209.38
628.119	210.38
628.325	219.38
628.532	210.38
628.738	210.38
628.945	213.38
629.151	224.38
629.357	212.38
629.564	199.38
629.77	208.38
629.976	212.38
630.183	218.38
630.389	213.38
630.595	207.38
630.802	212.38
631.008	221.38
631.214	212.38
631.42	203.38
631.627	189.38
631.833	206.38
632.039	185.38
632.245	208.38
632.451	204.38
632.657	197.38
632.863	186.38
633.069	195.38
633.275	208.38
633.481	215.38
633.688	200.38
633.893	201.38
634.099	195.38
634.305	173.38
634.511	196.38
634.717	189.38
634.923	193.38
635.129	197.38
635.335	200.38
635.541	195.38
635.747	182.38
635.952	207.38
636.158	188.38
636.364	199.38
636.57	202.38
636.775	192.38
636.981	195.38
637.187	202.38
637.392	182.38
637.598	182.38
637.804	194.38
638.009	194.38
638.215	186.38
638.421	189.38
638.626	189.38
638.832	185.38
639.037	179.38
639.243	197.38
639.448	199.38
639.654	180.38
639.859	198.38
640.065	171.38
640.27	186.38
640.475	192.38
640.681	200.38
640.886	199.38
641.091	194.38
641.297	190.38
641.502	187.38
641.707	178.38
641.913	195.38
642.118	205.38
642.323	187.38
642.528	188.38
642.733	175.38
642.939	173.38
643.144	196.38
643.349	179.38
643.554	183.38
643.759	173.38
643.964	168.38
644.169	194.38
644.374	168.38
644.579	193.38
644.784	184.38
644.989	191.38
645.194	171.38
645.399	171.38
645.604	179.38
645.809	194.38
646.014	165.38
646.219	172.38
646.423	171.38
646.628	169.38
646.833	173.38
647.038	175.38
647.243	168.38
647.447	181.38
647.652	176.38
647.857	184.38
648.062	168.38
648.266	188.38
648.471	163.38
648.676	182.38
648.88	184.38
649.085	182.38
649.289	191.38
649.494	177.38
649.698	203.38
649.903	194.38
650.107	194.38
650.312	165.38
650.516	162.38
650.721	156.38
650.925	150.38
651.13	155.38
651.334	154.38
651.539	158.38
651.743	154.38
651.947	151.38
652.152	154.38
652.356	165.38
652.56	150.38
652.764	160.38
652.969	164.38
653.173	157.38
653.377	155.38
653.581	164.38
653.785	148.38
653.99	151.38
654.194	136.38
654.398	148.38
654.602	143.38
654.806	146.38
655.01	143.38
655.214	145.38
655.418	146.38
655.622	151.38
655.826	150.38
656.03	149.38
656.234	142.38
656.438	130.38
656.642	138.38
656.846	136.38
657.049	128.38
657.253	146.38
657.457	122.38
657.661	129.38
657.865	132.38
658.068	118.38
658.272	118.38
658.476	119.38
658.68	104.38
658.883	109.38
659.087	105.38
659.291	94.38
659.494	99.38
659.698	116.38
659.901	99.38
660.105	109.38
660.309	99.38
660.512	82.38
660.716	84.38
660.919	100.38
661.123	108.38
661.326	77.38
661.53	107.38
661.733	84.38
661.936	92.38
662.14	86.38
662.343	89.38
662.546	78.38
662.75	91.38
662.953	85.38
663.156	107.38
663.36	84.38
663.563	72.38
663.766	92.38
663.969	93.38
664.173	85.38
664.376	97.38
664.579	87.38
664.782	71.38
664.985	90.38
665.188	82.38
665.391	94.38
665.594	91.38
665.797	94.38
666	95.38
666.203	80.38
666.406	86.38
666.609	82.38
666.812	71.38
667.015	92.38
667.218	101.38
667.421	75.38
667.624	96.38
667.827	100.38
668.03	92.38
668.232	79.38
668.435	93.38
668.638	85.38
668.841	97.38
669.043	79.38
669.246	91.38
669.449	99.38
669.651	93.38
669.854	74.38
670.057	82.38
670.259	86.38
670.462	87.38
670.665	89.38
670.867	93.38
671.07	74.38
671.272	81.38
671.475	85.38
671.677	88.38
671.88	84.38
672.082	83.38
672.284	80.38
672.487	85.38
672.689	73.38
672.892	78.38
