Data from 1975.PennyLincolnUp.Lamp.En5.5.200Scan.071719.P1.Changed Mount._HRD10591_15-58-30-860.txt Node
Date: Thu Jul 18 15:58:30 EDT 2019
User: cochatt
Spectrometer: HR+D1059
Trigger mode: 1
Integration Time (sec): 1.000000E-1
Scans to average: 1
Electric dark correction enabled: true
Nonlinearity correction enabled: false
Boxcar width: 0
XAxis mode: Wavelengths
Number of Pixels in Spectrum: 2048
>>>>>Begin Spectral Data<<<<<
223.165	-19.12
223.4	-19.12
223.635	-19.12
223.869	-13.12
224.104	-23.12
224.338	-21.12
224.573	-13.12
224.808	-15.12
225.042	-12.12
225.277	2.88
225.511	-0.12
225.746	13.88
225.98	11.88
226.215	12.88
226.449	7.88
226.683	14.88
226.918	24.88
227.152	27.88
227.387	31.88
227.621	47.88
227.856	39.88
228.09	44.88
228.324	49.88
228.559	55.88
228.793	58.88
229.027	73.88
229.262	82.88
229.496	110.88
229.73	123.88
229.964	152.88
230.199	130.88
230.433	114.88
230.667	102.88
230.901	105.88
231.136	115.88
231.37	107.88
231.604	110.88
231.838	114.88
232.072	131.88
232.306	124.88
232.541	128.88
232.775	120.88
233.009	113.88
233.243	114.88
233.477	113.88
233.711	109.88
233.945	126.88
234.179	121.88
234.413	123.88
234.647	123.88
234.881	121.88
235.115	122.88
235.349	124.88
235.583	129.88
235.817	117.88
236.051	119.88
236.285	131.88
236.519	133.88
236.753	128.88
236.987	154.88
237.221	178.88
237.455	212.88
237.689	181.88
237.922	142.88
238.156	126.88
238.39	136.88
238.624	123.88
238.858	131.88
239.091	133.88
239.325	122.88
239.559	120.88
239.793	127.88
240.027	132.88
240.26	147.88
240.494	150.88
240.728	168.88
240.961	145.88
241.195	141.88
241.429	134.88
241.662	132.88
241.896	138.88
242.13	136.88
242.363	133.88
242.597	134.88
242.83	134.88
243.064	140.88
243.298	152.88
243.531	159.88
243.765	151.88
243.998	147.88
244.232	132.88
244.465	134.88
244.699	136.88
244.932	163.88
245.166	151.88
245.399	145.88
245.633	154.88
245.866	128.88
246.099	134.88
246.333	167.88
246.566	165.88
246.8	155.88
247.033	161.88
247.266	135.88
247.5	172.88
247.733	169.88
247.966	172.88
248.2	179.88
248.433	184.88
248.666	182.88
248.899	198.88
249.133	210.88
249.366	199.88
249.599	202.88
249.832	177.88
250.066	169.88
250.299	176.88
250.532	206.88
250.765	202.88
250.998	214.88
251.231	231.88
251.465	204.88
251.698	210.88
251.931	203.88
252.164	203.88
252.397	204.88
252.63	208.88
252.863	215.88
253.096	218.88
253.329	242.88
253.562	240.88
253.795	222.88
254.028	219.88
254.261	232.88
254.494	215.88
254.727	259.88
254.96	280.88
255.193	270.88
255.426	255.88
255.659	236.88
255.892	239.88
256.124	232.88
256.357	239.88
256.59	235.88
256.823	234.88
257.056	218.88
257.289	227.88
257.521	231.88
257.754	211.88
257.987	233.88
258.22	219.88
258.452	211.88
258.685	216.88
258.918	219.88
259.151	235.88
259.383	218.88
259.616	225.88
259.849	227.88
260.081	228.88
260.314	250.88
260.547	258.88
260.779	263.88
261.012	232.88
261.244	213.88
261.477	216.88
261.71	219.88
261.942	240.88
262.175	238.88
262.407	239.88
262.64	201.88
262.872	230.88
263.105	218.88
263.337	207.88
263.57	207.88
263.802	217.88
264.035	228.88
264.267	226.88
264.499	223.88
264.732	212.88
264.964	240.88
265.197	216.88
265.429	228.88
265.661	214.88
265.894	221.88
266.126	216.88
266.358	222.88
266.591	235.88
266.823	248.88
267.055	251.88
267.287	211.88
267.52	243.88
267.752	225.88
267.984	227.88
268.216	246.88
268.448	244.88
268.681	253.88
268.913	265.88
269.145	283.88
269.377	294.88
269.609	281.88
269.841	285.88
270.073	270.88
270.306	289.88
270.538	313.88
270.77	325.88
271.002	294.88
271.234	303.88
271.466	302.88
271.698	299.88
271.93	327.88
272.162	335.88
272.394	312.88
272.626	310.88
272.858	296.88
273.09	295.88
273.322	280.88
273.553	287.88
273.785	277.88
274.017	274.88
274.249	284.88
274.481	273.88
274.713	284.88
274.945	276.88
275.176	288.88
275.408	269.88
275.64	267.88
275.872	299.88
276.104	267.88
276.335	291.88
276.567	277.88
276.799	276.88
277.031	324.88
277.262	326.88
277.494	325.88
277.726	334.88
277.957	307.88
278.189	294.88
278.421	282.88
278.652	300.88
278.884	286.88
279.115	277.88
279.347	291.88
279.579	278.88
279.81	287.88
280.042	274.88
280.273	270.88
280.505	291.88
280.736	275.88
280.968	278.88
281.199	282.88
281.431	295.88
281.662	283.88
281.894	291.88
282.125	296.88
282.356	319.88
282.588	308.88
282.819	297.88
283.051	293.88
283.282	292.88
283.513	282.88
283.745	288.88
283.976	271.88
284.207	295.88
284.439	305.88
284.67	295.88
284.901	298.88
285.132	296.88
285.364	303.88
285.595	300.88
285.826	319.88
286.057	304.88
286.288	315.88
286.52	305.88
286.751	291.88
286.982	290.88
287.213	285.88
287.444	306.88
287.675	306.88
287.906	312.88
288.138	315.88
288.369	312.88
288.6	330.88
288.831	330.88
289.062	313.88
289.293	320.88
289.524	299.88
289.755	305.88
289.986	299.88
290.217	295.88
290.448	318.88
290.679	299.88
290.91	304.88
291.141	292.88
291.371	307.88
291.602	320.88
291.833	322.88
292.064	315.88
292.295	319.88
292.526	305.88
292.757	308.88
292.987	322.88
293.218	315.88
293.449	308.88
293.68	296.88
293.91	319.88
294.141	303.88
294.372	294.88
294.603	320.88
294.833	310.88
295.064	322.88
295.295	315.88
295.525	310.88
295.756	313.88
295.987	308.88
296.217	310.88
296.448	357.88
296.679	325.88
296.909	313.88
297.14	323.88
297.37	313.88
297.601	332.88
297.831	314.88
298.062	316.88
298.292	323.88
298.523	338.88
298.753	308.88
298.984	321.88
299.214	319.88
299.445	341.88
299.675	332.88
299.905	341.88
300.136	351.88
300.366	329.88
300.597	340.88
300.827	347.88
301.057	345.88
301.288	343.88
301.518	345.88
301.748	352.88
301.979	327.88
302.209	336.88
302.439	328.88
302.669	343.88
302.9	348.88
303.13	355.88
303.36	339.88
303.59	359.88
303.82	337.88
304.051	361.88
304.281	331.88
304.511	346.88
304.741	344.88
304.971	329.88
305.201	347.88
305.431	332.88
305.661	349.88
305.891	355.88
306.121	338.88
306.352	341.88
306.582	352.88
306.812	358.88
307.042	348.88
307.272	356.88
307.502	350.88
307.731	347.88
307.961	353.88
308.191	337.88
308.421	339.88
308.651	369.88
308.881	346.88
309.111	356.88
309.341	348.88
309.571	371.88
309.8	382.88
310.03	385.88
310.26	369.88
310.49	378.88
310.72	372.88
310.949	391.88
311.179	391.88
311.409	375.88
311.639	388.88
311.868	382.88
312.098	399.88
312.328	383.88
312.557	404.88
312.787	412.88
313.017	424.88
313.246	399.88
313.476	389.88
313.706	390.88
313.935	406.88
314.165	404.88
314.394	399.88
314.624	423.88
314.853	394.88
315.083	394.88
315.312	409.88
315.542	393.88
315.771	400.88
316.001	402.88
316.23	389.88
316.46	400.88
316.689	382.88
316.919	379.88
317.148	405.88
317.377	420.88
317.607	416.88
317.836	407.88
318.065	383.88
318.295	384.88
318.524	383.88
318.753	394.88
318.983	384.88
319.212	383.88
319.441	393.88
319.67	402.88
319.9	398.88
320.129	399.88
320.358	415.88
320.587	411.88
320.816	386.88
321.046	419.88
321.275	398.88
321.504	387.88
321.733	403.88
321.962	430.88
322.191	428.88
322.42	412.88
322.649	434.88
322.878	455.88
323.108	457.88
323.337	479.88
323.566	483.88
323.795	503.88
324.024	543.88
324.253	646.88
324.482	817.88
324.71	1298.88
324.939	1922.88
325.168	1706.88
325.397	870.88
325.626	610.88
325.855	514.88
326.084	488.88
326.313	500.88
326.542	488.88
326.77	522.88
326.999	588.88
327.228	776.88
327.457	1198.88
327.686	1470.88
327.914	953.88
328.143	661.88
328.372	578.88
328.6	538.88
328.829	529.88
329.058	539.88
329.287	563.88
329.515	536.88
329.744	495.88
329.972	484.88
330.201	519.88
330.43	558.88
330.658	584.88
330.887	570.88
331.115	568.88
331.344	515.88
331.572	491.88
331.801	495.88
332.03	495.88
332.258	473.88
332.486	479.88
332.715	477.88
332.943	482.88
333.172	468.88
333.4	494.88
333.629	496.88
333.857	505.88
334.085	519.88
334.314	538.88
334.542	560.88
334.771	558.88
334.999	538.88
335.227	488.88
335.455	491.88
335.684	475.88
335.912	483.88
336.14	476.88
336.369	489.88
336.597	482.88
336.825	477.88
337.053	459.88
337.281	474.88
337.51	451.88
337.738	472.88
337.966	466.88
338.194	446.88
338.422	453.88
338.65	470.88
338.878	446.88
339.106	455.88
339.334	443.88
339.562	449.88
339.79	452.88
340.018	436.88
340.246	457.88
340.474	471.88
340.702	460.88
340.93	436.88
341.158	455.88
341.386	453.88
341.614	451.88
341.842	450.88
342.07	433.88
342.298	451.88
342.526	431.88
342.754	423.88
342.981	442.88
343.209	445.88
343.437	426.88
343.665	481.88
343.893	477.88
344.12	480.88
344.348	450.88
344.576	448.88
344.804	465.88
345.031	469.88
345.259	486.88
345.487	485.88
345.714	459.88
345.942	452.88
346.17	438.88
346.397	447.88
346.625	416.88
346.853	439.88
347.08	435.88
347.308	440.88
347.535	446.88
347.763	445.88
347.99	456.88
348.218	448.88
348.445	441.88
348.673	427.88
348.9	422.88
349.128	434.88
349.355	433.88
349.583	439.88
349.81	411.88
350.037	417.88
350.265	415.88
350.492	420.88
350.72	433.88
350.947	444.88
351.174	433.88
351.402	453.88
351.629	411.88
351.856	434.88
352.083	445.88
352.311	440.88
352.538	434.88
352.765	430.88
352.992	442.88
353.22	439.88
353.447	427.88
353.674	446.88
353.901	406.88
354.128	418.88
354.355	419.88
354.583	426.88
354.81	409.88
355.037	412.88
355.264	434.88
355.491	416.88
355.718	412.88
355.945	409.88
356.172	423.88
356.399	417.88
356.626	424.88
356.853	408.88
357.08	403.88
357.307	408.88
357.534	403.88
357.761	404.88
357.988	407.88
358.215	423.88
358.441	406.88
358.668	400.88
358.895	410.88
359.122	416.88
359.349	439.88
359.576	443.88
359.802	444.88
360.029	478.88
360.256	488.88
360.483	472.88
360.709	444.88
360.936	443.88
361.163	447.88
361.39	428.88
361.616	435.88
361.843	434.88
362.07	434.88
362.296	443.88
362.523	439.88
362.749	431.88
362.976	439.88
363.203	421.88
363.429	415.88
363.656	433.88
363.882	409.88
364.109	424.88
364.335	420.88
364.562	431.88
364.788	427.88
365.015	422.88
365.241	436.88
365.468	418.88
365.694	438.88
365.92	442.88
366.147	428.88
366.373	434.88
366.599	416.88
366.826	428.88
367.052	432.88
367.278	409.88
367.505	422.88
367.731	402.88
367.957	433.88
368.184	425.88
368.41	423.88
368.636	459.88
368.862	451.88
369.089	435.88
369.315	407.88
369.541	413.88
369.767	426.88
369.993	424.88
370.219	436.88
370.445	420.88
370.672	410.88
370.898	432.88
371.124	418.88
371.35	457.88
371.576	441.88
371.802	416.88
372.028	440.88
372.254	435.88
372.48	423.88
372.706	438.88
372.932	444.88
373.158	446.88
373.384	434.88
373.61	421.88
373.835	449.88
374.061	427.88
374.287	431.88
374.513	436.88
374.739	447.88
374.965	449.88
375.191	460.88
375.416	433.88
375.642	443.88
375.868	440.88
376.094	435.88
376.319	424.88
376.545	447.88
376.771	435.88
376.997	434.88
377.222	426.88
377.448	427.88
377.674	417.88
377.899	443.88
378.125	425.88
378.35	430.88
378.576	432.88
378.802	424.88
379.027	447.88
379.253	442.88
379.478	434.88
379.704	431.88
379.929	424.88
380.155	420.88
380.38	439.88
380.606	422.88
380.831	434.88
381.057	404.88
381.282	437.88
381.507	422.88
381.733	451.88
381.958	442.88
382.184	425.88
382.409	436.88
382.634	447.88
382.86	421.88
383.085	461.88
383.31	437.88
383.535	450.88
383.761	449.88
383.986	469.88
384.211	465.88
384.436	464.88
384.662	469.88
384.887	465.88
385.112	472.88
385.337	505.88
385.562	477.88
385.787	484.88
386.013	495.88
386.238	520.88
386.463	488.88
386.688	482.88
386.913	472.88
387.138	468.88
387.363	474.88
387.588	477.88
387.813	496.88
388.038	502.88
388.263	499.88
388.488	488.88
388.713	492.88
388.938	476.88
389.163	498.88
389.387	498.88
389.612	486.88
389.837	474.88
390.062	460.88
390.287	490.88
390.512	495.88
390.736	486.88
390.961	484.88
391.186	488.88
391.411	461.88
391.636	499.88
391.86	522.88
392.085	506.88
392.31	520.88
392.534	489.88
392.759	502.88
392.984	495.88
393.208	498.88
393.433	485.88
393.658	510.88
393.882	490.88
394.107	483.88
394.331	488.88
394.556	490.88
394.78	489.88
395.005	505.88
395.229	475.88
395.454	510.88
395.678	505.88
395.903	509.88
396.127	516.88
396.352	551.88
396.576	500.88
396.801	513.88
397.025	531.88
397.249	521.88
397.474	510.88
397.698	504.88
397.922	524.88
398.147	544.88
398.371	562.88
398.595	544.88
398.82	564.88
399.044	593.88
399.268	586.88
399.492	631.88
399.717	678.88
399.941	714.88
400.165	728.88
400.389	685.88
400.613	646.88
400.837	598.88
401.062	576.88
401.286	584.88
401.51	569.88
401.734	563.88
401.958	578.88
402.182	571.88
402.406	584.88
402.63	576.88
402.854	572.88
403.078	574.88
403.302	578.88
403.526	580.88
403.75	604.88
403.974	602.88
404.198	586.88
404.422	585.88
404.645	603.88
404.869	611.88
405.093	644.88
405.317	671.88
405.541	703.88
405.765	667.88
405.988	636.88
406.212	610.88
406.436	625.88
406.66	646.88
406.883	641.88
407.107	675.88
407.331	699.88
407.555	794.88
407.778	776.88
408.002	726.88
408.226	663.88
408.449	648.88
408.673	664.88
408.896	682.88
409.12	698.88
409.344	664.88
409.567	610.88
409.791	600.88
410.014	603.88
410.238	598.88
410.461	611.88
410.685	592.88
410.908	626.88
411.132	644.88
411.355	682.88
411.578	659.88
411.802	592.88
412.025	611.88
412.249	615.88
412.472	628.88
412.695	652.88
412.919	643.88
413.142	612.88
413.365	610.88
413.589	580.88
413.812	573.88
414.035	546.88
414.258	553.88
414.482	548.88
414.705	572.88
414.928	564.88
415.151	564.88
415.374	539.88
415.597	535.88
415.821	535.88
416.044	574.88
416.267	551.88
416.49	544.88
416.713	537.88
416.936	561.88
417.159	553.88
417.382	539.88
417.605	552.88
417.828	575.88
418.051	596.88
418.274	575.88
418.497	542.88
418.72	554.88
418.943	549.88
419.166	583.88
419.389	641.88
419.611	631.88
419.834	600.88
420.057	587.88
420.28	613.88
420.503	560.88
420.726	577.88
420.948	600.88
421.171	638.88
421.394	648.88
421.617	599.88
421.839	593.88
422.062	577.88
422.285	562.88
422.507	662.88
422.73	734.88
422.953	696.88
423.175	647.88
423.398	599.88
423.621	602.88
423.843	597.88
424.066	628.88
424.288	609.88
424.511	627.88
424.733	702.88
424.956	743.88
425.178	728.88
425.401	731.88
425.623	779.88
425.846	664.88
426.068	603.88
426.291	584.88
426.513	610.88
426.735	621.88
426.958	670.88
427.18	764.88
427.402	886.88
427.625	944.88
427.847	825.88
428.069	743.88
428.292	640.88
428.514	604.88
428.736	573.88
428.958	607.88
429.181	564.88
429.403	576.88
429.625	579.88
429.847	606.88
430.069	652.88
430.292	656.88
430.514	582.88
430.736	587.88
430.958	592.88
431.18	541.88
431.402	553.88
431.624	530.88
431.846	535.88
432.068	536.88
432.29	520.88
432.512	538.88
432.734	538.88
432.956	544.88
433.178	548.88
433.4	546.88
433.622	531.88
433.844	543.88
434.066	542.88
434.287	528.88
434.509	577.88
434.731	558.88
434.953	549.88
435.175	620.88
435.397	606.88
435.618	623.88
435.84	642.88
436.062	729.88
436.284	830.88
436.505	670.88
436.727	622.88
436.949	595.88
437.17	569.88
437.392	554.88
437.614	569.88
437.835	587.88
438.057	682.88
438.278	772.88
438.5	793.88
438.721	891.88
438.943	832.88
439.165	670.88
439.386	625.88
439.608	591.88
439.829	613.88
440.05	636.88
440.272	658.88
440.493	632.88
440.715	578.88
440.936	588.88
441.158	584.88
441.379	562.88
441.6	581.88
441.822	612.88
442.043	633.88
442.264	724.88
442.486	780.88
442.707	678.88
442.928	638.88
443.149	615.88
443.371	652.88
443.592	694.88
443.813	786.88
444.034	862.88
444.255	734.88
444.476	665.88
444.698	638.88
444.919	642.88
445.14	739.88
445.361	703.88
445.582	648.88
445.803	714.88
446.024	829.88
446.245	826.88
446.466	744.88
446.687	648.88
446.908	614.88
447.129	560.88
447.35	562.88
447.571	549.88
447.792	562.88
448.013	564.88
448.234	562.88
448.455	600.88
448.675	719.88
448.896	831.88
449.117	724.88
449.338	654.88
449.559	792.88
449.779	896.88
450	730.88
450.221	625.88
450.442	570.88
450.662	551.88
450.883	523.88
451.104	578.88
451.324	569.88
451.545	502.88
451.766	497.88
451.986	497.88
452.207	498.88
452.428	486.88
452.648	498.88
452.869	491.88
453.089	526.88
453.31	508.88
453.53	511.88
453.751	471.88
453.971	492.88
454.192	512.88
454.412	497.88
454.633	498.88
454.853	498.88
455.073	471.88
455.294	510.88
455.514	586.88
455.734	579.88
455.955	497.88
456.175	475.88
456.395	466.88
456.616	469.88
456.836	468.88
457.056	455.88
457.276	454.88
457.497	468.88
457.717	459.88
457.937	489.88
458.157	474.88
458.377	488.88
458.598	501.88
458.818	541.88
459.038	623.88
459.258	652.88
459.478	599.88
459.698	545.88
459.918	555.88
460.138	538.88
460.358	561.88
460.578	553.88
460.798	552.88
461.018	554.88
461.238	570.88
461.458	555.88
461.678	551.88
461.898	548.88
462.118	567.88
462.338	578.88
462.558	603.88
462.777	579.88
462.997	603.88
463.217	635.88
463.437	641.88
463.657	607.88
463.876	602.88
464.096	598.88
464.316	596.88
464.536	608.88
464.755	589.88
464.975	610.88
465.195	638.88
465.414	652.88
465.634	611.88
465.854	562.88
466.073	533.88
466.293	529.88
466.512	505.88
466.732	506.88
466.951	529.88
467.171	524.88
467.391	523.88
467.61	513.88
467.829	512.88
468.049	530.88
468.268	526.88
468.488	492.88
468.707	500.88
468.927	519.88
469.146	498.88
469.365	499.88
469.585	500.88
469.804	529.88
470.023	541.88
470.243	533.88
470.462	530.88
470.681	526.88
470.901	539.88
471.12	520.88
471.339	510.88
471.558	511.88
471.777	529.88
471.997	501.88
472.216	516.88
472.435	544.88
472.654	544.88
472.873	529.88
473.092	528.88
473.311	504.88
473.53	514.88
473.749	510.88
473.968	581.88
474.187	658.88
474.406	688.88
474.625	567.88
474.844	567.88
475.063	506.88
475.282	503.88
475.501	510.88
475.72	524.88
475.939	519.88
476.158	538.88
476.377	551.88
476.596	524.88
476.814	544.88
477.033	566.88
477.252	568.88
477.471	554.88
477.69	571.88
477.908	569.88
478.127	562.88
478.346	591.88
478.564	570.88
478.783	598.88
479.002	600.88
479.22	602.88
479.439	642.88
479.658	634.88
479.876	626.88
480.095	624.88
480.313	644.88
480.532	647.88
480.751	640.88
480.969	655.88
481.188	710.88
481.406	721.88
481.624	674.88
481.843	616.88
482.061	632.88
482.28	619.88
482.498	614.88
482.717	575.88
482.935	594.88
483.153	614.88
483.372	611.88
483.59	596.88
483.808	603.88
484.027	597.88
484.245	586.88
484.463	610.88
484.681	648.88
484.9	640.88
485.118	644.88
485.336	632.88
485.554	635.88
485.772	650.88
485.99	641.88
486.209	628.88
486.427	648.88
486.645	646.88
486.863	640.88
487.081	660.88
487.299	639.88
487.517	644.88
487.735	637.88
487.953	659.88
488.171	671.88
488.389	627.88
488.607	653.88
488.825	651.88
489.043	666.88
489.261	640.88
489.479	653.88
489.696	665.88
489.914	658.88
490.132	675.88
490.35	667.88
490.568	667.88
490.786	696.88
491.003	717.88
491.221	739.88
491.439	730.88
491.657	720.88
491.874	759.88
492.092	762.88
492.31	768.88
492.527	751.88
492.745	759.88
492.963	772.88
493.18	760.88
493.398	773.88
493.615	762.88
493.833	771.88
494.05	757.88
494.268	738.88
494.485	766.88
494.703	771.88
494.92	788.88
495.138	766.88
495.355	762.88
495.573	788.88
495.79	783.88
496.008	766.88
496.225	783.88
496.442	782.88
496.66	818.88
496.877	785.88
497.094	788.88
497.312	786.88
497.529	850.88
497.746	824.88
497.963	815.88
498.181	871.88
498.398	870.88
498.615	857.88
498.832	876.88
499.049	932.88
499.267	951.88
499.484	988.88
499.701	1013.88
499.918	1076.88
500.135	1123.88
500.352	1215.88
500.569	1248.88
500.786	1313.88
501.003	1234.88
501.22	1194.88
501.437	1118.88
501.654	1082.88
501.871	1027.88
502.088	986.88
502.305	954.88
502.522	914.88
502.739	899.88
502.956	870.88
503.172	841.88
503.389	825.88
503.606	825.88
503.823	800.88
504.04	768.88
504.256	802.88
504.473	806.88
504.69	801.88
504.907	783.88
505.123	793.88
505.34	766.88
505.557	769.88
505.773	723.88
505.99	722.88
506.207	728.88
506.423	742.88
506.64	710.88
506.856	738.88
507.073	702.88
507.289	729.88
507.506	724.88
507.722	701.88
507.939	730.88
508.155	682.88
508.372	709.88
508.588	688.88
508.805	701.88
509.021	689.88
509.238	684.88
509.454	690.88
509.67	707.88
509.887	671.88
510.103	679.88
510.319	687.88
510.536	738.88
510.752	1091.88
510.968	897.88
511.184	681.88
511.401	678.88
511.617	655.88
511.833	646.88
512.049	650.88
512.265	659.88
512.481	630.88
512.698	618.88
512.914	623.88
513.13	638.88
513.346	625.88
513.562	644.88
513.778	650.88
513.994	628.88
514.21	670.88
514.426	642.88
514.642	696.88
514.858	700.88
515.074	723.88
515.29	817.88
515.506	1086.88
515.721	966.88
515.937	740.88
516.153	713.88
516.369	681.88
516.585	679.88
516.801	649.88
517.016	674.88
517.232	677.88
517.448	704.88
517.664	686.88
517.879	721.88
518.095	693.88
518.311	686.88
518.527	690.88
518.742	690.88
518.958	644.88
519.173	654.88
519.389	661.88
519.605	659.88
519.82	630.88
520.036	670.88
520.251	652.88
520.467	677.88
520.682	671.88
520.898	663.88
521.113	703.88
521.329	699.88
521.544	756.88
521.76	902.88
521.975	1310.88
522.19	1363.88
522.406	825.88
522.621	690.88
522.836	630.88
523.052	614.88
523.267	609.88
523.482	595.88
523.698	596.88
523.913	559.88
524.128	579.88
524.343	566.88
524.559	562.88
524.774	560.88
524.989	537.88
525.204	560.88
525.419	563.88
525.634	538.88
525.849	559.88
526.064	516.88
526.28	548.88
526.495	529.88
526.71	552.88
526.925	552.88
527.14	511.88
527.355	534.88
527.57	517.88
527.785	536.88
527.999	514.88
528.214	546.88
528.429	525.88
528.644	535.88
528.859	551.88
529.074	524.88
529.289	546.88
529.503	604.88
529.718	581.88
529.933	551.88
530.148	555.88
530.363	551.88
530.577	515.88
530.792	506.88
531.007	517.88
531.221	508.88
531.436	521.88
531.651	515.88
531.865	509.88
532.08	513.88
532.295	501.88
532.509	511.88
532.724	514.88
532.938	515.88
533.153	512.88
533.367	520.88
533.582	510.88
533.796	508.88
534.011	522.88
534.225	505.88
534.44	512.88
534.654	492.88
534.868	495.88
535.083	522.88
535.297	490.88
535.511	494.88
535.726	532.88
535.94	524.88
536.154	514.88
536.369	492.88
536.583	506.88
536.797	494.88
537.011	497.88
537.225	497.88
537.44	495.88
537.654	491.88
537.868	465.88
538.082	490.88
538.296	494.88
538.51	497.88
538.724	483.88
538.938	479.88
539.153	506.88
539.367	499.88
539.581	505.88
539.795	487.88
540.009	464.88
540.222	499.88
540.436	514.88
540.65	476.88
540.864	498.88
541.078	532.88
541.292	518.88
541.506	480.88
541.72	510.88
541.934	495.88
542.147	481.88
542.361	505.88
542.575	506.88
542.789	470.88
543.002	494.88
543.216	490.88
543.43	495.88
543.644	478.88
543.857	481.88
544.071	492.88
544.285	492.88
544.498	494.88
544.712	500.88
544.925	497.88
545.139	511.88
545.352	474.88
545.566	478.88
545.779	478.88
545.993	478.88
546.206	497.88
546.42	494.88
546.633	477.88
546.847	470.88
547.06	472.88
547.274	485.88
547.487	510.88
547.7	493.88
547.914	486.88
548.127	486.88
548.34	489.88
548.554	459.88
548.767	498.88
548.98	475.88
549.193	477.88
549.407	494.88
549.62	508.88
549.833	479.88
550.046	448.88
550.259	480.88
550.473	499.88
550.686	470.88
550.899	473.88
551.112	473.88
551.325	468.88
551.538	454.88
551.751	481.88
551.964	463.88
552.177	474.88
552.39	496.88
552.603	496.88
552.816	464.88
553.029	479.88
553.242	490.88
553.455	469.88
553.667	499.88
553.88	487.88
554.093	502.88
554.306	515.88
554.519	489.88
554.732	453.88
554.944	479.88
555.157	463.88
555.37	469.88
555.583	453.88
555.795	441.88
556.008	436.88
556.221	409.88
556.433	457.88
556.646	458.88
556.859	456.88
557.071	430.88
557.284	422.88
557.496	446.88
557.709	449.88
557.921	411.88
558.134	432.88
558.346	435.88
558.559	446.88
558.771	438.88
558.984	427.88
559.196	436.88
559.409	422.88
559.621	430.88
559.833	420.88
560.046	419.88
560.258	409.88
560.47	454.88
560.683	418.88
560.895	419.88
561.107	408.88
561.32	415.88
561.532	421.88
561.744	409.88
561.956	389.88
562.168	423.88
562.381	415.88
562.593	413.88
562.805	443.88
563.017	438.88
563.229	436.88
563.441	428.88
563.653	423.88
563.865	426.88
564.077	432.88
564.289	439.88
564.501	454.88
564.713	454.88
564.925	448.88
565.137	440.88
565.349	474.88
565.561	463.88
565.773	461.88
565.985	468.88
566.197	495.88
566.408	519.88
566.62	534.88
566.832	555.88
567.044	550.88
567.255	544.88
567.467	565.88
567.679	580.88
567.891	601.88
568.102	576.88
568.314	572.88
568.526	560.88
568.737	555.88
568.949	500.88
569.161	498.88
569.372	474.88
569.584	455.88
569.795	446.88
570.007	441.88
570.218	482.88
570.43	457.88
570.641	414.88
570.853	415.88
571.064	432.88
571.276	425.88
571.487	398.88
571.698	399.88
571.91	402.88
572.121	410.88
572.333	383.88
572.544	393.88
572.755	400.88
572.966	396.88
573.178	394.88
573.389	377.88
573.6	363.88
573.811	383.88
574.023	360.88
574.234	377.88
574.445	370.88
574.656	359.88
574.867	373.88
575.078	368.88
575.289	375.88
575.501	372.88
575.712	368.88
575.923	357.88
576.134	344.88
576.345	357.88
576.556	367.88
576.767	345.88
576.978	356.88
577.188	354.88
577.399	352.88
577.61	343.88
577.821	333.88
578.032	366.88
578.243	370.88
578.454	513.88
578.665	427.88
578.875	326.88
579.086	316.88
579.297	336.88
579.508	348.88
579.718	340.88
579.929	336.88
580.14	351.88
580.35	335.88
580.561	326.88
580.772	347.88
580.982	322.88
581.193	332.88
581.403	323.88
581.614	330.88
581.825	318.88
582.035	325.88
582.246	328.88
582.456	327.88
582.667	305.88
582.877	322.88
583.087	332.88
583.298	314.88
583.508	335.88
583.719	313.88
583.929	335.88
584.139	315.88
584.35	327.88
584.56	332.88
584.77	317.88
584.981	339.88
585.191	324.88
585.401	323.88
585.611	327.88
585.821	321.88
586.032	331.88
586.242	300.88
586.452	309.88
586.662	323.88
586.872	305.88
587.082	322.88
587.292	327.88
587.502	307.88
587.713	317.88
587.923	325.88
588.133	319.88
588.343	303.88
588.553	294.88
588.762	330.88
588.972	324.88
589.182	331.88
589.392	305.88
589.602	328.88
589.812	302.88
590.022	299.88
590.232	336.88
590.441	309.88
590.651	310.88
590.861	312.88
591.071	321.88
591.281	322.88
591.49	315.88
591.7	332.88
591.91	328.88
592.119	323.88
592.329	314.88
592.539	347.88
592.748	312.88
592.958	337.88
593.167	352.88
593.377	348.88
593.587	374.88
593.796	343.88
594.006	332.88
594.215	357.88
594.424	346.88
594.634	348.88
594.843	313.88
595.053	336.88
595.262	340.88
595.472	335.88
595.681	317.88
595.89	311.88
596.1	316.88
596.309	324.88
596.518	320.88
596.727	306.88
596.937	298.88
597.146	306.88
597.355	305.88
597.564	283.88
597.774	289.88
597.983	300.88
598.192	288.88
598.401	292.88
598.61	292.88
598.819	296.88
599.028	269.88
599.237	279.88
599.446	283.88
599.655	277.88
599.864	290.88
600.073	272.88
600.282	279.88
600.491	263.88
600.7	278.88
600.909	286.88
601.118	291.88
601.327	284.88
601.536	266.88
601.745	269.88
601.953	278.88
602.162	276.88
602.371	266.88
602.58	271.88
602.789	268.88
602.997	269.88
603.206	278.88
603.415	281.88
603.623	258.88
603.832	287.88
604.041	276.88
604.249	274.88
604.458	248.88
604.666	269.88
604.875	258.88
605.084	261.88
605.292	262.88
605.501	251.88
605.709	258.88
605.918	268.88
606.126	268.88
606.334	267.88
606.543	273.88
606.751	264.88
606.96	264.88
607.168	259.88
607.376	257.88
607.585	244.88
607.793	263.88
608.001	260.88
608.21	277.88
608.418	258.88
608.626	269.88
608.834	254.88
609.043	265.88
609.251	269.88
609.459	268.88
609.667	259.88
609.875	246.88
610.083	267.88
610.291	266.88
610.499	273.88
610.707	267.88
610.916	272.88
611.124	265.88
611.332	259.88
611.54	254.88
611.748	264.88
611.955	263.88
612.163	264.88
612.371	287.88
612.579	272.88
612.787	247.88
612.995	265.88
613.203	259.88
613.411	258.88
613.618	255.88
613.826	256.88
614.034	258.88
614.242	256.88
614.449	262.88
614.657	240.88
614.865	252.88
615.072	245.88
615.28	245.88
615.488	264.88
615.695	249.88
615.903	250.88
616.111	240.88
616.318	260.88
616.526	257.88
616.733	236.88
616.941	231.88
617.148	268.88
617.356	252.88
617.563	272.88
617.771	252.88
617.978	255.88
618.185	263.88
618.393	261.88
618.6	237.88
618.807	259.88
619.015	249.88
619.222	238.88
619.429	231.88
619.637	237.88
619.844	247.88
620.051	259.88
620.258	254.88
620.466	212.88
620.673	216.88
620.88	235.88
621.087	227.88
621.294	235.88
621.501	244.88
621.708	223.88
621.915	236.88
622.122	238.88
622.329	243.88
622.536	238.88
622.743	226.88
622.95	223.88
623.157	239.88
623.364	220.88
623.571	219.88
623.778	227.88
623.985	222.88
624.192	219.88
624.399	218.88
624.606	202.88
624.812	209.88
625.019	224.88
625.226	234.88
625.433	214.88
625.639	222.88
625.846	207.88
626.053	216.88
626.259	221.88
626.466	243.88
626.673	219.88
626.879	203.88
627.086	231.88
627.293	216.88
627.499	209.88
627.706	212.88
627.912	214.88
628.119	215.88
628.325	203.88
628.532	220.88
628.738	214.88
628.945	195.88
629.151	219.88
629.357	197.88
629.564	205.88
629.77	215.88
629.976	211.88
630.183	202.88
630.389	204.88
630.595	202.88
630.802	212.88
631.008	220.88
631.214	211.88
631.42	207.88
631.627	209.88
631.833	205.88
632.039	193.88
632.245	191.88
632.451	209.88
632.657	203.88
632.863	194.88
633.069	221.88
633.275	211.88
633.481	182.88
633.688	190.88
633.893	191.88
634.099	211.88
634.305	186.88
634.511	193.88
634.717	193.88
634.923	201.88
635.129	191.88
635.335	186.88
635.541	184.88
635.747	189.88
635.952	187.88
636.158	179.88
636.364	182.88
636.57	203.88
636.775	188.88
636.981	188.88
637.187	187.88
637.392	199.88
637.598	202.88
637.804	179.88
638.009	201.88
638.215	178.88
638.421	196.88
638.626	173.88
638.832	172.88
639.037	185.88
639.243	190.88
639.448	194.88
639.654	196.88
639.859	178.88
640.065	180.88
640.27	180.88
640.475	177.88
640.681	176.88
640.886	189.88
641.091	169.88
641.297	188.88
641.502	162.88
641.707	165.88
641.913	194.88
642.118	174.88
642.323	188.88
642.528	192.88
642.733	192.88
642.939	187.88
643.144	189.88
643.349	198.88
643.554	159.88
643.759	184.88
643.964	169.88
644.169	176.88
644.374	182.88
644.579	185.88
644.784	182.88
644.989	172.88
645.194	171.88
645.399	175.88
645.604	187.88
645.809	170.88
646.014	179.88
646.219	179.88
646.423	186.88
646.628	199.88
646.833	188.88
647.038	163.88
647.243	180.88
647.447	175.88
647.652	179.88
647.857	178.88
648.062	168.88
648.266	176.88
648.471	183.88
648.676	186.88
648.88	188.88
649.085	173.88
649.289	167.88
649.494	174.88
649.698	190.88
649.903	178.88
650.107	171.88
650.312	160.88
650.516	164.88
650.721	156.88
650.925	170.88
651.13	162.88
651.334	160.88
651.539	149.88
651.743	146.88
651.947	144.88
652.152	151.88
652.356	150.88
652.56	144.88
652.764	153.88
652.969	137.88
653.173	136.88
653.377	143.88
653.581	148.88
653.785	137.88
653.99	123.88
654.194	143.88
654.398	156.88
654.602	140.88
654.806	145.88
655.01	130.88
655.214	139.88
655.418	151.88
655.622	144.88
655.826	148.88
656.03	130.88
656.234	144.88
656.438	124.88
656.642	131.88
656.846	135.88
657.049	133.88
657.253	126.88
657.457	126.88
657.661	117.88
657.865	124.88
658.068	117.88
658.272	108.88
658.476	130.88
658.68	109.88
658.883	108.88
659.087	104.88
659.291	98.88
659.494	97.88
659.698	117.88
659.901	102.88
660.105	87.88
660.309	95.88
660.512	95.88
660.716	85.88
660.919	95.88
661.123	91.88
661.326	88.88
661.53	90.88
661.733	94.88
661.936	97.88
662.14	84.88
662.343	91.88
662.546	81.88
662.75	80.88
662.953	86.88
663.156	82.88
663.36	73.88
663.563	90.88
663.766	81.88
663.969	76.88
664.173	71.88
664.376	79.88
664.579	86.88
664.782	83.88
664.985	73.88
665.188	76.88
665.391	73.88
665.594	80.88
665.797	81.88
666	90.88
666.203	71.88
666.406	76.88
666.609	73.88
666.812	65.88
667.015	71.88
667.218	94.88
667.421	62.88
667.624	79.88
667.827	86.88
668.03	62.88
668.232	87.88
668.435	76.88
668.638	72.88
668.841	89.88
669.043	82.88
669.246	82.88
669.449	75.88
669.651	77.88
669.854	84.88
670.057	65.88
670.259	69.88
670.462	73.88
670.665	86.88
670.867	84.88
671.07	80.88
671.272	88.88
671.475	83.88
671.677	71.88
671.88	79.88
672.082	84.88
672.284	77.88
672.487	82.88
672.689	73.88
672.892	70.88
