Data from 1975.PennyLincolnUp.Lamp.En5.5.200Scan.071719.P1.Changed Mount._HRD10591_15-57-24-860.txt Node
Date: Thu Jul 18 15:57:24 EDT 2019
User: cochatt
Spectrometer: HR+D1059
Trigger mode: 1
Integration Time (sec): 1.000000E-1
Scans to average: 1
Electric dark correction enabled: true
Nonlinearity correction enabled: false
Boxcar width: 0
XAxis mode: Wavelengths
Number of Pixels in Spectrum: 2048
>>>>>Begin Spectral Data<<<<<
223.165	-19.5
223.4	-19.5
223.635	-19.5
223.869	-6.5
224.104	-16.5
224.338	-7.5
224.573	-20.5
224.808	-2.5
225.042	-0.5
225.277	0.5
225.511	-12.5
225.746	-1.5
225.98	9.5
226.215	-7.5
226.449	14.5
226.683	3.5
226.918	34.5
227.152	32.5
227.387	36.5
227.621	42.5
227.856	42.5
228.09	44.5
228.324	37.5
228.559	60.5
228.793	66.5
229.027	92.5
229.262	103.5
229.496	112.5
229.73	117.5
229.964	140.5
230.199	114.5
230.433	118.5
230.667	122.5
230.901	104.5
231.136	115.5
231.37	115.5
231.604	134.5
231.838	120.5
232.072	125.5
232.306	109.5
232.541	112.5
232.775	111.5
233.009	119.5
233.243	128.5
233.477	128.5
233.711	114.5
233.945	127.5
234.179	112.5
234.413	116.5
234.647	119.5
234.881	119.5
235.115	125.5
235.349	125.5
235.583	111.5
235.817	129.5
236.051	139.5
236.285	137.5
236.519	123.5
236.753	119.5
236.987	160.5
237.221	185.5
237.455	222.5
237.689	183.5
237.922	151.5
238.156	131.5
238.39	128.5
238.624	135.5
238.858	139.5
239.091	130.5
239.325	137.5
239.559	141.5
239.793	148.5
240.027	135.5
240.26	140.5
240.494	156.5
240.728	154.5
240.961	152.5
241.195	153.5
241.429	146.5
241.662	156.5
241.896	128.5
242.13	123.5
242.363	132.5
242.597	139.5
242.83	153.5
243.064	147.5
243.298	137.5
243.531	141.5
243.765	149.5
243.998	153.5
244.232	150.5
244.465	134.5
244.699	159.5
244.932	149.5
245.166	140.5
245.399	145.5
245.633	163.5
245.866	151.5
246.099	160.5
246.333	149.5
246.566	161.5
246.8	166.5
247.033	155.5
247.266	153.5
247.5	183.5
247.733	174.5
247.966	178.5
248.2	179.5
248.433	163.5
248.666	200.5
248.899	181.5
249.133	196.5
249.366	214.5
249.599	189.5
249.832	172.5
250.066	180.5
250.299	181.5
250.532	202.5
250.765	207.5
250.998	230.5
251.231	240.5
251.465	215.5
251.698	205.5
251.931	201.5
252.164	208.5
252.397	215.5
252.63	188.5
252.863	201.5
253.096	222.5
253.329	209.5
253.562	211.5
253.795	221.5
254.028	228.5
254.261	217.5
254.494	223.5
254.727	256.5
254.96	293.5
255.193	274.5
255.426	234.5
255.659	235.5
255.892	224.5
256.124	245.5
256.357	250.5
256.59	248.5
256.823	220.5
257.056	209.5
257.289	209.5
257.521	239.5
257.754	219.5
257.987	228.5
258.22	209.5
258.452	192.5
258.685	209.5
258.918	215.5
259.151	212.5
259.383	228.5
259.616	238.5
259.849	236.5
260.081	245.5
260.314	241.5
260.547	245.5
260.779	254.5
261.012	238.5
261.244	247.5
261.477	224.5
261.71	227.5
261.942	234.5
262.175	245.5
262.407	239.5
262.64	219.5
262.872	225.5
263.105	230.5
263.337	230.5
263.57	214.5
263.802	237.5
264.035	237.5
264.267	226.5
264.499	227.5
264.732	230.5
264.964	201.5
265.197	219.5
265.429	215.5
265.661	240.5
265.894	232.5
266.126	221.5
266.358	237.5
266.591	245.5
266.823	232.5
267.055	230.5
267.287	241.5
267.52	245.5
267.752	221.5
267.984	235.5
268.216	250.5
268.448	237.5
268.681	232.5
268.913	253.5
269.145	269.5
269.377	285.5
269.609	288.5
269.841	269.5
270.073	284.5
270.306	291.5
270.538	316.5
270.77	327.5
271.002	303.5
271.234	300.5
271.466	294.5
271.698	294.5
271.93	306.5
272.162	337.5
272.394	319.5
272.626	309.5
272.858	301.5
273.09	273.5
273.322	286.5
273.553	275.5
273.785	274.5
274.017	291.5
274.249	302.5
274.481	273.5
274.713	279.5
274.945	261.5
275.176	267.5
275.408	268.5
275.64	288.5
275.872	267.5
276.104	267.5
276.335	264.5
276.567	287.5
276.799	289.5
277.031	307.5
277.262	321.5
277.494	320.5
277.726	303.5
277.957	293.5
278.189	286.5
278.421	285.5
278.652	284.5
278.884	299.5
279.115	281.5
279.347	275.5
279.579	263.5
279.81	277.5
280.042	298.5
280.273	278.5
280.505	286.5
280.736	264.5
280.968	265.5
281.199	284.5
281.431	284.5
281.662	275.5
281.894	283.5
282.125	297.5
282.356	281.5
282.588	312.5
282.819	317.5
283.051	307.5
283.282	293.5
283.513	279.5
283.745	291.5
283.976	271.5
284.207	292.5
284.439	283.5
284.67	294.5
284.901	321.5
285.132	299.5
285.364	283.5
285.595	292.5
285.826	288.5
286.057	304.5
286.288	300.5
286.52	287.5
286.751	291.5
286.982	274.5
287.213	311.5
287.444	313.5
287.675	308.5
287.906	295.5
288.138	319.5
288.369	313.5
288.6	311.5
288.831	319.5
289.062	297.5
289.293	304.5
289.524	290.5
289.755	320.5
289.986	291.5
290.217	304.5
290.448	318.5
290.679	326.5
290.91	291.5
291.141	291.5
291.371	313.5
291.602	303.5
291.833	303.5
292.064	303.5
292.295	320.5
292.526	318.5
292.757	307.5
292.987	315.5
293.218	300.5
293.449	318.5
293.68	293.5
293.91	311.5
294.141	327.5
294.372	320.5
294.603	318.5
294.833	323.5
295.064	329.5
295.295	318.5
295.525	341.5
295.756	318.5
295.987	318.5
296.217	330.5
296.448	337.5
296.679	326.5
296.909	339.5
297.14	313.5
297.37	322.5
297.601	324.5
297.831	314.5
298.062	313.5
298.292	321.5
298.523	328.5
298.753	328.5
298.984	328.5
299.214	343.5
299.445	348.5
299.675	327.5
299.905	333.5
300.136	326.5
300.366	331.5
300.597	322.5
300.827	337.5
301.057	346.5
301.288	360.5
301.518	344.5
301.748	345.5
301.979	356.5
302.209	346.5
302.439	347.5
302.669	347.5
302.9	354.5
303.13	337.5
303.36	337.5
303.59	337.5
303.82	351.5
304.051	360.5
304.281	347.5
304.511	342.5
304.741	356.5
304.971	348.5
305.201	348.5
305.431	365.5
305.661	331.5
305.891	342.5
306.121	346.5
306.352	359.5
306.582	345.5
306.812	334.5
307.042	358.5
307.272	347.5
307.502	369.5
307.731	359.5
307.961	348.5
308.191	343.5
308.421	346.5
308.651	360.5
308.881	337.5
309.111	355.5
309.341	356.5
309.571	360.5
309.8	375.5
310.03	367.5
310.26	355.5
310.49	378.5
310.72	381.5
310.949	383.5
311.179	389.5
311.409	397.5
311.639	397.5
311.868	380.5
312.098	393.5
312.328	392.5
312.557	417.5
312.787	405.5
313.017	406.5
313.246	391.5
313.476	381.5
313.706	395.5
313.935	382.5
314.165	397.5
314.394	408.5
314.624	400.5
314.853	401.5
315.083	402.5
315.312	379.5
315.542	400.5
315.771	374.5
316.001	383.5
316.23	397.5
316.46	391.5
316.689	399.5
316.919	384.5
317.148	393.5
317.377	412.5
317.607	395.5
317.836	407.5
318.065	379.5
318.295	385.5
318.524	381.5
318.753	374.5
318.983	385.5
319.212	377.5
319.441	376.5
319.67	407.5
319.9	401.5
320.129	406.5
320.358	367.5
320.587	397.5
320.816	400.5
321.046	397.5
321.275	405.5
321.504	405.5
321.733	407.5
321.962	393.5
322.191	418.5
322.42	427.5
322.649	437.5
322.878	427.5
323.108	463.5
323.337	467.5
323.566	468.5
323.795	483.5
324.024	542.5
324.253	611.5
324.482	824.5
324.71	1230.5
324.939	1817.5
325.168	1641.5
325.397	847.5
325.626	607.5
325.855	500.5
326.084	486.5
326.313	506.5
326.542	465.5
326.77	493.5
326.999	589.5
327.228	766.5
327.457	1113.5
327.686	1373.5
327.914	951.5
328.143	618.5
328.372	565.5
328.6	544.5
328.829	524.5
329.058	537.5
329.287	538.5
329.515	500.5
329.744	490.5
329.972	495.5
330.201	532.5
330.43	552.5
330.658	551.5
330.887	576.5
331.115	561.5
331.344	507.5
331.572	499.5
331.801	499.5
332.03	491.5
332.258	475.5
332.486	475.5
332.715	458.5
332.943	490.5
333.172	494.5
333.4	484.5
333.629	485.5
333.857	514.5
334.085	524.5
334.314	533.5
334.542	551.5
334.771	577.5
334.999	551.5
335.227	501.5
335.455	476.5
335.684	483.5
335.912	484.5
336.14	475.5
336.369	461.5
336.597	471.5
336.825	481.5
337.053	464.5
337.281	465.5
337.51	468.5
337.738	480.5
337.966	460.5
338.194	485.5
338.422	443.5
338.65	461.5
338.878	446.5
339.106	444.5
339.334	465.5
339.562	454.5
339.79	448.5
340.018	456.5
340.246	465.5
340.474	467.5
340.702	458.5
340.93	445.5
341.158	427.5
341.386	453.5
341.614	452.5
341.842	442.5
342.07	445.5
342.298	440.5
342.526	444.5
342.754	419.5
342.981	433.5
343.209	451.5
343.437	435.5
343.665	448.5
343.893	452.5
344.12	474.5
344.348	459.5
344.576	457.5
344.804	478.5
345.031	456.5
345.259	468.5
345.487	443.5
345.714	437.5
345.942	464.5
346.17	432.5
346.397	419.5
346.625	414.5
346.853	432.5
347.08	437.5
347.308	427.5
347.535	443.5
347.763	437.5
347.99	438.5
348.218	453.5
348.445	443.5
348.673	427.5
348.9	439.5
349.128	420.5
349.355	409.5
349.583	420.5
349.81	444.5
350.037	445.5
350.265	422.5
350.492	411.5
350.72	417.5
350.947	442.5
351.174	435.5
351.402	437.5
351.629	430.5
351.856	432.5
352.083	423.5
352.311	438.5
352.538	451.5
352.765	441.5
352.992	415.5
353.22	427.5
353.447	431.5
353.674	427.5
353.901	406.5
354.128	427.5
354.355	405.5
354.583	414.5
354.81	412.5
355.037	426.5
355.264	413.5
355.491	425.5
355.718	398.5
355.945	419.5
356.172	392.5
356.399	417.5
356.626	407.5
356.853	423.5
357.08	390.5
357.307	406.5
357.534	421.5
357.761	412.5
357.988	413.5
358.215	417.5
358.441	396.5
358.668	414.5
358.895	408.5
359.122	435.5
359.349	415.5
359.576	424.5
359.802	439.5
360.029	478.5
360.256	475.5
360.483	472.5
360.709	451.5
360.936	431.5
361.163	429.5
361.39	433.5
361.616	428.5
361.843	458.5
362.07	421.5
362.296	443.5
362.523	432.5
362.749	437.5
362.976	419.5
363.203	419.5
363.429	401.5
363.656	432.5
363.882	431.5
364.109	415.5
364.335	403.5
364.562	407.5
364.788	423.5
365.015	429.5
365.241	427.5
365.468	445.5
365.694	442.5
365.92	428.5
366.147	435.5
366.373	409.5
366.599	399.5
366.826	408.5
367.052	416.5
367.278	409.5
367.505	416.5
367.731	429.5
367.957	411.5
368.184	425.5
368.41	413.5
368.636	433.5
368.862	444.5
369.089	438.5
369.315	415.5
369.541	417.5
369.767	408.5
369.993	423.5
370.219	418.5
370.445	428.5
370.672	407.5
370.898	426.5
371.124	439.5
371.35	410.5
371.576	417.5
371.802	440.5
372.028	432.5
372.254	427.5
372.48	426.5
372.706	468.5
372.932	437.5
373.158	432.5
373.384	438.5
373.61	447.5
373.835	442.5
374.061	415.5
374.287	431.5
374.513	436.5
374.739	447.5
374.965	437.5
375.191	449.5
375.416	442.5
375.642	419.5
375.868	436.5
376.094	421.5
376.319	421.5
376.545	420.5
376.771	411.5
376.997	430.5
377.222	417.5
377.448	430.5
377.674	405.5
377.899	428.5
378.125	437.5
378.35	411.5
378.576	417.5
378.802	437.5
379.027	420.5
379.253	427.5
379.478	412.5
379.704	418.5
379.929	420.5
380.155	427.5
380.38	413.5
380.606	423.5
380.831	434.5
381.057	437.5
381.282	439.5
381.507	429.5
381.733	433.5
381.958	440.5
382.184	452.5
382.409	450.5
382.634	447.5
382.86	433.5
383.085	465.5
383.31	449.5
383.535	456.5
383.761	468.5
383.986	451.5
384.211	475.5
384.436	468.5
384.662	462.5
384.887	493.5
385.112	444.5
385.337	453.5
385.562	468.5
385.787	472.5
386.013	464.5
386.238	477.5
386.463	493.5
386.688	478.5
386.913	493.5
387.138	487.5
387.363	458.5
387.588	485.5
387.813	491.5
388.038	476.5
388.263	516.5
388.488	492.5
388.713	477.5
388.938	470.5
389.163	461.5
389.387	516.5
389.612	467.5
389.837	470.5
390.062	479.5
390.287	456.5
390.512	479.5
390.736	478.5
390.961	485.5
391.186	495.5
391.411	479.5
391.636	488.5
391.86	501.5
392.085	519.5
392.31	490.5
392.534	503.5
392.759	526.5
392.984	495.5
393.208	479.5
393.433	509.5
393.658	508.5
393.882	512.5
394.107	491.5
394.331	513.5
394.556	470.5
394.78	501.5
395.005	499.5
395.229	501.5
395.454	506.5
395.678	505.5
395.903	517.5
396.127	529.5
396.352	526.5
396.576	503.5
396.801	477.5
397.025	493.5
397.249	503.5
397.474	515.5
397.698	521.5
397.922	554.5
398.147	544.5
398.371	561.5
398.595	556.5
398.82	552.5
399.044	577.5
399.268	623.5
399.492	646.5
399.717	679.5
399.941	718.5
400.165	733.5
400.389	702.5
400.613	655.5
400.837	605.5
401.062	592.5
401.286	560.5
401.51	571.5
401.734	567.5
401.958	597.5
402.182	549.5
402.406	588.5
402.63	576.5
402.854	581.5
403.078	565.5
403.302	593.5
403.526	588.5
403.75	600.5
403.974	603.5
404.198	587.5
404.422	614.5
404.645	607.5
404.869	611.5
405.093	634.5
405.317	658.5
405.541	707.5
405.765	643.5
405.988	631.5
406.212	621.5
406.436	624.5
406.66	620.5
406.883	633.5
407.107	643.5
407.331	698.5
407.555	773.5
407.778	767.5
408.002	697.5
408.226	680.5
408.449	670.5
408.673	637.5
408.896	673.5
409.12	704.5
409.344	670.5
409.567	617.5
409.791	600.5
410.014	592.5
410.238	588.5
410.461	605.5
410.685	604.5
410.908	591.5
411.132	625.5
411.355	669.5
411.578	635.5
411.802	599.5
412.025	589.5
412.249	599.5
412.472	611.5
412.695	667.5
412.919	653.5
413.142	588.5
413.365	601.5
413.589	559.5
413.812	564.5
414.035	571.5
414.258	568.5
414.482	567.5
414.705	555.5
414.928	567.5
415.151	569.5
415.374	549.5
415.597	563.5
415.821	565.5
416.044	571.5
416.267	543.5
416.49	529.5
416.713	547.5
416.936	538.5
417.159	558.5
417.382	582.5
417.605	564.5
417.828	584.5
418.051	589.5
418.274	559.5
418.497	557.5
418.72	563.5
418.943	549.5
419.166	583.5
419.389	615.5
419.611	614.5
419.834	593.5
420.057	587.5
420.28	593.5
420.503	593.5
420.726	604.5
420.948	608.5
421.171	624.5
421.394	671.5
421.617	607.5
421.839	583.5
422.062	569.5
422.285	580.5
422.507	649.5
422.73	707.5
422.953	717.5
423.175	636.5
423.398	584.5
423.621	603.5
423.843	633.5
424.066	614.5
424.288	602.5
424.511	634.5
424.733	666.5
424.956	784.5
425.178	714.5
425.401	717.5
425.623	727.5
425.846	660.5
426.068	625.5
426.291	601.5
426.513	571.5
426.735	622.5
426.958	643.5
427.18	720.5
427.402	841.5
427.625	919.5
427.847	803.5
428.069	699.5
428.292	650.5
428.514	597.5
428.736	568.5
428.958	564.5
429.181	539.5
429.403	561.5
429.625	547.5
429.847	575.5
430.069	653.5
430.292	661.5
430.514	584.5
430.736	560.5
430.958	538.5
431.18	535.5
431.402	535.5
431.624	558.5
431.846	528.5
432.068	538.5
432.29	542.5
432.512	532.5
432.734	558.5
432.956	551.5
433.178	571.5
433.4	559.5
433.622	544.5
433.844	549.5
434.066	535.5
434.287	564.5
434.509	555.5
434.731	553.5
434.953	575.5
435.175	567.5
435.397	585.5
435.618	606.5
435.84	634.5
436.062	720.5
436.284	831.5
436.505	662.5
436.727	603.5
436.949	589.5
437.17	583.5
437.392	577.5
437.614	588.5
437.835	609.5
438.057	659.5
438.278	755.5
438.5	781.5
438.721	846.5
438.943	835.5
439.165	663.5
439.386	612.5
439.608	587.5
439.829	597.5
440.05	627.5
440.272	666.5
440.493	623.5
440.715	610.5
440.936	560.5
441.158	594.5
441.379	566.5
441.6	579.5
441.822	588.5
442.043	628.5
442.264	718.5
442.486	772.5
442.707	678.5
442.928	627.5
443.149	633.5
443.371	651.5
443.592	718.5
443.813	786.5
444.034	857.5
444.255	726.5
444.476	630.5
444.698	630.5
444.919	637.5
445.14	759.5
445.361	697.5
445.582	666.5
445.803	695.5
446.024	803.5
446.245	799.5
446.466	727.5
446.687	629.5
446.908	585.5
447.129	565.5
447.35	570.5
447.571	574.5
447.792	552.5
448.013	565.5
448.234	576.5
448.455	593.5
448.675	706.5
448.896	854.5
449.117	698.5
449.338	664.5
449.559	797.5
449.779	878.5
450	717.5
450.221	586.5
450.442	567.5
450.662	545.5
450.883	535.5
451.104	557.5
451.324	545.5
451.545	537.5
451.766	508.5
451.986	501.5
452.207	481.5
452.428	507.5
452.648	496.5
452.869	505.5
453.089	493.5
453.31	526.5
453.53	502.5
453.751	489.5
453.971	482.5
454.192	490.5
454.412	484.5
454.633	475.5
454.853	511.5
455.073	495.5
455.294	511.5
455.514	573.5
455.734	568.5
455.955	511.5
456.175	489.5
456.395	472.5
456.616	468.5
456.836	466.5
457.056	446.5
457.276	470.5
457.497	479.5
457.717	482.5
457.937	481.5
458.157	475.5
458.377	481.5
458.598	499.5
458.818	563.5
459.038	624.5
459.258	655.5
459.478	562.5
459.698	535.5
459.918	533.5
460.138	526.5
460.358	553.5
460.578	548.5
460.798	558.5
461.018	563.5
461.238	552.5
461.458	570.5
461.678	582.5
461.898	561.5
462.118	586.5
462.338	606.5
462.558	558.5
462.777	584.5
462.997	610.5
463.217	662.5
463.437	646.5
463.657	637.5
463.876	620.5
464.096	579.5
464.316	603.5
464.536	590.5
464.755	637.5
464.975	585.5
465.195	594.5
465.414	632.5
465.634	591.5
465.854	570.5
466.073	536.5
466.293	527.5
466.512	515.5
466.732	512.5
466.951	539.5
467.171	507.5
467.391	523.5
467.61	512.5
467.829	523.5
468.049	534.5
468.268	496.5
468.488	509.5
468.707	498.5
468.927	521.5
469.146	512.5
469.365	520.5
469.585	506.5
469.804	522.5
470.023	512.5
470.243	545.5
470.462	540.5
470.681	524.5
470.901	544.5
471.12	513.5
471.339	526.5
471.558	540.5
471.777	533.5
471.997	518.5
472.216	534.5
472.435	528.5
472.654	521.5
472.873	540.5
473.092	505.5
473.311	516.5
473.53	522.5
473.749	501.5
473.968	558.5
474.187	644.5
474.406	669.5
474.625	573.5
474.844	538.5
475.063	522.5
475.282	517.5
475.501	527.5
475.72	526.5
475.939	536.5
476.158	524.5
476.377	543.5
476.596	541.5
476.814	532.5
477.033	564.5
477.252	560.5
477.471	547.5
477.69	565.5
477.908	570.5
478.127	569.5
478.346	576.5
478.564	617.5
478.783	595.5
479.002	625.5
479.22	600.5
479.439	604.5
479.658	617.5
479.876	607.5
480.095	633.5
480.313	675.5
480.532	656.5
480.751	653.5
480.969	648.5
481.188	706.5
481.406	697.5
481.624	655.5
481.843	627.5
482.061	629.5
482.28	599.5
482.498	611.5
482.717	588.5
482.935	614.5
483.153	627.5
483.372	585.5
483.59	600.5
483.808	599.5
484.027	637.5
484.245	585.5
484.463	613.5
484.681	600.5
484.9	594.5
485.118	627.5
485.336	645.5
485.554	621.5
485.772	636.5
485.99	607.5
486.209	634.5
486.427	641.5
486.645	636.5
486.863	647.5
487.081	659.5
487.299	637.5
487.517	639.5
487.735	649.5
487.953	661.5
488.171	624.5
488.389	645.5
488.607	663.5
488.825	657.5
489.043	658.5
489.261	647.5
489.479	672.5
489.696	644.5
489.914	673.5
490.132	675.5
490.35	674.5
490.568	654.5
490.786	693.5
491.003	718.5
491.221	743.5
491.439	738.5
491.657	738.5
491.874	725.5
492.092	735.5
492.31	744.5
492.527	760.5
492.745	763.5
492.963	776.5
493.18	739.5
493.398	779.5
493.615	789.5
493.833	766.5
494.05	730.5
494.268	764.5
494.485	767.5
494.703	736.5
494.92	755.5
495.138	767.5
495.355	761.5
495.573	788.5
495.79	786.5
496.008	779.5
496.225	775.5
496.442	783.5
496.66	800.5
496.877	764.5
497.094	784.5
497.312	797.5
497.529	798.5
497.746	814.5
497.963	803.5
498.181	854.5
498.398	879.5
498.615	885.5
498.832	895.5
499.049	918.5
499.267	966.5
499.484	984.5
499.701	1051.5
499.918	1127.5
500.135	1124.5
500.352	1198.5
500.569	1271.5
500.786	1246.5
501.003	1233.5
501.22	1175.5
501.437	1083.5
501.654	1059.5
501.871	1054.5
502.088	974.5
502.305	927.5
502.522	906.5
502.739	903.5
502.956	862.5
503.172	835.5
503.389	815.5
503.606	779.5
503.823	814.5
504.04	797.5
504.256	789.5
504.473	760.5
504.69	795.5
504.907	793.5
505.123	794.5
505.34	777.5
505.557	734.5
505.773	737.5
505.99	756.5
506.207	735.5
506.423	720.5
506.64	702.5
506.856	701.5
507.073	695.5
507.289	712.5
507.506	695.5
507.722	689.5
507.939	703.5
508.155	684.5
508.372	667.5
508.588	686.5
508.805	654.5
509.021	668.5
509.238	702.5
509.454	691.5
509.67	682.5
509.887	672.5
510.103	659.5
510.319	652.5
510.536	725.5
510.752	1082.5
510.968	907.5
511.184	700.5
511.401	645.5
511.617	649.5
511.833	662.5
512.049	639.5
512.265	637.5
512.481	635.5
512.698	626.5
512.914	636.5
513.13	624.5
513.346	614.5
513.562	640.5
513.778	616.5
513.994	639.5
514.21	656.5
514.426	670.5
514.642	679.5
514.858	710.5
515.074	743.5
515.29	822.5
515.506	1061.5
515.721	943.5
515.937	735.5
516.153	691.5
516.369	676.5
516.585	654.5
516.801	660.5
517.016	697.5
517.232	668.5
517.448	692.5
517.664	683.5
517.879	677.5
518.095	713.5
518.311	667.5
518.527	676.5
518.742	680.5
518.958	653.5
519.173	667.5
519.389	629.5
519.605	620.5
519.82	647.5
520.036	651.5
520.251	643.5
520.467	657.5
520.682	660.5
520.898	635.5
521.113	679.5
521.329	713.5
521.544	726.5
521.76	907.5
521.975	1294.5
522.19	1296.5
522.406	796.5
522.621	683.5
522.836	633.5
523.052	609.5
523.267	587.5
523.482	596.5
523.698	574.5
523.913	576.5
524.128	595.5
524.343	577.5
524.559	585.5
524.774	568.5
524.989	552.5
525.204	553.5
525.419	567.5
525.634	556.5
525.849	554.5
526.064	555.5
526.28	542.5
526.495	527.5
526.71	567.5
526.925	529.5
527.14	507.5
527.355	519.5
527.57	524.5
527.785	549.5
527.999	528.5
528.214	531.5
528.429	529.5
528.644	545.5
528.859	543.5
529.074	552.5
529.289	555.5
529.503	612.5
529.718	583.5
529.933	565.5
530.148	537.5
530.363	549.5
530.577	532.5
530.792	536.5
531.007	530.5
531.221	500.5
531.436	513.5
531.651	540.5
531.865	535.5
532.08	508.5
532.295	524.5
532.509	530.5
532.724	487.5
532.938	500.5
533.153	522.5
533.367	504.5
533.582	504.5
533.796	529.5
534.011	526.5
534.225	521.5
534.44	501.5
534.654	503.5
534.868	513.5
535.083	490.5
535.297	514.5
535.511	518.5
535.726	502.5
535.94	519.5
536.154	526.5
536.369	503.5
536.583	517.5
536.797	491.5
537.011	500.5
537.225	491.5
537.44	491.5
537.654	478.5
537.868	506.5
538.082	499.5
538.296	504.5
538.51	515.5
538.724	504.5
538.938	494.5
539.153	489.5
539.367	500.5
539.581	499.5
539.795	493.5
540.009	475.5
540.222	473.5
540.436	494.5
540.65	476.5
540.864	509.5
541.078	515.5
541.292	503.5
541.506	483.5
541.72	485.5
541.934	471.5
542.147	505.5
542.361	493.5
542.575	485.5
542.789	479.5
543.002	469.5
543.216	481.5
543.43	490.5
543.644	469.5
543.857	485.5
544.071	490.5
544.285	490.5
544.498	474.5
544.712	503.5
544.925	508.5
545.139	479.5
545.352	461.5
545.566	498.5
545.779	490.5
545.993	491.5
546.206	511.5
546.42	499.5
546.633	485.5
546.847	483.5
547.06	486.5
547.274	465.5
547.487	508.5
547.7	503.5
547.914	452.5
548.127	471.5
548.34	467.5
548.554	499.5
548.767	477.5
548.98	479.5
549.193	466.5
549.407	484.5
549.62	486.5
549.833	494.5
550.046	501.5
550.259	466.5
550.473	471.5
550.686	487.5
550.899	475.5
551.112	479.5
551.325	463.5
551.538	458.5
551.751	471.5
551.964	462.5
552.177	467.5
552.39	472.5
552.603	481.5
552.816	496.5
553.029	503.5
553.242	494.5
553.455	504.5
553.667	505.5
553.88	520.5
554.093	505.5
554.306	499.5
554.519	494.5
554.732	486.5
554.944	478.5
555.157	489.5
555.37	457.5
555.583	457.5
555.795	456.5
556.008	446.5
556.221	448.5
556.433	439.5
556.646	429.5
556.859	432.5
557.071	442.5
557.284	426.5
557.496	421.5
557.709	436.5
557.921	467.5
558.134	448.5
558.346	442.5
558.559	430.5
558.771	434.5
558.984	431.5
559.196	412.5
559.409	421.5
559.621	420.5
559.833	425.5
560.046	436.5
560.258	415.5
560.47	428.5
560.683	441.5
560.895	443.5
561.107	404.5
561.32	410.5
561.532	425.5
561.744	411.5
561.956	409.5
562.168	426.5
562.381	421.5
562.593	421.5
562.805	437.5
563.017	453.5
563.229	436.5
563.441	436.5
563.653	429.5
563.865	424.5
564.077	428.5
564.289	444.5
564.501	445.5
564.713	439.5
564.925	450.5
565.137	458.5
565.349	474.5
565.561	489.5
565.773	485.5
565.985	487.5
566.197	485.5
566.408	518.5
566.62	529.5
566.832	543.5
567.044	576.5
567.255	564.5
567.467	582.5
567.679	579.5
567.891	612.5
568.102	583.5
568.314	581.5
568.526	557.5
568.737	509.5
568.949	518.5
569.161	496.5
569.372	461.5
569.584	441.5
569.795	456.5
570.007	462.5
570.218	473.5
570.43	447.5
570.641	435.5
570.853	428.5
571.064	402.5
571.276	421.5
571.487	411.5
571.698	427.5
571.91	407.5
572.121	415.5
572.333	380.5
572.544	389.5
572.755	397.5
572.966	376.5
573.178	369.5
573.389	397.5
573.6	385.5
573.811	384.5
574.023	385.5
574.234	372.5
574.445	415.5
574.656	358.5
574.867	377.5
575.078	363.5
575.289	373.5
575.501	362.5
575.712	364.5
575.923	361.5
576.134	357.5
576.345	372.5
576.556	359.5
576.767	372.5
576.978	367.5
577.188	371.5
577.399	361.5
577.61	335.5
577.821	346.5
578.032	357.5
578.243	377.5
578.454	523.5
578.665	423.5
578.875	358.5
579.086	350.5
579.297	341.5
579.508	331.5
579.718	340.5
579.929	343.5
580.14	325.5
580.35	345.5
580.561	336.5
580.772	325.5
580.982	334.5
581.193	313.5
581.403	322.5
581.614	323.5
581.825	340.5
582.035	333.5
582.246	337.5
582.456	336.5
582.667	317.5
582.877	347.5
583.087	326.5
583.298	331.5
583.508	330.5
583.719	320.5
583.929	320.5
584.139	329.5
584.35	325.5
584.56	347.5
584.77	325.5
584.981	333.5
585.191	328.5
585.401	314.5
585.611	306.5
585.821	318.5
586.032	314.5
586.242	308.5
586.452	307.5
586.662	322.5
586.872	299.5
587.082	319.5
587.292	302.5
587.502	319.5
587.713	325.5
587.923	313.5
588.133	316.5
588.343	320.5
588.553	300.5
588.762	323.5
588.972	325.5
589.182	312.5
589.392	315.5
589.602	323.5
589.812	319.5
590.022	325.5
590.232	310.5
590.441	302.5
590.651	331.5
590.861	330.5
591.071	333.5
591.281	335.5
591.49	319.5
591.7	344.5
591.91	331.5
592.119	326.5
592.329	331.5
592.539	349.5
592.748	339.5
592.958	338.5
593.167	357.5
593.377	376.5
593.587	356.5
593.796	366.5
594.006	357.5
594.215	360.5
594.424	377.5
594.634	353.5
594.843	349.5
595.053	333.5
595.262	320.5
595.472	340.5
595.681	341.5
595.89	319.5
596.1	332.5
596.309	297.5
596.518	318.5
596.727	311.5
596.937	327.5
597.146	302.5
597.355	325.5
597.564	298.5
597.774	307.5
597.983	294.5
598.192	288.5
598.401	286.5
598.61	318.5
598.819	281.5
599.028	281.5
599.237	298.5
599.446	283.5
599.655	303.5
599.864	286.5
600.073	282.5
600.282	284.5
600.491	296.5
600.7	283.5
600.909	277.5
601.118	263.5
601.327	254.5
601.536	276.5
601.745	290.5
601.953	281.5
602.162	281.5
602.371	283.5
602.58	268.5
602.789	280.5
602.997	292.5
603.206	280.5
603.415	274.5
603.623	269.5
603.832	263.5
604.041	268.5
604.249	283.5
604.458	272.5
604.666	251.5
604.875	273.5
605.084	267.5
605.292	277.5
605.501	281.5
605.709	278.5
605.918	268.5
606.126	275.5
606.334	271.5
606.543	275.5
606.751	269.5
606.96	262.5
607.168	245.5
607.376	273.5
607.585	239.5
607.793	262.5
608.001	265.5
608.21	277.5
608.418	248.5
608.626	263.5
608.834	260.5
609.043	263.5
609.251	266.5
609.459	255.5
609.667	255.5
609.875	257.5
610.083	254.5
610.291	278.5
610.499	245.5
610.707	275.5
610.916	273.5
611.124	263.5
611.332	268.5
611.54	253.5
611.748	272.5
611.955	261.5
612.163	277.5
612.371	251.5
612.579	250.5
612.787	259.5
612.995	253.5
613.203	261.5
613.411	253.5
613.618	264.5
613.826	248.5
614.034	268.5
614.242	245.5
614.449	245.5
614.657	243.5
614.865	251.5
615.072	246.5
615.28	248.5
615.488	244.5
615.695	235.5
615.903	251.5
616.111	272.5
616.318	255.5
616.526	261.5
616.733	259.5
616.941	231.5
617.148	258.5
617.356	261.5
617.563	255.5
617.771	259.5
617.978	263.5
618.185	255.5
618.393	247.5
618.6	264.5
618.807	262.5
619.015	252.5
619.222	259.5
619.429	260.5
619.637	266.5
619.844	252.5
620.051	237.5
620.258	247.5
620.466	225.5
620.673	243.5
620.88	222.5
621.087	248.5
621.294	244.5
621.501	219.5
621.708	235.5
621.915	239.5
622.122	235.5
622.329	248.5
622.536	257.5
622.743	232.5
622.95	243.5
623.157	235.5
623.364	233.5
623.571	237.5
623.778	238.5
623.985	228.5
624.192	236.5
624.399	246.5
624.606	248.5
624.812	228.5
625.019	224.5
625.226	235.5
625.433	231.5
625.639	238.5
625.846	239.5
626.053	227.5
626.259	232.5
626.466	226.5
626.673	216.5
626.879	217.5
627.086	227.5
627.293	203.5
627.499	212.5
627.706	219.5
627.912	216.5
628.119	224.5
628.325	223.5
628.532	219.5
628.738	228.5
628.945	209.5
629.151	226.5
629.357	226.5
629.564	207.5
629.77	204.5
629.976	223.5
630.183	205.5
630.389	203.5
630.595	212.5
630.802	207.5
631.008	224.5
631.214	202.5
631.42	213.5
631.627	211.5
631.833	215.5
632.039	205.5
632.245	201.5
632.451	208.5
632.657	218.5
632.863	208.5
633.069	186.5
633.275	209.5
633.481	198.5
633.688	199.5
633.893	190.5
634.099	207.5
634.305	204.5
634.511	193.5
634.717	198.5
634.923	189.5
635.129	204.5
635.335	200.5
635.541	196.5
635.747	199.5
635.952	196.5
636.158	187.5
636.364	208.5
636.57	193.5
636.775	194.5
636.981	198.5
637.187	193.5
637.392	193.5
637.598	199.5
637.804	211.5
638.009	191.5
638.215	180.5
638.421	194.5
638.626	181.5
638.832	197.5
639.037	190.5
639.243	170.5
639.448	189.5
639.654	176.5
639.859	189.5
640.065	189.5
640.27	190.5
640.475	183.5
640.681	171.5
640.886	191.5
641.091	172.5
641.297	171.5
641.502	179.5
641.707	204.5
641.913	174.5
642.118	180.5
642.323	181.5
642.528	199.5
642.733	158.5
642.939	183.5
643.144	163.5
643.349	168.5
643.554	174.5
643.759	183.5
643.964	163.5
644.169	172.5
644.374	163.5
644.579	183.5
644.784	170.5
644.989	179.5
645.194	168.5
645.399	183.5
645.604	179.5
645.809	166.5
646.014	166.5
646.219	174.5
646.423	163.5
646.628	183.5
646.833	160.5
647.038	179.5
647.243	173.5
647.447	179.5
647.652	195.5
647.857	172.5
648.062	187.5
648.266	188.5
648.471	181.5
648.676	189.5
648.88	185.5
649.085	175.5
649.289	179.5
649.494	175.5
649.698	191.5
649.903	194.5
650.107	191.5
650.312	192.5
650.516	172.5
650.721	183.5
650.925	168.5
651.13	157.5
651.334	160.5
651.539	154.5
651.743	164.5
651.947	164.5
652.152	156.5
652.356	163.5
652.56	157.5
652.764	148.5
652.969	155.5
653.173	143.5
653.377	137.5
653.581	139.5
653.785	148.5
653.99	151.5
654.194	139.5
654.398	153.5
654.602	138.5
654.806	159.5
655.01	155.5
655.214	148.5
655.418	148.5
655.622	135.5
655.826	155.5
656.03	148.5
656.234	155.5
656.438	159.5
656.642	142.5
656.846	153.5
657.049	145.5
657.253	138.5
657.457	131.5
657.661	117.5
657.865	118.5
658.068	119.5
658.272	110.5
658.476	101.5
658.68	113.5
658.883	114.5
659.087	111.5
659.291	112.5
659.494	115.5
659.698	99.5
659.901	100.5
660.105	96.5
660.309	120.5
660.512	95.5
660.716	107.5
660.919	102.5
661.123	104.5
661.326	103.5
661.53	103.5
661.733	84.5
661.936	84.5
662.14	91.5
662.343	87.5
662.546	96.5
662.75	86.5
662.953	90.5
663.156	99.5
663.36	82.5
663.563	76.5
663.766	92.5
663.969	90.5
664.173	77.5
664.376	75.5
664.579	85.5
664.782	90.5
664.985	81.5
665.188	94.5
665.391	99.5
665.594	102.5
665.797	95.5
666	89.5
666.203	77.5
666.406	79.5
666.609	65.5
666.812	92.5
667.015	88.5
667.218	107.5
667.421	87.5
667.624	76.5
667.827	95.5
668.03	76.5
668.232	81.5
668.435	70.5
668.638	77.5
668.841	82.5
669.043	91.5
669.246	79.5
669.449	73.5
669.651	80.5
669.854	76.5
670.057	82.5
670.259	73.5
670.462	86.5
670.665	93.5
670.867	77.5
671.07	102.5
671.272	82.5
671.475	91.5
671.677	92.5
671.88	85.5
672.082	88.5
672.284	99.5
672.487	86.5
672.689	85.5
672.892	90.5
