Data from 1975.PennyLincolnUp.Lamp.En5.5.200Scan.071719.P1.Changed Mount._HRD10591_15-56-31-858.txt Node
Date: Thu Jul 18 15:56:31 EDT 2019
User: cochatt
Spectrometer: HR+D1059
Trigger mode: 1
Integration Time (sec): 1.000000E-1
Scans to average: 1
Electric dark correction enabled: true
Nonlinearity correction enabled: false
Boxcar width: 0
XAxis mode: Wavelengths
Number of Pixels in Spectrum: 2048
>>>>>Begin Spectral Data<<<<<
223.165	-9.31
223.4	-9.31
223.635	-9.31
223.869	-18.31
224.104	-7.31
224.338	-12.31
224.573	-10.31
224.808	-19.31
225.042	-10.31
225.277	-3.31
225.511	-10.31
225.746	10.69
225.98	-5.31
226.215	23.69
226.449	20.69
226.683	12.69
226.918	12.69
227.152	25.69
227.387	32.69
227.621	41.69
227.856	29.69
228.09	37.69
228.324	73.69
228.559	56.69
228.793	71.69
229.027	105.69
229.262	105.69
229.496	124.69
229.73	143.69
229.964	153.69
230.199	150.69
230.433	131.69
230.667	125.69
230.901	105.69
231.136	126.69
231.37	123.69
231.604	108.69
231.838	115.69
232.072	110.69
232.306	117.69
232.541	118.69
232.775	142.69
233.009	129.69
233.243	118.69
233.477	119.69
233.711	127.69
233.945	115.69
234.179	115.69
234.413	135.69
234.647	113.69
234.881	136.69
235.115	115.69
235.349	111.69
235.583	114.69
235.817	123.69
236.051	141.69
236.285	124.69
236.519	133.69
236.753	127.69
236.987	139.69
237.221	171.69
237.455	223.69
237.689	173.69
237.922	135.69
238.156	131.69
238.39	125.69
238.624	115.69
238.858	129.69
239.091	136.69
239.325	115.69
239.559	138.69
239.793	121.69
240.027	140.69
240.26	117.69
240.494	156.69
240.728	150.69
240.961	159.69
241.195	141.69
241.429	137.69
241.662	128.69
241.896	143.69
242.13	132.69
242.363	131.69
242.597	157.69
242.83	135.69
243.064	149.69
243.298	143.69
243.531	139.69
243.765	154.69
243.998	155.69
244.232	161.69
244.465	152.69
244.699	141.69
244.932	161.69
245.166	159.69
245.399	156.69
245.633	158.69
245.866	143.69
246.099	161.69
246.333	145.69
246.566	159.69
246.8	166.69
247.033	160.69
247.266	167.69
247.5	151.69
247.733	173.69
247.966	176.69
248.2	190.69
248.433	179.69
248.666	161.69
248.899	191.69
249.133	192.69
249.366	224.69
249.599	196.69
249.832	190.69
250.066	175.69
250.299	185.69
250.532	216.69
250.765	202.69
250.998	222.69
251.231	212.69
251.465	228.69
251.698	211.69
251.931	205.69
252.164	191.69
252.397	184.69
252.63	201.69
252.863	206.69
253.096	209.69
253.329	228.69
253.562	217.69
253.795	240.69
254.028	227.69
254.261	220.69
254.494	212.69
254.727	270.69
254.96	285.69
255.193	282.69
255.426	228.69
255.659	249.69
255.892	256.69
256.124	244.69
256.357	230.69
256.59	238.69
256.823	223.69
257.056	208.69
257.289	223.69
257.521	220.69
257.754	218.69
257.987	227.69
258.22	212.69
258.452	215.69
258.685	208.69
258.918	214.69
259.151	217.69
259.383	224.69
259.616	223.69
259.849	231.69
260.081	245.69
260.314	254.69
260.547	272.69
260.779	239.69
261.012	245.69
261.244	228.69
261.477	232.69
261.71	225.69
261.942	224.69
262.175	229.69
262.407	213.69
262.64	212.69
262.872	204.69
263.105	215.69
263.337	219.69
263.57	222.69
263.802	241.69
264.035	222.69
264.267	231.69
264.499	228.69
264.732	223.69
264.964	225.69
265.197	225.69
265.429	244.69
265.661	218.69
265.894	213.69
266.126	220.69
266.358	219.69
266.591	242.69
266.823	236.69
267.055	241.69
267.287	244.69
267.52	221.69
267.752	233.69
267.984	229.69
268.216	225.69
268.448	235.69
268.681	231.69
268.913	268.69
269.145	254.69
269.377	284.69
269.609	268.69
269.841	273.69
270.073	286.69
270.306	295.69
270.538	314.69
270.77	311.69
271.002	307.69
271.234	294.69
271.466	294.69
271.698	327.69
271.93	328.69
272.162	313.69
272.394	322.69
272.626	316.69
272.858	283.69
273.09	275.69
273.322	274.69
273.553	278.69
273.785	268.69
274.017	282.69
274.249	292.69
274.481	269.69
274.713	273.69
274.945	270.69
275.176	267.69
275.408	279.69
275.64	278.69
275.872	269.69
276.104	275.69
276.335	269.69
276.567	285.69
276.799	286.69
277.031	298.69
277.262	316.69
277.494	336.69
277.726	319.69
277.957	291.69
278.189	302.69
278.421	269.69
278.652	274.69
278.884	275.69
279.115	285.69
279.347	303.69
279.579	296.69
279.81	283.69
280.042	268.69
280.273	276.69
280.505	271.69
280.736	284.69
280.968	280.69
281.199	281.69
281.431	278.69
281.662	307.69
281.894	301.69
282.125	286.69
282.356	291.69
282.588	280.69
282.819	288.69
283.051	297.69
283.282	292.69
283.513	302.69
283.745	299.69
283.976	291.69
284.207	288.69
284.439	294.69
284.67	288.69
284.901	299.69
285.132	292.69
285.364	295.69
285.595	283.69
285.826	285.69
286.057	317.69
286.288	318.69
286.52	297.69
286.751	293.69
286.982	288.69
287.213	300.69
287.444	301.69
287.675	317.69
287.906	318.69
288.138	335.69
288.369	303.69
288.6	304.69
288.831	302.69
289.062	329.69
289.293	293.69
289.524	297.69
289.755	310.69
289.986	303.69
290.217	337.69
290.448	304.69
290.679	316.69
290.91	284.69
291.141	313.69
291.371	311.69
291.602	297.69
291.833	330.69
292.064	332.69
292.295	316.69
292.526	299.69
292.757	327.69
292.987	295.69
293.218	324.69
293.449	327.69
293.68	318.69
293.91	304.69
294.141	309.69
294.372	297.69
294.603	315.69
294.833	308.69
295.064	323.69
295.295	322.69
295.525	331.69
295.756	309.69
295.987	321.69
296.217	341.69
296.448	348.69
296.679	333.69
296.909	311.69
297.14	321.69
297.37	317.69
297.601	325.69
297.831	321.69
298.062	327.69
298.292	311.69
298.523	327.69
298.753	323.69
298.984	319.69
299.214	316.69
299.445	327.69
299.675	337.69
299.905	352.69
300.136	328.69
300.366	336.69
300.597	340.69
300.827	329.69
301.057	325.69
301.288	359.69
301.518	352.69
301.748	337.69
301.979	350.69
302.209	360.69
302.439	326.69
302.669	354.69
302.9	337.69
303.13	341.69
303.36	343.69
303.59	345.69
303.82	356.69
304.051	362.69
304.281	354.69
304.511	359.69
304.741	342.69
304.971	356.69
305.201	369.69
305.431	341.69
305.661	352.69
305.891	363.69
306.121	364.69
306.352	349.69
306.582	362.69
306.812	319.69
307.042	345.69
307.272	342.69
307.502	331.69
307.731	351.69
307.961	340.69
308.191	323.69
308.421	341.69
308.651	333.69
308.881	336.69
309.111	364.69
309.341	350.69
309.571	371.69
309.8	383.69
310.03	376.69
310.26	379.69
310.49	392.69
310.72	374.69
310.949	388.69
311.179	384.69
311.409	394.69
311.639	369.69
311.868	407.69
312.098	389.69
312.328	390.69
312.557	410.69
312.787	398.69
313.017	411.69
313.246	390.69
313.476	364.69
313.706	381.69
313.935	386.69
314.165	391.69
314.394	409.69
314.624	412.69
314.853	393.69
315.083	393.69
315.312	416.69
315.542	410.69
315.771	385.69
316.001	365.69
316.23	384.69
316.46	380.69
316.689	381.69
316.919	386.69
317.148	376.69
317.377	404.69
317.607	398.69
317.836	416.69
318.065	368.69
318.295	389.69
318.524	397.69
318.753	395.69
318.983	392.69
319.212	371.69
319.441	407.69
319.67	399.69
319.9	396.69
320.129	375.69
320.358	387.69
320.587	400.69
320.816	391.69
321.046	409.69
321.275	424.69
321.504	407.69
321.733	416.69
321.962	413.69
322.191	419.69
322.42	431.69
322.649	414.69
322.878	446.69
323.108	441.69
323.337	456.69
323.566	484.69
323.795	468.69
324.024	518.69
324.253	593.69
324.482	806.69
324.71	1200.69
324.939	1806.69
325.168	1589.69
325.397	808.69
325.626	563.69
325.855	503.69
326.084	477.69
326.313	480.69
326.542	460.69
326.77	507.69
326.999	574.69
327.228	744.69
327.457	1125.69
327.686	1387.69
327.914	914.69
328.143	625.69
328.372	569.69
328.6	542.69
328.829	504.69
329.058	494.69
329.287	543.69
329.515	534.69
329.744	493.69
329.972	479.69
330.201	496.69
330.43	540.69
330.658	534.69
330.887	557.69
331.115	565.69
331.344	506.69
331.572	482.69
331.801	490.69
332.03	474.69
332.258	476.69
332.486	475.69
332.715	490.69
332.943	488.69
333.172	481.69
333.4	489.69
333.629	493.69
333.857	511.69
334.085	504.69
334.314	538.69
334.542	569.69
334.771	569.69
334.999	518.69
335.227	499.69
335.455	482.69
335.684	471.69
335.912	454.69
336.14	491.69
336.369	482.69
336.597	494.69
336.825	487.69
337.053	457.69
337.281	463.69
337.51	474.69
337.738	469.69
337.966	456.69
338.194	460.69
338.422	465.69
338.65	465.69
338.878	439.69
339.106	453.69
339.334	459.69
339.562	442.69
339.79	434.69
340.018	432.69
340.246	445.69
340.474	445.69
340.702	435.69
340.93	428.69
341.158	416.69
341.386	447.69
341.614	450.69
341.842	447.69
342.07	441.69
342.298	427.69
342.526	449.69
342.754	432.69
342.981	436.69
343.209	429.69
343.437	465.69
343.665	447.69
343.893	469.69
344.12	476.69
344.348	483.69
344.576	456.69
344.804	457.69
345.031	459.69
345.259	469.69
345.487	454.69
345.714	469.69
345.942	421.69
346.17	422.69
346.397	440.69
346.625	412.69
346.853	434.69
347.08	411.69
347.308	427.69
347.535	438.69
347.763	427.69
347.99	422.69
348.218	431.69
348.445	455.69
348.673	426.69
348.9	427.69
349.128	426.69
349.355	421.69
349.583	424.69
349.81	425.69
350.037	407.69
350.265	436.69
350.492	405.69
350.72	408.69
350.947	423.69
351.174	435.69
351.402	419.69
351.629	407.69
351.856	423.69
352.083	437.69
352.311	433.69
352.538	440.69
352.765	452.69
352.992	452.69
353.22	432.69
353.447	407.69
353.674	433.69
353.901	422.69
354.128	387.69
354.355	409.69
354.583	412.69
354.81	410.69
355.037	421.69
355.264	436.69
355.491	408.69
355.718	406.69
355.945	404.69
356.172	413.69
356.399	387.69
356.626	413.69
356.853	401.69
357.08	404.69
357.307	416.69
357.534	398.69
357.761	430.69
357.988	419.69
358.215	424.69
358.441	429.69
358.668	407.69
358.895	418.69
359.122	425.69
359.349	422.69
359.576	455.69
359.802	445.69
360.029	474.69
360.256	492.69
360.483	466.69
360.709	440.69
360.936	442.69
361.163	421.69
361.39	423.69
361.616	429.69
361.843	416.69
362.07	419.69
362.296	422.69
362.523	428.69
362.749	425.69
362.976	428.69
363.203	419.69
363.429	405.69
363.656	411.69
363.882	417.69
364.109	406.69
364.335	409.69
364.562	416.69
364.788	424.69
365.015	421.69
365.241	415.69
365.468	419.69
365.694	395.69
365.92	411.69
366.147	410.69
366.373	424.69
366.599	411.69
366.826	421.69
367.052	411.69
367.278	415.69
367.505	432.69
367.731	411.69
367.957	428.69
368.184	450.69
368.41	425.69
368.636	419.69
368.862	457.69
369.089	445.69
369.315	432.69
369.541	413.69
369.767	418.69
369.993	423.69
370.219	418.69
370.445	407.69
370.672	417.69
370.898	409.69
371.124	428.69
371.35	431.69
371.576	435.69
371.802	436.69
372.028	447.69
372.254	426.69
372.48	442.69
372.706	435.69
372.932	449.69
373.158	421.69
373.384	452.69
373.61	435.69
373.835	423.69
374.061	436.69
374.287	446.69
374.513	439.69
374.739	432.69
374.965	443.69
375.191	451.69
375.416	439.69
375.642	442.69
375.868	429.69
376.094	441.69
376.319	439.69
376.545	439.69
376.771	421.69
376.997	430.69
377.222	435.69
377.448	419.69
377.674	422.69
377.899	408.69
378.125	422.69
378.35	444.69
378.576	433.69
378.802	434.69
379.027	440.69
379.253	438.69
379.478	442.69
379.704	421.69
379.929	435.69
380.155	420.69
380.38	443.69
380.606	448.69
380.831	436.69
381.057	451.69
381.282	441.69
381.507	448.69
381.733	446.69
381.958	433.69
382.184	451.69
382.409	455.69
382.634	444.69
382.86	439.69
383.085	442.69
383.31	445.69
383.535	472.69
383.761	482.69
383.986	458.69
384.211	473.69
384.436	455.69
384.662	473.69
384.887	479.69
385.112	462.69
385.337	489.69
385.562	455.69
385.787	470.69
386.013	504.69
386.238	505.69
386.463	502.69
386.688	480.69
386.913	490.69
387.138	485.69
387.363	474.69
387.588	479.69
387.813	461.69
388.038	471.69
388.263	476.69
388.488	480.69
388.713	489.69
388.938	493.69
389.163	509.69
389.387	478.69
389.612	473.69
389.837	468.69
390.062	489.69
390.287	471.69
390.512	500.69
390.736	491.69
390.961	477.69
391.186	500.69
391.411	490.69
391.636	482.69
391.86	501.69
392.085	503.69
392.31	516.69
392.534	499.69
392.759	525.69
392.984	485.69
393.208	486.69
393.433	500.69
393.658	487.69
393.882	494.69
394.107	484.69
394.331	499.69
394.556	499.69
394.78	508.69
395.005	492.69
395.229	495.69
395.454	517.69
395.678	495.69
395.903	515.69
396.127	540.69
396.352	533.69
396.576	511.69
396.801	513.69
397.025	527.69
397.249	517.69
397.474	503.69
397.698	542.69
397.922	550.69
398.147	541.69
398.371	553.69
398.595	543.69
398.82	575.69
399.044	578.69
399.268	602.69
399.492	624.69
399.717	680.69
399.941	697.69
400.165	710.69
400.389	711.69
400.613	662.69
400.837	617.69
401.062	583.69
401.286	571.69
401.51	577.69
401.734	578.69
401.958	574.69
402.182	582.69
402.406	576.69
402.63	583.69
402.854	590.69
403.078	592.69
403.302	563.69
403.526	599.69
403.75	601.69
403.974	599.69
404.198	591.69
404.422	581.69
404.645	627.69
404.869	608.69
405.093	641.69
405.317	667.69
405.541	731.69
405.765	632.69
405.988	639.69
406.212	615.69
406.436	641.69
406.66	659.69
406.883	632.69
407.107	665.69
407.331	700.69
407.555	804.69
407.778	800.69
408.002	731.69
408.226	676.69
408.449	667.69
408.673	655.69
408.896	669.69
409.12	716.69
409.344	699.69
409.567	601.69
409.791	601.69
410.014	610.69
410.238	581.69
410.461	603.69
410.685	604.69
410.908	623.69
411.132	646.69
411.355	666.69
411.578	643.69
411.802	596.69
412.025	577.69
412.249	617.69
412.472	615.69
412.695	658.69
412.919	651.69
413.142	609.69
413.365	568.69
413.589	600.69
413.812	575.69
414.035	573.69
414.258	557.69
414.482	567.69
414.705	571.69
414.928	555.69
415.151	560.69
415.374	569.69
415.597	563.69
415.821	549.69
416.044	560.69
416.267	551.69
416.49	560.69
416.713	555.69
416.936	553.69
417.159	560.69
417.382	541.69
417.605	552.69
417.828	577.69
418.051	602.69
418.274	576.69
418.497	554.69
418.72	551.69
418.943	558.69
419.166	587.69
419.389	617.69
419.611	611.69
419.834	619.69
420.057	595.69
420.28	611.69
420.503	586.69
420.726	577.69
420.948	616.69
421.171	622.69
421.394	679.69
421.617	612.69
421.839	573.69
422.062	581.69
422.285	581.69
422.507	646.69
422.73	721.69
422.953	673.69
423.175	620.69
423.398	591.69
423.621	622.69
423.843	650.69
424.066	615.69
424.288	607.69
424.511	640.69
424.733	706.69
424.956	772.69
425.178	743.69
425.401	724.69
425.623	747.69
425.846	659.69
426.068	585.69
426.291	618.69
426.513	598.69
426.735	604.69
426.958	654.69
427.18	731.69
427.402	867.69
427.625	947.69
427.847	797.69
428.069	694.69
428.292	655.69
428.514	590.69
428.736	593.69
428.958	580.69
429.181	554.69
429.403	534.69
429.625	544.69
429.847	605.69
430.069	674.69
430.292	653.69
430.514	575.69
430.736	553.69
430.958	554.69
431.18	556.69
431.402	536.69
431.624	563.69
431.846	524.69
432.068	545.69
432.29	534.69
432.512	507.69
432.734	558.69
432.956	559.69
433.178	557.69
433.4	557.69
433.622	551.69
433.844	552.69
434.066	528.69
434.287	540.69
434.509	567.69
434.731	557.69
434.953	585.69
435.175	608.69
435.397	638.69
435.618	626.69
435.84	656.69
436.062	758.69
436.284	770.69
436.505	662.69
436.727	615.69
436.949	604.69
437.17	569.69
437.392	547.69
437.614	570.69
437.835	612.69
438.057	665.69
438.278	811.69
438.5	787.69
438.721	881.69
438.943	815.69
439.165	668.69
439.386	603.69
439.608	619.69
439.829	606.69
440.05	614.69
440.272	678.69
440.493	615.69
440.715	590.69
440.936	606.69
441.158	582.69
441.379	594.69
441.6	588.69
441.822	591.69
442.043	629.69
442.264	752.69
442.486	756.69
442.707	663.69
442.928	631.69
443.149	624.69
443.371	667.69
443.592	698.69
443.813	821.69
444.034	847.69
444.255	707.69
444.476	654.69
444.698	655.69
444.919	619.69
445.14	749.69
445.361	675.69
445.582	668.69
445.803	706.69
446.024	797.69
446.245	826.69
446.466	746.69
446.687	641.69
446.908	607.69
447.129	596.69
447.35	562.69
447.571	559.69
447.792	520.69
448.013	553.69
448.234	592.69
448.455	612.69
448.675	741.69
448.896	877.69
449.117	721.69
449.338	682.69
449.559	793.69
449.779	927.69
450	722.69
450.221	593.69
450.442	565.69
450.662	535.69
450.883	528.69
451.104	543.69
451.324	556.69
451.545	534.69
451.766	503.69
451.986	489.69
452.207	500.69
452.428	478.69
452.648	509.69
452.869	508.69
453.089	510.69
453.31	517.69
453.53	513.69
453.751	496.69
453.971	481.69
454.192	514.69
454.412	475.69
454.633	495.69
454.853	480.69
455.073	476.69
455.294	510.69
455.514	575.69
455.734	572.69
455.955	506.69
456.175	481.69
456.395	470.69
456.616	463.69
456.836	466.69
457.056	474.69
457.276	455.69
457.497	473.69
457.717	474.69
457.937	469.69
458.157	488.69
458.377	484.69
458.598	506.69
458.818	549.69
459.038	616.69
459.258	653.69
459.478	578.69
459.698	521.69
459.918	550.69
460.138	549.69
460.358	559.69
460.578	536.69
460.798	573.69
461.018	569.69
461.238	570.69
461.458	564.69
461.678	576.69
461.898	576.69
462.118	572.69
462.338	573.69
462.558	604.69
462.777	607.69
462.997	625.69
463.217	664.69
463.437	663.69
463.657	612.69
463.876	609.69
464.096	614.69
464.316	597.69
464.536	605.69
464.755	613.69
464.975	589.69
465.195	591.69
465.414	683.69
465.634	622.69
465.854	573.69
466.073	564.69
466.293	504.69
466.512	536.69
466.732	510.69
466.951	494.69
467.171	503.69
467.391	509.69
467.61	492.69
467.829	521.69
468.049	515.69
468.268	516.69
468.488	506.69
468.707	516.69
468.927	488.69
469.146	513.69
469.365	490.69
469.585	508.69
469.804	516.69
470.023	521.69
470.243	537.69
470.462	520.69
470.681	545.69
470.901	545.69
471.12	527.69
471.339	518.69
471.558	528.69
471.777	547.69
471.997	510.69
472.216	528.69
472.435	532.69
472.654	526.69
472.873	523.69
473.092	507.69
473.311	496.69
473.53	501.69
473.749	533.69
473.968	557.69
474.187	621.69
474.406	688.69
474.625	584.69
474.844	520.69
475.063	521.69
475.282	526.69
475.501	513.69
475.72	534.69
475.939	527.69
476.158	526.69
476.377	513.69
476.596	523.69
476.814	543.69
477.033	555.69
477.252	569.69
477.471	551.69
477.69	553.69
477.908	585.69
478.127	574.69
478.346	560.69
478.564	588.69
478.783	598.69
479.002	591.69
479.22	592.69
479.439	632.69
479.658	643.69
479.876	643.69
480.095	640.69
480.313	672.69
480.532	646.69
480.751	648.69
480.969	655.69
481.188	697.69
481.406	711.69
481.624	675.69
481.843	655.69
482.061	601.69
482.28	621.69
482.498	614.69
482.717	594.69
482.935	602.69
483.153	619.69
483.372	588.69
483.59	617.69
483.808	639.69
484.027	588.69
484.245	628.69
484.463	611.69
484.681	631.69
484.9	635.69
485.118	644.69
485.336	649.69
485.554	624.69
485.772	645.69
485.99	647.69
486.209	636.69
486.427	645.69
486.645	639.69
486.863	649.69
487.081	649.69
487.299	680.69
487.517	654.69
487.735	671.69
487.953	663.69
488.171	660.69
488.389	653.69
488.607	643.69
488.825	640.69
489.043	631.69
489.261	676.69
489.479	654.69
489.696	661.69
489.914	669.69
490.132	662.69
490.35	687.69
490.568	691.69
490.786	682.69
491.003	719.69
491.221	715.69
491.439	731.69
491.657	729.69
491.874	758.69
492.092	745.69
492.31	755.69
492.527	745.69
492.745	759.69
492.963	758.69
493.18	752.69
493.398	763.69
493.615	767.69
493.833	803.69
494.05	771.69
494.268	779.69
494.485	743.69
494.703	767.69
494.92	758.69
495.138	795.69
495.355	785.69
495.573	799.69
495.79	767.69
496.008	769.69
496.225	761.69
496.442	796.69
496.66	824.69
496.877	775.69
497.094	783.69
497.312	780.69
497.529	797.69
497.746	819.69
497.963	815.69
498.181	893.69
498.398	874.69
498.615	910.69
498.832	917.69
499.049	945.69
499.267	963.69
499.484	1009.69
499.701	1056.69
499.918	1100.69
500.135	1171.69
500.352	1184.69
500.569	1231.69
500.786	1257.69
501.003	1246.69
501.22	1183.69
501.437	1126.69
501.654	1072.69
501.871	1025.69
502.088	1004.69
502.305	943.69
502.522	900.69
502.739	895.69
502.956	848.69
503.172	831.69
503.389	839.69
503.606	795.69
503.823	787.69
504.04	805.69
504.256	785.69
504.473	780.69
504.69	780.69
504.907	796.69
505.123	789.69
505.34	750.69
505.557	739.69
505.773	745.69
505.99	715.69
506.207	748.69
506.423	717.69
506.64	731.69
506.856	729.69
507.073	713.69
507.289	701.69
507.506	705.69
507.722	707.69
507.939	697.69
508.155	688.69
508.372	653.69
508.588	694.69
508.805	681.69
509.021	679.69
509.238	707.69
509.454	709.69
509.67	703.69
509.887	679.69
510.103	677.69
510.319	671.69
510.536	763.69
510.752	1074.69
510.968	899.69
511.184	663.69
511.401	652.69
511.617	651.69
511.833	663.69
512.049	665.69
512.265	665.69
512.481	617.69
512.698	636.69
512.914	635.69
513.13	635.69
513.346	620.69
513.562	635.69
513.778	616.69
513.994	643.69
514.21	633.69
514.426	670.69
514.642	686.69
514.858	711.69
515.074	752.69
515.29	799.69
515.506	1083.69
515.721	947.69
515.937	756.69
516.153	701.69
516.369	658.69
516.585	674.69
516.801	671.69
517.016	685.69
517.232	691.69
517.448	695.69
517.664	721.69
517.879	682.69
518.095	701.69
518.311	708.69
518.527	696.69
518.742	670.69
518.958	661.69
519.173	668.69
519.389	658.69
519.605	675.69
519.82	640.69
520.036	660.69
520.251	662.69
520.467	640.69
520.682	656.69
520.898	658.69
521.113	653.69
521.329	691.69
521.544	751.69
521.76	903.69
521.975	1319.69
522.19	1277.69
522.406	822.69
522.621	685.69
522.836	633.69
523.052	612.69
523.267	586.69
523.482	590.69
523.698	577.69
523.913	551.69
524.128	568.69
524.343	569.69
524.559	549.69
524.774	572.69
524.989	536.69
525.204	556.69
525.419	547.69
525.634	548.69
525.849	563.69
526.064	541.69
526.28	559.69
526.495	535.69
526.71	541.69
526.925	523.69
527.14	517.69
527.355	544.69
527.57	566.69
527.785	535.69
527.999	533.69
528.214	529.69
528.429	528.69
528.644	512.69
528.859	540.69
529.074	524.69
529.289	550.69
529.503	589.69
529.718	575.69
529.933	536.69
530.148	548.69
530.363	528.69
530.577	520.69
530.792	533.69
531.007	534.69
531.221	529.69
531.436	526.69
531.651	524.69
531.865	510.69
532.08	521.69
532.295	520.69
532.509	503.69
532.724	523.69
532.938	503.69
533.153	517.69
533.367	520.69
533.582	508.69
533.796	507.69
534.011	518.69
534.225	498.69
534.44	535.69
534.654	507.69
534.868	523.69
535.083	514.69
535.297	495.69
535.511	523.69
535.726	517.69
535.94	517.69
536.154	494.69
536.369	502.69
536.583	496.69
536.797	485.69
537.011	499.69
537.225	480.69
537.44	467.69
537.654	486.69
537.868	479.69
538.082	488.69
538.296	485.69
538.51	497.69
538.724	500.69
538.938	519.69
539.153	504.69
539.367	493.69
539.581	515.69
539.795	472.69
540.009	491.69
540.222	484.69
540.436	492.69
540.65	496.69
540.864	489.69
541.078	488.69
541.292	517.69
541.506	486.69
541.72	491.69
541.934	480.69
542.147	481.69
542.361	496.69
542.575	477.69
542.789	500.69
543.002	496.69
543.216	510.69
543.43	495.69
543.644	480.69
543.857	487.69
544.071	476.69
544.285	512.69
544.498	499.69
544.712	487.69
544.925	494.69
545.139	486.69
545.352	473.69
545.566	494.69
545.779	481.69
545.993	472.69
546.206	470.69
546.42	492.69
546.633	477.69
546.847	488.69
547.06	480.69
547.274	479.69
547.487	490.69
547.7	494.69
547.914	480.69
548.127	444.69
548.34	486.69
548.554	499.69
548.767	474.69
548.98	481.69
549.193	477.69
549.407	470.69
549.62	488.69
549.833	490.69
550.046	501.69
550.259	469.69
550.473	484.69
550.686	470.69
550.899	484.69
551.112	469.69
551.325	476.69
551.538	471.69
551.751	462.69
551.964	483.69
552.177	480.69
552.39	471.69
552.603	465.69
552.816	492.69
553.029	501.69
553.242	525.69
553.455	498.69
553.667	503.69
553.88	504.69
554.093	505.69
554.306	478.69
554.519	477.69
554.732	477.69
554.944	444.69
555.157	464.69
555.37	444.69
555.583	476.69
555.795	464.69
556.008	464.69
556.221	463.69
556.433	463.69
556.646	443.69
556.859	436.69
557.071	446.69
557.284	426.69
557.496	434.69
557.709	432.69
557.921	454.69
558.134	439.69
558.346	443.69
558.559	440.69
558.771	441.69
558.984	437.69
559.196	428.69
559.409	440.69
559.621	433.69
559.833	450.69
560.046	405.69
560.258	429.69
560.47	402.69
560.683	419.69
560.895	414.69
561.107	418.69
561.32	383.69
561.532	414.69
561.744	427.69
561.956	457.69
562.168	427.69
562.381	443.69
562.593	436.69
562.805	427.69
563.017	428.69
563.229	450.69
563.441	422.69
563.653	425.69
563.865	431.69
564.077	445.69
564.289	434.69
564.501	437.69
564.713	461.69
564.925	457.69
565.137	466.69
565.349	477.69
565.561	464.69
565.773	483.69
565.985	483.69
566.197	498.69
566.408	507.69
566.62	555.69
566.832	557.69
567.044	546.69
567.255	584.69
567.467	571.69
567.679	575.69
567.891	611.69
568.102	586.69
568.314	605.69
568.526	571.69
568.737	555.69
568.949	517.69
569.161	496.69
569.372	472.69
569.584	442.69
569.795	450.69
570.007	431.69
570.218	485.69
570.43	460.69
570.641	434.69
570.853	425.69
571.064	426.69
571.276	415.69
571.487	406.69
571.698	417.69
571.91	393.69
572.121	414.69
572.333	377.69
572.544	408.69
572.755	404.69
572.966	393.69
573.178	372.69
573.389	383.69
573.6	372.69
573.811	369.69
574.023	383.69
574.234	366.69
574.445	377.69
574.656	371.69
574.867	377.69
575.078	375.69
575.289	357.69
575.501	353.69
575.712	359.69
575.923	363.69
576.134	362.69
576.345	374.69
576.556	371.69
576.767	356.69
576.978	351.69
577.188	343.69
577.399	369.69
577.61	347.69
577.821	349.69
578.032	332.69
578.243	415.69
578.454	483.69
578.665	429.69
578.875	355.69
579.086	357.69
579.297	324.69
579.508	337.69
579.718	350.69
579.929	339.69
580.14	337.69
580.35	353.69
580.561	334.69
580.772	347.69
580.982	354.69
581.193	331.69
581.403	340.69
581.614	333.69
581.825	327.69
582.035	334.69
582.246	323.69
582.456	344.69
582.667	336.69
582.877	326.69
583.087	331.69
583.298	332.69
583.508	342.69
583.719	336.69
583.929	326.69
584.139	312.69
584.35	324.69
584.56	317.69
584.77	318.69
584.981	315.69
585.191	326.69
585.401	324.69
585.611	330.69
585.821	325.69
586.032	325.69
586.242	323.69
586.452	301.69
586.662	324.69
586.872	334.69
587.082	319.69
587.292	316.69
587.502	309.69
587.713	315.69
587.923	321.69
588.133	307.69
588.343	311.69
588.553	322.69
588.762	314.69
588.972	298.69
589.182	332.69
589.392	326.69
589.602	328.69
589.812	343.69
590.022	321.69
590.232	310.69
590.441	319.69
590.651	323.69
590.861	321.69
591.071	331.69
591.281	336.69
591.49	324.69
591.7	329.69
591.91	343.69
592.119	325.69
592.329	335.69
592.539	342.69
592.748	347.69
592.958	353.69
593.167	344.69
593.377	383.69
593.587	372.69
593.796	350.69
594.006	369.69
594.215	345.69
594.424	368.69
594.634	373.69
594.843	365.69
595.053	367.69
595.262	323.69
595.472	312.69
595.681	309.69
595.89	333.69
596.1	313.69
596.309	320.69
596.518	326.69
596.727	302.69
596.937	314.69
597.146	280.69
597.355	291.69
597.564	299.69
597.774	299.69
597.983	314.69
598.192	292.69
598.401	315.69
598.61	297.69
598.819	310.69
599.028	281.69
599.237	291.69
599.446	293.69
599.655	286.69
599.864	293.69
600.073	273.69
600.282	288.69
600.491	283.69
600.7	281.69
600.909	280.69
601.118	281.69
601.327	286.69
601.536	270.69
601.745	281.69
601.953	271.69
602.162	269.69
602.371	283.69
602.58	270.69
602.789	289.69
602.997	274.69
603.206	278.69
603.415	273.69
603.623	271.69
603.832	280.69
604.041	266.69
604.249	275.69
604.458	284.69
604.666	246.69
604.875	272.69
605.084	270.69
605.292	253.69
605.501	272.69
605.709	278.69
605.918	272.69
606.126	285.69
606.334	267.69
606.543	277.69
606.751	264.69
606.96	285.69
607.168	265.69
607.376	254.69
607.585	272.69
607.793	268.69
608.001	280.69
608.21	236.69
608.418	259.69
608.626	261.69
608.834	263.69
609.043	249.69
609.251	270.69
609.459	253.69
609.667	259.69
609.875	283.69
610.083	270.69
610.291	273.69
610.499	279.69
610.707	272.69
610.916	272.69
611.124	250.69
611.332	275.69
611.54	272.69
611.748	266.69
611.955	249.69
612.163	272.69
612.371	285.69
612.579	249.69
612.787	262.69
612.995	260.69
613.203	267.69
613.411	263.69
613.618	255.69
613.826	289.69
614.034	246.69
614.242	269.69
614.449	268.69
614.657	251.69
614.865	255.69
615.072	256.69
615.28	266.69
615.488	257.69
615.695	263.69
615.903	280.69
616.111	263.69
616.318	269.69
616.526	271.69
616.733	259.69
616.941	245.69
617.148	254.69
617.356	241.69
617.563	256.69
617.771	285.69
617.978	239.69
618.185	271.69
618.393	267.69
618.6	260.69
618.807	276.69
619.015	238.69
619.222	273.69
619.429	255.69
619.637	253.69
619.844	249.69
620.051	238.69
620.258	238.69
620.466	233.69
620.673	230.69
620.88	225.69
621.087	247.69
621.294	246.69
621.501	238.69
621.708	239.69
621.915	236.69
622.122	248.69
622.329	244.69
622.536	229.69
622.743	243.69
622.95	243.69
623.157	239.69
623.364	240.69
623.571	252.69
623.778	227.69
623.985	254.69
624.192	255.69
624.399	245.69
624.606	231.69
624.812	251.69
625.019	235.69
625.226	213.69
625.433	216.69
625.639	222.69
625.846	232.69
626.053	236.69
626.259	238.69
626.466	232.69
626.673	223.69
626.879	236.69
627.086	222.69
627.293	202.69
627.499	206.69
627.706	221.69
627.912	231.69
628.119	219.69
628.325	227.69
628.532	232.69
628.738	214.69
628.945	212.69
629.151	215.69
629.357	210.69
629.564	208.69
629.77	222.69
629.976	205.69
630.183	204.69
630.389	213.69
630.595	216.69
630.802	216.69
631.008	214.69
631.214	218.69
631.42	206.69
631.627	218.69
631.833	208.69
632.039	207.69
632.245	213.69
632.451	219.69
632.657	211.69
632.863	205.69
633.069	208.69
633.275	187.69
633.481	191.69
633.688	186.69
633.893	213.69
634.099	196.69
634.305	194.69
634.511	207.69
634.717	202.69
634.923	193.69
635.129	193.69
635.335	207.69
635.541	190.69
635.747	218.69
635.952	198.69
636.158	200.69
636.364	191.69
636.57	195.69
636.775	209.69
636.981	200.69
637.187	201.69
637.392	216.69
637.598	198.69
637.804	189.69
638.009	191.69
638.215	206.69
638.421	193.69
638.626	203.69
638.832	188.69
639.037	181.69
639.243	178.69
639.448	195.69
639.654	184.69
639.859	187.69
640.065	175.69
640.27	189.69
640.475	176.69
640.681	183.69
640.886	189.69
641.091	177.69
641.297	180.69
641.502	179.69
641.707	170.69
641.913	183.69
642.118	194.69
642.323	193.69
642.528	183.69
642.733	192.69
642.939	173.69
643.144	187.69
643.349	167.69
643.554	187.69
643.759	176.69
643.964	173.69
644.169	190.69
644.374	185.69
644.579	197.69
644.784	184.69
644.989	178.69
645.194	175.69
645.399	175.69
645.604	176.69
645.809	182.69
646.014	176.69
646.219	165.69
646.423	186.69
646.628	176.69
646.833	181.69
647.038	193.69
647.243	191.69
647.447	188.69
647.652	179.69
647.857	172.69
648.062	176.69
648.266	185.69
648.471	184.69
648.676	196.69
648.88	168.69
649.085	183.69
649.289	192.69
649.494	202.69
649.698	198.69
649.903	197.69
650.107	194.69
650.312	171.69
650.516	185.69
650.721	175.69
650.925	166.69
651.13	162.69
651.334	181.69
651.539	165.69
651.743	162.69
651.947	167.69
652.152	170.69
652.356	164.69
652.56	151.69
652.764	147.69
652.969	155.69
653.173	156.69
653.377	155.69
653.581	155.69
653.785	152.69
653.99	149.69
654.194	134.69
654.398	131.69
654.602	142.69
654.806	165.69
655.01	143.69
655.214	145.69
655.418	142.69
655.622	126.69
655.826	142.69
656.03	152.69
656.234	149.69
656.438	167.69
656.642	145.69
656.846	146.69
657.049	127.69
657.253	144.69
657.457	133.69
657.661	144.69
657.865	129.69
658.068	119.69
658.272	121.69
658.476	120.69
658.68	118.69
658.883	120.69
659.087	119.69
659.291	105.69
659.494	106.69
659.698	109.69
659.901	107.69
660.105	107.69
660.309	107.69
660.512	108.69
660.716	94.69
660.919	86.69
661.123	106.69
661.326	100.69
661.53	99.69
661.733	87.69
661.936	92.69
662.14	93.69
662.343	91.69
662.546	80.69
662.75	90.69
662.953	87.69
663.156	89.69
663.36	97.69
663.563	88.69
663.766	84.69
663.969	86.69
664.173	70.69
664.376	89.69
664.579	85.69
664.782	89.69
664.985	88.69
665.188	96.69
665.391	78.69
665.594	90.69
665.797	93.69
666	78.69
666.203	90.69
666.406	76.69
666.609	101.69
666.812	95.69
667.015	89.69
667.218	91.69
667.421	77.69
667.624	87.69
667.827	84.69
668.03	86.69
668.232	81.69
668.435	76.69
668.638	79.69
668.841	84.69
669.043	85.69
669.246	91.69
669.449	85.69
669.651	83.69
669.854	77.69
670.057	89.69
670.259	86.69
670.462	85.69
670.665	80.69
670.867	89.69
671.07	83.69
671.272	81.69
671.475	87.69
671.677	90.69
671.88	96.69
672.082	89.69
672.284	92.69
672.487	95.69
672.689	89.69
672.892	71.69
