Data from 1975.PennyLincolnUp.Lamp.En5.5.200Scan.071719.P1.Changed Mount._HRD10591_15-56-58-859.txt Node
Date: Thu Jul 18 15:56:58 EDT 2019
User: cochatt
Spectrometer: HR+D1059
Trigger mode: 1
Integration Time (sec): 1.000000E-1
Scans to average: 1
Electric dark correction enabled: true
Nonlinearity correction enabled: false
Boxcar width: 0
XAxis mode: Wavelengths
Number of Pixels in Spectrum: 2048
>>>>>Begin Spectral Data<<<<<
223.165	-5.31
223.4	-5.31
223.635	-5.31
223.869	-24.31
224.104	-12.31
224.338	-10.31
224.573	-9.31
224.808	-20.31
225.042	-9.31
225.277	-2.31
225.511	-10.31
225.746	8.69
225.98	15.69
226.215	3.69
226.449	18.69
226.683	10.69
226.918	21.69
227.152	24.69
227.387	26.69
227.621	41.69
227.856	30.69
228.09	47.69
228.324	47.69
228.559	55.69
228.793	53.69
229.027	91.69
229.262	107.69
229.496	107.69
229.73	132.69
229.964	163.69
230.199	129.69
230.433	122.69
230.667	115.69
230.901	117.69
231.136	127.69
231.37	117.69
231.604	106.69
231.838	118.69
232.072	111.69
232.306	119.69
232.541	117.69
232.775	121.69
233.009	133.69
233.243	113.69
233.477	106.69
233.711	107.69
233.945	125.69
234.179	126.69
234.413	124.69
234.647	121.69
234.881	117.69
235.115	109.69
235.349	117.69
235.583	127.69
235.817	123.69
236.051	128.69
236.285	111.69
236.519	119.69
236.753	142.69
236.987	150.69
237.221	186.69
237.455	225.69
237.689	186.69
237.922	161.69
238.156	149.69
238.39	126.69
238.624	128.69
238.858	124.69
239.091	138.69
239.325	114.69
239.559	132.69
239.793	133.69
240.027	143.69
240.26	140.69
240.494	170.69
240.728	146.69
240.961	146.69
241.195	147.69
241.429	150.69
241.662	124.69
241.896	131.69
242.13	143.69
242.363	127.69
242.597	136.69
242.83	140.69
243.064	156.69
243.298	140.69
243.531	142.69
243.765	141.69
243.998	135.69
244.232	152.69
244.465	127.69
244.699	158.69
244.932	136.69
245.166	156.69
245.399	165.69
245.633	145.69
245.866	160.69
246.099	138.69
246.333	144.69
246.566	138.69
246.8	148.69
247.033	152.69
247.266	172.69
247.5	172.69
247.733	167.69
247.966	188.69
248.2	168.69
248.433	182.69
248.666	187.69
248.899	196.69
249.133	182.69
249.366	193.69
249.599	198.69
249.832	186.69
250.066	187.69
250.299	184.69
250.532	205.69
250.765	201.69
250.998	219.69
251.231	221.69
251.465	221.69
251.698	209.69
251.931	199.69
252.164	207.69
252.397	199.69
252.63	213.69
252.863	220.69
253.096	230.69
253.329	223.69
253.562	222.69
253.795	210.69
254.028	234.69
254.261	227.69
254.494	224.69
254.727	254.69
254.96	290.69
255.193	261.69
255.426	248.69
255.659	232.69
255.892	221.69
256.124	237.69
256.357	235.69
256.59	230.69
256.823	217.69
257.056	228.69
257.289	226.69
257.521	219.69
257.754	201.69
257.987	205.69
258.22	225.69
258.452	210.69
258.685	222.69
258.918	219.69
259.151	214.69
259.383	208.69
259.616	227.69
259.849	224.69
260.081	221.69
260.314	251.69
260.547	255.69
260.779	251.69
261.012	238.69
261.244	223.69
261.477	248.69
261.71	220.69
261.942	229.69
262.175	233.69
262.407	218.69
262.64	219.69
262.872	211.69
263.105	219.69
263.337	234.69
263.57	225.69
263.802	210.69
264.035	222.69
264.267	229.69
264.499	210.69
264.732	223.69
264.964	235.69
265.197	219.69
265.429	229.69
265.661	226.69
265.894	227.69
266.126	243.69
266.358	216.69
266.591	233.69
266.823	243.69
267.055	245.69
267.287	241.69
267.52	258.69
267.752	242.69
267.984	233.69
268.216	232.69
268.448	236.69
268.681	239.69
268.913	239.69
269.145	261.69
269.377	285.69
269.609	295.69
269.841	275.69
270.073	274.69
270.306	293.69
270.538	323.69
270.77	332.69
271.002	315.69
271.234	300.69
271.466	313.69
271.698	319.69
271.93	347.69
272.162	330.69
272.394	317.69
272.626	315.69
272.858	311.69
273.09	283.69
273.322	263.69
273.553	273.69
273.785	280.69
274.017	269.69
274.249	284.69
274.481	282.69
274.713	277.69
274.945	272.69
275.176	282.69
275.408	275.69
275.64	279.69
275.872	263.69
276.104	270.69
276.335	266.69
276.567	276.69
276.799	289.69
277.031	308.69
277.262	339.69
277.494	326.69
277.726	317.69
277.957	301.69
278.189	278.69
278.421	297.69
278.652	267.69
278.884	298.69
279.115	283.69
279.347	286.69
279.579	290.69
279.81	283.69
280.042	278.69
280.273	275.69
280.505	295.69
280.736	270.69
280.968	274.69
281.199	288.69
281.431	284.69
281.662	285.69
281.894	264.69
282.125	299.69
282.356	283.69
282.588	333.69
282.819	319.69
283.051	286.69
283.282	294.69
283.513	291.69
283.745	288.69
283.976	293.69
284.207	315.69
284.439	300.69
284.67	297.69
284.901	293.69
285.132	290.69
285.364	291.69
285.595	285.69
285.826	305.69
286.057	319.69
286.288	299.69
286.52	314.69
286.751	286.69
286.982	274.69
287.213	305.69
287.444	303.69
287.675	309.69
287.906	321.69
288.138	325.69
288.369	313.69
288.6	324.69
288.831	328.69
289.062	321.69
289.293	331.69
289.524	310.69
289.755	316.69
289.986	307.69
290.217	317.69
290.448	296.69
290.679	298.69
290.91	300.69
291.141	308.69
291.371	323.69
291.602	306.69
291.833	314.69
292.064	336.69
292.295	310.69
292.526	291.69
292.757	309.69
292.987	313.69
293.218	322.69
293.449	299.69
293.68	310.69
293.91	301.69
294.141	315.69
294.372	317.69
294.603	302.69
294.833	312.69
295.064	295.69
295.295	308.69
295.525	317.69
295.756	330.69
295.987	330.69
296.217	326.69
296.448	327.69
296.679	297.69
296.909	313.69
297.14	338.69
297.37	316.69
297.601	327.69
297.831	316.69
298.062	328.69
298.292	294.69
298.523	305.69
298.753	334.69
298.984	321.69
299.214	335.69
299.445	306.69
299.675	323.69
299.905	325.69
300.136	340.69
300.366	348.69
300.597	328.69
300.827	343.69
301.057	349.69
301.288	353.69
301.518	348.69
301.748	340.69
301.979	355.69
302.209	344.69
302.439	353.69
302.669	350.69
302.9	334.69
303.13	339.69
303.36	354.69
303.59	359.69
303.82	350.69
304.051	357.69
304.281	349.69
304.511	348.69
304.741	341.69
304.971	333.69
305.201	339.69
305.431	347.69
305.661	355.69
305.891	361.69
306.121	362.69
306.352	376.69
306.582	349.69
306.812	335.69
307.042	339.69
307.272	341.69
307.502	355.69
307.731	369.69
307.961	364.69
308.191	357.69
308.421	345.69
308.651	356.69
308.881	352.69
309.111	350.69
309.341	347.69
309.571	369.69
309.8	361.69
310.03	371.69
310.26	398.69
310.49	360.69
310.72	375.69
310.949	404.69
311.179	413.69
311.409	393.69
311.639	375.69
311.868	371.69
312.098	362.69
312.328	399.69
312.557	395.69
312.787	399.69
313.017	397.69
313.246	406.69
313.476	381.69
313.706	381.69
313.935	372.69
314.165	396.69
314.394	418.69
314.624	421.69
314.853	392.69
315.083	395.69
315.312	387.69
315.542	378.69
315.771	379.69
316.001	386.69
316.23	387.69
316.46	402.69
316.689	411.69
316.919	385.69
317.148	387.69
317.377	417.69
317.607	402.69
317.836	389.69
318.065	393.69
318.295	388.69
318.524	381.69
318.753	382.69
318.983	379.69
319.212	387.69
319.441	387.69
319.67	382.69
319.9	391.69
320.129	401.69
320.358	405.69
320.587	397.69
320.816	396.69
321.046	407.69
321.275	396.69
321.504	398.69
321.733	382.69
321.962	408.69
322.191	427.69
322.42	427.69
322.649	420.69
322.878	437.69
323.108	461.69
323.337	474.69
323.566	473.69
323.795	478.69
324.024	522.69
324.253	638.69
324.482	813.69
324.71	1252.69
324.939	1918.69
325.168	1661.69
325.397	836.69
325.626	600.69
325.855	490.69
326.084	479.69
326.313	474.69
326.542	490.69
326.77	526.69
326.999	595.69
327.228	787.69
327.457	1179.69
327.686	1473.69
327.914	953.69
328.143	646.69
328.372	586.69
328.6	549.69
328.829	556.69
329.058	566.69
329.287	553.69
329.515	541.69
329.744	507.69
329.972	497.69
330.201	510.69
330.43	540.69
330.658	559.69
330.887	572.69
331.115	550.69
331.344	527.69
331.572	507.69
331.801	493.69
332.03	484.69
332.258	482.69
332.486	476.69
332.715	485.69
332.943	461.69
333.172	487.69
333.4	506.69
333.629	501.69
333.857	518.69
334.085	519.69
334.314	530.69
334.542	570.69
334.771	575.69
334.999	522.69
335.227	528.69
335.455	500.69
335.684	499.69
335.912	486.69
336.14	487.69
336.369	484.69
336.597	472.69
336.825	466.69
337.053	482.69
337.281	459.69
337.51	458.69
337.738	462.69
337.966	461.69
338.194	465.69
338.422	460.69
338.65	473.69
338.878	473.69
339.106	455.69
339.334	455.69
339.562	455.69
339.79	436.69
340.018	467.69
340.246	461.69
340.474	454.69
340.702	450.69
340.93	446.69
341.158	457.69
341.386	458.69
341.614	448.69
341.842	446.69
342.07	444.69
342.298	463.69
342.526	444.69
342.754	435.69
342.981	452.69
343.209	438.69
343.437	444.69
343.665	432.69
343.893	480.69
344.12	455.69
344.348	475.69
344.576	470.69
344.804	445.69
345.031	462.69
345.259	465.69
345.487	461.69
345.714	445.69
345.942	446.69
346.17	449.69
346.397	435.69
346.625	442.69
346.853	426.69
347.08	425.69
347.308	435.69
347.535	441.69
347.763	453.69
347.99	452.69
348.218	439.69
348.445	449.69
348.673	445.69
348.9	421.69
349.128	430.69
349.355	422.69
349.583	427.69
349.81	427.69
350.037	413.69
350.265	443.69
350.492	429.69
350.72	411.69
350.947	437.69
351.174	419.69
351.402	423.69
351.629	417.69
351.856	450.69
352.083	461.69
352.311	448.69
352.538	465.69
352.765	451.69
352.992	434.69
353.22	450.69
353.447	436.69
353.674	441.69
353.901	434.69
354.128	409.69
354.355	403.69
354.583	402.69
354.81	412.69
355.037	429.69
355.264	419.69
355.491	396.69
355.718	406.69
355.945	410.69
356.172	408.69
356.399	400.69
356.626	410.69
356.853	422.69
357.08	415.69
357.307	414.69
357.534	422.69
357.761	406.69
357.988	397.69
358.215	401.69
358.441	415.69
358.668	423.69
358.895	426.69
359.122	417.69
359.349	401.69
359.576	435.69
359.802	462.69
360.029	467.69
360.256	452.69
360.483	460.69
360.709	443.69
360.936	451.69
361.163	432.69
361.39	429.69
361.616	451.69
361.843	433.69
362.07	418.69
362.296	423.69
362.523	419.69
362.749	424.69
362.976	435.69
363.203	403.69
363.429	425.69
363.656	435.69
363.882	429.69
364.109	435.69
364.335	440.69
364.562	414.69
364.788	419.69
365.015	423.69
365.241	428.69
365.468	421.69
365.694	402.69
365.92	406.69
366.147	422.69
366.373	430.69
366.599	423.69
366.826	406.69
367.052	428.69
367.278	419.69
367.505	414.69
367.731	421.69
367.957	396.69
368.184	434.69
368.41	397.69
368.636	427.69
368.862	439.69
369.089	419.69
369.315	418.69
369.541	425.69
369.767	438.69
369.993	428.69
370.219	420.69
370.445	430.69
370.672	412.69
370.898	428.69
371.124	410.69
371.35	418.69
371.576	434.69
371.802	440.69
372.028	445.69
372.254	424.69
372.48	434.69
372.706	463.69
372.932	428.69
373.158	439.69
373.384	426.69
373.61	427.69
373.835	440.69
374.061	447.69
374.287	444.69
374.513	443.69
374.739	445.69
374.965	446.69
375.191	439.69
375.416	462.69
375.642	463.69
375.868	429.69
376.094	441.69
376.319	428.69
376.545	425.69
376.771	440.69
376.997	418.69
377.222	444.69
377.448	419.69
377.674	405.69
377.899	423.69
378.125	407.69
378.35	439.69
378.576	419.69
378.802	428.69
379.027	438.69
379.253	425.69
379.478	439.69
379.704	435.69
379.929	417.69
380.155	437.69
380.38	416.69
380.606	425.69
380.831	427.69
381.057	453.69
381.282	436.69
381.507	438.69
381.733	444.69
381.958	425.69
382.184	435.69
382.409	455.69
382.634	464.69
382.86	465.69
383.085	442.69
383.31	463.69
383.535	438.69
383.761	458.69
383.986	469.69
384.211	472.69
384.436	450.69
384.662	481.69
384.887	473.69
385.112	506.69
385.337	492.69
385.562	472.69
385.787	484.69
386.013	486.69
386.238	476.69
386.463	504.69
386.688	485.69
386.913	476.69
387.138	481.69
387.363	481.69
387.588	471.69
387.813	487.69
388.038	478.69
388.263	499.69
388.488	456.69
388.713	478.69
388.938	490.69
389.163	486.69
389.387	491.69
389.612	490.69
389.837	488.69
390.062	485.69
390.287	501.69
390.512	467.69
390.736	467.69
390.961	463.69
391.186	503.69
391.411	492.69
391.636	503.69
391.86	480.69
392.085	489.69
392.31	515.69
392.534	514.69
392.759	492.69
392.984	502.69
393.208	477.69
393.433	509.69
393.658	494.69
393.882	498.69
394.107	493.69
394.331	516.69
394.556	483.69
394.78	491.69
395.005	500.69
395.229	489.69
395.454	509.69
395.678	507.69
395.903	526.69
396.127	517.69
396.352	533.69
396.576	500.69
396.801	482.69
397.025	506.69
397.249	477.69
397.474	496.69
397.698	507.69
397.922	532.69
398.147	547.69
398.371	563.69
398.595	578.69
398.82	547.69
399.044	578.69
399.268	614.69
399.492	668.69
399.717	665.69
399.941	717.69
400.165	734.69
400.389	716.69
400.613	630.69
400.837	580.69
401.062	582.69
401.286	569.69
401.51	577.69
401.734	559.69
401.958	554.69
402.182	546.69
402.406	556.69
402.63	574.69
402.854	595.69
403.078	569.69
403.302	582.69
403.526	597.69
403.75	590.69
403.974	585.69
404.198	573.69
404.422	598.69
404.645	609.69
404.869	612.69
405.093	634.69
405.317	679.69
405.541	705.69
405.765	655.69
405.988	634.69
406.212	625.69
406.436	635.69
406.66	646.69
406.883	625.69
407.107	671.69
407.331	711.69
407.555	787.69
407.778	771.69
408.002	709.69
408.226	651.69
408.449	652.69
408.673	641.69
408.896	673.69
409.12	724.69
409.344	691.69
409.567	611.69
409.791	604.69
410.014	590.69
410.238	591.69
410.461	595.69
410.685	603.69
410.908	605.69
411.132	636.69
411.355	673.69
411.578	656.69
411.802	617.69
412.025	597.69
412.249	605.69
412.472	623.69
412.695	659.69
412.919	639.69
413.142	598.69
413.365	568.69
413.589	567.69
413.812	585.69
414.035	578.69
414.258	542.69
414.482	551.69
414.705	559.69
414.928	570.69
415.151	567.69
415.374	565.69
415.597	562.69
415.821	555.69
416.044	573.69
416.267	531.69
416.49	565.69
416.713	573.69
416.936	561.69
417.159	542.69
417.382	574.69
417.605	545.69
417.828	598.69
418.051	591.69
418.274	594.69
418.497	558.69
418.72	563.69
418.943	567.69
419.166	603.69
419.389	621.69
419.611	612.69
419.834	599.69
420.057	589.69
420.28	601.69
420.503	593.69
420.726	598.69
420.948	597.69
421.171	633.69
421.394	684.69
421.617	595.69
421.839	563.69
422.062	575.69
422.285	593.69
422.507	657.69
422.73	743.69
422.953	697.69
423.175	661.69
423.398	604.69
423.621	604.69
423.843	626.69
424.066	627.69
424.288	613.69
424.511	639.69
424.733	671.69
424.956	791.69
425.178	739.69
425.401	741.69
425.623	773.69
425.846	634.69
426.068	595.69
426.291	589.69
426.513	614.69
426.735	600.69
426.958	661.69
427.18	748.69
427.402	846.69
427.625	927.69
427.847	812.69
428.069	744.69
428.292	637.69
428.514	614.69
428.736	569.69
428.958	576.69
429.181	577.69
429.403	557.69
429.625	563.69
429.847	613.69
430.069	679.69
430.292	659.69
430.514	579.69
430.736	558.69
430.958	570.69
431.18	574.69
431.402	548.69
431.624	505.69
431.846	512.69
432.068	533.69
432.29	543.69
432.512	565.69
432.734	557.69
432.956	545.69
433.178	547.69
433.4	550.69
433.622	563.69
433.844	533.69
434.066	526.69
434.287	547.69
434.509	549.69
434.731	574.69
434.953	587.69
435.175	568.69
435.397	621.69
435.618	621.69
435.84	664.69
436.062	759.69
436.284	847.69
436.505	679.69
436.727	634.69
436.949	578.69
437.17	567.69
437.392	551.69
437.614	581.69
437.835	589.69
438.057	687.69
438.278	810.69
438.5	792.69
438.721	889.69
438.943	850.69
439.165	668.69
439.386	609.69
439.608	600.69
439.829	622.69
440.05	629.69
440.272	663.69
440.493	641.69
440.715	590.69
440.936	559.69
441.158	574.69
441.379	546.69
441.6	588.69
441.822	602.69
442.043	661.69
442.264	734.69
442.486	786.69
442.707	678.69
442.928	623.69
443.149	641.69
443.371	670.69
443.592	679.69
443.813	789.69
444.034	877.69
444.255	742.69
444.476	660.69
444.698	634.69
444.919	637.69
445.14	769.69
445.361	700.69
445.582	673.69
445.803	709.69
446.024	830.69
446.245	813.69
446.466	755.69
446.687	637.69
446.908	612.69
447.129	574.69
447.35	559.69
447.571	563.69
447.792	539.69
448.013	566.69
448.234	569.69
448.455	606.69
448.675	777.69
448.896	866.69
449.117	703.69
449.338	700.69
449.559	802.69
449.779	917.69
450	717.69
450.221	593.69
450.442	565.69
450.662	543.69
450.883	555.69
451.104	548.69
451.324	531.69
451.545	526.69
451.766	513.69
451.986	478.69
452.207	494.69
452.428	504.69
452.648	511.69
452.869	477.69
453.089	487.69
453.31	500.69
453.53	502.69
453.751	498.69
453.971	502.69
454.192	490.69
454.412	476.69
454.633	504.69
454.853	482.69
455.073	486.69
455.294	514.69
455.514	579.69
455.734	573.69
455.955	509.69
456.175	486.69
456.395	475.69
456.616	475.69
456.836	444.69
457.056	481.69
457.276	474.69
457.497	471.69
457.717	476.69
457.937	493.69
458.157	497.69
458.377	485.69
458.598	519.69
458.818	554.69
459.038	628.69
459.258	657.69
459.478	591.69
459.698	546.69
459.918	545.69
460.138	564.69
460.358	578.69
460.578	546.69
460.798	585.69
461.018	552.69
461.238	571.69
461.458	565.69
461.678	562.69
461.898	550.69
462.118	556.69
462.338	580.69
462.558	572.69
462.777	603.69
462.997	630.69
463.217	625.69
463.437	652.69
463.657	626.69
463.876	597.69
464.096	597.69
464.316	598.69
464.536	606.69
464.755	589.69
464.975	589.69
465.195	605.69
465.414	662.69
465.634	604.69
465.854	563.69
466.073	557.69
466.293	545.69
466.512	548.69
466.732	517.69
466.951	553.69
467.171	517.69
467.391	527.69
467.61	542.69
467.829	525.69
468.049	513.69
468.268	533.69
468.488	515.69
468.707	490.69
468.927	519.69
469.146	499.69
469.365	483.69
469.585	487.69
469.804	523.69
470.023	521.69
470.243	517.69
470.462	541.69
470.681	543.69
470.901	535.69
471.12	528.69
471.339	533.69
471.558	519.69
471.777	526.69
471.997	520.69
472.216	519.69
472.435	558.69
472.654	543.69
472.873	539.69
473.092	534.69
473.311	511.69
473.53	522.69
473.749	520.69
473.968	569.69
474.187	646.69
474.406	674.69
474.625	573.69
474.844	515.69
475.063	534.69
475.282	538.69
475.501	525.69
475.72	509.69
475.939	540.69
476.158	549.69
476.377	545.69
476.596	535.69
476.814	563.69
477.033	539.69
477.252	567.69
477.471	548.69
477.69	581.69
477.908	572.69
478.127	571.69
478.346	570.69
478.564	601.69
478.783	583.69
479.002	595.69
479.22	627.69
479.439	590.69
479.658	623.69
479.876	652.69
480.095	652.69
480.313	659.69
480.532	673.69
480.751	625.69
480.969	648.69
481.188	681.69
481.406	758.69
481.624	659.69
481.843	639.69
482.061	608.69
482.28	608.69
482.498	621.69
482.717	601.69
482.935	618.69
483.153	636.69
483.372	623.69
483.59	610.69
483.808	629.69
484.027	620.69
484.245	599.69
484.463	598.69
484.681	615.69
484.9	628.69
485.118	615.69
485.336	625.69
485.554	629.69
485.772	632.69
485.99	623.69
486.209	635.69
486.427	616.69
486.645	653.69
486.863	672.69
487.081	630.69
487.299	647.69
487.517	650.69
487.735	654.69
487.953	666.69
488.171	647.69
488.389	651.69
488.607	665.69
488.825	671.69
489.043	644.69
489.261	677.69
489.479	669.69
489.696	692.69
489.914	681.69
490.132	677.69
490.35	705.69
490.568	695.69
490.786	696.69
491.003	721.69
491.221	715.69
491.439	748.69
491.657	731.69
491.874	737.69
492.092	749.69
492.31	782.69
492.527	763.69
492.745	777.69
492.963	789.69
493.18	767.69
493.398	791.69
493.615	797.69
493.833	771.69
494.05	801.69
494.268	793.69
494.485	799.69
494.703	787.69
494.92	797.69
495.138	796.69
495.355	774.69
495.573	785.69
495.79	765.69
496.008	786.69
496.225	797.69
496.442	779.69
496.66	766.69
496.877	771.69
497.094	790.69
497.312	813.69
497.529	815.69
497.746	845.69
497.963	843.69
498.181	841.69
498.398	884.69
498.615	895.69
498.832	939.69
499.049	941.69
499.267	957.69
499.484	1006.69
499.701	1054.69
499.918	1106.69
500.135	1145.69
500.352	1235.69
500.569	1242.69
500.786	1236.69
501.003	1223.69
501.22	1201.69
501.437	1108.69
501.654	1078.69
501.871	1047.69
502.088	993.69
502.305	967.69
502.522	931.69
502.739	910.69
502.956	842.69
503.172	827.69
503.389	825.69
503.606	845.69
503.823	819.69
504.04	812.69
504.256	807.69
504.473	773.69
504.69	795.69
504.907	781.69
505.123	779.69
505.34	764.69
505.557	770.69
505.773	741.69
505.99	740.69
506.207	737.69
506.423	721.69
506.64	722.69
506.856	708.69
507.073	715.69
507.289	716.69
507.506	718.69
507.722	717.69
507.939	719.69
508.155	713.69
508.372	658.69
508.588	674.69
508.805	693.69
509.021	655.69
509.238	709.69
509.454	715.69
509.67	721.69
509.887	711.69
510.103	692.69
510.319	684.69
510.536	739.69
510.752	1107.69
510.968	913.69
511.184	680.69
511.401	658.69
511.617	667.69
511.833	645.69
512.049	655.69
512.265	628.69
512.481	632.69
512.698	627.69
512.914	638.69
513.13	635.69
513.346	649.69
513.562	673.69
513.778	652.69
513.994	646.69
514.21	655.69
514.426	663.69
514.642	691.69
514.858	715.69
515.074	723.69
515.29	824.69
515.506	1074.69
515.721	947.69
515.937	738.69
516.153	697.69
516.369	693.69
516.585	676.69
516.801	701.69
517.016	677.69
517.232	689.69
517.448	702.69
517.664	715.69
517.879	689.69
518.095	706.69
518.311	704.69
518.527	673.69
518.742	668.69
518.958	665.69
519.173	678.69
519.389	663.69
519.605	625.69
519.82	653.69
520.036	669.69
520.251	659.69
520.467	679.69
520.682	670.69
520.898	674.69
521.113	681.69
521.329	726.69
521.544	757.69
521.76	905.69
521.975	1344.69
522.19	1318.69
522.406	813.69
522.621	669.69
522.836	619.69
523.052	611.69
523.267	584.69
523.482	590.69
523.698	588.69
523.913	596.69
524.128	566.69
524.343	563.69
524.559	556.69
524.774	549.69
524.989	552.69
525.204	556.69
525.419	569.69
525.634	555.69
525.849	523.69
526.064	551.69
526.28	538.69
526.495	495.69
526.71	538.69
526.925	542.69
527.14	525.69
527.355	558.69
527.57	541.69
527.785	525.69
527.999	535.69
528.214	531.69
528.429	534.69
528.644	533.69
528.859	540.69
529.074	530.69
529.289	545.69
529.503	608.69
529.718	595.69
529.933	563.69
530.148	554.69
530.363	524.69
530.577	511.69
530.792	534.69
531.007	517.69
531.221	531.69
531.436	521.69
531.651	517.69
531.865	531.69
532.08	541.69
532.295	535.69
532.509	499.69
532.724	521.69
532.938	523.69
533.153	526.69
533.367	520.69
533.582	513.69
533.796	540.69
534.011	538.69
534.225	544.69
534.44	502.69
534.654	516.69
534.868	520.69
535.083	494.69
535.297	510.69
535.511	494.69
535.726	518.69
535.94	516.69
536.154	484.69
536.369	494.69
536.583	467.69
536.797	504.69
537.011	504.69
537.225	488.69
537.44	510.69
537.654	505.69
537.868	487.69
538.082	497.69
538.296	494.69
538.51	494.69
538.724	507.69
538.938	506.69
539.153	504.69
539.367	523.69
539.581	501.69
539.795	490.69
540.009	494.69
540.222	479.69
540.436	460.69
540.65	492.69
540.864	490.69
541.078	490.69
541.292	494.69
541.506	493.69
541.72	485.69
541.934	504.69
542.147	492.69
542.361	494.69
542.575	491.69
542.789	479.69
543.002	498.69
543.216	492.69
543.43	484.69
543.644	484.69
543.857	508.69
544.071	501.69
544.285	508.69
544.498	501.69
544.712	493.69
544.925	497.69
545.139	492.69
545.352	499.69
545.566	495.69
545.779	493.69
545.993	479.69
546.206	501.69
546.42	505.69
546.633	501.69
546.847	483.69
547.06	468.69
547.274	484.69
547.487	505.69
547.7	495.69
547.914	498.69
548.127	476.69
548.34	490.69
548.554	493.69
548.767	490.69
548.98	505.69
549.193	491.69
549.407	483.69
549.62	472.69
549.833	491.69
550.046	489.69
550.259	474.69
550.473	492.69
550.686	484.69
550.899	473.69
551.112	450.69
551.325	475.69
551.538	459.69
551.751	475.69
551.964	482.69
552.177	480.69
552.39	481.69
552.603	477.69
552.816	472.69
553.029	488.69
553.242	495.69
553.455	486.69
553.667	515.69
553.88	508.69
554.093	517.69
554.306	486.69
554.519	485.69
554.732	459.69
554.944	489.69
555.157	469.69
555.37	449.69
555.583	453.69
555.795	462.69
556.008	437.69
556.221	445.69
556.433	451.69
556.646	443.69
556.859	437.69
557.071	462.69
557.284	435.69
557.496	410.69
557.709	415.69
557.921	430.69
558.134	437.69
558.346	445.69
558.559	438.69
558.771	422.69
558.984	431.69
559.196	438.69
559.409	427.69
559.621	431.69
559.833	429.69
560.046	425.69
560.258	433.69
560.47	410.69
560.683	423.69
560.895	422.69
561.107	423.69
561.32	427.69
561.532	427.69
561.744	437.69
561.956	414.69
562.168	439.69
562.381	447.69
562.593	426.69
562.805	419.69
563.017	424.69
563.229	434.69
563.441	434.69
563.653	426.69
563.865	428.69
564.077	434.69
564.289	452.69
564.501	438.69
564.713	449.69
564.925	461.69
565.137	492.69
565.349	471.69
565.561	475.69
565.773	512.69
565.985	488.69
566.197	472.69
566.408	533.69
566.62	547.69
566.832	552.69
567.044	553.69
567.255	566.69
567.467	597.69
567.679	589.69
567.891	605.69
568.102	598.69
568.314	578.69
568.526	575.69
568.737	558.69
568.949	507.69
569.161	473.69
569.372	485.69
569.584	467.69
569.795	454.69
570.007	462.69
570.218	473.69
570.43	465.69
570.641	429.69
570.853	429.69
571.064	417.69
571.276	420.69
571.487	423.69
571.698	416.69
571.91	409.69
572.121	387.69
572.333	391.69
572.544	387.69
572.755	377.69
572.966	377.69
573.178	384.69
573.389	378.69
573.6	372.69
573.811	387.69
574.023	386.69
574.234	383.69
574.445	359.69
574.656	369.69
574.867	385.69
575.078	367.69
575.289	397.69
575.501	374.69
575.712	355.69
575.923	371.69
576.134	373.69
576.345	378.69
576.556	350.69
576.767	355.69
576.978	347.69
577.188	357.69
577.399	343.69
577.61	341.69
577.821	338.69
578.032	348.69
578.243	394.69
578.454	525.69
578.665	429.69
578.875	343.69
579.086	340.69
579.297	340.69
579.508	342.69
579.718	345.69
579.929	359.69
580.14	331.69
580.35	330.69
580.561	330.69
580.772	342.69
580.982	334.69
581.193	342.69
581.403	322.69
581.614	334.69
581.825	345.69
582.035	339.69
582.246	333.69
582.456	315.69
582.667	343.69
582.877	336.69
583.087	332.69
583.298	341.69
583.508	322.69
583.719	329.69
583.929	334.69
584.139	330.69
584.35	323.69
584.56	291.69
584.77	317.69
584.981	324.69
585.191	312.69
585.401	324.69
585.611	321.69
585.821	332.69
586.032	315.69
586.242	323.69
586.452	310.69
586.662	317.69
586.872	322.69
587.082	332.69
587.292	308.69
587.502	319.69
587.713	307.69
587.923	323.69
588.133	312.69
588.343	313.69
588.553	308.69
588.762	304.69
588.972	323.69
589.182	309.69
589.392	317.69
589.602	318.69
589.812	330.69
590.022	322.69
590.232	330.69
590.441	310.69
590.651	308.69
590.861	323.69
591.071	324.69
591.281	325.69
591.49	340.69
591.7	324.69
591.91	329.69
592.119	315.69
592.329	329.69
592.539	329.69
592.748	351.69
592.958	344.69
593.167	364.69
593.377	345.69
593.587	359.69
593.796	359.69
594.006	346.69
594.215	349.69
594.424	358.69
594.634	350.69
594.843	371.69
595.053	343.69
595.262	349.69
595.472	328.69
595.681	333.69
595.89	333.69
596.1	306.69
596.309	309.69
596.518	311.69
596.727	330.69
596.937	328.69
597.146	314.69
597.355	299.69
597.564	316.69
597.774	308.69
597.983	293.69
598.192	306.69
598.401	294.69
598.61	281.69
598.819	275.69
599.028	301.69
599.237	281.69
599.446	307.69
599.655	281.69
599.864	278.69
600.073	283.69
600.282	293.69
600.491	303.69
600.7	295.69
600.909	278.69
601.118	290.69
601.327	272.69
601.536	290.69
601.745	270.69
601.953	281.69
602.162	287.69
602.371	284.69
602.58	284.69
602.789	278.69
602.997	243.69
603.206	259.69
603.415	244.69
603.623	270.69
603.832	263.69
604.041	293.69
604.249	276.69
604.458	281.69
604.666	245.69
604.875	265.69
605.084	268.69
605.292	248.69
605.501	252.69
605.709	262.69
605.918	277.69
606.126	288.69
606.334	286.69
606.543	263.69
606.751	277.69
606.96	257.69
607.168	257.69
607.376	244.69
607.585	256.69
607.793	262.69
608.001	263.69
608.21	268.69
608.418	255.69
608.626	269.69
608.834	271.69
609.043	264.69
609.251	248.69
609.459	261.69
609.667	260.69
609.875	262.69
610.083	270.69
610.291	257.69
610.499	275.69
610.707	273.69
610.916	258.69
611.124	272.69
611.332	279.69
611.54	279.69
611.748	267.69
611.955	259.69
612.163	245.69
612.371	259.69
612.579	265.69
612.787	266.69
612.995	260.69
613.203	274.69
613.411	245.69
613.618	271.69
613.826	255.69
614.034	270.69
614.242	277.69
614.449	267.69
614.657	257.69
614.865	263.69
615.072	271.69
615.28	252.69
615.488	255.69
615.695	275.69
615.903	245.69
616.111	268.69
616.318	265.69
616.526	285.69
616.733	255.69
616.941	263.69
617.148	254.69
617.356	268.69
617.563	249.69
617.771	225.69
617.978	245.69
618.185	248.69
618.393	270.69
618.6	258.69
618.807	260.69
619.015	262.69
619.222	253.69
619.429	233.69
619.637	249.69
619.844	260.69
620.051	257.69
620.258	231.69
620.466	238.69
620.673	243.69
620.88	250.69
621.087	243.69
621.294	238.69
621.501	238.69
621.708	244.69
621.915	246.69
622.122	251.69
622.329	248.69
622.536	235.69
622.743	243.69
622.95	220.69
623.157	247.69
623.364	245.69
623.571	220.69
623.778	221.69
623.985	234.69
624.192	245.69
624.399	218.69
624.606	222.69
624.812	222.69
625.019	225.69
625.226	233.69
625.433	236.69
625.639	240.69
625.846	241.69
626.053	213.69
626.259	226.69
626.466	227.69
626.673	235.69
626.879	207.69
627.086	233.69
627.293	227.69
627.499	238.69
627.706	218.69
627.912	224.69
628.119	236.69
628.325	243.69
628.532	229.69
628.738	214.69
628.945	217.69
629.151	222.69
629.357	236.69
629.564	229.69
629.77	206.69
629.976	196.69
630.183	209.69
630.389	193.69
630.595	219.69
630.802	203.69
631.008	209.69
631.214	211.69
631.42	209.69
631.627	219.69
631.833	212.69
632.039	211.69
632.245	212.69
632.451	204.69
632.657	211.69
632.863	199.69
633.069	200.69
633.275	194.69
633.481	203.69
633.688	199.69
633.893	203.69
634.099	218.69
634.305	193.69
634.511	191.69
634.717	190.69
634.923	210.69
635.129	209.69
635.335	193.69
635.541	193.69
635.747	199.69
635.952	197.69
636.158	197.69
636.364	192.69
636.57	199.69
636.775	194.69
636.981	215.69
637.187	193.69
637.392	191.69
637.598	206.69
637.804	199.69
638.009	203.69
638.215	206.69
638.421	212.69
638.626	185.69
638.832	193.69
639.037	197.69
639.243	190.69
639.448	201.69
639.654	204.69
639.859	180.69
640.065	196.69
640.27	179.69
640.475	187.69
640.681	177.69
640.886	190.69
641.091	181.69
641.297	189.69
641.502	181.69
641.707	167.69
641.913	171.69
642.118	188.69
642.323	187.69
642.528	184.69
642.733	179.69
642.939	186.69
643.144	180.69
643.349	183.69
643.554	173.69
643.759	175.69
643.964	183.69
644.169	185.69
644.374	188.69
644.579	188.69
644.784	190.69
644.989	180.69
645.194	171.69
645.399	172.69
645.604	166.69
645.809	171.69
646.014	181.69
646.219	174.69
646.423	166.69
646.628	170.69
646.833	174.69
647.038	185.69
647.243	187.69
647.447	179.69
647.652	190.69
647.857	184.69
648.062	179.69
648.266	195.69
648.471	183.69
648.676	191.69
648.88	192.69
649.085	195.69
649.289	182.69
649.494	187.69
649.698	176.69
649.903	205.69
650.107	170.69
650.312	169.69
650.516	170.69
650.721	196.69
650.925	154.69
651.13	177.69
651.334	173.69
651.539	156.69
651.743	155.69
651.947	163.69
652.152	161.69
652.356	145.69
652.56	151.69
652.764	162.69
652.969	136.69
653.173	143.69
653.377	149.69
653.581	148.69
653.785	158.69
653.99	164.69
654.194	151.69
654.398	127.69
654.602	142.69
654.806	142.69
655.01	160.69
655.214	146.69
655.418	137.69
655.622	124.69
655.826	145.69
656.03	140.69
656.234	147.69
656.438	148.69
656.642	157.69
656.846	140.69
657.049	135.69
657.253	130.69
657.457	139.69
657.661	128.69
657.865	123.69
658.068	119.69
658.272	108.69
658.476	105.69
658.68	100.69
658.883	107.69
659.087	102.69
659.291	121.69
659.494	95.69
659.698	91.69
659.901	100.69
660.105	105.69
660.309	102.69
660.512	100.69
660.716	102.69
660.919	101.69
661.123	99.69
661.326	97.69
661.53	94.69
661.733	89.69
661.936	90.69
662.14	84.69
662.343	83.69
662.546	72.69
662.75	91.69
662.953	103.69
663.156	95.69
663.36	93.69
663.563	61.69
663.766	84.69
663.969	86.69
664.173	75.69
664.376	77.69
664.579	84.69
664.782	82.69
664.985	77.69
665.188	68.69
665.391	86.69
665.594	77.69
665.797	87.69
666	87.69
666.203	95.69
666.406	73.69
666.609	84.69
666.812	89.69
667.015	88.69
667.218	81.69
667.421	80.69
667.624	73.69
667.827	89.69
668.03	96.69
668.232	83.69
668.435	83.69
668.638	83.69
668.841	82.69
669.043	87.69
669.246	79.69
669.449	83.69
669.651	79.69
669.854	92.69
670.057	78.69
670.259	90.69
670.462	86.69
670.665	82.69
670.867	80.69
671.07	95.69
671.272	69.69
671.475	95.69
671.677	74.69
671.88	89.69
672.082	97.69
672.284	85.69
672.487	73.69
672.689	69.69
672.892	82.69
