Data from 1975.PennyLincolnUp.Lamp.En5.5.200Scan.071719.P1.Changed Mount._HRD10591_15-58-04-860.txt Node
Date: Thu Jul 18 15:58:04 EDT 2019
User: cochatt
Spectrometer: HR+D1059
Trigger mode: 1
Integration Time (sec): 1.000000E-1
Scans to average: 1
Electric dark correction enabled: true
Nonlinearity correction enabled: false
Boxcar width: 0
XAxis mode: Wavelengths
Number of Pixels in Spectrum: 2048
>>>>>Begin Spectral Data<<<<<
223.165	-23.38
223.4	-23.38
223.635	-23.38
223.869	-9.38
224.104	-14.38
224.338	-10.38
224.573	-16.38
224.808	-31.38
225.042	-10.38
225.277	-2.38
225.511	10.62
225.746	7.62
225.98	10.62
226.215	22.62
226.449	10.62
226.683	10.62
226.918	24.62
227.152	20.62
227.387	36.62
227.621	27.62
227.856	48.62
228.09	42.62
228.324	58.62
228.559	53.62
228.793	65.62
229.027	110.62
229.262	94.62
229.496	97.62
229.73	133.62
229.964	148.62
230.199	142.62
230.433	125.62
230.667	117.62
230.901	105.62
231.136	115.62
231.37	109.62
231.604	112.62
231.838	117.62
232.072	111.62
232.306	94.62
232.541	106.62
232.775	110.62
233.009	124.62
233.243	95.62
233.477	125.62
233.711	116.62
233.945	119.62
234.179	122.62
234.413	120.62
234.647	119.62
234.881	113.62
235.115	109.62
235.349	118.62
235.583	116.62
235.817	120.62
236.051	124.62
236.285	119.62
236.519	124.62
236.753	127.62
236.987	140.62
237.221	174.62
237.455	224.62
237.689	193.62
237.922	123.62
238.156	141.62
238.39	136.62
238.624	142.62
238.858	140.62
239.091	127.62
239.325	125.62
239.559	131.62
239.793	131.62
240.027	143.62
240.26	142.62
240.494	155.62
240.728	151.62
240.961	158.62
241.195	157.62
241.429	141.62
241.662	135.62
241.896	124.62
242.13	129.62
242.363	133.62
242.597	133.62
242.83	138.62
243.064	141.62
243.298	164.62
243.531	154.62
243.765	158.62
243.998	142.62
244.232	132.62
244.465	143.62
244.699	129.62
244.932	165.62
245.166	147.62
245.399	147.62
245.633	139.62
245.866	166.62
246.099	148.62
246.333	149.62
246.566	159.62
246.8	165.62
247.033	164.62
247.266	158.62
247.5	169.62
247.733	184.62
247.966	164.62
248.2	171.62
248.433	183.62
248.666	195.62
248.899	188.62
249.133	202.62
249.366	210.62
249.599	188.62
249.832	201.62
250.066	183.62
250.299	205.62
250.532	196.62
250.765	198.62
250.998	210.62
251.231	210.62
251.465	236.62
251.698	227.62
251.931	198.62
252.164	202.62
252.397	191.62
252.63	199.62
252.863	200.62
253.096	210.62
253.329	224.62
253.562	222.62
253.795	231.62
254.028	230.62
254.261	222.62
254.494	232.62
254.727	253.62
254.96	274.62
255.193	271.62
255.426	250.62
255.659	248.62
255.892	229.62
256.124	239.62
256.357	236.62
256.59	235.62
256.823	226.62
257.056	217.62
257.289	215.62
257.521	201.62
257.754	203.62
257.987	221.62
258.22	223.62
258.452	226.62
258.685	216.62
258.918	220.62
259.151	219.62
259.383	227.62
259.616	216.62
259.849	224.62
260.081	225.62
260.314	248.62
260.547	252.62
260.779	270.62
261.012	244.62
261.244	232.62
261.477	228.62
261.71	216.62
261.942	230.62
262.175	241.62
262.407	234.62
262.64	227.62
262.872	225.62
263.105	219.62
263.337	210.62
263.57	232.62
263.802	220.62
264.035	212.62
264.267	221.62
264.499	221.62
264.732	209.62
264.964	233.62
265.197	228.62
265.429	219.62
265.661	222.62
265.894	212.62
266.126	231.62
266.358	233.62
266.591	220.62
266.823	236.62
267.055	235.62
267.287	235.62
267.52	240.62
267.752	234.62
267.984	222.62
268.216	231.62
268.448	248.62
268.681	224.62
268.913	267.62
269.145	262.62
269.377	271.62
269.609	262.62
269.841	263.62
270.073	277.62
270.306	281.62
270.538	315.62
270.77	313.62
271.002	300.62
271.234	305.62
271.466	289.62
271.698	308.62
271.93	317.62
272.162	318.62
272.394	318.62
272.626	306.62
272.858	300.62
273.09	292.62
273.322	275.62
273.553	264.62
273.785	263.62
274.017	275.62
274.249	265.62
274.481	276.62
274.713	292.62
274.945	263.62
275.176	273.62
275.408	283.62
275.64	278.62
275.872	266.62
276.104	275.62
276.335	262.62
276.567	263.62
276.799	306.62
277.031	308.62
277.262	316.62
277.494	313.62
277.726	301.62
277.957	294.62
278.189	300.62
278.421	276.62
278.652	286.62
278.884	278.62
279.115	285.62
279.347	281.62
279.579	296.62
279.81	277.62
280.042	282.62
280.273	278.62
280.505	269.62
280.736	274.62
280.968	279.62
281.199	286.62
281.431	287.62
281.662	285.62
281.894	281.62
282.125	275.62
282.356	299.62
282.588	304.62
282.819	325.62
283.051	289.62
283.282	287.62
283.513	291.62
283.745	303.62
283.976	278.62
284.207	295.62
284.439	302.62
284.67	306.62
284.901	296.62
285.132	297.62
285.364	294.62
285.595	289.62
285.826	292.62
286.057	291.62
286.288	292.62
286.52	300.62
286.751	281.62
286.982	290.62
287.213	289.62
287.444	290.62
287.675	320.62
287.906	314.62
288.138	321.62
288.369	322.62
288.6	319.62
288.831	313.62
289.062	294.62
289.293	305.62
289.524	297.62
289.755	311.62
289.986	300.62
290.217	313.62
290.448	309.62
290.679	298.62
290.91	309.62
291.141	309.62
291.371	310.62
291.602	311.62
291.833	312.62
292.064	301.62
292.295	297.62
292.526	306.62
292.757	317.62
292.987	304.62
293.218	311.62
293.449	316.62
293.68	329.62
293.91	313.62
294.141	310.62
294.372	318.62
294.603	319.62
294.833	324.62
295.064	310.62
295.295	302.62
295.525	321.62
295.756	322.62
295.987	300.62
296.217	333.62
296.448	324.62
296.679	323.62
296.909	317.62
297.14	322.62
297.37	329.62
297.601	316.62
297.831	321.62
298.062	337.62
298.292	321.62
298.523	318.62
298.753	323.62
298.984	325.62
299.214	334.62
299.445	329.62
299.675	313.62
299.905	334.62
300.136	323.62
300.366	345.62
300.597	345.62
300.827	353.62
301.057	331.62
301.288	351.62
301.518	356.62
301.748	332.62
301.979	336.62
302.209	343.62
302.439	348.62
302.669	345.62
302.9	356.62
303.13	337.62
303.36	358.62
303.59	365.62
303.82	372.62
304.051	388.62
304.281	354.62
304.511	341.62
304.741	353.62
304.971	336.62
305.201	342.62
305.431	360.62
305.661	336.62
305.891	335.62
306.121	347.62
306.352	354.62
306.582	348.62
306.812	348.62
307.042	348.62
307.272	339.62
307.502	341.62
307.731	360.62
307.961	340.62
308.191	342.62
308.421	354.62
308.651	339.62
308.881	363.62
309.111	354.62
309.341	361.62
309.571	352.62
309.8	377.62
310.03	373.62
310.26	381.62
310.49	367.62
310.72	397.62
310.949	396.62
311.179	390.62
311.409	386.62
311.639	388.62
311.868	387.62
312.098	378.62
312.328	382.62
312.557	391.62
312.787	410.62
313.017	407.62
313.246	400.62
313.476	384.62
313.706	381.62
313.935	392.62
314.165	419.62
314.394	405.62
314.624	406.62
314.853	387.62
315.083	379.62
315.312	385.62
315.542	391.62
315.771	372.62
316.001	377.62
316.23	382.62
316.46	376.62
316.689	385.62
316.919	403.62
317.148	410.62
317.377	389.62
317.607	398.62
317.836	382.62
318.065	406.62
318.295	386.62
318.524	385.62
318.753	371.62
318.983	400.62
319.212	389.62
319.441	385.62
319.67	429.62
319.9	379.62
320.129	382.62
320.358	381.62
320.587	396.62
320.816	395.62
321.046	411.62
321.275	412.62
321.504	407.62
321.733	394.62
321.962	409.62
322.191	398.62
322.42	413.62
322.649	440.62
322.878	441.62
323.108	456.62
323.337	470.62
323.566	457.62
323.795	478.62
324.024	539.62
324.253	622.62
324.482	826.62
324.71	1247.62
324.939	1893.62
325.168	1654.62
325.397	835.62
325.626	602.62
325.855	517.62
326.084	458.62
326.313	473.62
326.542	469.62
326.77	502.62
326.999	575.62
327.228	755.62
327.457	1170.62
327.686	1417.62
327.914	999.62
328.143	667.62
328.372	564.62
328.6	551.62
328.829	545.62
329.058	556.62
329.287	558.62
329.515	540.62
329.744	490.62
329.972	518.62
330.201	519.62
330.43	558.62
330.658	556.62
330.887	585.62
331.115	574.62
331.344	503.62
331.572	474.62
331.801	485.62
332.03	460.62
332.258	465.62
332.486	473.62
332.715	482.62
332.943	473.62
333.172	490.62
333.4	478.62
333.629	491.62
333.857	509.62
334.085	506.62
334.314	525.62
334.542	561.62
334.771	594.62
334.999	517.62
335.227	514.62
335.455	481.62
335.684	472.62
335.912	469.62
336.14	462.62
336.369	471.62
336.597	488.62
336.825	473.62
337.053	461.62
337.281	463.62
337.51	438.62
337.738	463.62
337.966	455.62
338.194	472.62
338.422	461.62
338.65	440.62
338.878	472.62
339.106	427.62
339.334	443.62
339.562	451.62
339.79	455.62
340.018	454.62
340.246	450.62
340.474	423.62
340.702	449.62
340.93	441.62
341.158	434.62
341.386	444.62
341.614	475.62
341.842	443.62
342.07	437.62
342.298	459.62
342.526	447.62
342.754	446.62
342.981	420.62
343.209	439.62
343.437	453.62
343.665	442.62
343.893	479.62
344.12	469.62
344.348	460.62
344.576	452.62
344.804	473.62
345.031	487.62
345.259	474.62
345.487	458.62
345.714	462.62
345.942	446.62
346.17	439.62
346.397	417.62
346.625	436.62
346.853	433.62
347.08	446.62
347.308	421.62
347.535	435.62
347.763	424.62
347.99	439.62
348.218	434.62
348.445	446.62
348.673	422.62
348.9	448.62
349.128	439.62
349.355	391.62
349.583	422.62
349.81	417.62
350.037	406.62
350.265	418.62
350.492	426.62
350.72	418.62
350.947	418.62
351.174	438.62
351.402	445.62
351.629	410.62
351.856	452.62
352.083	435.62
352.311	443.62
352.538	443.62
352.765	447.62
352.992	442.62
353.22	431.62
353.447	431.62
353.674	429.62
353.901	411.62
354.128	408.62
354.355	403.62
354.583	401.62
354.81	417.62
355.037	425.62
355.264	407.62
355.491	402.62
355.718	405.62
355.945	415.62
356.172	393.62
356.399	409.62
356.626	404.62
356.853	408.62
357.08	423.62
357.307	422.62
357.534	408.62
357.761	411.62
357.988	404.62
358.215	416.62
358.441	422.62
358.668	430.62
358.895	395.62
359.122	409.62
359.349	426.62
359.576	418.62
359.802	437.62
360.029	457.62
360.256	461.62
360.483	469.62
360.709	451.62
360.936	433.62
361.163	443.62
361.39	447.62
361.616	438.62
361.843	426.62
362.07	429.62
362.296	430.62
362.523	422.62
362.749	430.62
362.976	428.62
363.203	431.62
363.429	431.62
363.656	420.62
363.882	419.62
364.109	434.62
364.335	386.62
364.562	410.62
364.788	412.62
365.015	437.62
365.241	419.62
365.468	419.62
365.694	429.62
365.92	421.62
366.147	429.62
366.373	434.62
366.599	435.62
366.826	415.62
367.052	428.62
367.278	429.62
367.505	423.62
367.731	423.62
367.957	442.62
368.184	413.62
368.41	416.62
368.636	442.62
368.862	431.62
369.089	438.62
369.315	419.62
369.541	427.62
369.767	433.62
369.993	429.62
370.219	420.62
370.445	440.62
370.672	420.62
370.898	414.62
371.124	434.62
371.35	428.62
371.576	423.62
371.802	425.62
372.028	431.62
372.254	422.62
372.48	413.62
372.706	413.62
372.932	410.62
373.158	430.62
373.384	425.62
373.61	445.62
373.835	452.62
374.061	453.62
374.287	456.62
374.513	445.62
374.739	436.62
374.965	453.62
375.191	427.62
375.416	439.62
375.642	446.62
375.868	425.62
376.094	447.62
376.319	419.62
376.545	428.62
376.771	418.62
376.997	430.62
377.222	434.62
377.448	411.62
377.674	423.62
377.899	421.62
378.125	425.62
378.35	426.62
378.576	430.62
378.802	406.62
379.027	430.62
379.253	416.62
379.478	434.62
379.704	429.62
379.929	415.62
380.155	407.62
380.38	399.62
380.606	430.62
380.831	457.62
381.057	441.62
381.282	437.62
381.507	414.62
381.733	415.62
381.958	433.62
382.184	441.62
382.409	444.62
382.634	448.62
382.86	420.62
383.085	440.62
383.31	445.62
383.535	449.62
383.761	451.62
383.986	466.62
384.211	473.62
384.436	498.62
384.662	454.62
384.887	480.62
385.112	466.62
385.337	500.62
385.562	475.62
385.787	477.62
386.013	484.62
386.238	475.62
386.463	503.62
386.688	485.62
386.913	473.62
387.138	472.62
387.363	478.62
387.588	448.62
387.813	490.62
388.038	500.62
388.263	483.62
388.488	487.62
388.713	470.62
388.938	503.62
389.163	484.62
389.387	492.62
389.612	456.62
389.837	457.62
390.062	477.62
390.287	498.62
390.512	482.62
390.736	490.62
390.961	477.62
391.186	504.62
391.411	510.62
391.636	520.62
391.86	507.62
392.085	507.62
392.31	504.62
392.534	500.62
392.759	492.62
392.984	501.62
393.208	515.62
393.433	502.62
393.658	494.62
393.882	490.62
394.107	466.62
394.331	494.62
394.556	500.62
394.78	491.62
395.005	503.62
395.229	499.62
395.454	505.62
395.678	504.62
395.903	533.62
396.127	554.62
396.352	524.62
396.576	522.62
396.801	487.62
397.025	491.62
397.249	512.62
397.474	522.62
397.698	502.62
397.922	523.62
398.147	540.62
398.371	559.62
398.595	535.62
398.82	550.62
399.044	582.62
399.268	605.62
399.492	642.62
399.717	665.62
399.941	719.62
400.165	731.62
400.389	685.62
400.613	639.62
400.837	609.62
401.062	590.62
401.286	592.62
401.51	584.62
401.734	581.62
401.958	598.62
402.182	588.62
402.406	569.62
402.63	594.62
402.854	602.62
403.078	606.62
403.302	577.62
403.526	602.62
403.75	585.62
403.974	621.62
404.198	574.62
404.422	580.62
404.645	599.62
404.869	610.62
405.093	629.62
405.317	666.62
405.541	698.62
405.765	640.62
405.988	605.62
406.212	627.62
406.436	605.62
406.66	627.62
406.883	606.62
407.107	655.62
407.331	702.62
407.555	769.62
407.778	782.62
408.002	716.62
408.226	671.62
408.449	661.62
408.673	667.62
408.896	683.62
409.12	712.62
409.344	679.62
409.567	613.62
409.791	591.62
410.014	584.62
410.238	582.62
410.461	573.62
410.685	584.62
410.908	612.62
411.132	637.62
411.355	658.62
411.578	629.62
411.802	600.62
412.025	587.62
412.249	594.62
412.472	620.62
412.695	644.62
412.919	651.62
413.142	596.62
413.365	598.62
413.589	569.62
413.812	576.62
414.035	584.62
414.258	565.62
414.482	535.62
414.705	558.62
414.928	543.62
415.151	547.62
415.374	562.62
415.597	536.62
415.821	541.62
416.044	566.62
416.267	557.62
416.49	565.62
416.713	539.62
416.936	559.62
417.159	566.62
417.382	573.62
417.605	545.62
417.828	545.62
418.051	586.62
418.274	575.62
418.497	564.62
418.72	559.62
418.943	565.62
419.166	581.62
419.389	621.62
419.611	597.62
419.834	614.62
420.057	609.62
420.28	598.62
420.503	603.62
420.726	574.62
420.948	555.62
421.171	643.62
421.394	668.62
421.617	590.62
421.839	583.62
422.062	605.62
422.285	578.62
422.507	634.62
422.73	691.62
422.953	700.62
423.175	621.62
423.398	603.62
423.621	609.62
423.843	607.62
424.066	621.62
424.288	627.62
424.511	643.62
424.733	670.62
424.956	759.62
425.178	710.62
425.401	715.62
425.623	758.62
425.846	635.62
426.068	624.62
426.291	591.62
426.513	601.62
426.735	612.62
426.958	650.62
427.18	701.62
427.402	876.62
427.625	938.62
427.847	809.62
428.069	729.62
428.292	644.62
428.514	588.62
428.736	586.62
428.958	571.62
429.181	562.62
429.403	560.62
429.625	561.62
429.847	607.62
430.069	664.62
430.292	670.62
430.514	560.62
430.736	550.62
430.958	561.62
431.18	537.62
431.402	532.62
431.624	532.62
431.846	526.62
432.068	533.62
432.29	525.62
432.512	525.62
432.734	549.62
432.956	539.62
433.178	539.62
433.4	545.62
433.622	569.62
433.844	547.62
434.066	553.62
434.287	553.62
434.509	534.62
434.731	571.62
434.953	537.62
435.175	589.62
435.397	621.62
435.618	604.62
435.84	632.62
436.062	723.62
436.284	797.62
436.505	681.62
436.727	597.62
436.949	579.62
437.17	573.62
437.392	565.62
437.614	565.62
437.835	588.62
438.057	709.62
438.278	802.62
438.5	773.62
438.721	867.62
438.943	829.62
439.165	678.62
439.386	625.62
439.608	582.62
439.829	584.62
440.05	611.62
440.272	653.62
440.493	631.62
440.715	566.62
440.936	563.62
441.158	570.62
441.379	575.62
441.6	585.62
441.822	596.62
442.043	636.62
442.264	724.62
442.486	767.62
442.707	647.62
442.928	637.62
443.149	625.62
443.371	635.62
443.592	694.62
443.813	795.62
444.034	887.62
444.255	706.62
444.476	659.62
444.698	639.62
444.919	618.62
445.14	747.62
445.361	666.62
445.582	641.62
445.803	688.62
446.024	815.62
446.245	800.62
446.466	755.62
446.687	619.62
446.908	595.62
447.129	576.62
447.35	561.62
447.571	565.62
447.792	542.62
448.013	570.62
448.234	562.62
448.455	594.62
448.675	744.62
448.896	866.62
449.117	745.62
449.338	689.62
449.559	791.62
449.779	936.62
450	749.62
450.221	614.62
450.442	537.62
450.662	544.62
450.883	539.62
451.104	578.62
451.324	542.62
451.545	528.62
451.766	502.62
451.986	486.62
452.207	491.62
452.428	481.62
452.648	497.62
452.869	510.62
453.089	507.62
453.31	505.62
453.53	518.62
453.751	500.62
453.971	500.62
454.192	518.62
454.412	492.62
454.633	473.62
454.853	489.62
455.073	484.62
455.294	501.62
455.514	573.62
455.734	559.62
455.955	488.62
456.175	504.62
456.395	449.62
456.616	458.62
456.836	449.62
457.056	469.62
457.276	457.62
457.497	485.62
457.717	486.62
457.937	455.62
458.157	475.62
458.377	483.62
458.598	517.62
458.818	529.62
459.038	615.62
459.258	659.62
459.478	577.62
459.698	524.62
459.918	519.62
460.138	531.62
460.358	535.62
460.578	541.62
460.798	545.62
461.018	554.62
461.238	549.62
461.458	562.62
461.678	553.62
461.898	566.62
462.118	552.62
462.338	588.62
462.558	600.62
462.777	608.62
462.997	585.62
463.217	629.62
463.437	658.62
463.657	611.62
463.876	616.62
464.096	612.62
464.316	619.62
464.536	607.62
464.755	599.62
464.975	612.62
465.195	628.62
465.414	658.62
465.634	568.62
465.854	575.62
466.073	547.62
466.293	508.62
466.512	522.62
466.732	502.62
466.951	525.62
467.171	515.62
467.391	517.62
467.61	522.62
467.829	529.62
468.049	501.62
468.268	531.62
468.488	511.62
468.707	497.62
468.927	489.62
469.146	486.62
469.365	486.62
469.585	509.62
469.804	534.62
470.023	514.62
470.243	537.62
470.462	535.62
470.681	547.62
470.901	544.62
471.12	531.62
471.339	523.62
471.558	515.62
471.777	541.62
471.997	499.62
472.216	545.62
472.435	553.62
472.654	546.62
472.873	522.62
473.092	510.62
473.311	510.62
473.53	514.62
473.749	534.62
473.968	562.62
474.187	656.62
474.406	670.62
474.625	564.62
474.844	537.62
475.063	536.62
475.282	516.62
475.501	513.62
475.72	531.62
475.939	559.62
476.158	535.62
476.377	537.62
476.596	524.62
476.814	530.62
477.033	561.62
477.252	509.62
477.471	564.62
477.69	533.62
477.908	567.62
478.127	557.62
478.346	574.62
478.564	581.62
478.783	590.62
479.002	593.62
479.22	613.62
479.439	631.62
479.658	627.62
479.876	631.62
480.095	641.62
480.313	636.62
480.532	655.62
480.751	647.62
480.969	680.62
481.188	713.62
481.406	734.62
481.624	678.62
481.843	622.62
482.061	604.62
482.28	616.62
482.498	609.62
482.717	614.62
482.935	609.62
483.153	608.62
483.372	611.62
483.59	587.62
483.808	600.62
484.027	609.62
484.245	606.62
484.463	623.62
484.681	617.62
484.9	609.62
485.118	622.62
485.336	613.62
485.554	609.62
485.772	629.62
485.99	627.62
486.209	638.62
486.427	638.62
486.645	637.62
486.863	664.62
487.081	654.62
487.299	654.62
487.517	651.62
487.735	674.62
487.953	654.62
488.171	639.62
488.389	649.62
488.607	646.62
488.825	659.62
489.043	636.62
489.261	645.62
489.479	646.62
489.696	653.62
489.914	652.62
490.132	656.62
490.35	684.62
490.568	707.62
490.786	715.62
491.003	695.62
491.221	730.62
491.439	717.62
491.657	751.62
491.874	737.62
492.092	758.62
492.31	751.62
492.527	747.62
492.745	754.62
492.963	771.62
493.18	769.62
493.398	771.62
493.615	769.62
493.833	773.62
494.05	758.62
494.268	746.62
494.485	742.62
494.703	777.62
494.92	781.62
495.138	763.62
495.355	758.62
495.573	783.62
495.79	749.62
496.008	782.62
496.225	796.62
496.442	767.62
496.66	775.62
496.877	764.62
497.094	787.62
497.312	797.62
497.529	806.62
497.746	806.62
497.963	842.62
498.181	852.62
498.398	881.62
498.615	878.62
498.832	881.62
499.049	939.62
499.267	951.62
499.484	1000.62
499.701	1039.62
499.918	1066.62
500.135	1172.62
500.352	1189.62
500.569	1231.62
500.786	1263.62
501.003	1196.62
501.22	1156.62
501.437	1118.62
501.654	1063.62
501.871	1053.62
502.088	1003.62
502.305	968.62
502.522	923.62
502.739	891.62
502.956	836.62
503.172	849.62
503.389	822.62
503.606	834.62
503.823	799.62
504.04	784.62
504.256	794.62
504.473	784.62
504.69	781.62
504.907	764.62
505.123	770.62
505.34	753.62
505.557	752.62
505.773	719.62
505.99	697.62
506.207	719.62
506.423	733.62
506.64	718.62
506.856	718.62
507.073	714.62
507.289	705.62
507.506	676.62
507.722	691.62
507.939	717.62
508.155	712.62
508.372	691.62
508.588	678.62
508.805	681.62
509.021	661.62
509.238	698.62
509.454	701.62
509.67	697.62
509.887	654.62
510.103	663.62
510.319	675.62
510.536	738.62
510.752	1119.62
510.968	919.62
511.184	689.62
511.401	659.62
511.617	643.62
511.833	643.62
512.049	655.62
512.265	641.62
512.481	639.62
512.698	647.62
512.914	622.62
513.13	639.62
513.346	630.62
513.562	621.62
513.778	625.62
513.994	639.62
514.21	644.62
514.426	658.62
514.642	710.62
514.858	692.62
515.074	703.62
515.29	815.62
515.506	1096.62
515.721	941.62
515.937	733.62
516.153	670.62
516.369	677.62
516.585	672.62
516.801	671.62
517.016	685.62
517.232	668.62
517.448	691.62
517.664	699.62
517.879	687.62
518.095	700.62
518.311	694.62
518.527	688.62
518.742	677.62
518.958	670.62
519.173	655.62
519.389	645.62
519.605	648.62
519.82	642.62
520.036	646.62
520.251	668.62
520.467	673.62
520.682	661.62
520.898	663.62
521.113	678.62
521.329	703.62
521.544	732.62
521.76	887.62
521.975	1360.62
522.19	1300.62
522.406	827.62
522.621	672.62
522.836	620.62
523.052	589.62
523.267	603.62
523.482	596.62
523.698	605.62
523.913	591.62
524.128	567.62
524.343	574.62
524.559	566.62
524.774	559.62
524.989	565.62
525.204	582.62
525.419	566.62
525.634	541.62
525.849	538.62
526.064	539.62
526.28	552.62
526.495	536.62
526.71	538.62
526.925	540.62
527.14	509.62
527.355	530.62
527.57	535.62
527.785	553.62
527.999	561.62
528.214	531.62
528.429	547.62
528.644	548.62
528.859	542.62
529.074	536.62
529.289	556.62
529.503	618.62
529.718	596.62
529.933	560.62
530.148	519.62
530.363	535.62
530.577	524.62
530.792	550.62
531.007	511.62
531.221	535.62
531.436	515.62
531.651	499.62
531.865	514.62
532.08	520.62
532.295	521.62
532.509	506.62
532.724	481.62
532.938	514.62
533.153	513.62
533.367	541.62
533.582	517.62
533.796	497.62
534.011	492.62
534.225	509.62
534.44	513.62
534.654	493.62
534.868	512.62
535.083	487.62
535.297	518.62
535.511	505.62
535.726	497.62
535.94	522.62
536.154	513.62
536.369	520.62
536.583	475.62
536.797	507.62
537.011	480.62
537.225	495.62
537.44	492.62
537.654	483.62
537.868	490.62
538.082	490.62
538.296	512.62
538.51	497.62
538.724	490.62
538.938	479.62
539.153	482.62
539.367	517.62
539.581	489.62
539.795	477.62
540.009	469.62
540.222	474.62
540.436	497.62
540.65	489.62
540.864	491.62
541.078	486.62
541.292	495.62
541.506	471.62
541.72	489.62
541.934	497.62
542.147	494.62
542.361	528.62
542.575	472.62
542.789	479.62
543.002	503.62
543.216	473.62
543.43	498.62
543.644	504.62
543.857	510.62
544.071	506.62
544.285	501.62
544.498	494.62
544.712	489.62
544.925	500.62
545.139	486.62
545.352	479.62
545.566	481.62
545.779	491.62
545.993	483.62
546.206	497.62
546.42	479.62
546.633	484.62
546.847	491.62
547.06	499.62
547.274	481.62
547.487	455.62
547.7	481.62
547.914	477.62
548.127	481.62
548.34	501.62
548.554	480.62
548.767	478.62
548.98	487.62
549.193	491.62
549.407	474.62
549.62	468.62
549.833	469.62
550.046	467.62
550.259	476.62
550.473	465.62
550.686	465.62
550.899	474.62
551.112	455.62
551.325	449.62
551.538	456.62
551.751	486.62
551.964	454.62
552.177	469.62
552.39	464.62
552.603	486.62
552.816	493.62
553.029	497.62
553.242	487.62
553.455	522.62
553.667	511.62
553.88	498.62
554.093	519.62
554.306	503.62
554.519	515.62
554.732	479.62
554.944	462.62
555.157	466.62
555.37	457.62
555.583	455.62
555.795	444.62
556.008	441.62
556.221	423.62
556.433	422.62
556.646	433.62
556.859	445.62
557.071	424.62
557.284	416.62
557.496	443.62
557.709	432.62
557.921	429.62
558.134	447.62
558.346	418.62
558.559	427.62
558.771	420.62
558.984	428.62
559.196	444.62
559.409	409.62
559.621	435.62
559.833	417.62
560.046	398.62
560.258	418.62
560.47	420.62
560.683	435.62
560.895	406.62
561.107	415.62
561.32	409.62
561.532	417.62
561.744	398.62
561.956	430.62
562.168	411.62
562.381	427.62
562.593	427.62
562.805	421.62
563.017	435.62
563.229	413.62
563.441	425.62
563.653	412.62
563.865	448.62
564.077	409.62
564.289	452.62
564.501	427.62
564.713	426.62
564.925	432.62
565.137	469.62
565.349	466.62
565.561	474.62
565.773	473.62
565.985	502.62
566.197	505.62
566.408	527.62
566.62	558.62
566.832	546.62
567.044	565.62
567.255	554.62
567.467	586.62
567.679	598.62
567.891	588.62
568.102	584.62
568.314	589.62
568.526	572.62
568.737	527.62
568.949	521.62
569.161	492.62
569.372	465.62
569.584	447.62
569.795	461.62
570.007	449.62
570.218	471.62
570.43	481.62
570.641	429.62
570.853	442.62
571.064	435.62
571.276	412.62
571.487	411.62
571.698	407.62
571.91	410.62
572.121	405.62
572.333	400.62
572.544	377.62
572.755	386.62
572.966	378.62
573.178	379.62
573.389	371.62
573.6	407.62
573.811	364.62
574.023	375.62
574.234	379.62
574.445	369.62
574.656	382.62
574.867	372.62
575.078	385.62
575.289	388.62
575.501	367.62
575.712	353.62
575.923	356.62
576.134	362.62
576.345	373.62
576.556	342.62
576.767	339.62
576.978	362.62
577.188	358.62
577.399	344.62
577.61	365.62
577.821	354.62
578.032	355.62
578.243	378.62
578.454	513.62
578.665	407.62
578.875	346.62
579.086	357.62
579.297	356.62
579.508	333.62
579.718	343.62
579.929	348.62
580.14	330.62
580.35	328.62
580.561	326.62
580.772	344.62
580.982	342.62
581.193	330.62
581.403	351.62
581.614	334.62
581.825	339.62
582.035	339.62
582.246	339.62
582.456	333.62
582.667	330.62
582.877	327.62
583.087	323.62
583.298	308.62
583.508	323.62
583.719	317.62
583.929	322.62
584.139	331.62
584.35	321.62
584.56	330.62
584.77	318.62
584.981	317.62
585.191	310.62
585.401	288.62
585.611	318.62
585.821	335.62
586.032	321.62
586.242	338.62
586.452	333.62
586.662	330.62
586.872	315.62
587.082	315.62
587.292	322.62
587.502	321.62
587.713	296.62
587.923	314.62
588.133	339.62
588.343	315.62
588.553	320.62
588.762	319.62
588.972	298.62
589.182	320.62
589.392	317.62
589.602	322.62
589.812	329.62
590.022	317.62
590.232	312.62
590.441	325.62
590.651	322.62
590.861	313.62
591.071	325.62
591.281	315.62
591.49	319.62
591.7	320.62
591.91	330.62
592.119	321.62
592.329	329.62
592.539	363.62
592.748	351.62
592.958	324.62
593.167	343.62
593.377	355.62
593.587	345.62
593.796	369.62
594.006	353.62
594.215	358.62
594.424	356.62
594.634	343.62
594.843	361.62
595.053	339.62
595.262	353.62
595.472	321.62
595.681	325.62
595.89	324.62
596.1	330.62
596.309	323.62
596.518	321.62
596.727	319.62
596.937	316.62
597.146	305.62
597.355	305.62
597.564	309.62
597.774	297.62
597.983	289.62
598.192	301.62
598.401	294.62
598.61	279.62
598.819	290.62
599.028	286.62
599.237	294.62
599.446	286.62
599.655	281.62
599.864	301.62
600.073	277.62
600.282	285.62
600.491	286.62
600.7	283.62
600.909	283.62
601.118	285.62
601.327	294.62
601.536	282.62
601.745	282.62
601.953	271.62
602.162	282.62
602.371	276.62
602.58	272.62
602.789	280.62
602.997	276.62
603.206	284.62
603.415	280.62
603.623	270.62
603.832	283.62
604.041	269.62
604.249	262.62
604.458	254.62
604.666	250.62
604.875	253.62
605.084	254.62
605.292	276.62
605.501	270.62
605.709	267.62
605.918	265.62
606.126	268.62
606.334	286.62
606.543	274.62
606.751	262.62
606.96	268.62
607.168	269.62
607.376	253.62
607.585	246.62
607.793	249.62
608.001	251.62
608.21	262.62
608.418	277.62
608.626	259.62
608.834	250.62
609.043	235.62
609.251	260.62
609.459	256.62
609.667	252.62
609.875	271.62
610.083	266.62
610.291	271.62
610.499	247.62
610.707	253.62
610.916	255.62
611.124	271.62
611.332	282.62
611.54	261.62
611.748	234.62
611.955	261.62
612.163	253.62
612.371	255.62
612.579	266.62
612.787	255.62
612.995	261.62
613.203	263.62
613.411	270.62
613.618	272.62
613.826	261.62
614.034	246.62
614.242	261.62
614.449	254.62
614.657	243.62
614.865	259.62
615.072	257.62
615.28	249.62
615.488	259.62
615.695	266.62
615.903	238.62
616.111	274.62
616.318	255.62
616.526	261.62
616.733	248.62
616.941	260.62
617.148	238.62
617.356	261.62
617.563	245.62
617.771	237.62
617.978	243.62
618.185	257.62
618.393	227.62
618.6	258.62
618.807	263.62
619.015	257.62
619.222	257.62
619.429	254.62
619.637	261.62
619.844	238.62
620.051	245.62
620.258	241.62
620.466	254.62
620.673	236.62
620.88	250.62
621.087	239.62
621.294	243.62
621.501	245.62
621.708	245.62
621.915	227.62
622.122	235.62
622.329	262.62
622.536	248.62
622.743	243.62
622.95	230.62
623.157	219.62
623.364	234.62
623.571	227.62
623.778	235.62
623.985	234.62
624.192	224.62
624.399	230.62
624.606	217.62
624.812	220.62
625.019	235.62
625.226	242.62
625.433	232.62
625.639	227.62
625.846	229.62
626.053	243.62
626.259	221.62
626.466	217.62
626.673	221.62
626.879	211.62
627.086	221.62
627.293	223.62
627.499	214.62
627.706	226.62
627.912	216.62
628.119	212.62
628.325	221.62
628.532	219.62
628.738	225.62
628.945	223.62
629.151	215.62
629.357	217.62
629.564	211.62
629.77	205.62
629.976	194.62
630.183	202.62
630.389	205.62
630.595	210.62
630.802	203.62
631.008	221.62
631.214	203.62
631.42	209.62
631.627	212.62
631.833	197.62
632.039	194.62
632.245	197.62
632.451	192.62
632.657	213.62
632.863	201.62
633.069	194.62
633.275	208.62
633.481	194.62
633.688	202.62
633.893	214.62
634.099	207.62
634.305	187.62
634.511	197.62
634.717	195.62
634.923	199.62
635.129	194.62
635.335	191.62
635.541	198.62
635.747	206.62
635.952	183.62
636.158	181.62
636.364	206.62
636.57	195.62
636.775	196.62
636.981	199.62
637.187	181.62
637.392	164.62
637.598	179.62
637.804	191.62
638.009	201.62
638.215	188.62
638.421	182.62
638.626	187.62
638.832	197.62
639.037	187.62
639.243	180.62
639.448	193.62
639.654	187.62
639.859	182.62
640.065	167.62
640.27	189.62
640.475	189.62
640.681	170.62
640.886	175.62
641.091	178.62
641.297	193.62
641.502	173.62
641.707	177.62
641.913	192.62
642.118	182.62
642.323	190.62
642.528	176.62
642.733	171.62
642.939	193.62
643.144	182.62
643.349	187.62
643.554	181.62
643.759	167.62
643.964	183.62
644.169	178.62
644.374	192.62
644.579	187.62
644.784	175.62
644.989	182.62
645.194	169.62
645.399	198.62
645.604	170.62
645.809	195.62
646.014	191.62
646.219	172.62
646.423	185.62
646.628	166.62
646.833	164.62
647.038	165.62
647.243	186.62
647.447	185.62
647.652	175.62
647.857	169.62
648.062	196.62
648.266	169.62
648.471	183.62
648.676	182.62
648.88	164.62
649.085	181.62
649.289	182.62
649.494	178.62
649.698	197.62
649.903	178.62
650.107	169.62
650.312	177.62
650.516	170.62
650.721	170.62
650.925	167.62
651.13	156.62
651.334	167.62
651.539	158.62
651.743	163.62
651.947	162.62
652.152	162.62
652.356	145.62
652.56	149.62
652.764	147.62
652.969	147.62
653.173	155.62
653.377	141.62
653.581	151.62
653.785	149.62
653.99	147.62
654.194	151.62
654.398	151.62
654.602	143.62
654.806	135.62
655.01	171.62
655.214	157.62
655.418	142.62
655.622	144.62
655.826	144.62
656.03	143.62
656.234	138.62
656.438	141.62
656.642	148.62
656.846	137.62
657.049	137.62
657.253	129.62
657.457	136.62
657.661	137.62
657.865	121.62
658.068	134.62
658.272	116.62
658.476	97.62
658.68	106.62
658.883	103.62
659.087	106.62
659.291	100.62
659.494	107.62
659.698	121.62
659.901	119.62
660.105	87.62
660.309	92.62
660.512	93.62
660.716	92.62
660.919	102.62
661.123	109.62
661.326	104.62
661.53	91.62
661.733	94.62
661.936	93.62
662.14	89.62
662.343	81.62
662.546	76.62
662.75	77.62
662.953	101.62
663.156	92.62
663.36	86.62
663.563	84.62
663.766	92.62
663.969	86.62
664.173	92.62
664.376	89.62
664.579	87.62
664.782	79.62
664.985	78.62
665.188	78.62
665.391	87.62
665.594	77.62
665.797	76.62
666	89.62
666.203	85.62
666.406	92.62
666.609	72.62
666.812	86.62
667.015	73.62
667.218	69.62
667.421	76.62
667.624	83.62
667.827	78.62
668.03	71.62
668.232	80.62
668.435	83.62
668.638	84.62
668.841	87.62
669.043	83.62
669.246	68.62
669.449	84.62
669.651	78.62
669.854	85.62
670.057	89.62
670.259	76.62
670.462	87.62
670.665	89.62
670.867	95.62
671.07	89.62
671.272	77.62
671.475	66.62
671.677	82.62
671.88	82.62
672.082	95.62
672.284	84.62
672.487	89.62
672.689	91.62
672.892	89.62
