Data from 1975.PennyLincolnUp.Lamp.En5.5.200Scan.071719.P1.Changed Mount._HRD10591_15-56-43-858.txt Node
Date: Thu Jul 18 15:56:43 EDT 2019
User: cochatt
Spectrometer: HR+D1059
Trigger mode: 1
Integration Time (sec): 1.000000E-1
Scans to average: 1
Electric dark correction enabled: true
Nonlinearity correction enabled: false
Boxcar width: 0
XAxis mode: Wavelengths
Number of Pixels in Spectrum: 2048
>>>>>Begin Spectral Data<<<<<
223.165	-28.88
223.4	-28.88
223.635	-28.88
223.869	-2.88
224.104	-19.88
224.338	-8.88
224.573	-8.88
224.808	-6.88
225.042	-6.88
225.277	-19.88
225.511	-6.88
225.746	9.12
225.98	3.12
226.215	17.12
226.449	16.12
226.683	21.12
226.918	12.12
227.152	31.12
227.387	51.12
227.621	41.12
227.856	37.12
228.09	47.12
228.324	41.12
228.559	44.12
228.793	55.12
229.027	105.12
229.262	92.12
229.496	97.12
229.73	108.12
229.964	137.12
230.199	115.12
230.433	124.12
230.667	101.12
230.901	111.12
231.136	113.12
231.37	118.12
231.604	119.12
231.838	98.12
232.072	103.12
232.306	109.12
232.541	106.12
232.775	125.12
233.009	118.12
233.243	119.12
233.477	125.12
233.711	111.12
233.945	125.12
234.179	108.12
234.413	127.12
234.647	108.12
234.881	104.12
235.115	118.12
235.349	113.12
235.583	130.12
235.817	115.12
236.051	121.12
236.285	122.12
236.519	116.12
236.753	117.12
236.987	143.12
237.221	180.12
237.455	223.12
237.689	181.12
237.922	137.12
238.156	125.12
238.39	115.12
238.624	124.12
238.858	123.12
239.091	114.12
239.325	121.12
239.559	116.12
239.793	131.12
240.027	121.12
240.26	134.12
240.494	149.12
240.728	131.12
240.961	156.12
241.195	142.12
241.429	140.12
241.662	133.12
241.896	126.12
242.13	131.12
242.363	133.12
242.597	117.12
242.83	143.12
243.064	138.12
243.298	126.12
243.531	136.12
243.765	134.12
243.998	135.12
244.232	150.12
244.465	143.12
244.699	134.12
244.932	137.12
245.166	135.12
245.399	150.12
245.633	148.12
245.866	147.12
246.099	141.12
246.333	142.12
246.566	145.12
246.8	148.12
247.033	155.12
247.266	149.12
247.5	144.12
247.733	169.12
247.966	161.12
248.2	178.12
248.433	155.12
248.666	175.12
248.899	179.12
249.133	186.12
249.366	195.12
249.599	191.12
249.832	170.12
250.066	187.12
250.299	181.12
250.532	193.12
250.765	199.12
250.998	220.12
251.231	244.12
251.465	218.12
251.698	197.12
251.931	191.12
252.164	187.12
252.397	209.12
252.63	191.12
252.863	207.12
253.096	225.12
253.329	209.12
253.562	223.12
253.795	206.12
254.028	232.12
254.261	204.12
254.494	225.12
254.727	248.12
254.96	275.12
255.193	245.12
255.426	239.12
255.659	235.12
255.892	227.12
256.124	233.12
256.357	222.12
256.59	221.12
256.823	206.12
257.056	203.12
257.289	201.12
257.521	215.12
257.754	217.12
257.987	214.12
258.22	209.12
258.452	200.12
258.685	203.12
258.918	215.12
259.151	190.12
259.383	208.12
259.616	207.12
259.849	228.12
260.081	229.12
260.314	247.12
260.547	244.12
260.779	240.12
261.012	215.12
261.244	218.12
261.477	189.12
261.71	216.12
261.942	218.12
262.175	231.12
262.407	214.12
262.64	222.12
262.872	226.12
263.105	214.12
263.337	193.12
263.57	216.12
263.802	209.12
264.035	207.12
264.267	218.12
264.499	210.12
264.732	219.12
264.964	224.12
265.197	223.12
265.429	218.12
265.661	200.12
265.894	202.12
266.126	202.12
266.358	211.12
266.591	225.12
266.823	216.12
267.055	223.12
267.287	224.12
267.52	219.12
267.752	203.12
267.984	225.12
268.216	210.12
268.448	219.12
268.681	254.12
268.913	234.12
269.145	263.12
269.377	259.12
269.609	251.12
269.841	269.12
270.073	266.12
270.306	294.12
270.538	291.12
270.77	293.12
271.002	282.12
271.234	275.12
271.466	294.12
271.698	306.12
271.93	305.12
272.162	297.12
272.394	302.12
272.626	298.12
272.858	270.12
273.09	269.12
273.322	254.12
273.553	252.12
273.785	276.12
274.017	268.12
274.249	250.12
274.481	268.12
274.713	242.12
274.945	264.12
275.176	254.12
275.408	265.12
275.64	278.12
275.872	269.12
276.104	275.12
276.335	272.12
276.567	274.12
276.799	271.12
277.031	313.12
277.262	291.12
277.494	297.12
277.726	295.12
277.957	279.12
278.189	277.12
278.421	279.12
278.652	264.12
278.884	247.12
279.115	277.12
279.347	253.12
279.579	275.12
279.81	251.12
280.042	255.12
280.273	253.12
280.505	260.12
280.736	283.12
280.968	269.12
281.199	270.12
281.431	267.12
281.662	266.12
281.894	265.12
282.125	292.12
282.356	290.12
282.588	290.12
282.819	302.12
283.051	290.12
283.282	283.12
283.513	272.12
283.745	289.12
283.976	262.12
284.207	290.12
284.439	272.12
284.67	276.12
284.901	290.12
285.132	287.12
285.364	265.12
285.595	293.12
285.826	266.12
286.057	275.12
286.288	278.12
286.52	284.12
286.751	268.12
286.982	290.12
287.213	286.12
287.444	281.12
287.675	297.12
287.906	292.12
288.138	297.12
288.369	293.12
288.6	302.12
288.831	296.12
289.062	292.12
289.293	261.12
289.524	297.12
289.755	283.12
289.986	300.12
290.217	290.12
290.448	292.12
290.679	277.12
290.91	310.12
291.141	303.12
291.371	291.12
291.602	275.12
291.833	286.12
292.064	279.12
292.295	269.12
292.526	295.12
292.757	285.12
292.987	297.12
293.218	293.12
293.449	286.12
293.68	309.12
293.91	284.12
294.141	289.12
294.372	299.12
294.603	312.12
294.833	309.12
295.064	294.12
295.295	291.12
295.525	290.12
295.756	289.12
295.987	294.12
296.217	318.12
296.448	337.12
296.679	305.12
296.909	305.12
297.14	320.12
297.37	316.12
297.601	324.12
297.831	310.12
298.062	308.12
298.292	310.12
298.523	289.12
298.753	294.12
298.984	312.12
299.214	313.12
299.445	330.12
299.675	318.12
299.905	318.12
300.136	305.12
300.366	315.12
300.597	307.12
300.827	309.12
301.057	336.12
301.288	306.12
301.518	318.12
301.748	317.12
301.979	316.12
302.209	310.12
302.439	311.12
302.669	332.12
302.9	325.12
303.13	325.12
303.36	330.12
303.59	321.12
303.82	325.12
304.051	324.12
304.281	322.12
304.511	336.12
304.741	309.12
304.971	323.12
305.201	309.12
305.431	325.12
305.661	338.12
305.891	329.12
306.121	353.12
306.352	334.12
306.582	327.12
306.812	321.12
307.042	343.12
307.272	321.12
307.502	323.12
307.731	313.12
307.961	301.12
308.191	328.12
308.421	329.12
308.651	335.12
308.881	327.12
309.111	323.12
309.341	327.12
309.571	315.12
309.8	324.12
310.03	351.12
310.26	375.12
310.49	355.12
310.72	369.12
310.949	358.12
311.179	373.12
311.409	365.12
311.639	361.12
311.868	342.12
312.098	369.12
312.328	371.12
312.557	378.12
312.787	366.12
313.017	375.12
313.246	388.12
313.476	381.12
313.706	355.12
313.935	365.12
314.165	389.12
314.394	367.12
314.624	366.12
314.853	380.12
315.083	375.12
315.312	352.12
315.542	375.12
315.771	341.12
316.001	365.12
316.23	349.12
316.46	350.12
316.689	377.12
316.919	378.12
317.148	360.12
317.377	398.12
317.607	386.12
317.836	381.12
318.065	358.12
318.295	379.12
318.524	376.12
318.753	383.12
318.983	350.12
319.212	364.12
319.441	369.12
319.67	379.12
319.9	376.12
320.129	375.12
320.358	384.12
320.587	384.12
320.816	377.12
321.046	377.12
321.275	391.12
321.504	395.12
321.733	391.12
321.962	375.12
322.191	395.12
322.42	385.12
322.649	406.12
322.878	421.12
323.108	409.12
323.337	424.12
323.566	446.12
323.795	441.12
324.024	478.12
324.253	573.12
324.482	764.12
324.71	1143.12
324.939	1670.12
325.168	1502.12
325.397	778.12
325.626	523.12
325.855	468.12
326.084	442.12
326.313	449.12
326.542	446.12
326.77	481.12
326.999	561.12
327.228	707.12
327.457	1045.12
327.686	1297.12
327.914	881.12
328.143	600.12
328.372	526.12
328.6	507.12
328.829	491.12
329.058	514.12
329.287	491.12
329.515	499.12
329.744	496.12
329.972	451.12
330.201	478.12
330.43	527.12
330.658	535.12
330.887	542.12
331.115	517.12
331.344	472.12
331.572	469.12
331.801	447.12
332.03	444.12
332.258	442.12
332.486	452.12
332.715	461.12
332.943	438.12
333.172	455.12
333.4	467.12
333.629	456.12
333.857	475.12
334.085	468.12
334.314	489.12
334.542	503.12
334.771	517.12
334.999	483.12
335.227	489.12
335.455	461.12
335.684	458.12
335.912	455.12
336.14	453.12
336.369	441.12
336.597	438.12
336.825	418.12
337.053	441.12
337.281	429.12
337.51	453.12
337.738	412.12
337.966	453.12
338.194	445.12
338.422	438.12
338.65	412.12
338.878	444.12
339.106	429.12
339.334	443.12
339.562	415.12
339.79	421.12
340.018	423.12
340.246	407.12
340.474	420.12
340.702	413.12
340.93	401.12
341.158	415.12
341.386	398.12
341.614	425.12
341.842	417.12
342.07	411.12
342.298	412.12
342.526	419.12
342.754	419.12
342.981	403.12
343.209	401.12
343.437	421.12
343.665	429.12
343.893	437.12
344.12	440.12
344.348	433.12
344.576	444.12
344.804	435.12
345.031	433.12
345.259	435.12
345.487	440.12
345.714	424.12
345.942	397.12
346.17	404.12
346.397	423.12
346.625	391.12
346.853	425.12
347.08	389.12
347.308	412.12
347.535	421.12
347.763	422.12
347.99	427.12
348.218	426.12
348.445	396.12
348.673	417.12
348.9	400.12
349.128	423.12
349.355	426.12
349.583	398.12
349.81	408.12
350.037	399.12
350.265	389.12
350.492	377.12
350.72	406.12
350.947	381.12
351.174	421.12
351.402	410.12
351.629	397.12
351.856	385.12
352.083	402.12
352.311	423.12
352.538	414.12
352.765	417.12
352.992	416.12
353.22	413.12
353.447	416.12
353.674	391.12
353.901	390.12
354.128	408.12
354.355	398.12
354.583	391.12
354.81	387.12
355.037	393.12
355.264	380.12
355.491	379.12
355.718	395.12
355.945	394.12
356.172	383.12
356.399	384.12
356.626	380.12
356.853	376.12
357.08	381.12
357.307	391.12
357.534	390.12
357.761	387.12
357.988	383.12
358.215	387.12
358.441	381.12
358.668	382.12
358.895	391.12
359.122	390.12
359.349	381.12
359.576	393.12
359.802	425.12
360.029	449.12
360.256	456.12
360.483	426.12
360.709	404.12
360.936	419.12
361.163	402.12
361.39	408.12
361.616	403.12
361.843	407.12
362.07	399.12
362.296	395.12
362.523	406.12
362.749	407.12
362.976	397.12
363.203	401.12
363.429	425.12
363.656	411.12
363.882	409.12
364.109	402.12
364.335	390.12
364.562	405.12
364.788	413.12
365.015	397.12
365.241	417.12
365.468	399.12
365.694	393.12
365.92	404.12
366.147	406.12
366.373	395.12
366.599	405.12
366.826	393.12
367.052	394.12
367.278	399.12
367.505	409.12
367.731	409.12
367.957	390.12
368.184	405.12
368.41	403.12
368.636	395.12
368.862	424.12
369.089	405.12
369.315	419.12
369.541	410.12
369.767	421.12
369.993	401.12
370.219	406.12
370.445	396.12
370.672	407.12
370.898	395.12
371.124	407.12
371.35	428.12
371.576	410.12
371.802	409.12
372.028	414.12
372.254	402.12
372.48	377.12
372.706	394.12
372.932	425.12
373.158	433.12
373.384	424.12
373.61	417.12
373.835	415.12
374.061	417.12
374.287	398.12
374.513	414.12
374.739	424.12
374.965	403.12
375.191	420.12
375.416	413.12
375.642	425.12
375.868	429.12
376.094	409.12
376.319	428.12
376.545	411.12
376.771	415.12
376.997	407.12
377.222	420.12
377.448	415.12
377.674	385.12
377.899	407.12
378.125	422.12
378.35	404.12
378.576	404.12
378.802	387.12
379.027	383.12
379.253	411.12
379.478	400.12
379.704	401.12
379.929	403.12
380.155	400.12
380.38	401.12
380.606	413.12
380.831	387.12
381.057	423.12
381.282	396.12
381.507	408.12
381.733	398.12
381.958	440.12
382.184	410.12
382.409	428.12
382.634	421.12
382.86	424.12
383.085	411.12
383.31	427.12
383.535	435.12
383.761	449.12
383.986	458.12
384.211	428.12
384.436	451.12
384.662	434.12
384.887	448.12
385.112	455.12
385.337	446.12
385.562	446.12
385.787	460.12
386.013	444.12
386.238	443.12
386.463	444.12
386.688	439.12
386.913	458.12
387.138	457.12
387.363	452.12
387.588	453.12
387.813	455.12
388.038	460.12
388.263	441.12
388.488	464.12
388.713	450.12
388.938	452.12
389.163	435.12
389.387	453.12
389.612	425.12
389.837	468.12
390.062	444.12
390.287	463.12
390.512	466.12
390.736	469.12
390.961	461.12
391.186	473.12
391.411	458.12
391.636	460.12
391.86	473.12
392.085	478.12
392.31	470.12
392.534	478.12
392.759	476.12
392.984	451.12
393.208	463.12
393.433	481.12
393.658	444.12
393.882	460.12
394.107	463.12
394.331	488.12
394.556	484.12
394.78	445.12
395.005	462.12
395.229	455.12
395.454	484.12
395.678	511.12
395.903	481.12
396.127	515.12
396.352	514.12
396.576	468.12
396.801	488.12
397.025	457.12
397.249	484.12
397.474	490.12
397.698	490.12
397.922	493.12
398.147	512.12
398.371	517.12
398.595	543.12
398.82	533.12
399.044	528.12
399.268	550.12
399.492	616.12
399.717	626.12
399.941	665.12
400.165	687.12
400.389	682.12
400.613	614.12
400.837	577.12
401.062	572.12
401.286	565.12
401.51	542.12
401.734	555.12
401.958	534.12
402.182	525.12
402.406	520.12
402.63	546.12
402.854	575.12
403.078	548.12
403.302	537.12
403.526	547.12
403.75	557.12
403.974	571.12
404.198	550.12
404.422	574.12
404.645	565.12
404.869	578.12
405.093	598.12
405.317	638.12
405.541	675.12
405.765	609.12
405.988	595.12
406.212	586.12
406.436	577.12
406.66	610.12
406.883	581.12
407.107	629.12
407.331	667.12
407.555	746.12
407.778	763.12
408.002	668.12
408.226	623.12
408.449	614.12
408.673	608.12
408.896	643.12
409.12	663.12
409.344	632.12
409.567	565.12
409.791	565.12
410.014	565.12
410.238	554.12
410.461	563.12
410.685	544.12
410.908	572.12
411.132	610.12
411.355	639.12
411.578	604.12
411.802	553.12
412.025	546.12
412.249	561.12
412.472	571.12
412.695	617.12
412.919	621.12
413.142	562.12
413.365	555.12
413.589	553.12
413.812	545.12
414.035	498.12
414.258	513.12
414.482	537.12
414.705	525.12
414.928	517.12
415.151	529.12
415.374	510.12
415.597	507.12
415.821	523.12
416.044	534.12
416.267	536.12
416.49	511.12
416.713	501.12
416.936	538.12
417.159	501.12
417.382	510.12
417.605	533.12
417.828	524.12
418.051	558.12
418.274	531.12
418.497	541.12
418.72	545.12
418.943	534.12
419.166	561.12
419.389	572.12
419.611	572.12
419.834	562.12
420.057	562.12
420.28	562.12
420.503	548.12
420.726	527.12
420.948	544.12
421.171	592.12
421.394	612.12
421.617	567.12
421.839	551.12
422.062	554.12
422.285	565.12
422.507	626.12
422.73	714.12
422.953	662.12
423.175	593.12
423.398	555.12
423.621	577.12
423.843	605.12
424.066	592.12
424.288	569.12
424.511	599.12
424.733	655.12
424.956	729.12
425.178	689.12
425.401	701.12
425.623	690.12
425.846	602.12
426.068	558.12
426.291	556.12
426.513	565.12
426.735	573.12
426.958	640.12
427.18	675.12
427.402	789.12
427.625	904.12
427.847	736.12
428.069	658.12
428.292	599.12
428.514	556.12
428.736	552.12
428.958	517.12
429.181	511.12
429.403	519.12
429.625	533.12
429.847	580.12
430.069	609.12
430.292	622.12
430.514	524.12
430.736	546.12
430.958	520.12
431.18	492.12
431.402	491.12
431.624	475.12
431.846	477.12
432.068	488.12
432.29	510.12
432.512	492.12
432.734	521.12
432.956	518.12
433.178	520.12
433.4	535.12
433.622	525.12
433.844	505.12
434.066	519.12
434.287	500.12
434.509	526.12
434.731	535.12
434.953	527.12
435.175	547.12
435.397	565.12
435.618	579.12
435.84	597.12
436.062	693.12
436.284	753.12
436.505	647.12
436.727	587.12
436.949	522.12
437.17	537.12
437.392	524.12
437.614	531.12
437.835	551.12
438.057	650.12
438.278	738.12
438.5	752.12
438.721	825.12
438.943	791.12
439.165	617.12
439.386	585.12
439.608	579.12
439.829	569.12
440.05	577.12
440.272	623.12
440.493	591.12
440.715	554.12
440.936	542.12
441.158	550.12
441.379	539.12
441.6	533.12
441.822	599.12
442.043	604.12
442.264	682.12
442.486	743.12
442.707	647.12
442.928	588.12
443.149	589.12
443.371	635.12
443.592	645.12
443.813	731.12
444.034	828.12
444.255	670.12
444.476	625.12
444.698	600.12
444.919	594.12
445.14	739.12
445.361	665.12
445.582	625.12
445.803	653.12
446.024	784.12
446.245	751.12
446.466	715.12
446.687	625.12
446.908	589.12
447.129	535.12
447.35	520.12
447.571	533.12
447.792	522.12
448.013	522.12
448.234	512.12
448.455	588.12
448.675	689.12
448.896	814.12
449.117	689.12
449.338	659.12
449.559	734.12
449.779	863.12
450	695.12
450.221	573.12
450.442	501.12
450.662	494.12
450.883	506.12
451.104	513.12
451.324	517.12
451.545	505.12
451.766	469.12
451.986	484.12
452.207	466.12
452.428	476.12
452.648	477.12
452.869	481.12
453.089	479.12
453.31	482.12
453.53	440.12
453.751	467.12
453.971	466.12
454.192	474.12
454.412	482.12
454.633	455.12
454.853	455.12
455.073	460.12
455.294	497.12
455.514	545.12
455.734	540.12
455.955	457.12
456.175	469.12
456.395	459.12
456.616	425.12
456.836	425.12
457.056	455.12
457.276	428.12
457.497	435.12
457.717	464.12
457.937	450.12
458.157	455.12
458.377	447.12
458.598	475.12
458.818	524.12
459.038	573.12
459.258	602.12
459.478	533.12
459.698	522.12
459.918	513.12
460.138	524.12
460.358	502.12
460.578	509.12
460.798	525.12
461.018	533.12
461.238	540.12
461.458	525.12
461.678	502.12
461.898	532.12
462.118	526.12
462.338	569.12
462.558	547.12
462.777	564.12
462.997	569.12
463.217	591.12
463.437	591.12
463.657	593.12
463.876	595.12
464.096	566.12
464.316	564.12
464.536	560.12
464.755	587.12
464.975	552.12
465.195	583.12
465.414	597.12
465.634	561.12
465.854	530.12
466.073	515.12
466.293	518.12
466.512	486.12
466.732	499.12
466.951	492.12
467.171	506.12
467.391	484.12
467.61	504.12
467.829	497.12
468.049	486.12
468.268	492.12
468.488	481.12
468.707	470.12
468.927	474.12
469.146	479.12
469.365	494.12
469.585	500.12
469.804	493.12
470.023	532.12
470.243	476.12
470.462	485.12
470.681	504.12
470.901	505.12
471.12	515.12
471.339	472.12
471.558	493.12
471.777	480.12
471.997	493.12
472.216	497.12
472.435	539.12
472.654	511.12
472.873	487.12
473.092	488.12
473.311	484.12
473.53	478.12
473.749	500.12
473.968	548.12
474.187	593.12
474.406	633.12
474.625	532.12
474.844	512.12
475.063	513.12
475.282	489.12
475.501	485.12
475.72	490.12
475.939	501.12
476.158	531.12
476.377	509.12
476.596	499.12
476.814	501.12
477.033	500.12
477.252	547.12
477.471	530.12
477.69	524.12
477.908	527.12
478.127	540.12
478.346	549.12
478.564	552.12
478.783	554.12
479.002	594.12
479.22	562.12
479.439	581.12
479.658	572.12
479.876	578.12
480.095	572.12
480.313	626.12
480.532	615.12
480.751	610.12
480.969	610.12
481.188	644.12
481.406	673.12
481.624	620.12
481.843	581.12
482.061	573.12
482.28	592.12
482.498	561.12
482.717	584.12
482.935	564.12
483.153	575.12
483.372	565.12
483.59	562.12
483.808	563.12
484.027	554.12
484.245	579.12
484.463	577.12
484.681	563.12
484.9	584.12
485.118	604.12
485.336	604.12
485.554	574.12
485.772	612.12
485.99	595.12
486.209	602.12
486.427	601.12
486.645	600.12
486.863	622.12
487.081	623.12
487.299	602.12
487.517	615.12
487.735	599.12
487.953	597.12
488.171	606.12
488.389	607.12
488.607	601.12
488.825	618.12
489.043	628.12
489.261	616.12
489.479	615.12
489.696	637.12
489.914	626.12
490.132	654.12
490.35	622.12
490.568	659.12
490.786	653.12
491.003	665.12
491.221	680.12
491.439	705.12
491.657	692.12
491.874	741.12
492.092	717.12
492.31	713.12
492.527	702.12
492.745	720.12
492.963	696.12
493.18	719.12
493.398	730.12
493.615	724.12
493.833	733.12
494.05	739.12
494.268	708.12
494.485	734.12
494.703	699.12
494.92	740.12
495.138	707.12
495.355	732.12
495.573	714.12
495.79	719.12
496.008	735.12
496.225	741.12
496.442	750.12
496.66	741.12
496.877	718.12
497.094	731.12
497.312	722.12
497.529	753.12
497.746	757.12
497.963	787.12
498.181	819.12
498.398	847.12
498.615	825.12
498.832	826.12
499.049	877.12
499.267	914.12
499.484	949.12
499.701	992.12
499.918	1003.12
500.135	1082.12
500.352	1128.12
500.569	1151.12
500.786	1167.12
501.003	1147.12
501.22	1067.12
501.437	1043.12
501.654	1006.12
501.871	989.12
502.088	907.12
502.305	881.12
502.522	856.12
502.739	833.12
502.956	831.12
503.172	783.12
503.389	796.12
503.606	771.12
503.823	743.12
504.04	765.12
504.256	748.12
504.473	753.12
504.69	713.12
504.907	731.12
505.123	722.12
505.34	727.12
505.557	712.12
505.773	701.12
505.99	707.12
506.207	674.12
506.423	681.12
506.64	673.12
506.856	695.12
507.073	652.12
507.289	661.12
507.506	647.12
507.722	657.12
507.939	679.12
508.155	656.12
508.372	633.12
508.588	678.12
508.805	637.12
509.021	628.12
509.238	641.12
509.454	659.12
509.67	656.12
509.887	642.12
510.103	662.12
510.319	630.12
510.536	665.12
510.752	1015.12
510.968	857.12
511.184	662.12
511.401	618.12
511.617	598.12
511.833	582.12
512.049	612.12
512.265	590.12
512.481	591.12
512.698	614.12
512.914	596.12
513.13	612.12
513.346	599.12
513.562	602.12
513.778	592.12
513.994	598.12
514.21	590.12
514.426	596.12
514.642	651.12
514.858	639.12
515.074	681.12
515.29	773.12
515.506	1023.12
515.721	886.12
515.937	708.12
516.153	667.12
516.369	629.12
516.585	634.12
516.801	623.12
517.016	646.12
517.232	620.12
517.448	643.12
517.664	661.12
517.879	665.12
518.095	656.12
518.311	629.12
518.527	677.12
518.742	633.12
518.958	613.12
519.173	633.12
519.389	604.12
519.605	607.12
519.82	613.12
520.036	619.12
520.251	618.12
520.467	635.12
520.682	637.12
520.898	620.12
521.113	631.12
521.329	640.12
521.544	702.12
521.76	823.12
521.975	1201.12
522.19	1193.12
522.406	763.12
522.621	622.12
522.836	607.12
523.052	582.12
523.267	590.12
523.482	546.12
523.698	550.12
523.913	559.12
524.128	545.12
524.343	510.12
524.559	525.12
524.774	519.12
524.989	525.12
525.204	530.12
525.419	545.12
525.634	526.12
525.849	509.12
526.064	517.12
526.28	479.12
526.495	500.12
526.71	502.12
526.925	502.12
527.14	514.12
527.355	504.12
527.57	505.12
527.785	477.12
527.999	491.12
528.214	493.12
528.429	515.12
528.644	517.12
528.859	510.12
529.074	505.12
529.289	535.12
529.503	545.12
529.718	565.12
529.933	521.12
530.148	526.12
530.363	511.12
530.577	513.12
530.792	489.12
531.007	502.12
531.221	504.12
531.436	502.12
531.651	497.12
531.865	519.12
532.08	497.12
532.295	484.12
532.509	497.12
532.724	487.12
532.938	484.12
533.153	488.12
533.367	495.12
533.582	479.12
533.796	473.12
534.011	476.12
534.225	467.12
534.44	477.12
534.654	474.12
534.868	471.12
535.083	468.12
535.297	455.12
535.511	489.12
535.726	487.12
535.94	475.12
536.154	494.12
536.369	483.12
536.583	467.12
536.797	480.12
537.011	466.12
537.225	484.12
537.44	467.12
537.654	471.12
537.868	463.12
538.082	460.12
538.296	478.12
538.51	442.12
538.724	460.12
538.938	456.12
539.153	462.12
539.367	474.12
539.581	490.12
539.795	452.12
540.009	434.12
540.222	458.12
540.436	458.12
540.65	462.12
540.864	482.12
541.078	470.12
541.292	472.12
541.506	477.12
541.72	465.12
541.934	463.12
542.147	483.12
542.361	479.12
542.575	458.12
542.789	452.12
543.002	449.12
543.216	465.12
543.43	480.12
543.644	477.12
543.857	462.12
544.071	476.12
544.285	484.12
544.498	470.12
544.712	477.12
544.925	458.12
545.139	460.12
545.352	460.12
545.566	458.12
545.779	463.12
545.993	463.12
546.206	479.12
546.42	448.12
546.633	460.12
546.847	459.12
547.06	449.12
547.274	465.12
547.487	453.12
547.7	442.12
547.914	465.12
548.127	461.12
548.34	482.12
548.554	451.12
548.767	450.12
548.98	459.12
549.193	454.12
549.407	458.12
549.62	458.12
549.833	465.12
550.046	455.12
550.259	463.12
550.473	436.12
550.686	449.12
550.899	430.12
551.112	457.12
551.325	434.12
551.538	443.12
551.751	441.12
551.964	422.12
552.177	454.12
552.39	423.12
552.603	473.12
552.816	469.12
553.029	454.12
553.242	461.12
553.455	461.12
553.667	462.12
553.88	476.12
554.093	469.12
554.306	472.12
554.519	459.12
554.732	469.12
554.944	443.12
555.157	446.12
555.37	456.12
555.583	429.12
555.795	428.12
556.008	426.12
556.221	407.12
556.433	406.12
556.646	424.12
556.859	415.12
557.071	431.12
557.284	407.12
557.496	414.12
557.709	413.12
557.921	404.12
558.134	428.12
558.346	404.12
558.559	386.12
558.771	400.12
558.984	394.12
559.196	397.12
559.409	392.12
559.621	419.12
559.833	415.12
560.046	398.12
560.258	400.12
560.47	393.12
560.683	407.12
560.895	391.12
561.107	400.12
561.32	398.12
561.532	404.12
561.744	393.12
561.956	395.12
562.168	401.12
562.381	399.12
562.593	410.12
562.805	415.12
563.017	408.12
563.229	403.12
563.441	397.12
563.653	426.12
563.865	398.12
564.077	418.12
564.289	411.12
564.501	423.12
564.713	419.12
564.925	422.12
565.137	434.12
565.349	412.12
565.561	451.12
565.773	458.12
565.985	448.12
566.197	464.12
566.408	483.12
566.62	507.12
566.832	515.12
567.044	505.12
567.255	536.12
567.467	533.12
567.679	555.12
567.891	553.12
568.102	590.12
568.314	560.12
568.526	523.12
568.737	503.12
568.949	482.12
569.161	470.12
569.372	440.12
569.584	451.12
569.795	428.12
570.007	436.12
570.218	421.12
570.43	413.12
570.641	415.12
570.853	393.12
571.064	403.12
571.276	417.12
571.487	400.12
571.698	399.12
571.91	377.12
572.121	380.12
572.333	387.12
572.544	381.12
572.755	360.12
572.966	365.12
573.178	355.12
573.389	371.12
573.6	373.12
573.811	341.12
574.023	357.12
574.234	350.12
574.445	360.12
574.656	362.12
574.867	362.12
575.078	348.12
575.289	343.12
575.501	364.12
575.712	351.12
575.923	341.12
576.134	331.12
576.345	338.12
576.556	338.12
576.767	340.12
576.978	333.12
577.188	344.12
577.399	351.12
577.61	326.12
577.821	334.12
578.032	323.12
578.243	369.12
578.454	452.12
578.665	415.12
578.875	353.12
579.086	331.12
579.297	293.12
579.508	316.12
579.718	338.12
579.929	320.12
580.14	324.12
580.35	317.12
580.561	334.12
580.772	317.12
580.982	314.12
581.193	317.12
581.403	319.12
581.614	315.12
581.825	314.12
582.035	333.12
582.246	300.12
582.456	316.12
582.667	309.12
582.877	303.12
583.087	316.12
583.298	321.12
583.508	301.12
583.719	338.12
583.929	300.12
584.139	297.12
584.35	310.12
584.56	315.12
584.77	308.12
584.981	311.12
585.191	311.12
585.401	312.12
585.611	295.12
585.821	312.12
586.032	318.12
586.242	310.12
586.452	317.12
586.662	295.12
586.872	299.12
587.082	306.12
587.292	301.12
587.502	298.12
587.713	307.12
587.923	301.12
588.133	314.12
588.343	308.12
588.553	294.12
588.762	283.12
588.972	293.12
589.182	320.12
589.392	301.12
589.602	307.12
589.812	302.12
590.022	286.12
590.232	301.12
590.441	306.12
590.651	305.12
590.861	301.12
591.071	297.12
591.281	320.12
591.49	315.12
591.7	295.12
591.91	332.12
592.119	311.12
592.329	297.12
592.539	338.12
592.748	330.12
592.958	327.12
593.167	331.12
593.377	322.12
593.587	348.12
593.796	336.12
594.006	357.12
594.215	357.12
594.424	337.12
594.634	332.12
594.843	333.12
595.053	333.12
595.262	332.12
595.472	292.12
595.681	333.12
595.89	303.12
596.1	322.12
596.309	298.12
596.518	302.12
596.727	280.12
596.937	302.12
597.146	295.12
597.355	292.12
597.564	306.12
597.774	287.12
597.983	279.12
598.192	276.12
598.401	275.12
598.61	286.12
598.819	266.12
599.028	277.12
599.237	262.12
599.446	272.12
599.655	279.12
599.864	263.12
600.073	270.12
600.282	279.12
600.491	265.12
600.7	257.12
600.909	276.12
601.118	269.12
601.327	257.12
601.536	274.12
601.745	263.12
601.953	259.12
602.162	244.12
602.371	275.12
602.58	261.12
602.789	259.12
602.997	259.12
603.206	266.12
603.415	272.12
603.623	266.12
603.832	270.12
604.041	276.12
604.249	253.12
604.458	274.12
604.666	273.12
604.875	257.12
605.084	249.12
605.292	261.12
605.501	265.12
605.709	257.12
605.918	250.12
606.126	261.12
606.334	277.12
606.543	247.12
606.751	255.12
606.96	243.12
607.168	249.12
607.376	267.12
607.585	264.12
607.793	245.12
608.001	226.12
608.21	262.12
608.418	229.12
608.626	242.12
608.834	264.12
609.043	254.12
609.251	246.12
609.459	242.12
609.667	250.12
609.875	250.12
610.083	247.12
610.291	224.12
610.499	247.12
610.707	257.12
610.916	255.12
611.124	251.12
611.332	249.12
611.54	254.12
611.748	248.12
611.955	233.12
612.163	244.12
612.371	261.12
612.579	261.12
612.787	237.12
612.995	253.12
613.203	223.12
613.411	241.12
613.618	257.12
613.826	250.12
614.034	257.12
614.242	260.12
614.449	261.12
614.657	236.12
614.865	241.12
615.072	244.12
615.28	242.12
615.488	236.12
615.695	254.12
615.903	255.12
616.111	257.12
616.318	251.12
616.526	257.12
616.733	247.12
616.941	234.12
617.148	249.12
617.356	236.12
617.563	253.12
617.771	261.12
617.978	234.12
618.185	243.12
618.393	249.12
618.6	245.12
618.807	225.12
619.015	224.12
619.222	233.12
619.429	219.12
619.637	241.12
619.844	251.12
620.051	250.12
620.258	229.12
620.466	222.12
620.673	228.12
620.88	226.12
621.087	234.12
621.294	246.12
621.501	219.12
621.708	239.12
621.915	221.12
622.122	226.12
622.329	206.12
622.536	235.12
622.743	222.12
622.95	245.12
623.157	215.12
623.364	230.12
623.571	234.12
623.778	234.12
623.985	213.12
624.192	224.12
624.399	234.12
624.606	227.12
624.812	223.12
625.019	229.12
625.226	206.12
625.433	217.12
625.639	219.12
625.846	221.12
626.053	206.12
626.259	212.12
626.466	199.12
626.673	210.12
626.879	195.12
627.086	225.12
627.293	213.12
627.499	208.12
627.706	212.12
627.912	183.12
628.119	196.12
628.325	211.12
628.532	221.12
628.738	198.12
628.945	201.12
629.151	210.12
629.357	223.12
629.564	216.12
629.77	206.12
629.976	209.12
630.183	199.12
630.389	211.12
630.595	224.12
630.802	178.12
631.008	213.12
631.214	209.12
631.42	204.12
631.627	217.12
631.833	190.12
632.039	195.12
632.245	192.12
632.451	202.12
632.657	195.12
632.863	194.12
633.069	183.12
633.275	208.12
633.481	173.12
633.688	206.12
633.893	188.12
634.099	197.12
634.305	196.12
634.511	203.12
634.717	182.12
634.923	177.12
635.129	197.12
635.335	179.12
635.541	194.12
635.747	207.12
635.952	167.12
636.158	189.12
636.364	189.12
636.57	184.12
636.775	192.12
636.981	195.12
637.187	192.12
637.392	200.12
637.598	208.12
637.804	181.12
638.009	170.12
638.215	185.12
638.421	168.12
638.626	174.12
638.832	200.12
639.037	181.12
639.243	194.12
639.448	181.12
639.654	182.12
639.859	162.12
640.065	154.12
640.27	188.12
640.475	189.12
640.681	197.12
640.886	181.12
641.091	193.12
641.297	198.12
641.502	189.12
641.707	179.12
641.913	169.12
642.118	183.12
642.323	181.12
642.528	195.12
642.733	190.12
642.939	179.12
643.144	179.12
643.349	170.12
643.554	173.12
643.759	179.12
643.964	167.12
644.169	165.12
644.374	178.12
644.579	164.12
644.784	170.12
644.989	182.12
645.194	170.12
645.399	181.12
645.604	196.12
645.809	169.12
646.014	183.12
646.219	177.12
646.423	174.12
646.628	179.12
646.833	197.12
647.038	182.12
647.243	165.12
647.447	169.12
647.652	171.12
647.857	191.12
648.062	181.12
648.266	163.12
648.471	181.12
648.676	185.12
648.88	170.12
649.085	175.12
649.289	189.12
649.494	184.12
649.698	199.12
649.903	189.12
650.107	156.12
650.312	162.12
650.516	161.12
650.721	150.12
650.925	151.12
651.13	159.12
651.334	172.12
651.539	150.12
651.743	144.12
651.947	137.12
652.152	150.12
652.356	149.12
652.56	143.12
652.764	157.12
652.969	131.12
653.173	133.12
653.377	153.12
653.581	153.12
653.785	149.12
653.99	155.12
654.194	133.12
654.398	149.12
654.602	146.12
654.806	147.12
655.01	157.12
655.214	143.12
655.418	148.12
655.622	139.12
655.826	134.12
656.03	126.12
656.234	154.12
656.438	152.12
656.642	149.12
656.846	144.12
657.049	122.12
657.253	131.12
657.457	125.12
657.661	122.12
657.865	122.12
658.068	119.12
658.272	101.12
658.476	115.12
658.68	113.12
658.883	122.12
659.087	93.12
659.291	98.12
659.494	89.12
659.698	98.12
659.901	93.12
660.105	84.12
660.309	100.12
660.512	115.12
660.716	83.12
660.919	99.12
661.123	115.12
661.326	98.12
661.53	85.12
661.733	102.12
661.936	110.12
662.14	95.12
662.343	93.12
662.546	94.12
662.75	78.12
662.953	83.12
663.156	95.12
663.36	87.12
663.563	91.12
663.766	78.12
663.969	81.12
664.173	79.12
664.376	80.12
664.579	78.12
664.782	77.12
664.985	91.12
665.188	99.12
665.391	91.12
665.594	77.12
665.797	93.12
666	66.12
666.203	74.12
666.406	82.12
666.609	83.12
666.812	85.12
667.015	86.12
667.218	80.12
667.421	66.12
667.624	82.12
667.827	92.12
668.03	83.12
668.232	73.12
668.435	83.12
668.638	89.12
668.841	84.12
669.043	87.12
669.246	80.12
669.449	86.12
669.651	75.12
669.854	79.12
670.057	76.12
670.259	83.12
670.462	89.12
670.665	75.12
670.867	72.12
671.07	74.12
671.272	92.12
671.475	80.12
671.677	80.12
671.88	83.12
672.082	84.12
672.284	70.12
672.487	87.12
672.689	97.12
672.892	85.12
