Data from 1975.PennyLincolnUp.Lamp.En5.5.200Scan.071719.P1.Changed Mount._HRD10591_15-58-13-859.txt Node
Date: Thu Jul 18 15:58:13 EDT 2019
User: cochatt
Spectrometer: HR+D1059
Trigger mode: 1
Integration Time (sec): 1.000000E-1
Scans to average: 1
Electric dark correction enabled: true
Nonlinearity correction enabled: false
Boxcar width: 0
XAxis mode: Wavelengths
Number of Pixels in Spectrum: 2048
>>>>>Begin Spectral Data<<<<<
223.165	-16.06
223.4	-16.06
223.635	-16.06
223.869	-17.06
224.104	-17.06
224.338	-7.06
224.573	-21.06
224.808	-6.06
225.042	9.94
225.277	-19.06
225.511	-8.06
225.746	10.94
225.98	-2.06
226.215	8.94
226.449	8.94
226.683	8.94
226.918	25.94
227.152	39.94
227.387	29.94
227.621	30.94
227.856	48.94
228.09	51.94
228.324	57.94
228.559	54.94
228.793	68.94
229.027	100.94
229.262	106.94
229.496	122.94
229.73	133.94
229.964	142.94
230.199	131.94
230.433	117.94
230.667	115.94
230.901	117.94
231.136	119.94
231.37	126.94
231.604	126.94
231.838	124.94
232.072	118.94
232.306	111.94
232.541	119.94
232.775	111.94
233.009	125.94
233.243	133.94
233.477	118.94
233.711	128.94
233.945	119.94
234.179	115.94
234.413	121.94
234.647	120.94
234.881	102.94
235.115	126.94
235.349	117.94
235.583	134.94
235.817	133.94
236.051	124.94
236.285	125.94
236.519	125.94
236.753	127.94
236.987	152.94
237.221	187.94
237.455	235.94
237.689	196.94
237.922	141.94
238.156	134.94
238.39	142.94
238.624	143.94
238.858	135.94
239.091	143.94
239.325	140.94
239.559	139.94
239.793	142.94
240.027	150.94
240.26	152.94
240.494	163.94
240.728	149.94
240.961	163.94
241.195	151.94
241.429	141.94
241.662	153.94
241.896	141.94
242.13	141.94
242.363	156.94
242.597	156.94
242.83	150.94
243.064	155.94
243.298	150.94
243.531	135.94
243.765	162.94
243.998	159.94
244.232	163.94
244.465	152.94
244.699	145.94
244.932	135.94
245.166	141.94
245.399	170.94
245.633	163.94
245.866	166.94
246.099	160.94
246.333	158.94
246.566	168.94
246.8	163.94
247.033	174.94
247.266	175.94
247.5	180.94
247.733	184.94
247.966	187.94
248.2	187.94
248.433	196.94
248.666	186.94
248.899	193.94
249.133	209.94
249.366	219.94
249.599	204.94
249.832	186.94
250.066	182.94
250.299	191.94
250.532	219.94
250.765	220.94
250.998	229.94
251.231	242.94
251.465	209.94
251.698	214.94
251.931	210.94
252.164	215.94
252.397	219.94
252.63	213.94
252.863	211.94
253.096	232.94
253.329	238.94
253.562	239.94
253.795	239.94
254.028	231.94
254.261	229.94
254.494	248.94
254.727	273.94
254.96	299.94
255.193	286.94
255.426	264.94
255.659	247.94
255.892	245.94
256.124	264.94
256.357	248.94
256.59	256.94
256.823	208.94
257.056	204.94
257.289	226.94
257.521	221.94
257.754	236.94
257.987	219.94
258.22	228.94
258.452	223.94
258.685	216.94
258.918	231.94
259.151	230.94
259.383	223.94
259.616	224.94
259.849	222.94
260.081	243.94
260.314	267.94
260.547	276.94
260.779	255.94
261.012	263.94
261.244	247.94
261.477	233.94
261.71	232.94
261.942	238.94
262.175	255.94
262.407	232.94
262.64	221.94
262.872	245.94
263.105	243.94
263.337	237.94
263.57	221.94
263.802	255.94
264.035	216.94
264.267	220.94
264.499	226.94
264.732	222.94
264.964	228.94
265.197	230.94
265.429	232.94
265.661	229.94
265.894	236.94
266.126	229.94
266.358	214.94
266.591	221.94
266.823	259.94
267.055	240.94
267.287	239.94
267.52	240.94
267.752	241.94
267.984	238.94
268.216	245.94
268.448	240.94
268.681	243.94
268.913	245.94
269.145	291.94
269.377	284.94
269.609	302.94
269.841	297.94
270.073	291.94
270.306	292.94
270.538	341.94
270.77	331.94
271.002	310.94
271.234	326.94
271.466	325.94
271.698	312.94
271.93	340.94
272.162	321.94
272.394	330.94
272.626	325.94
272.858	313.94
273.09	312.94
273.322	279.94
273.553	282.94
273.785	299.94
274.017	284.94
274.249	285.94
274.481	285.94
274.713	284.94
274.945	300.94
275.176	298.94
275.408	282.94
275.64	283.94
275.872	281.94
276.104	279.94
276.335	287.94
276.567	299.94
276.799	312.94
277.031	318.94
277.262	355.94
277.494	336.94
277.726	315.94
277.957	317.94
278.189	305.94
278.421	301.94
278.652	285.94
278.884	297.94
279.115	297.94
279.347	286.94
279.579	275.94
279.81	302.94
280.042	289.94
280.273	299.94
280.505	301.94
280.736	291.94
280.968	289.94
281.199	285.94
281.431	285.94
281.662	292.94
281.894	307.94
282.125	292.94
282.356	295.94
282.588	304.94
282.819	325.94
283.051	309.94
283.282	297.94
283.513	316.94
283.745	311.94
283.976	302.94
284.207	315.94
284.439	302.94
284.67	295.94
284.901	311.94
285.132	311.94
285.364	307.94
285.595	317.94
285.826	290.94
286.057	315.94
286.288	302.94
286.52	317.94
286.751	303.94
286.982	304.94
287.213	317.94
287.444	326.94
287.675	318.94
287.906	344.94
288.138	329.94
288.369	324.94
288.6	324.94
288.831	334.94
289.062	332.94
289.293	321.94
289.524	316.94
289.755	305.94
289.986	319.94
290.217	299.94
290.448	307.94
290.679	295.94
290.91	320.94
291.141	319.94
291.371	325.94
291.602	310.94
291.833	316.94
292.064	338.94
292.295	322.94
292.526	318.94
292.757	313.94
292.987	320.94
293.218	313.94
293.449	330.94
293.68	323.94
293.91	319.94
294.141	303.94
294.372	325.94
294.603	320.94
294.833	332.94
295.064	317.94
295.295	325.94
295.525	313.94
295.756	338.94
295.987	319.94
296.217	350.94
296.448	350.94
296.679	331.94
296.909	307.94
297.14	330.94
297.37	344.94
297.601	324.94
297.831	337.94
298.062	336.94
298.292	327.94
298.523	356.94
298.753	329.94
298.984	326.94
299.214	331.94
299.445	359.94
299.675	340.94
299.905	344.94
300.136	348.94
300.366	353.94
300.597	348.94
300.827	356.94
301.057	354.94
301.288	368.94
301.518	379.94
301.748	349.94
301.979	367.94
302.209	348.94
302.439	360.94
302.669	355.94
302.9	348.94
303.13	352.94
303.36	361.94
303.59	366.94
303.82	369.94
304.051	372.94
304.281	349.94
304.511	356.94
304.741	352.94
304.971	362.94
305.201	375.94
305.431	355.94
305.661	358.94
305.891	348.94
306.121	355.94
306.352	365.94
306.582	368.94
306.812	367.94
307.042	373.94
307.272	373.94
307.502	367.94
307.731	357.94
307.961	343.94
308.191	353.94
308.421	383.94
308.651	365.94
308.881	375.94
309.111	362.94
309.341	373.94
309.571	361.94
309.8	385.94
310.03	363.94
310.26	386.94
310.49	385.94
310.72	405.94
310.949	413.94
311.179	422.94
311.409	407.94
311.639	384.94
311.868	386.94
312.098	394.94
312.328	408.94
312.557	414.94
312.787	414.94
313.017	423.94
313.246	448.94
313.476	395.94
313.706	393.94
313.935	427.94
314.165	409.94
314.394	406.94
314.624	397.94
314.853	444.94
315.083	405.94
315.312	402.94
315.542	405.94
315.771	399.94
316.001	408.94
316.23	398.94
316.46	385.94
316.689	388.94
316.919	419.94
317.148	388.94
317.377	420.94
317.607	404.94
317.836	389.94
318.065	393.94
318.295	381.94
318.524	391.94
318.753	408.94
318.983	385.94
319.212	405.94
319.441	414.94
319.67	409.94
319.9	401.94
320.129	409.94
320.358	392.94
320.587	418.94
320.816	421.94
321.046	428.94
321.275	444.94
321.504	419.94
321.733	433.94
321.962	420.94
322.191	438.94
322.42	456.94
322.649	460.94
322.878	474.94
323.108	436.94
323.337	477.94
323.566	503.94
323.795	517.94
324.024	540.94
324.253	620.94
324.482	877.94
324.71	1326.94
324.939	2016.94
325.168	1765.94
325.397	894.94
325.626	639.94
325.855	535.94
326.084	505.94
326.313	485.94
326.542	504.94
326.77	550.94
326.999	614.94
327.228	811.94
327.457	1209.94
327.686	1504.94
327.914	991.94
328.143	647.94
328.372	606.94
328.6	578.94
328.829	526.94
329.058	557.94
329.287	577.94
329.515	584.94
329.744	527.94
329.972	518.94
330.201	541.94
330.43	547.94
330.658	615.94
330.887	597.94
331.115	599.94
331.344	559.94
331.572	501.94
331.801	507.94
332.03	509.94
332.258	522.94
332.486	491.94
332.715	500.94
332.943	488.94
333.172	504.94
333.4	498.94
333.629	501.94
333.857	498.94
334.085	530.94
334.314	539.94
334.542	571.94
334.771	606.94
334.999	552.94
335.227	534.94
335.455	520.94
335.684	480.94
335.912	492.94
336.14	470.94
336.369	477.94
336.597	493.94
336.825	455.94
337.053	480.94
337.281	489.94
337.51	473.94
337.738	487.94
337.966	476.94
338.194	452.94
338.422	481.94
338.65	476.94
338.878	471.94
339.106	467.94
339.334	486.94
339.562	464.94
339.79	463.94
340.018	468.94
340.246	457.94
340.474	472.94
340.702	483.94
340.93	472.94
341.158	467.94
341.386	463.94
341.614	462.94
341.842	472.94
342.07	458.94
342.298	472.94
342.526	446.94
342.754	451.94
342.981	452.94
343.209	464.94
343.437	462.94
343.665	481.94
343.893	502.94
344.12	495.94
344.348	493.94
344.576	469.94
344.804	476.94
345.031	478.94
345.259	480.94
345.487	471.94
345.714	478.94
345.942	464.94
346.17	451.94
346.397	458.94
346.625	426.94
346.853	438.94
347.08	446.94
347.308	448.94
347.535	437.94
347.763	481.94
347.99	456.94
348.218	435.94
348.445	441.94
348.673	448.94
348.9	459.94
349.128	446.94
349.355	435.94
349.583	427.94
349.81	436.94
350.037	441.94
350.265	436.94
350.492	438.94
350.72	438.94
350.947	451.94
351.174	448.94
351.402	455.94
351.629	425.94
351.856	446.94
352.083	453.94
352.311	435.94
352.538	461.94
352.765	455.94
352.992	423.94
353.22	443.94
353.447	435.94
353.674	441.94
353.901	410.94
354.128	445.94
354.355	437.94
354.583	439.94
354.81	425.94
355.037	425.94
355.264	423.94
355.491	441.94
355.718	431.94
355.945	422.94
356.172	427.94
356.399	394.94
356.626	427.94
356.853	428.94
357.08	421.94
357.307	420.94
357.534	437.94
357.761	429.94
357.988	444.94
358.215	430.94
358.441	437.94
358.668	419.94
358.895	430.94
359.122	421.94
359.349	451.94
359.576	475.94
359.802	460.94
360.029	482.94
360.256	481.94
360.483	469.94
360.709	449.94
360.936	445.94
361.163	454.94
361.39	464.94
361.616	455.94
361.843	453.94
362.07	445.94
362.296	447.94
362.523	455.94
362.749	455.94
362.976	442.94
363.203	423.94
363.429	446.94
363.656	446.94
363.882	436.94
364.109	438.94
364.335	422.94
364.562	431.94
364.788	433.94
365.015	438.94
365.241	453.94
365.468	431.94
365.694	427.94
365.92	443.94
366.147	421.94
366.373	430.94
366.599	431.94
366.826	439.94
367.052	424.94
367.278	448.94
367.505	442.94
367.731	446.94
367.957	445.94
368.184	448.94
368.41	431.94
368.636	451.94
368.862	445.94
369.089	454.94
369.315	437.94
369.541	447.94
369.767	425.94
369.993	433.94
370.219	419.94
370.445	437.94
370.672	436.94
370.898	436.94
371.124	453.94
371.35	442.94
371.576	421.94
371.802	422.94
372.028	450.94
372.254	415.94
372.48	431.94
372.706	428.94
372.932	441.94
373.158	446.94
373.384	458.94
373.61	437.94
373.835	441.94
374.061	445.94
374.287	452.94
374.513	447.94
374.739	435.94
374.965	470.94
375.191	459.94
375.416	456.94
375.642	452.94
375.868	448.94
376.094	463.94
376.319	451.94
376.545	442.94
376.771	440.94
376.997	454.94
377.222	433.94
377.448	447.94
377.674	447.94
377.899	423.94
378.125	427.94
378.35	437.94
378.576	463.94
378.802	460.94
379.027	444.94
379.253	441.94
379.478	430.94
379.704	431.94
379.929	433.94
380.155	442.94
380.38	448.94
380.606	429.94
380.831	451.94
381.057	433.94
381.282	464.94
381.507	440.94
381.733	478.94
381.958	466.94
382.184	439.94
382.409	447.94
382.634	448.94
382.86	444.94
383.085	473.94
383.31	443.94
383.535	470.94
383.761	468.94
383.986	484.94
384.211	494.94
384.436	483.94
384.662	465.94
384.887	479.94
385.112	467.94
385.337	491.94
385.562	491.94
385.787	476.94
386.013	507.94
386.238	487.94
386.463	512.94
386.688	509.94
386.913	495.94
387.138	484.94
387.363	495.94
387.588	481.94
387.813	517.94
388.038	480.94
388.263	496.94
388.488	506.94
388.713	499.94
388.938	492.94
389.163	496.94
389.387	515.94
389.612	502.94
389.837	502.94
390.062	501.94
390.287	505.94
390.512	491.94
390.736	483.94
390.961	492.94
391.186	486.94
391.411	476.94
391.636	519.94
391.86	525.94
392.085	547.94
392.31	513.94
392.534	518.94
392.759	525.94
392.984	514.94
393.208	506.94
393.433	511.94
393.658	501.94
393.882	514.94
394.107	503.94
394.331	523.94
394.556	511.94
394.78	500.94
395.005	515.94
395.229	507.94
395.454	547.94
395.678	505.94
395.903	510.94
396.127	554.94
396.352	529.94
396.576	529.94
396.801	536.94
397.025	510.94
397.249	515.94
397.474	533.94
397.698	542.94
397.922	549.94
398.147	545.94
398.371	582.94
398.595	552.94
398.82	543.94
399.044	586.94
399.268	613.94
399.492	645.94
399.717	707.94
399.941	731.94
400.165	751.94
400.389	725.94
400.613	656.94
400.837	614.94
401.062	590.94
401.286	589.94
401.51	586.94
401.734	587.94
401.958	584.94
402.182	569.94
402.406	603.94
402.63	589.94
402.854	597.94
403.078	571.94
403.302	591.94
403.526	632.94
403.75	613.94
403.974	618.94
404.198	597.94
404.422	628.94
404.645	623.94
404.869	627.94
405.093	634.94
405.317	700.94
405.541	754.94
405.765	673.94
405.988	652.94
406.212	646.94
406.436	664.94
406.66	678.94
406.883	644.94
407.107	671.94
407.331	721.94
407.555	814.94
407.778	807.94
408.002	712.94
408.226	668.94
408.449	646.94
408.673	648.94
408.896	676.94
409.12	716.94
409.344	695.94
409.567	647.94
409.791	628.94
410.014	629.94
410.238	615.94
410.461	612.94
410.685	623.94
410.908	619.94
411.132	665.94
411.355	673.94
411.578	677.94
411.802	604.94
412.025	618.94
412.249	620.94
412.472	630.94
412.695	684.94
412.919	675.94
413.142	613.94
413.365	618.94
413.589	605.94
413.812	585.94
414.035	582.94
414.258	587.94
414.482	576.94
414.705	571.94
414.928	581.94
415.151	582.94
415.374	566.94
415.597	569.94
415.821	544.94
416.044	568.94
416.267	577.94
416.49	573.94
416.713	565.94
416.936	571.94
417.159	560.94
417.382	582.94
417.605	577.94
417.828	577.94
418.051	617.94
418.274	597.94
418.497	575.94
418.72	579.94
418.943	565.94
419.166	585.94
419.389	624.94
419.611	636.94
419.834	618.94
420.057	624.94
420.28	606.94
420.503	605.94
420.726	587.94
420.948	602.94
421.171	650.94
421.394	683.94
421.617	608.94
421.839	579.94
422.062	585.94
422.285	639.94
422.507	678.94
422.73	774.94
422.953	717.94
423.175	655.94
423.398	636.94
423.621	628.94
423.843	646.94
424.066	658.94
424.288	639.94
424.511	661.94
424.733	701.94
424.956	789.94
425.178	765.94
425.401	748.94
425.623	768.94
425.846	699.94
426.068	653.94
426.291	623.94
426.513	639.94
426.735	605.94
426.958	669.94
427.18	756.94
427.402	909.94
427.625	995.94
427.847	853.94
428.069	740.94
428.292	680.94
428.514	611.94
428.736	604.94
428.958	601.94
429.181	578.94
429.403	581.94
429.625	564.94
429.847	621.94
430.069	699.94
430.292	701.94
430.514	586.94
430.736	569.94
430.958	582.94
431.18	546.94
431.402	575.94
431.624	554.94
431.846	555.94
432.068	552.94
432.29	561.94
432.512	553.94
432.734	564.94
432.956	564.94
433.178	588.94
433.4	579.94
433.622	556.94
433.844	574.94
434.066	554.94
434.287	548.94
434.509	545.94
434.731	574.94
434.953	577.94
435.175	607.94
435.397	653.94
435.618	633.94
435.84	668.94
436.062	741.94
436.284	862.94
436.505	699.94
436.727	632.94
436.949	603.94
437.17	577.94
437.392	586.94
437.614	585.94
437.835	607.94
438.057	692.94
438.278	810.94
438.5	829.94
438.721	923.94
438.943	892.94
439.165	696.94
439.386	625.94
439.608	658.94
439.829	610.94
440.05	634.94
440.272	691.94
440.493	663.94
440.715	605.94
440.936	593.94
441.158	581.94
441.379	601.94
441.6	618.94
441.822	607.94
442.043	671.94
442.264	773.94
442.486	827.94
442.707	670.94
442.928	655.94
443.149	619.94
443.371	685.94
443.592	719.94
443.813	831.94
444.034	888.94
444.255	758.94
444.476	672.94
444.698	663.94
444.919	657.94
445.14	771.94
445.361	703.94
445.582	668.94
445.803	732.94
446.024	832.94
446.245	817.94
446.466	771.94
446.687	637.94
446.908	592.94
447.129	597.94
447.35	591.94
447.571	584.94
447.792	566.94
448.013	590.94
448.234	594.94
448.455	627.94
448.675	767.94
448.896	861.94
449.117	729.94
449.338	704.94
449.559	805.94
449.779	929.94
450	734.94
450.221	621.94
450.442	559.94
450.662	552.94
450.883	557.94
451.104	563.94
451.324	559.94
451.545	521.94
451.766	542.94
451.986	535.94
452.207	528.94
452.428	517.94
452.648	503.94
452.869	513.94
453.089	515.94
453.31	536.94
453.53	500.94
453.751	476.94
453.971	506.94
454.192	523.94
454.412	498.94
454.633	485.94
454.853	487.94
455.073	502.94
455.294	527.94
455.514	583.94
455.734	595.94
455.955	531.94
456.175	500.94
456.395	486.94
456.616	475.94
456.836	485.94
457.056	462.94
457.276	473.94
457.497	481.94
457.717	485.94
457.937	463.94
458.157	517.94
458.377	509.94
458.598	513.94
458.818	555.94
459.038	643.94
459.258	671.94
459.478	600.94
459.698	540.94
459.918	523.94
460.138	541.94
460.358	565.94
460.578	547.94
460.798	564.94
461.018	576.94
461.238	573.94
461.458	568.94
461.678	580.94
461.898	571.94
462.118	588.94
462.338	583.94
462.558	606.94
462.777	612.94
462.997	628.94
463.217	652.94
463.437	656.94
463.657	653.94
463.876	639.94
464.096	656.94
464.316	614.94
464.536	631.94
464.755	606.94
464.975	623.94
465.195	638.94
465.414	679.94
465.634	615.94
465.854	591.94
466.073	551.94
466.293	544.94
466.512	545.94
466.732	548.94
466.951	547.94
467.171	521.94
467.391	541.94
467.61	559.94
467.829	534.94
468.049	533.94
468.268	521.94
468.488	513.94
468.707	526.94
468.927	513.94
469.146	504.94
469.365	526.94
469.585	523.94
469.804	518.94
470.023	532.94
470.243	561.94
470.462	536.94
470.681	571.94
470.901	553.94
471.12	515.94
471.339	548.94
471.558	546.94
471.777	536.94
471.997	556.94
472.216	544.94
472.435	577.94
472.654	572.94
472.873	547.94
473.092	525.94
473.311	563.94
473.53	524.94
473.749	525.94
473.968	581.94
474.187	668.94
474.406	696.94
474.625	592.94
474.844	533.94
475.063	521.94
475.282	506.94
475.501	544.94
475.72	552.94
475.939	533.94
476.158	529.94
476.377	567.94
476.596	558.94
476.814	557.94
477.033	573.94
477.252	576.94
477.471	577.94
477.69	575.94
477.908	569.94
478.127	597.94
478.346	607.94
478.564	575.94
478.783	611.94
479.002	623.94
479.22	620.94
479.439	645.94
479.658	636.94
479.876	625.94
480.095	657.94
480.313	695.94
480.532	672.94
480.751	673.94
480.969	656.94
481.188	714.94
481.406	746.94
481.624	680.94
481.843	644.94
482.061	645.94
482.28	654.94
482.498	608.94
482.717	658.94
482.935	637.94
483.153	629.94
483.372	614.94
483.59	630.94
483.808	617.94
484.027	614.94
484.245	623.94
484.463	628.94
484.681	645.94
484.9	631.94
485.118	653.94
485.336	633.94
485.554	636.94
485.772	643.94
485.99	640.94
486.209	672.94
486.427	649.94
486.645	683.94
486.863	656.94
487.081	685.94
487.299	680.94
487.517	641.94
487.735	655.94
487.953	664.94
488.171	672.94
488.389	680.94
488.607	679.94
488.825	671.94
489.043	653.94
489.261	676.94
489.479	694.94
489.696	675.94
489.914	672.94
490.132	700.94
490.35	709.94
490.568	703.94
490.786	715.94
491.003	722.94
491.221	745.94
491.439	749.94
491.657	781.94
491.874	785.94
492.092	747.94
492.31	766.94
492.527	775.94
492.745	779.94
492.963	777.94
493.18	802.94
493.398	774.94
493.615	795.94
493.833	807.94
494.05	803.94
494.268	794.94
494.485	798.94
494.703	784.94
494.92	800.94
495.138	811.94
495.355	784.94
495.573	789.94
495.79	786.94
496.008	820.94
496.225	793.94
496.442	783.94
496.66	834.94
496.877	791.94
497.094	849.94
497.312	826.94
497.529	849.94
497.746	848.94
497.963	848.94
498.181	900.94
498.398	923.94
498.615	911.94
498.832	920.94
499.049	959.94
499.267	979.94
499.484	1006.94
499.701	1079.94
499.918	1102.94
500.135	1175.94
500.352	1214.94
500.569	1283.94
500.786	1296.94
501.003	1269.94
501.22	1203.94
501.437	1122.94
501.654	1129.94
501.871	1073.94
502.088	1021.94
502.305	974.94
502.522	924.94
502.739	948.94
502.956	888.94
503.172	878.94
503.389	831.94
503.606	846.94
503.823	842.94
504.04	843.94
504.256	822.94
504.473	817.94
504.69	825.94
504.907	831.94
505.123	794.94
505.34	794.94
505.557	746.94
505.773	771.94
505.99	789.94
506.207	767.94
506.423	779.94
506.64	757.94
506.856	725.94
507.073	742.94
507.289	717.94
507.506	718.94
507.722	731.94
507.939	722.94
508.155	705.94
508.372	704.94
508.588	694.94
508.805	688.94
509.021	719.94
509.238	720.94
509.454	724.94
509.67	692.94
509.887	710.94
510.103	699.94
510.319	698.94
510.536	748.94
510.752	1111.94
510.968	951.94
511.184	697.94
511.401	675.94
511.617	665.94
511.833	668.94
512.049	664.94
512.265	679.94
512.481	662.94
512.698	641.94
512.914	653.94
513.13	674.94
513.346	656.94
513.562	671.94
513.778	669.94
513.994	665.94
514.21	669.94
514.426	678.94
514.642	705.94
514.858	714.94
515.074	752.94
515.29	840.94
515.506	1125.94
515.721	984.94
515.937	760.94
516.153	735.94
516.369	694.94
516.585	693.94
516.801	711.94
517.016	712.94
517.232	710.94
517.448	715.94
517.664	725.94
517.879	735.94
518.095	712.94
518.311	719.94
518.527	701.94
518.742	699.94
518.958	677.94
519.173	667.94
519.389	683.94
519.605	659.94
519.82	652.94
520.036	668.94
520.251	659.94
520.467	713.94
520.682	688.94
520.898	655.94
521.113	703.94
521.329	727.94
521.544	762.94
521.76	911.94
521.975	1383.94
522.19	1369.94
522.406	867.94
522.621	714.94
522.836	646.94
523.052	644.94
523.267	622.94
523.482	603.94
523.698	611.94
523.913	608.94
524.128	588.94
524.343	582.94
524.559	585.94
524.774	569.94
524.989	600.94
525.204	585.94
525.419	591.94
525.634	569.94
525.849	572.94
526.064	566.94
526.28	559.94
526.495	549.94
526.71	547.94
526.925	537.94
527.14	537.94
527.355	534.94
527.57	563.94
527.785	546.94
527.999	565.94
528.214	550.94
528.429	543.94
528.644	531.94
528.859	551.94
529.074	560.94
529.289	582.94
529.503	620.94
529.718	609.94
529.933	567.94
530.148	529.94
530.363	554.94
530.577	548.94
530.792	531.94
531.007	534.94
531.221	528.94
531.436	528.94
531.651	547.94
531.865	515.94
532.08	534.94
532.295	517.94
532.509	537.94
532.724	527.94
532.938	522.94
533.153	524.94
533.367	531.94
533.582	544.94
533.796	519.94
534.011	519.94
534.225	527.94
534.44	508.94
534.654	531.94
534.868	527.94
535.083	533.94
535.297	489.94
535.511	524.94
535.726	515.94
535.94	555.94
536.154	497.94
536.369	526.94
536.583	544.94
536.797	523.94
537.011	515.94
537.225	517.94
537.44	502.94
537.654	516.94
537.868	537.94
538.082	510.94
538.296	489.94
538.51	500.94
538.724	520.94
538.938	509.94
539.153	488.94
539.367	499.94
539.581	515.94
539.795	505.94
540.009	496.94
540.222	503.94
540.436	504.94
540.65	493.94
540.864	514.94
541.078	526.94
541.292	499.94
541.506	504.94
541.72	505.94
541.934	523.94
542.147	520.94
542.361	501.94
542.575	506.94
542.789	495.94
543.002	493.94
543.216	502.94
543.43	505.94
543.644	501.94
543.857	512.94
544.071	489.94
544.285	497.94
544.498	522.94
544.712	518.94
544.925	504.94
545.139	487.94
545.352	499.94
545.566	470.94
545.779	492.94
545.993	488.94
546.206	485.94
546.42	509.94
546.633	511.94
546.847	504.94
547.06	483.94
547.274	485.94
547.487	497.94
547.7	481.94
547.914	484.94
548.127	472.94
548.34	500.94
548.554	497.94
548.767	534.94
548.98	504.94
549.193	501.94
549.407	496.94
549.62	509.94
549.833	489.94
550.046	496.94
550.259	493.94
550.473	473.94
550.686	502.94
550.899	484.94
551.112	499.94
551.325	499.94
551.538	477.94
551.751	472.94
551.964	491.94
552.177	478.94
552.39	486.94
552.603	503.94
552.816	502.94
553.029	503.94
553.242	511.94
553.455	518.94
553.667	506.94
553.88	514.94
554.093	496.94
554.306	519.94
554.519	497.94
554.732	488.94
554.944	507.94
555.157	479.94
555.37	503.94
555.583	462.94
555.795	461.94
556.008	473.94
556.221	457.94
556.433	464.94
556.646	447.94
556.859	447.94
557.071	451.94
557.284	439.94
557.496	448.94
557.709	465.94
557.921	436.94
558.134	429.94
558.346	437.94
558.559	446.94
558.771	444.94
558.984	423.94
559.196	427.94
559.409	415.94
559.621	440.94
559.833	413.94
560.046	424.94
560.258	411.94
560.47	439.94
560.683	438.94
560.895	442.94
561.107	440.94
561.32	423.94
561.532	423.94
561.744	464.94
561.956	439.94
562.168	425.94
562.381	441.94
562.593	446.94
562.805	445.94
563.017	431.94
563.229	453.94
563.441	443.94
563.653	443.94
563.865	435.94
564.077	447.94
564.289	467.94
564.501	453.94
564.713	460.94
564.925	473.94
565.137	484.94
565.349	487.94
565.561	475.94
565.773	477.94
565.985	505.94
566.197	519.94
566.408	510.94
566.62	557.94
566.832	574.94
567.044	565.94
567.255	575.94
567.467	590.94
567.679	571.94
567.891	617.94
568.102	608.94
568.314	583.94
568.526	580.94
568.737	526.94
568.949	516.94
569.161	517.94
569.372	492.94
569.584	480.94
569.795	472.94
570.007	453.94
570.218	487.94
570.43	475.94
570.641	453.94
570.853	445.94
571.064	451.94
571.276	446.94
571.487	434.94
571.698	453.94
571.91	429.94
572.121	415.94
572.333	390.94
572.544	401.94
572.755	390.94
572.966	382.94
573.178	384.94
573.389	397.94
573.6	378.94
573.811	383.94
574.023	389.94
574.234	375.94
574.445	383.94
574.656	388.94
574.867	365.94
575.078	377.94
575.289	375.94
575.501	392.94
575.712	379.94
575.923	375.94
576.134	380.94
576.345	369.94
576.556	365.94
576.767	373.94
576.978	376.94
577.188	341.94
577.399	362.94
577.61	365.94
577.821	364.94
578.032	358.94
578.243	379.94
578.454	537.94
578.665	444.94
578.875	360.94
579.086	339.94
579.297	352.94
579.508	349.94
579.718	343.94
579.929	357.94
580.14	329.94
580.35	352.94
580.561	349.94
580.772	319.94
580.982	347.94
581.193	366.94
581.403	332.94
581.614	355.94
581.825	329.94
582.035	336.94
582.246	342.94
582.456	333.94
582.667	343.94
582.877	337.94
583.087	340.94
583.298	324.94
583.508	326.94
583.719	350.94
583.929	354.94
584.139	316.94
584.35	330.94
584.56	339.94
584.77	336.94
584.981	347.94
585.191	323.94
585.401	315.94
585.611	293.94
585.821	337.94
586.032	321.94
586.242	346.94
586.452	319.94
586.662	311.94
586.872	324.94
587.082	320.94
587.292	333.94
587.502	342.94
587.713	327.94
587.923	318.94
588.133	316.94
588.343	321.94
588.553	343.94
588.762	342.94
588.972	327.94
589.182	334.94
589.392	308.94
589.602	332.94
589.812	317.94
590.022	336.94
590.232	338.94
590.441	329.94
590.651	327.94
590.861	324.94
591.071	336.94
591.281	330.94
591.49	331.94
591.7	348.94
591.91	349.94
592.119	349.94
592.329	351.94
592.539	363.94
592.748	344.94
592.958	337.94
593.167	351.94
593.377	363.94
593.587	364.94
593.796	349.94
594.006	353.94
594.215	374.94
594.424	367.94
594.634	367.94
594.843	364.94
595.053	349.94
595.262	336.94
595.472	347.94
595.681	351.94
595.89	330.94
596.1	340.94
596.309	350.94
596.518	335.94
596.727	324.94
596.937	306.94
597.146	281.94
597.355	289.94
597.564	295.94
597.774	313.94
597.983	301.94
598.192	294.94
598.401	300.94
598.61	305.94
598.819	279.94
599.028	279.94
599.237	293.94
599.446	292.94
599.655	304.94
599.864	309.94
600.073	296.94
600.282	295.94
600.491	276.94
600.7	289.94
600.909	287.94
601.118	294.94
601.327	296.94
601.536	279.94
601.745	287.94
601.953	271.94
602.162	297.94
602.371	292.94
602.58	305.94
602.789	297.94
602.997	301.94
603.206	282.94
603.415	292.94
603.623	271.94
603.832	284.94
604.041	281.94
604.249	271.94
604.458	273.94
604.666	272.94
604.875	267.94
605.084	279.94
605.292	279.94
605.501	276.94
605.709	280.94
605.918	270.94
606.126	259.94
606.334	259.94
606.543	276.94
606.751	280.94
606.96	268.94
607.168	270.94
607.376	255.94
607.585	272.94
607.793	277.94
608.001	265.94
608.21	271.94
608.418	268.94
608.626	279.94
608.834	266.94
609.043	283.94
609.251	260.94
609.459	266.94
609.667	280.94
609.875	278.94
610.083	267.94
610.291	256.94
610.499	264.94
610.707	264.94
610.916	280.94
611.124	265.94
611.332	268.94
611.54	268.94
611.748	263.94
611.955	255.94
612.163	261.94
612.371	259.94
612.579	257.94
612.787	267.94
612.995	265.94
613.203	260.94
613.411	276.94
613.618	270.94
613.826	252.94
614.034	246.94
614.242	262.94
614.449	245.94
614.657	265.94
614.865	248.94
615.072	269.94
615.28	261.94
615.488	272.94
615.695	251.94
615.903	254.94
616.111	270.94
616.318	249.94
616.526	256.94
616.733	266.94
616.941	253.94
617.148	261.94
617.356	268.94
617.563	240.94
617.771	247.94
617.978	255.94
618.185	257.94
618.393	264.94
618.6	258.94
618.807	264.94
619.015	244.94
619.222	248.94
619.429	251.94
619.637	260.94
619.844	274.94
620.051	270.94
620.258	244.94
620.466	267.94
620.673	248.94
620.88	248.94
621.087	253.94
621.294	238.94
621.501	259.94
621.708	241.94
621.915	244.94
622.122	239.94
622.329	237.94
622.536	250.94
622.743	250.94
622.95	249.94
623.157	248.94
623.364	240.94
623.571	239.94
623.778	247.94
623.985	247.94
624.192	242.94
624.399	228.94
624.606	229.94
624.812	230.94
625.019	221.94
625.226	223.94
625.433	245.94
625.639	230.94
625.846	232.94
626.053	259.94
626.259	223.94
626.466	230.94
626.673	247.94
626.879	217.94
627.086	216.94
627.293	230.94
627.499	239.94
627.706	224.94
627.912	239.94
628.119	223.94
628.325	229.94
628.532	237.94
628.738	221.94
628.945	224.94
629.151	227.94
629.357	208.94
629.564	202.94
629.77	228.94
629.976	210.94
630.183	195.94
630.389	209.94
630.595	222.94
630.802	205.94
631.008	201.94
631.214	225.94
631.42	199.94
631.627	208.94
631.833	215.94
632.039	199.94
632.245	211.94
632.451	222.94
632.657	197.94
632.863	209.94
633.069	214.94
633.275	209.94
633.481	206.94
633.688	208.94
633.893	218.94
634.099	219.94
634.305	204.94
634.511	196.94
634.717	203.94
634.923	211.94
635.129	183.94
635.335	191.94
635.541	208.94
635.747	194.94
635.952	195.94
636.158	206.94
636.364	203.94
636.57	210.94
636.775	192.94
636.981	209.94
637.187	198.94
637.392	184.94
637.598	194.94
637.804	193.94
638.009	201.94
638.215	209.94
638.421	191.94
638.626	188.94
638.832	185.94
639.037	189.94
639.243	171.94
639.448	196.94
639.654	209.94
639.859	187.94
640.065	190.94
640.27	205.94
640.475	195.94
640.681	196.94
640.886	208.94
641.091	186.94
641.297	211.94
641.502	193.94
641.707	180.94
641.913	199.94
642.118	173.94
642.323	174.94
642.528	179.94
642.733	179.94
642.939	175.94
643.144	181.94
643.349	177.94
643.554	182.94
643.759	189.94
643.964	188.94
644.169	186.94
644.374	185.94
644.579	199.94
644.784	168.94
644.989	181.94
645.194	176.94
645.399	174.94
645.604	165.94
645.809	175.94
646.014	183.94
646.219	191.94
646.423	174.94
646.628	176.94
646.833	181.94
647.038	180.94
647.243	193.94
647.447	181.94
647.652	197.94
647.857	184.94
648.062	188.94
648.266	185.94
648.471	176.94
648.676	180.94
648.88	179.94
649.085	179.94
649.289	170.94
649.494	168.94
649.698	208.94
649.903	191.94
650.107	192.94
650.312	195.94
650.516	170.94
650.721	185.94
650.925	165.94
651.13	156.94
651.334	157.94
651.539	165.94
651.743	158.94
651.947	169.94
652.152	181.94
652.356	163.94
652.56	147.94
652.764	151.94
652.969	146.94
653.173	158.94
653.377	144.94
653.581	140.94
653.785	146.94
653.99	141.94
654.194	149.94
654.398	151.94
654.602	153.94
654.806	139.94
655.01	154.94
655.214	147.94
655.418	141.94
655.622	135.94
655.826	140.94
656.03	142.94
656.234	157.94
656.438	151.94
656.642	147.94
656.846	148.94
657.049	152.94
657.253	143.94
657.457	135.94
657.661	124.94
657.865	115.94
658.068	113.94
658.272	107.94
658.476	114.94
658.68	126.94
658.883	102.94
659.087	122.94
659.291	115.94
659.494	109.94
659.698	106.94
659.901	109.94
660.105	104.94
660.309	92.94
660.512	102.94
660.716	101.94
660.919	99.94
661.123	108.94
661.326	92.94
661.53	94.94
661.733	89.94
661.936	101.94
662.14	103.94
662.343	82.94
662.546	89.94
662.75	84.94
662.953	87.94
663.156	84.94
663.36	86.94
663.563	84.94
663.766	87.94
663.969	91.94
664.173	86.94
664.376	85.94
664.579	78.94
664.782	81.94
664.985	98.94
665.188	85.94
665.391	98.94
665.594	78.94
665.797	70.94
666	91.94
666.203	76.94
666.406	77.94
666.609	104.94
666.812	95.94
667.015	80.94
667.218	85.94
667.421	90.94
667.624	74.94
667.827	92.94
668.03	84.94
668.232	80.94
668.435	84.94
668.638	72.94
668.841	76.94
669.043	92.94
669.246	84.94
669.449	76.94
669.651	85.94
669.854	84.94
670.057	79.94
670.259	87.94
670.462	86.94
670.665	81.94
670.867	91.94
671.07	93.94
671.272	88.94
671.475	76.94
671.677	87.94
671.88	78.94
672.082	81.94
672.284	76.94
672.487	91.94
672.689	93.94
672.892	99.94
