Data from 1975.PennyLincolnUp.Lamp.En5.5.200Scan.071719.P1.Changed Mount._HRD10591_15-58-11-859.txt Node
Date: Thu Jul 18 15:58:11 EDT 2019
User: cochatt
Spectrometer: HR+D1059
Trigger mode: 1
Integration Time (sec): 1.000000E-1
Scans to average: 1
Electric dark correction enabled: true
Nonlinearity correction enabled: false
Boxcar width: 0
XAxis mode: Wavelengths
Number of Pixels in Spectrum: 2048
>>>>>Begin Spectral Data<<<<<
223.165	-25.06
223.4	-25.06
223.635	-25.06
223.869	-17.06
224.104	-30.06
224.338	-5.06
224.573	-22.06
224.808	-22.06
225.042	-7.06
225.277	9.94
225.511	-6.06
225.746	4.94
225.98	4.94
226.215	16.94
226.449	13.94
226.683	22.94
226.918	31.94
227.152	28.94
227.387	27.94
227.621	28.94
227.856	39.94
228.09	52.94
228.324	49.94
228.559	50.94
228.793	63.94
229.027	105.94
229.262	106.94
229.496	107.94
229.73	122.94
229.964	168.94
230.199	123.94
230.433	110.94
230.667	120.94
230.901	107.94
231.136	107.94
231.37	107.94
231.604	107.94
231.838	107.94
232.072	105.94
232.306	108.94
232.541	114.94
232.775	102.94
233.009	116.94
233.243	113.94
233.477	114.94
233.711	126.94
233.945	106.94
234.179	133.94
234.413	101.94
234.647	118.94
234.881	112.94
235.115	126.94
235.349	102.94
235.583	114.94
235.817	130.94
236.051	123.94
236.285	126.94
236.519	130.94
236.753	121.94
236.987	152.94
237.221	185.94
237.455	234.94
237.689	194.94
237.922	143.94
238.156	120.94
238.39	127.94
238.624	124.94
238.858	119.94
239.091	123.94
239.325	127.94
239.559	121.94
239.793	114.94
240.027	126.94
240.26	140.94
240.494	167.94
240.728	143.94
240.961	149.94
241.195	137.94
241.429	134.94
241.662	122.94
241.896	139.94
242.13	131.94
242.363	147.94
242.597	122.94
242.83	128.94
243.064	127.94
243.298	138.94
243.531	144.94
243.765	135.94
243.998	141.94
244.232	146.94
244.465	137.94
244.699	152.94
244.932	144.94
245.166	158.94
245.399	154.94
245.633	156.94
245.866	170.94
246.099	141.94
246.333	152.94
246.566	158.94
246.8	145.94
247.033	148.94
247.266	161.94
247.5	177.94
247.733	175.94
247.966	183.94
248.2	190.94
248.433	166.94
248.666	179.94
248.899	177.94
249.133	191.94
249.366	209.94
249.599	185.94
249.832	165.94
250.066	192.94
250.299	171.94
250.532	204.94
250.765	192.94
250.998	231.94
251.231	221.94
251.465	209.94
251.698	183.94
251.931	200.94
252.164	198.94
252.397	195.94
252.63	201.94
252.863	217.94
253.096	223.94
253.329	222.94
253.562	218.94
253.795	224.94
254.028	207.94
254.261	214.94
254.494	227.94
254.727	258.94
254.96	294.94
255.193	274.94
255.426	238.94
255.659	230.94
255.892	248.94
256.124	246.94
256.357	239.94
256.59	226.94
256.823	222.94
257.056	213.94
257.289	210.94
257.521	203.94
257.754	210.94
257.987	226.94
258.22	212.94
258.452	211.94
258.685	226.94
258.918	198.94
259.151	214.94
259.383	215.94
259.616	218.94
259.849	240.94
260.081	244.94
260.314	262.94
260.547	265.94
260.779	243.94
261.012	234.94
261.244	230.94
261.477	222.94
261.71	220.94
261.942	234.94
262.175	225.94
262.407	238.94
262.64	230.94
262.872	225.94
263.105	226.94
263.337	222.94
263.57	217.94
263.802	228.94
264.035	229.94
264.267	227.94
264.499	216.94
264.732	237.94
264.964	225.94
265.197	231.94
265.429	215.94
265.661	212.94
265.894	198.94
266.126	217.94
266.358	233.94
266.591	227.94
266.823	223.94
267.055	217.94
267.287	248.94
267.52	240.94
267.752	227.94
267.984	246.94
268.216	243.94
268.448	249.94
268.681	251.94
268.913	243.94
269.145	251.94
269.377	274.94
269.609	285.94
269.841	281.94
270.073	285.94
270.306	295.94
270.538	322.94
270.77	309.94
271.002	308.94
271.234	291.94
271.466	303.94
271.698	308.94
271.93	299.94
272.162	332.94
272.394	302.94
272.626	294.94
272.858	295.94
273.09	291.94
273.322	291.94
273.553	264.94
273.785	282.94
274.017	277.94
274.249	276.94
274.481	281.94
274.713	254.94
274.945	279.94
275.176	274.94
275.408	273.94
275.64	274.94
275.872	259.94
276.104	263.94
276.335	272.94
276.567	267.94
276.799	284.94
277.031	320.94
277.262	346.94
277.494	323.94
277.726	313.94
277.957	302.94
278.189	296.94
278.421	280.94
278.652	268.94
278.884	281.94
279.115	275.94
279.347	285.94
279.579	276.94
279.81	280.94
280.042	282.94
280.273	274.94
280.505	284.94
280.736	298.94
280.968	287.94
281.199	276.94
281.431	273.94
281.662	286.94
281.894	293.94
282.125	287.94
282.356	320.94
282.588	315.94
282.819	315.94
283.051	295.94
283.282	282.94
283.513	280.94
283.745	273.94
283.976	281.94
284.207	284.94
284.439	293.94
284.67	298.94
284.901	300.94
285.132	311.94
285.364	291.94
285.595	288.94
285.826	284.94
286.057	276.94
286.288	288.94
286.52	298.94
286.751	299.94
286.982	306.94
287.213	288.94
287.444	311.94
287.675	306.94
287.906	325.94
288.138	312.94
288.369	318.94
288.6	319.94
288.831	321.94
289.062	306.94
289.293	336.94
289.524	299.94
289.755	306.94
289.986	292.94
290.217	318.94
290.448	288.94
290.679	307.94
290.91	312.94
291.141	307.94
291.371	308.94
291.602	323.94
291.833	318.94
292.064	311.94
292.295	298.94
292.526	312.94
292.757	312.94
292.987	300.94
293.218	291.94
293.449	307.94
293.68	296.94
293.91	326.94
294.141	304.94
294.372	296.94
294.603	283.94
294.833	315.94
295.064	299.94
295.295	311.94
295.525	318.94
295.756	306.94
295.987	311.94
296.217	345.94
296.448	355.94
296.679	310.94
296.909	323.94
297.14	327.94
297.37	311.94
297.601	317.94
297.831	325.94
298.062	329.94
298.292	334.94
298.523	318.94
298.753	306.94
298.984	329.94
299.214	317.94
299.445	345.94
299.675	331.94
299.905	313.94
300.136	333.94
300.366	332.94
300.597	326.94
300.827	353.94
301.057	336.94
301.288	351.94
301.518	345.94
301.748	347.94
301.979	335.94
302.209	331.94
302.439	340.94
302.669	360.94
302.9	345.94
303.13	348.94
303.36	362.94
303.59	350.94
303.82	362.94
304.051	331.94
304.281	355.94
304.511	335.94
304.741	334.94
304.971	321.94
305.201	327.94
305.431	341.94
305.661	343.94
305.891	354.94
306.121	348.94
306.352	356.94
306.582	358.94
306.812	344.94
307.042	337.94
307.272	351.94
307.502	344.94
307.731	346.94
307.961	354.94
308.191	336.94
308.421	339.94
308.651	346.94
308.881	369.94
309.111	356.94
309.341	341.94
309.571	358.94
309.8	365.94
310.03	361.94
310.26	378.94
310.49	383.94
310.72	380.94
310.949	397.94
311.179	397.94
311.409	374.94
311.639	393.94
311.868	379.94
312.098	380.94
312.328	397.94
312.557	404.94
312.787	416.94
313.017	400.94
313.246	395.94
313.476	390.94
313.706	392.94
313.935	384.94
314.165	404.94
314.394	403.94
314.624	393.94
314.853	399.94
315.083	381.94
315.312	401.94
315.542	354.94
315.771	390.94
316.001	382.94
316.23	390.94
316.46	376.94
316.689	375.94
316.919	399.94
317.148	400.94
317.377	413.94
317.607	402.94
317.836	397.94
318.065	391.94
318.295	391.94
318.524	374.94
318.753	370.94
318.983	385.94
319.212	389.94
319.441	396.94
319.67	387.94
319.9	380.94
320.129	390.94
320.358	400.94
320.587	394.94
320.816	394.94
321.046	400.94
321.275	419.94
321.504	397.94
321.733	406.94
321.962	407.94
322.191	399.94
322.42	415.94
322.649	426.94
322.878	406.94
323.108	439.94
323.337	444.94
323.566	465.94
323.795	488.94
324.024	510.94
324.253	595.94
324.482	848.94
324.71	1261.94
324.939	1899.94
325.168	1712.94
325.397	871.94
325.626	587.94
325.855	534.94
326.084	500.94
326.313	478.94
326.542	492.94
326.77	516.94
326.999	594.94
327.228	779.94
327.457	1169.94
327.686	1464.94
327.914	996.94
328.143	666.94
328.372	586.94
328.6	559.94
328.829	565.94
329.058	555.94
329.287	534.94
329.515	499.94
329.744	500.94
329.972	499.94
330.201	512.94
330.43	549.94
330.658	546.94
330.887	586.94
331.115	575.94
331.344	517.94
331.572	480.94
331.801	491.94
332.03	471.94
332.258	463.94
332.486	456.94
332.715	438.94
332.943	486.94
333.172	480.94
333.4	503.94
333.629	513.94
333.857	490.94
334.085	498.94
334.314	538.94
334.542	556.94
334.771	579.94
334.999	512.94
335.227	519.94
335.455	491.94
335.684	469.94
335.912	464.94
336.14	468.94
336.369	480.94
336.597	478.94
336.825	484.94
337.053	467.94
337.281	460.94
337.51	486.94
337.738	475.94
337.966	443.94
338.194	467.94
338.422	451.94
338.65	456.94
338.878	437.94
339.106	454.94
339.334	444.94
339.562	448.94
339.79	449.94
340.018	430.94
340.246	435.94
340.474	441.94
340.702	447.94
340.93	437.94
341.158	443.94
341.386	439.94
341.614	447.94
341.842	437.94
342.07	431.94
342.298	444.94
342.526	443.94
342.754	403.94
342.981	416.94
343.209	424.94
343.437	436.94
343.665	449.94
343.893	460.94
344.12	491.94
344.348	476.94
344.576	483.94
344.804	456.94
345.031	458.94
345.259	483.94
345.487	467.94
345.714	453.94
345.942	440.94
346.17	435.94
346.397	434.94
346.625	447.94
346.853	437.94
347.08	442.94
347.308	433.94
347.535	423.94
347.763	438.94
347.99	452.94
348.218	441.94
348.445	454.94
348.673	430.94
348.9	439.94
349.128	431.94
349.355	414.94
349.583	405.94
349.81	413.94
350.037	403.94
350.265	426.94
350.492	439.94
350.72	407.94
350.947	443.94
351.174	418.94
351.402	425.94
351.629	424.94
351.856	406.94
352.083	443.94
352.311	451.94
352.538	452.94
352.765	426.94
352.992	441.94
353.22	418.94
353.447	432.94
353.674	434.94
353.901	412.94
354.128	408.94
354.355	418.94
354.583	423.94
354.81	407.94
355.037	408.94
355.264	406.94
355.491	397.94
355.718	406.94
355.945	409.94
356.172	412.94
356.399	406.94
356.626	401.94
356.853	408.94
357.08	406.94
357.307	416.94
357.534	424.94
357.761	402.94
357.988	409.94
358.215	405.94
358.441	401.94
358.668	433.94
358.895	385.94
359.122	425.94
359.349	408.94
359.576	434.94
359.802	444.94
360.029	481.94
360.256	455.94
360.483	483.94
360.709	444.94
360.936	418.94
361.163	424.94
361.39	431.94
361.616	424.94
361.843	420.94
362.07	431.94
362.296	434.94
362.523	451.94
362.749	428.94
362.976	427.94
363.203	424.94
363.429	406.94
363.656	410.94
363.882	437.94
364.109	418.94
364.335	423.94
364.562	410.94
364.788	407.94
365.015	428.94
365.241	419.94
365.468	423.94
365.694	427.94
365.92	407.94
366.147	417.94
366.373	439.94
366.599	397.94
366.826	384.94
367.052	423.94
367.278	414.94
367.505	408.94
367.731	413.94
367.957	420.94
368.184	437.94
368.41	418.94
368.636	435.94
368.862	433.94
369.089	420.94
369.315	392.94
369.541	402.94
369.767	408.94
369.993	414.94
370.219	404.94
370.445	402.94
370.672	427.94
370.898	425.94
371.124	416.94
371.35	416.94
371.576	431.94
371.802	402.94
372.028	427.94
372.254	427.94
372.48	433.94
372.706	414.94
372.932	438.94
373.158	431.94
373.384	423.94
373.61	438.94
373.835	432.94
374.061	420.94
374.287	428.94
374.513	433.94
374.739	403.94
374.965	419.94
375.191	440.94
375.416	430.94
375.642	462.94
375.868	440.94
376.094	448.94
376.319	452.94
376.545	432.94
376.771	436.94
376.997	435.94
377.222	439.94
377.448	424.94
377.674	452.94
377.899	432.94
378.125	435.94
378.35	413.94
378.576	413.94
378.802	416.94
379.027	422.94
379.253	457.94
379.478	415.94
379.704	402.94
379.929	434.94
380.155	422.94
380.38	422.94
380.606	408.94
380.831	432.94
381.057	417.94
381.282	439.94
381.507	438.94
381.733	420.94
381.958	427.94
382.184	445.94
382.409	422.94
382.634	432.94
382.86	426.94
383.085	453.94
383.31	440.94
383.535	450.94
383.761	439.94
383.986	446.94
384.211	467.94
384.436	475.94
384.662	456.94
384.887	462.94
385.112	466.94
385.337	464.94
385.562	484.94
385.787	473.94
386.013	484.94
386.238	459.94
386.463	464.94
386.688	492.94
386.913	449.94
387.138	467.94
387.363	466.94
387.588	466.94
387.813	482.94
388.038	470.94
388.263	492.94
388.488	452.94
388.713	491.94
388.938	503.94
389.163	467.94
389.387	494.94
389.612	484.94
389.837	494.94
390.062	478.94
390.287	470.94
390.512	462.94
390.736	482.94
390.961	473.94
391.186	469.94
391.411	489.94
391.636	488.94
391.86	487.94
392.085	491.94
392.31	482.94
392.534	463.94
392.759	512.94
392.984	507.94
393.208	495.94
393.433	501.94
393.658	467.94
393.882	466.94
394.107	476.94
394.331	476.94
394.556	485.94
394.78	516.94
395.005	499.94
395.229	496.94
395.454	510.94
395.678	505.94
395.903	521.94
396.127	522.94
396.352	535.94
396.576	511.94
396.801	494.94
397.025	482.94
397.249	510.94
397.474	513.94
397.698	516.94
397.922	518.94
398.147	538.94
398.371	562.94
398.595	557.94
398.82	548.94
399.044	553.94
399.268	605.94
399.492	630.94
399.717	678.94
399.941	697.94
400.165	709.94
400.389	702.94
400.613	646.94
400.837	590.94
401.062	584.94
401.286	551.94
401.51	549.94
401.734	526.94
401.958	553.94
402.182	582.94
402.406	581.94
402.63	595.94
402.854	580.94
403.078	572.94
403.302	574.94
403.526	579.94
403.75	589.94
403.974	599.94
404.198	585.94
404.422	597.94
404.645	627.94
404.869	591.94
405.093	638.94
405.317	652.94
405.541	683.94
405.765	622.94
405.988	592.94
406.212	626.94
406.436	633.94
406.66	638.94
406.883	636.94
407.107	652.94
407.331	693.94
407.555	755.94
407.778	792.94
408.002	708.94
408.226	659.94
408.449	641.94
408.673	642.94
408.896	682.94
409.12	713.94
409.344	681.94
409.567	631.94
409.791	610.94
410.014	574.94
410.238	585.94
410.461	577.94
410.685	578.94
410.908	596.94
411.132	632.94
411.355	670.94
411.578	650.94
411.802	602.94
412.025	576.94
412.249	605.94
412.472	597.94
412.695	656.94
412.919	642.94
413.142	624.94
413.365	570.94
413.589	581.94
413.812	587.94
414.035	569.94
414.258	545.94
414.482	536.94
414.705	540.94
414.928	539.94
415.151	550.94
415.374	535.94
415.597	570.94
415.821	547.94
416.044	548.94
416.267	569.94
416.49	564.94
416.713	552.94
416.936	530.94
417.159	538.94
417.382	570.94
417.605	552.94
417.828	578.94
418.051	576.94
418.274	566.94
418.497	576.94
418.72	549.94
418.943	566.94
419.166	584.94
419.389	610.94
419.611	602.94
419.834	600.94
420.057	584.94
420.28	586.94
420.503	602.94
420.726	607.94
420.948	569.94
421.171	637.94
421.394	665.94
421.617	585.94
421.839	587.94
422.062	543.94
422.285	583.94
422.507	642.94
422.73	730.94
422.953	701.94
423.175	602.94
423.398	598.94
423.621	592.94
423.843	611.94
424.066	617.94
424.288	627.94
424.511	637.94
424.733	724.94
424.956	786.94
425.178	721.94
425.401	724.94
425.623	748.94
425.846	634.94
426.068	611.94
426.291	575.94
426.513	595.94
426.735	598.94
426.958	651.94
427.18	730.94
427.402	867.94
427.625	965.94
427.847	810.94
428.069	697.94
428.292	651.94
428.514	604.94
428.736	586.94
428.958	563.94
429.181	543.94
429.403	548.94
429.625	567.94
429.847	602.94
430.069	646.94
430.292	667.94
430.514	574.94
430.736	584.94
430.958	548.94
431.18	533.94
431.402	547.94
431.624	522.94
431.846	512.94
432.068	542.94
432.29	527.94
432.512	528.94
432.734	545.94
432.956	538.94
433.178	552.94
433.4	573.94
433.622	553.94
433.844	534.94
434.066	542.94
434.287	554.94
434.509	541.94
434.731	560.94
434.953	566.94
435.175	592.94
435.397	618.94
435.618	611.94
435.84	632.94
436.062	731.94
436.284	833.94
436.505	675.94
436.727	597.94
436.949	554.94
437.17	532.94
437.392	544.94
437.614	580.94
437.835	589.94
438.057	682.94
438.278	794.94
438.5	785.94
438.721	850.94
438.943	837.94
439.165	665.94
439.386	598.94
439.608	602.94
439.829	589.94
440.05	624.94
440.272	676.94
440.493	625.94
440.715	602.94
440.936	575.94
441.158	566.94
441.379	558.94
441.6	591.94
441.822	592.94
442.043	625.94
442.264	726.94
442.486	759.94
442.707	663.94
442.928	636.94
443.149	606.94
443.371	617.94
443.592	703.94
443.813	790.94
444.034	858.94
444.255	707.94
444.476	627.94
444.698	638.94
444.919	650.94
445.14	732.94
445.361	697.94
445.582	657.94
445.803	722.94
446.024	820.94
446.245	790.94
446.466	738.94
446.687	647.94
446.908	601.94
447.129	568.94
447.35	559.94
447.571	561.94
447.792	536.94
448.013	552.94
448.234	569.94
448.455	624.94
448.675	743.94
448.896	866.94
449.117	699.94
449.338	669.94
449.559	778.94
449.779	896.94
450	722.94
450.221	601.94
450.442	579.94
450.662	530.94
450.883	558.94
451.104	554.94
451.324	545.94
451.545	529.94
451.766	506.94
451.986	495.94
452.207	498.94
452.428	494.94
452.648	491.94
452.869	496.94
453.089	524.94
453.31	502.94
453.53	510.94
453.751	516.94
453.971	471.94
454.192	510.94
454.412	495.94
454.633	510.94
454.853	485.94
455.073	474.94
455.294	505.94
455.514	586.94
455.734	558.94
455.955	494.94
456.175	489.94
456.395	476.94
456.616	478.94
456.836	482.94
457.056	471.94
457.276	453.94
457.497	466.94
457.717	462.94
457.937	475.94
458.157	473.94
458.377	471.94
458.598	507.94
458.818	566.94
459.038	632.94
459.258	658.94
459.478	566.94
459.698	536.94
459.918	535.94
460.138	532.94
460.358	539.94
460.578	543.94
460.798	524.94
461.018	558.94
461.238	572.94
461.458	563.94
461.678	534.94
461.898	588.94
462.118	566.94
462.338	576.94
462.558	575.94
462.777	582.94
462.997	631.94
463.217	638.94
463.437	631.94
463.657	591.94
463.876	609.94
464.096	590.94
464.316	599.94
464.536	587.94
464.755	583.94
464.975	595.94
465.195	595.94
465.414	625.94
465.634	604.94
465.854	572.94
466.073	553.94
466.293	534.94
466.512	528.94
466.732	519.94
466.951	523.94
467.171	496.94
467.391	510.94
467.61	519.94
467.829	525.94
468.049	536.94
468.268	505.94
468.488	503.94
468.707	504.94
468.927	500.94
469.146	492.94
469.365	508.94
469.585	493.94
469.804	512.94
470.023	532.94
470.243	519.94
470.462	531.94
470.681	556.94
470.901	519.94
471.12	523.94
471.339	528.94
471.558	541.94
471.777	514.94
471.997	510.94
472.216	532.94
472.435	551.94
472.654	536.94
472.873	494.94
473.092	530.94
473.311	523.94
473.53	488.94
473.749	535.94
473.968	576.94
474.187	640.94
474.406	663.94
474.625	560.94
474.844	539.94
475.063	534.94
475.282	496.94
475.501	522.94
475.72	541.94
475.939	532.94
476.158	543.94
476.377	530.94
476.596	531.94
476.814	542.94
477.033	552.94
477.252	543.94
477.471	563.94
477.69	540.94
477.908	564.94
478.127	576.94
478.346	578.94
478.564	595.94
478.783	591.94
479.002	609.94
479.22	612.94
479.439	605.94
479.658	638.94
479.876	617.94
480.095	635.94
480.313	646.94
480.532	656.94
480.751	624.94
480.969	644.94
481.188	678.94
481.406	704.94
481.624	675.94
481.843	632.94
482.061	648.94
482.28	616.94
482.498	593.94
482.717	616.94
482.935	598.94
483.153	610.94
483.372	602.94
483.59	613.94
483.808	600.94
484.027	601.94
484.245	600.94
484.463	626.94
484.681	602.94
484.9	637.94
485.118	620.94
485.336	618.94
485.554	623.94
485.772	624.94
485.99	631.94
486.209	641.94
486.427	645.94
486.645	620.94
486.863	660.94
487.081	634.94
487.299	652.94
487.517	635.94
487.735	643.94
487.953	681.94
488.171	652.94
488.389	651.94
488.607	640.94
488.825	649.94
489.043	661.94
489.261	635.94
489.479	664.94
489.696	660.94
489.914	659.94
490.132	672.94
490.35	667.94
490.568	694.94
490.786	691.94
491.003	704.94
491.221	692.94
491.439	696.94
491.657	729.94
491.874	755.94
492.092	738.94
492.31	758.94
492.527	736.94
492.745	739.94
492.963	759.94
493.18	743.94
493.398	781.94
493.615	755.94
493.833	753.94
494.05	793.94
494.268	758.94
494.485	770.94
494.703	759.94
494.92	774.94
495.138	768.94
495.355	779.94
495.573	752.94
495.79	769.94
496.008	782.94
496.225	788.94
496.442	778.94
496.66	789.94
496.877	787.94
497.094	782.94
497.312	794.94
497.529	786.94
497.746	814.94
497.963	851.94
498.181	845.94
498.398	871.94
498.615	874.94
498.832	906.94
499.049	931.94
499.267	963.94
499.484	986.94
499.701	1018.94
499.918	1074.94
500.135	1135.94
500.352	1242.94
500.569	1247.94
500.786	1262.94
501.003	1223.94
501.22	1158.94
501.437	1111.94
501.654	1059.94
501.871	1039.94
502.088	1006.94
502.305	942.94
502.522	920.94
502.739	871.94
502.956	856.94
503.172	838.94
503.389	847.94
503.606	808.94
503.823	778.94
504.04	784.94
504.256	780.94
504.473	788.94
504.69	782.94
504.907	780.94
505.123	755.94
505.34	749.94
505.557	729.94
505.773	717.94
505.99	737.94
506.207	716.94
506.423	723.94
506.64	703.94
506.856	708.94
507.073	713.94
507.289	734.94
507.506	712.94
507.722	710.94
507.939	710.94
508.155	683.94
508.372	688.94
508.588	689.94
508.805	720.94
509.021	654.94
509.238	681.94
509.454	712.94
509.67	692.94
509.887	662.94
510.103	666.94
510.319	681.94
510.536	746.94
510.752	1082.94
510.968	936.94
511.184	671.94
511.401	648.94
511.617	633.94
511.833	624.94
512.049	642.94
512.265	651.94
512.481	647.94
512.698	628.94
512.914	614.94
513.13	654.94
513.346	635.94
513.562	630.94
513.778	628.94
513.994	662.94
514.21	652.94
514.426	637.94
514.642	667.94
514.858	715.94
515.074	718.94
515.29	833.94
515.506	1064.94
515.721	958.94
515.937	730.94
516.153	693.94
516.369	679.94
516.585	675.94
516.801	682.94
517.016	671.94
517.232	690.94
517.448	674.94
517.664	686.94
517.879	707.94
518.095	684.94
518.311	687.94
518.527	688.94
518.742	670.94
518.958	665.94
519.173	660.94
519.389	645.94
519.605	631.94
519.82	659.94
520.036	644.94
520.251	663.94
520.467	690.94
520.682	668.94
520.898	677.94
521.113	710.94
521.329	724.94
521.544	769.94
521.76	912.94
521.975	1343.94
522.19	1322.94
522.406	840.94
522.621	686.94
522.836	628.94
523.052	616.94
523.267	595.94
523.482	587.94
523.698	572.94
523.913	569.94
524.128	561.94
524.343	563.94
524.559	567.94
524.774	573.94
524.989	554.94
525.204	540.94
525.419	575.94
525.634	545.94
525.849	538.94
526.064	553.94
526.28	556.94
526.495	528.94
526.71	547.94
526.925	541.94
527.14	530.94
527.355	543.94
527.57	546.94
527.785	528.94
527.999	500.94
528.214	531.94
528.429	534.94
528.644	544.94
528.859	542.94
529.074	511.94
529.289	546.94
529.503	612.94
529.718	599.94
529.933	581.94
530.148	555.94
530.363	546.94
530.577	536.94
530.792	517.94
531.007	532.94
531.221	561.94
531.436	512.94
531.651	516.94
531.865	510.94
532.08	507.94
532.295	538.94
532.509	498.94
532.724	513.94
532.938	519.94
533.153	531.94
533.367	513.94
533.582	519.94
533.796	520.94
534.011	515.94
534.225	512.94
534.44	517.94
534.654	500.94
534.868	500.94
535.083	494.94
535.297	494.94
535.511	534.94
535.726	506.94
535.94	495.94
536.154	499.94
536.369	497.94
536.583	479.94
536.797	494.94
537.011	486.94
537.225	506.94
537.44	476.94
537.654	474.94
537.868	479.94
538.082	488.94
538.296	487.94
538.51	499.94
538.724	481.94
538.938	502.94
539.153	483.94
539.367	503.94
539.581	512.94
539.795	478.94
540.009	475.94
540.222	483.94
540.436	482.94
540.65	516.94
540.864	492.94
541.078	493.94
541.292	516.94
541.506	487.94
541.72	488.94
541.934	468.94
542.147	488.94
542.361	477.94
542.575	490.94
542.789	489.94
543.002	501.94
543.216	492.94
543.43	475.94
543.644	472.94
543.857	477.94
544.071	480.94
544.285	480.94
544.498	495.94
544.712	495.94
544.925	486.94
545.139	484.94
545.352	485.94
545.566	483.94
545.779	499.94
545.993	516.94
546.206	519.94
546.42	501.94
546.633	500.94
546.847	480.94
547.06	484.94
547.274	475.94
547.487	485.94
547.7	473.94
547.914	490.94
548.127	488.94
548.34	480.94
548.554	486.94
548.767	491.94
548.98	466.94
549.193	472.94
549.407	491.94
549.62	459.94
549.833	475.94
550.046	464.94
550.259	466.94
550.473	460.94
550.686	467.94
550.899	473.94
551.112	463.94
551.325	470.94
551.538	464.94
551.751	467.94
551.964	486.94
552.177	473.94
552.39	477.94
552.603	478.94
552.816	469.94
553.029	485.94
553.242	492.94
553.455	492.94
553.667	499.94
553.88	502.94
554.093	491.94
554.306	478.94
554.519	486.94
554.732	490.94
554.944	469.94
555.157	467.94
555.37	454.94
555.583	452.94
555.795	454.94
556.008	457.94
556.221	430.94
556.433	441.94
556.646	448.94
556.859	434.94
557.071	432.94
557.284	403.94
557.496	423.94
557.709	425.94
557.921	419.94
558.134	440.94
558.346	422.94
558.559	436.94
558.771	418.94
558.984	412.94
559.196	420.94
559.409	427.94
559.621	414.94
559.833	426.94
560.046	411.94
560.258	411.94
560.47	444.94
560.683	422.94
560.895	427.94
561.107	425.94
561.32	408.94
561.532	408.94
561.744	419.94
561.956	438.94
562.168	416.94
562.381	414.94
562.593	427.94
562.805	432.94
563.017	418.94
563.229	418.94
563.441	411.94
563.653	435.94
563.865	426.94
564.077	425.94
564.289	437.94
564.501	432.94
564.713	427.94
564.925	456.94
565.137	453.94
565.349	460.94
565.561	478.94
565.773	486.94
565.985	493.94
566.197	465.94
566.408	512.94
566.62	542.94
566.832	553.94
567.044	525.94
567.255	551.94
567.467	573.94
567.679	582.94
567.891	576.94
568.102	602.94
568.314	580.94
568.526	539.94
568.737	509.94
568.949	516.94
569.161	472.94
569.372	466.94
569.584	462.94
569.795	445.94
570.007	449.94
570.218	470.94
570.43	476.94
570.641	417.94
570.853	417.94
571.064	446.94
571.276	420.94
571.487	419.94
571.698	411.94
571.91	405.94
572.121	406.94
572.333	387.94
572.544	382.94
572.755	373.94
572.966	363.94
573.178	378.94
573.389	368.94
573.6	379.94
573.811	352.94
574.023	388.94
574.234	355.94
574.445	363.94
574.656	358.94
574.867	358.94
575.078	361.94
575.289	361.94
575.501	359.94
575.712	383.94
575.923	358.94
576.134	361.94
576.345	350.94
576.556	366.94
576.767	369.94
576.978	375.94
577.188	372.94
577.399	350.94
577.61	355.94
577.821	320.94
578.032	350.94
578.243	368.94
578.454	519.94
578.665	414.94
578.875	336.94
579.086	331.94
579.297	350.94
579.508	340.94
579.718	342.94
579.929	332.94
580.14	354.94
580.35	316.94
580.561	339.94
580.772	322.94
580.982	326.94
581.193	328.94
581.403	333.94
581.614	327.94
581.825	324.94
582.035	308.94
582.246	329.94
582.456	331.94
582.667	323.94
582.877	321.94
583.087	322.94
583.298	323.94
583.508	314.94
583.719	313.94
583.929	340.94
584.139	336.94
584.35	309.94
584.56	316.94
584.77	323.94
584.981	307.94
585.191	327.94
585.401	320.94
585.611	322.94
585.821	303.94
586.032	321.94
586.242	321.94
586.452	321.94
586.662	299.94
586.872	319.94
587.082	322.94
587.292	318.94
587.502	331.94
587.713	324.94
587.923	318.94
588.133	317.94
588.343	336.94
588.553	306.94
588.762	287.94
588.972	325.94
589.182	325.94
589.392	298.94
589.602	311.94
589.812	299.94
590.022	319.94
590.232	312.94
590.441	298.94
590.651	320.94
590.861	307.94
591.071	326.94
591.281	315.94
591.49	315.94
591.7	332.94
591.91	327.94
592.119	315.94
592.329	322.94
592.539	344.94
592.748	343.94
592.958	362.94
593.167	352.94
593.377	353.94
593.587	362.94
593.796	370.94
594.006	364.94
594.215	361.94
594.424	362.94
594.634	335.94
594.843	325.94
595.053	348.94
595.262	325.94
595.472	351.94
595.681	338.94
595.89	322.94
596.1	307.94
596.309	303.94
596.518	326.94
596.727	303.94
596.937	300.94
597.146	293.94
597.355	299.94
597.564	302.94
597.774	288.94
597.983	288.94
598.192	284.94
598.401	274.94
598.61	292.94
598.819	293.94
599.028	290.94
599.237	278.94
599.446	285.94
599.655	284.94
599.864	277.94
600.073	268.94
600.282	278.94
600.491	262.94
600.7	264.94
600.909	283.94
601.118	264.94
601.327	261.94
601.536	279.94
601.745	266.94
601.953	250.94
602.162	291.94
602.371	250.94
602.58	282.94
602.789	281.94
602.997	274.94
603.206	261.94
603.415	268.94
603.623	276.94
603.832	255.94
604.041	280.94
604.249	258.94
604.458	256.94
604.666	268.94
604.875	266.94
605.084	274.94
605.292	256.94
605.501	266.94
605.709	272.94
605.918	266.94
606.126	260.94
606.334	279.94
606.543	282.94
606.751	249.94
606.96	258.94
607.168	262.94
607.376	253.94
607.585	275.94
607.793	265.94
608.001	261.94
608.21	250.94
608.418	259.94
608.626	259.94
608.834	256.94
609.043	268.94
609.251	278.94
609.459	270.94
609.667	265.94
609.875	239.94
610.083	261.94
610.291	255.94
610.499	268.94
610.707	275.94
610.916	272.94
611.124	259.94
611.332	273.94
611.54	280.94
611.748	262.94
611.955	260.94
612.163	267.94
612.371	266.94
612.579	266.94
612.787	250.94
612.995	243.94
613.203	279.94
613.411	276.94
613.618	262.94
613.826	254.94
614.034	256.94
614.242	258.94
614.449	253.94
614.657	266.94
614.865	256.94
615.072	225.94
615.28	256.94
615.488	251.94
615.695	245.94
615.903	262.94
616.111	258.94
616.318	257.94
616.526	241.94
616.733	244.94
616.941	247.94
617.148	269.94
617.356	277.94
617.563	251.94
617.771	257.94
617.978	250.94
618.185	233.94
618.393	260.94
618.6	236.94
618.807	234.94
619.015	255.94
619.222	252.94
619.429	252.94
619.637	260.94
619.844	247.94
620.051	243.94
620.258	242.94
620.466	237.94
620.673	227.94
620.88	223.94
621.087	226.94
621.294	232.94
621.501	232.94
621.708	234.94
621.915	232.94
622.122	235.94
622.329	223.94
622.536	227.94
622.743	235.94
622.95	222.94
623.157	243.94
623.364	231.94
623.571	247.94
623.778	235.94
623.985	225.94
624.192	208.94
624.399	230.94
624.606	235.94
624.812	226.94
625.019	223.94
625.226	227.94
625.433	233.94
625.639	221.94
625.846	217.94
626.053	227.94
626.259	224.94
626.466	217.94
626.673	225.94
626.879	227.94
627.086	224.94
627.293	219.94
627.499	237.94
627.706	218.94
627.912	219.94
628.119	214.94
628.325	239.94
628.532	212.94
628.738	214.94
628.945	212.94
629.151	205.94
629.357	211.94
629.564	202.94
629.77	198.94
629.976	203.94
630.183	223.94
630.389	211.94
630.595	219.94
630.802	215.94
631.008	209.94
631.214	204.94
631.42	205.94
631.627	221.94
631.833	206.94
632.039	209.94
632.245	195.94
632.451	200.94
632.657	196.94
632.863	215.94
633.069	202.94
633.275	218.94
633.481	187.94
633.688	199.94
633.893	210.94
634.099	195.94
634.305	174.94
634.511	200.94
634.717	204.94
634.923	195.94
635.129	190.94
635.335	206.94
635.541	193.94
635.747	184.94
635.952	161.94
636.158	202.94
636.364	199.94
636.57	193.94
636.775	198.94
636.981	191.94
637.187	188.94
637.392	198.94
637.598	171.94
637.804	207.94
638.009	196.94
638.215	190.94
638.421	180.94
638.626	183.94
638.832	182.94
639.037	178.94
639.243	172.94
639.448	169.94
639.654	179.94
639.859	171.94
640.065	175.94
640.27	196.94
640.475	180.94
640.681	191.94
640.886	186.94
641.091	188.94
641.297	181.94
641.502	166.94
641.707	174.94
641.913	180.94
642.118	171.94
642.323	168.94
642.528	192.94
642.733	166.94
642.939	176.94
643.144	180.94
643.349	169.94
643.554	172.94
643.759	197.94
643.964	160.94
644.169	179.94
644.374	170.94
644.579	169.94
644.784	161.94
644.989	183.94
645.194	176.94
645.399	184.94
645.604	169.94
645.809	179.94
646.014	182.94
646.219	170.94
646.423	182.94
646.628	176.94
646.833	194.94
647.038	161.94
647.243	182.94
647.447	184.94
647.652	163.94
647.857	180.94
648.062	188.94
648.266	175.94
648.471	172.94
648.676	178.94
648.88	188.94
649.085	186.94
649.289	175.94
649.494	195.94
649.698	186.94
649.903	188.94
650.107	183.94
650.312	182.94
650.516	179.94
650.721	150.94
650.925	176.94
651.13	144.94
651.334	154.94
651.539	160.94
651.743	139.94
651.947	158.94
652.152	162.94
652.356	151.94
652.56	166.94
652.764	155.94
652.969	139.94
653.173	141.94
653.377	136.94
653.581	138.94
653.785	155.94
653.99	151.94
654.194	134.94
654.398	135.94
654.602	143.94
654.806	139.94
655.01	154.94
655.214	160.94
655.418	127.94
655.622	128.94
655.826	137.94
656.03	145.94
656.234	144.94
656.438	124.94
656.642	135.94
656.846	147.94
657.049	144.94
657.253	148.94
657.457	139.94
657.661	124.94
657.865	124.94
658.068	99.94
658.272	122.94
658.476	124.94
658.68	108.94
658.883	103.94
659.087	101.94
659.291	114.94
659.494	95.94
659.698	104.94
659.901	110.94
660.105	87.94
660.309	98.94
660.512	99.94
660.716	90.94
660.919	89.94
661.123	95.94
661.326	94.94
661.53	89.94
661.733	107.94
661.936	84.94
662.14	86.94
662.343	83.94
662.546	87.94
662.75	78.94
662.953	93.94
663.156	88.94
663.36	71.94
663.563	77.94
663.766	75.94
663.969	72.94
664.173	86.94
664.376	82.94
664.579	77.94
664.782	92.94
664.985	84.94
665.188	91.94
665.391	82.94
665.594	83.94
665.797	59.94
666	79.94
666.203	74.94
666.406	88.94
666.609	81.94
666.812	63.94
667.015	89.94
667.218	79.94
667.421	81.94
667.624	81.94
667.827	77.94
668.03	73.94
668.232	82.94
668.435	77.94
668.638	67.94
668.841	69.94
669.043	74.94
669.246	83.94
669.449	82.94
669.651	70.94
669.854	84.94
670.057	60.94
670.259	72.94
670.462	87.94
670.665	72.94
670.867	79.94
671.07	88.94
671.272	93.94
671.475	84.94
671.677	77.94
671.88	81.94
672.082	80.94
672.284	84.94
672.487	91.94
672.689	77.94
672.892	76.94
