Data from 1975.PennyLincolnUp.Lamp.En5.5.200Scan.071719.P1.Changed Mount._HRD10591_15-55-45-858.txt Node
Date: Thu Jul 18 15:55:45 EDT 2019
User: cochatt
Spectrometer: HR+D1059
Trigger mode: 1
Integration Time (sec): 1.000000E-1
Scans to average: 1
Electric dark correction enabled: true
Nonlinearity correction enabled: false
Boxcar width: 0
XAxis mode: Wavelengths
Number of Pixels in Spectrum: 2048
>>>>>Begin Spectral Data<<<<<
223.165	-13.94
223.4	-13.94
223.635	-13.94
223.869	-18.94
224.104	-18.94
224.338	-17.94
224.573	-29.94
224.808	-3.94
225.042	-14.94
225.277	0.06
225.511	3.06
225.746	13.06
225.98	3.06
226.215	3.06
226.449	22.06
226.683	29.06
226.918	26.06
227.152	19.06
227.387	25.06
227.621	29.06
227.856	36.06
228.09	46.06
228.324	51.06
228.559	62.06
228.793	58.06
229.027	81.06
229.262	117.06
229.496	111.06
229.73	135.06
229.964	143.06
230.199	124.06
230.433	92.06
230.667	120.06
230.901	106.06
231.136	99.06
231.37	102.06
231.604	122.06
231.838	103.06
232.072	101.06
232.306	110.06
232.541	105.06
232.775	119.06
233.009	118.06
233.243	107.06
233.477	117.06
233.711	95.06
233.945	110.06
234.179	113.06
234.413	116.06
234.647	113.06
234.881	114.06
235.115	122.06
235.349	123.06
235.583	114.06
235.817	124.06
236.051	135.06
236.285	133.06
236.519	115.06
236.753	110.06
236.987	141.06
237.221	173.06
237.455	194.06
237.689	174.06
237.922	131.06
238.156	138.06
238.39	131.06
238.624	134.06
238.858	125.06
239.091	129.06
239.325	121.06
239.559	113.06
239.793	128.06
240.027	134.06
240.26	121.06
240.494	150.06
240.728	126.06
240.961	141.06
241.195	140.06
241.429	140.06
241.662	134.06
241.896	137.06
242.13	135.06
242.363	137.06
242.597	118.06
242.83	135.06
243.064	143.06
243.298	130.06
243.531	135.06
243.765	157.06
243.998	133.06
244.232	133.06
244.465	138.06
244.699	142.06
244.932	145.06
245.166	142.06
245.399	161.06
245.633	140.06
245.866	153.06
246.099	127.06
246.333	168.06
246.566	144.06
246.8	149.06
247.033	155.06
247.266	157.06
247.5	159.06
247.733	174.06
247.966	160.06
248.2	183.06
248.433	179.06
248.666	167.06
248.899	170.06
249.133	190.06
249.366	203.06
249.599	192.06
249.832	178.06
250.066	177.06
250.299	178.06
250.532	193.06
250.765	205.06
250.998	202.06
251.231	194.06
251.465	188.06
251.698	184.06
251.931	186.06
252.164	183.06
252.397	184.06
252.63	192.06
252.863	190.06
253.096	209.06
253.329	221.06
253.562	207.06
253.795	210.06
254.028	218.06
254.261	195.06
254.494	206.06
254.727	235.06
254.96	263.06
255.193	241.06
255.426	234.06
255.659	219.06
255.892	224.06
256.124	226.06
256.357	212.06
256.59	212.06
256.823	199.06
257.056	205.06
257.289	202.06
257.521	207.06
257.754	206.06
257.987	196.06
258.22	198.06
258.452	204.06
258.685	205.06
258.918	196.06
259.151	205.06
259.383	212.06
259.616	205.06
259.849	204.06
260.081	214.06
260.314	236.06
260.547	232.06
260.779	248.06
261.012	219.06
261.244	212.06
261.477	221.06
261.71	219.06
261.942	221.06
262.175	218.06
262.407	219.06
262.64	233.06
262.872	201.06
263.105	217.06
263.337	218.06
263.57	205.06
263.802	212.06
264.035	227.06
264.267	205.06
264.499	215.06
264.732	211.06
264.964	202.06
265.197	214.06
265.429	214.06
265.661	210.06
265.894	196.06
266.126	221.06
266.358	230.06
266.591	224.06
266.823	228.06
267.055	221.06
267.287	206.06
267.52	207.06
267.752	223.06
267.984	209.06
268.216	219.06
268.448	235.06
268.681	230.06
268.913	238.06
269.145	244.06
269.377	275.06
269.609	246.06
269.841	267.06
270.073	261.06
270.306	271.06
270.538	291.06
270.77	314.06
271.002	290.06
271.234	263.06
271.466	288.06
271.698	296.06
271.93	309.06
272.162	303.06
272.394	292.06
272.626	283.06
272.858	285.06
273.09	262.06
273.322	256.06
273.553	251.06
273.785	271.06
274.017	269.06
274.249	258.06
274.481	243.06
274.713	259.06
274.945	254.06
275.176	249.06
275.408	254.06
275.64	238.06
275.872	262.06
276.104	250.06
276.335	253.06
276.567	264.06
276.799	260.06
277.031	278.06
277.262	281.06
277.494	297.06
277.726	293.06
277.957	271.06
278.189	283.06
278.421	245.06
278.652	263.06
278.884	255.06
279.115	254.06
279.347	258.06
279.579	269.06
279.81	269.06
280.042	260.06
280.273	255.06
280.505	260.06
280.736	256.06
280.968	262.06
281.199	272.06
281.431	261.06
281.662	265.06
281.894	272.06
282.125	273.06
282.356	291.06
282.588	279.06
282.819	282.06
283.051	276.06
283.282	268.06
283.513	283.06
283.745	267.06
283.976	294.06
284.207	279.06
284.439	283.06
284.67	264.06
284.901	284.06
285.132	286.06
285.364	280.06
285.595	265.06
285.826	287.06
286.057	273.06
286.288	269.06
286.52	271.06
286.751	281.06
286.982	294.06
287.213	278.06
287.444	294.06
287.675	280.06
287.906	282.06
288.138	282.06
288.369	307.06
288.6	291.06
288.831	298.06
289.062	297.06
289.293	296.06
289.524	281.06
289.755	286.06
289.986	297.06
290.217	283.06
290.448	300.06
290.679	284.06
290.91	291.06
291.141	293.06
291.371	275.06
291.602	293.06
291.833	296.06
292.064	283.06
292.295	309.06
292.526	280.06
292.757	285.06
292.987	307.06
293.218	294.06
293.449	285.06
293.68	288.06
293.91	283.06
294.141	279.06
294.372	309.06
294.603	313.06
294.833	294.06
295.064	295.06
295.295	289.06
295.525	298.06
295.756	298.06
295.987	288.06
296.217	295.06
296.448	306.06
296.679	305.06
296.909	307.06
297.14	308.06
297.37	301.06
297.601	312.06
297.831	300.06
298.062	312.06
298.292	309.06
298.523	294.06
298.753	312.06
298.984	326.06
299.214	296.06
299.445	311.06
299.675	319.06
299.905	302.06
300.136	304.06
300.366	303.06
300.597	313.06
300.827	312.06
301.057	328.06
301.288	323.06
301.518	330.06
301.748	312.06
301.979	313.06
302.209	339.06
302.439	320.06
302.669	317.06
302.9	337.06
303.13	309.06
303.36	324.06
303.59	326.06
303.82	347.06
304.051	336.06
304.281	331.06
304.511	334.06
304.741	310.06
304.971	337.06
305.201	314.06
305.431	331.06
305.661	325.06
305.891	330.06
306.121	321.06
306.352	330.06
306.582	353.06
306.812	312.06
307.042	334.06
307.272	340.06
307.502	317.06
307.731	330.06
307.961	334.06
308.191	335.06
308.421	329.06
308.651	332.06
308.881	327.06
309.111	325.06
309.341	326.06
309.571	337.06
309.8	342.06
310.03	332.06
310.26	348.06
310.49	356.06
310.72	339.06
310.949	351.06
311.179	370.06
311.409	360.06
311.639	346.06
311.868	359.06
312.098	359.06
312.328	380.06
312.557	375.06
312.787	387.06
313.017	379.06
313.246	363.06
313.476	373.06
313.706	353.06
313.935	364.06
314.165	381.06
314.394	383.06
314.624	381.06
314.853	364.06
315.083	347.06
315.312	362.06
315.542	349.06
315.771	354.06
316.001	347.06
316.23	357.06
316.46	361.06
316.689	365.06
316.919	369.06
317.148	355.06
317.377	361.06
317.607	373.06
317.836	353.06
318.065	363.06
318.295	363.06
318.524	363.06
318.753	358.06
318.983	355.06
319.212	361.06
319.441	357.06
319.67	369.06
319.9	373.06
320.129	354.06
320.358	377.06
320.587	380.06
320.816	388.06
321.046	374.06
321.275	369.06
321.504	376.06
321.733	358.06
321.962	373.06
322.191	385.06
322.42	371.06
322.649	385.06
322.878	393.06
323.108	404.06
323.337	429.06
323.566	424.06
323.795	430.06
324.024	486.06
324.253	527.06
324.482	746.06
324.71	1068.06
324.939	1649.06
325.168	1404.06
325.397	717.06
325.626	516.06
325.855	443.06
326.084	439.06
326.313	409.06
326.542	425.06
326.77	451.06
326.999	515.06
327.228	667.06
327.457	997.06
327.686	1235.06
327.914	837.06
328.143	565.06
328.372	528.06
328.6	478.06
328.829	467.06
329.058	473.06
329.287	491.06
329.515	470.06
329.744	459.06
329.972	435.06
330.201	482.06
330.43	481.06
330.658	499.06
330.887	506.06
331.115	498.06
331.344	467.06
331.572	446.06
331.801	449.06
332.03	450.06
332.258	445.06
332.486	435.06
332.715	444.06
332.943	443.06
333.172	441.06
333.4	452.06
333.629	434.06
333.857	457.06
334.085	459.06
334.314	501.06
334.542	500.06
334.771	494.06
334.999	481.06
335.227	441.06
335.455	467.06
335.684	462.06
335.912	447.06
336.14	458.06
336.369	430.06
336.597	437.06
336.825	447.06
337.053	434.06
337.281	411.06
337.51	425.06
337.738	435.06
337.966	420.06
338.194	434.06
338.422	419.06
338.65	419.06
338.878	419.06
339.106	404.06
339.334	424.06
339.562	416.06
339.79	411.06
340.018	418.06
340.246	410.06
340.474	433.06
340.702	420.06
340.93	411.06
341.158	435.06
341.386	429.06
341.614	425.06
341.842	400.06
342.07	410.06
342.298	409.06
342.526	412.06
342.754	410.06
342.981	392.06
343.209	420.06
343.437	435.06
343.665	429.06
343.893	442.06
344.12	445.06
344.348	453.06
344.576	430.06
344.804	424.06
345.031	442.06
345.259	446.06
345.487	413.06
345.714	417.06
345.942	409.06
346.17	414.06
346.397	421.06
346.625	399.06
346.853	402.06
347.08	404.06
347.308	410.06
347.535	391.06
347.763	409.06
347.99	389.06
348.218	396.06
348.445	399.06
348.673	397.06
348.9	419.06
349.128	414.06
349.355	385.06
349.583	393.06
349.81	410.06
350.037	414.06
350.265	415.06
350.492	392.06
350.72	378.06
350.947	373.06
351.174	389.06
351.402	409.06
351.629	406.06
351.856	398.06
352.083	405.06
352.311	406.06
352.538	419.06
352.765	421.06
352.992	391.06
353.22	398.06
353.447	398.06
353.674	400.06
353.901	385.06
354.128	399.06
354.355	375.06
354.583	379.06
354.81	393.06
355.037	406.06
355.264	403.06
355.491	381.06
355.718	378.06
355.945	386.06
356.172	388.06
356.399	375.06
356.626	379.06
356.853	384.06
357.08	405.06
357.307	392.06
357.534	387.06
357.761	386.06
357.988	398.06
358.215	396.06
358.441	420.06
358.668	381.06
358.895	411.06
359.122	393.06
359.349	397.06
359.576	386.06
359.802	414.06
360.029	435.06
360.256	434.06
360.483	417.06
360.709	405.06
360.936	408.06
361.163	391.06
361.39	415.06
361.616	405.06
361.843	375.06
362.07	407.06
362.296	385.06
362.523	426.06
362.749	397.06
362.976	381.06
363.203	418.06
363.429	389.06
363.656	400.06
363.882	413.06
364.109	403.06
364.335	399.06
364.562	388.06
364.788	385.06
365.015	357.06
365.241	383.06
365.468	411.06
365.694	428.06
365.92	392.06
366.147	393.06
366.373	409.06
366.599	390.06
366.826	378.06
367.052	394.06
367.278	397.06
367.505	372.06
367.731	375.06
367.957	413.06
368.184	391.06
368.41	415.06
368.636	397.06
368.862	399.06
369.089	407.06
369.315	403.06
369.541	412.06
369.767	410.06
369.993	403.06
370.219	399.06
370.445	398.06
370.672	418.06
370.898	406.06
371.124	408.06
371.35	403.06
371.576	400.06
371.802	416.06
372.028	413.06
372.254	397.06
372.48	385.06
372.706	392.06
372.932	392.06
373.158	405.06
373.384	410.06
373.61	427.06
373.835	421.06
374.061	396.06
374.287	398.06
374.513	399.06
374.739	421.06
374.965	439.06
375.191	413.06
375.416	412.06
375.642	415.06
375.868	391.06
376.094	397.06
376.319	386.06
376.545	399.06
376.771	405.06
376.997	395.06
377.222	407.06
377.448	390.06
377.674	410.06
377.899	396.06
378.125	410.06
378.35	417.06
378.576	413.06
378.802	403.06
379.027	405.06
379.253	395.06
379.478	392.06
379.704	411.06
379.929	398.06
380.155	399.06
380.38	410.06
380.606	429.06
380.831	406.06
381.057	431.06
381.282	418.06
381.507	427.06
381.733	417.06
381.958	425.06
382.184	428.06
382.409	425.06
382.634	403.06
382.86	419.06
383.085	426.06
383.31	447.06
383.535	449.06
383.761	430.06
383.986	428.06
384.211	440.06
384.436	449.06
384.662	458.06
384.887	452.06
385.112	456.06
385.337	465.06
385.562	478.06
385.787	449.06
386.013	467.06
386.238	461.06
386.463	465.06
386.688	457.06
386.913	470.06
387.138	466.06
387.363	450.06
387.588	438.06
387.813	451.06
388.038	461.06
388.263	463.06
388.488	470.06
388.713	456.06
388.938	441.06
389.163	451.06
389.387	456.06
389.612	452.06
389.837	478.06
390.062	472.06
390.287	465.06
390.512	460.06
390.736	446.06
390.961	468.06
391.186	459.06
391.411	483.06
391.636	471.06
391.86	468.06
392.085	472.06
392.31	474.06
392.534	466.06
392.759	466.06
392.984	471.06
393.208	455.06
393.433	456.06
393.658	468.06
393.882	435.06
394.107	474.06
394.331	461.06
394.556	453.06
394.78	462.06
395.005	469.06
395.229	463.06
395.454	468.06
395.678	453.06
395.903	473.06
396.127	515.06
396.352	505.06
396.576	489.06
396.801	480.06
397.025	501.06
397.249	483.06
397.474	497.06
397.698	492.06
397.922	497.06
398.147	502.06
398.371	522.06
398.595	499.06
398.82	508.06
399.044	553.06
399.268	550.06
399.492	598.06
399.717	636.06
399.941	667.06
400.165	670.06
400.389	687.06
400.613	591.06
400.837	569.06
401.062	550.06
401.286	545.06
401.51	543.06
401.734	514.06
401.958	533.06
402.182	529.06
402.406	548.06
402.63	557.06
402.854	553.06
403.078	547.06
403.302	540.06
403.526	527.06
403.75	534.06
403.974	554.06
404.198	561.06
404.422	564.06
404.645	580.06
404.869	561.06
405.093	622.06
405.317	639.06
405.541	668.06
405.765	626.06
405.988	583.06
406.212	580.06
406.436	584.06
406.66	618.06
406.883	587.06
407.107	606.06
407.331	653.06
407.555	727.06
407.778	729.06
408.002	662.06
408.226	627.06
408.449	587.06
408.673	621.06
408.896	630.06
409.12	668.06
409.344	633.06
409.567	579.06
409.791	563.06
410.014	555.06
410.238	555.06
410.461	562.06
410.685	560.06
410.908	573.06
411.132	595.06
411.355	626.06
411.578	607.06
411.802	565.06
412.025	535.06
412.249	563.06
412.472	579.06
412.695	628.06
412.919	611.06
413.142	577.06
413.365	567.06
413.589	546.06
413.812	530.06
414.035	507.06
414.258	519.06
414.482	521.06
414.705	528.06
414.928	531.06
415.151	515.06
415.374	523.06
415.597	518.06
415.821	531.06
416.044	494.06
416.267	519.06
416.49	497.06
416.713	497.06
416.936	514.06
417.159	516.06
417.382	518.06
417.605	534.06
417.828	539.06
418.051	558.06
418.274	558.06
418.497	518.06
418.72	521.06
418.943	507.06
419.166	581.06
419.389	609.06
419.611	574.06
419.834	572.06
420.057	574.06
420.28	555.06
420.503	566.06
420.726	556.06
420.948	573.06
421.171	602.06
421.394	615.06
421.617	566.06
421.839	549.06
422.062	566.06
422.285	567.06
422.507	609.06
422.73	698.06
422.953	647.06
423.175	583.06
423.398	566.06
423.621	582.06
423.843	593.06
424.066	569.06
424.288	573.06
424.511	602.06
424.733	622.06
424.956	726.06
425.178	710.06
425.401	663.06
425.623	708.06
425.846	585.06
426.068	581.06
426.291	590.06
426.513	563.06
426.735	567.06
426.958	625.06
427.18	678.06
427.402	829.06
427.625	885.06
427.847	769.06
428.069	648.06
428.292	568.06
428.514	558.06
428.736	532.06
428.958	532.06
429.181	519.06
429.403	515.06
429.625	557.06
429.847	553.06
430.069	617.06
430.292	625.06
430.514	545.06
430.736	530.06
430.958	528.06
431.18	509.06
431.402	507.06
431.624	489.06
431.846	486.06
432.068	473.06
432.29	500.06
432.512	493.06
432.734	513.06
432.956	507.06
433.178	500.06
433.4	520.06
433.622	522.06
433.844	503.06
434.066	497.06
434.287	507.06
434.509	501.06
434.731	525.06
434.953	517.06
435.175	552.06
435.397	565.06
435.618	574.06
435.84	609.06
436.062	689.06
436.284	780.06
436.505	636.06
436.727	579.06
436.949	533.06
437.17	530.06
437.392	522.06
437.614	536.06
437.835	563.06
438.057	634.06
438.278	740.06
438.5	737.06
438.721	805.06
438.943	771.06
439.165	612.06
439.386	561.06
439.608	564.06
439.829	531.06
440.05	559.06
440.272	630.06
440.493	565.06
440.715	545.06
440.936	530.06
441.158	521.06
441.379	565.06
441.6	563.06
441.822	575.06
442.043	599.06
442.264	672.06
442.486	732.06
442.707	595.06
442.928	571.06
443.149	580.06
443.371	615.06
443.592	628.06
443.813	770.06
444.034	810.06
444.255	681.06
444.476	631.06
444.698	613.06
444.919	590.06
445.14	738.06
445.361	642.06
445.582	621.06
445.803	680.06
446.024	761.06
446.245	797.06
446.466	691.06
446.687	595.06
446.908	568.06
447.129	538.06
447.35	513.06
447.571	511.06
447.792	503.06
448.013	518.06
448.234	520.06
448.455	581.06
448.675	693.06
448.896	795.06
449.117	652.06
449.338	619.06
449.559	761.06
449.779	851.06
450	682.06
450.221	571.06
450.442	519.06
450.662	492.06
450.883	476.06
451.104	527.06
451.324	494.06
451.545	477.06
451.766	485.06
451.986	486.06
452.207	461.06
452.428	448.06
452.648	462.06
452.869	457.06
453.089	483.06
453.31	478.06
453.53	478.06
453.751	466.06
453.971	461.06
454.192	483.06
454.412	469.06
454.633	459.06
454.853	443.06
455.073	463.06
455.294	482.06
455.514	517.06
455.734	543.06
455.955	453.06
456.175	446.06
456.395	451.06
456.616	442.06
456.836	443.06
457.056	443.06
457.276	441.06
457.497	452.06
457.717	450.06
457.937	447.06
458.157	440.06
458.377	456.06
458.598	470.06
458.818	511.06
459.038	561.06
459.258	597.06
459.478	557.06
459.698	514.06
459.918	506.06
460.138	517.06
460.358	521.06
460.578	525.06
460.798	519.06
461.018	551.06
461.238	544.06
461.458	526.06
461.678	513.06
461.898	527.06
462.118	522.06
462.338	526.06
462.558	562.06
462.777	557.06
462.997	574.06
463.217	589.06
463.437	602.06
463.657	600.06
463.876	589.06
464.096	581.06
464.316	545.06
464.536	559.06
464.755	564.06
464.975	571.06
465.195	567.06
465.414	568.06
465.634	571.06
465.854	524.06
466.073	504.06
466.293	490.06
466.512	480.06
466.732	480.06
466.951	513.06
467.171	486.06
467.391	488.06
467.61	472.06
467.829	483.06
468.049	493.06
468.268	472.06
468.488	466.06
468.707	466.06
468.927	484.06
469.146	465.06
469.365	478.06
469.585	469.06
469.804	480.06
470.023	504.06
470.243	488.06
470.462	491.06
470.681	485.06
470.901	518.06
471.12	505.06
471.339	488.06
471.558	487.06
471.777	515.06
471.997	503.06
472.216	500.06
472.435	511.06
472.654	500.06
472.873	485.06
473.092	501.06
473.311	476.06
473.53	475.06
473.749	503.06
473.968	513.06
474.187	625.06
474.406	626.06
474.625	538.06
474.844	473.06
475.063	479.06
475.282	494.06
475.501	485.06
475.72	518.06
475.939	499.06
476.158	499.06
476.377	494.06
476.596	515.06
476.814	513.06
477.033	532.06
477.252	537.06
477.471	518.06
477.69	523.06
477.908	532.06
478.127	547.06
478.346	540.06
478.564	538.06
478.783	554.06
479.002	584.06
479.22	570.06
479.439	575.06
479.658	587.06
479.876	585.06
480.095	595.06
480.313	605.06
480.532	609.06
480.751	610.06
480.969	599.06
481.188	614.06
481.406	663.06
481.624	613.06
481.843	579.06
482.061	566.06
482.28	572.06
482.498	566.06
482.717	570.06
482.935	568.06
483.153	575.06
483.372	565.06
483.59	570.06
483.808	572.06
484.027	565.06
484.245	587.06
484.463	595.06
484.681	586.06
484.9	581.06
485.118	581.06
485.336	601.06
485.554	596.06
485.772	598.06
485.99	596.06
486.209	588.06
486.427	605.06
486.645	624.06
486.863	615.06
487.081	600.06
487.299	618.06
487.517	618.06
487.735	628.06
487.953	630.06
488.171	614.06
488.389	598.06
488.607	613.06
488.825	617.06
489.043	633.06
489.261	609.06
489.479	612.06
489.696	615.06
489.914	620.06
490.132	630.06
490.35	652.06
490.568	652.06
490.786	661.06
491.003	675.06
491.221	675.06
491.439	686.06
491.657	699.06
491.874	726.06
492.092	694.06
492.31	695.06
492.527	701.06
492.745	703.06
492.963	722.06
493.18	716.06
493.398	714.06
493.615	729.06
493.833	712.06
494.05	753.06
494.268	715.06
494.485	709.06
494.703	711.06
494.92	683.06
495.138	731.06
495.355	696.06
495.573	716.06
495.79	699.06
496.008	713.06
496.225	726.06
496.442	742.06
496.66	746.06
496.877	723.06
497.094	714.06
497.312	743.06
497.529	738.06
497.746	731.06
497.963	758.06
498.181	797.06
498.398	782.06
498.615	831.06
498.832	855.06
499.049	872.06
499.267	901.06
499.484	965.06
499.701	960.06
499.918	1038.06
500.135	1103.06
500.352	1167.06
500.569	1204.06
500.786	1181.06
501.003	1141.06
501.22	1110.06
501.437	1060.06
501.654	1000.06
501.871	966.06
502.088	956.06
502.305	894.06
502.522	844.06
502.739	835.06
502.956	795.06
503.172	783.06
503.389	776.06
503.606	747.06
503.823	775.06
504.04	746.06
504.256	737.06
504.473	726.06
504.69	751.06
504.907	738.06
505.123	707.06
505.34	710.06
505.557	704.06
505.773	699.06
505.99	694.06
506.207	687.06
506.423	685.06
506.64	667.06
506.856	655.06
507.073	649.06
507.289	644.06
507.506	660.06
507.722	670.06
507.939	680.06
508.155	654.06
508.372	650.06
508.588	637.06
508.805	641.06
509.021	633.06
509.238	636.06
509.454	670.06
509.67	652.06
509.887	617.06
510.103	625.06
510.319	604.06
510.536	669.06
510.752	904.06
510.968	803.06
511.184	634.06
511.401	620.06
511.617	620.06
511.833	611.06
512.049	619.06
512.265	594.06
512.481	592.06
512.698	607.06
512.914	598.06
513.13	590.06
513.346	583.06
513.562	580.06
513.778	582.06
513.994	596.06
514.21	611.06
514.426	617.06
514.642	642.06
514.858	643.06
515.074	653.06
515.29	731.06
515.506	917.06
515.721	822.06
515.937	652.06
516.153	629.06
516.369	631.06
516.585	615.06
516.801	629.06
517.016	661.06
517.232	664.06
517.448	655.06
517.664	680.06
517.879	666.06
518.095	649.06
518.311	637.06
518.527	602.06
518.742	613.06
518.958	616.06
519.173	628.06
519.389	633.06
519.605	608.06
519.82	602.06
520.036	621.06
520.251	606.06
520.467	625.06
520.682	618.06
520.898	637.06
521.113	631.06
521.329	629.06
521.544	675.06
521.76	771.06
521.975	1115.06
522.19	1092.06
522.406	714.06
522.621	625.06
522.836	584.06
523.052	551.06
523.267	537.06
523.482	545.06
523.698	534.06
523.913	559.06
524.128	545.06
524.343	543.06
524.559	525.06
524.774	513.06
524.989	533.06
525.204	535.06
525.419	521.06
525.634	515.06
525.849	517.06
526.064	482.06
526.28	496.06
526.495	492.06
526.71	486.06
526.925	499.06
527.14	501.06
527.355	486.06
527.57	490.06
527.785	511.06
527.999	487.06
528.214	507.06
528.429	505.06
528.644	498.06
528.859	491.06
529.074	503.06
529.289	490.06
529.503	559.06
529.718	541.06
529.933	543.06
530.148	521.06
530.363	500.06
530.577	496.06
530.792	484.06
531.007	515.06
531.221	493.06
531.436	481.06
531.651	488.06
531.865	500.06
532.08	478.06
532.295	480.06
532.509	509.06
532.724	487.06
532.938	497.06
533.153	489.06
533.367	469.06
533.582	489.06
533.796	472.06
534.011	468.06
534.225	468.06
534.44	477.06
534.654	471.06
534.868	497.06
535.083	485.06
535.297	476.06
535.511	477.06
535.726	471.06
535.94	465.06
536.154	491.06
536.369	484.06
536.583	451.06
536.797	486.06
537.011	469.06
537.225	451.06
537.44	474.06
537.654	463.06
537.868	460.06
538.082	460.06
538.296	483.06
538.51	467.06
538.724	472.06
538.938	451.06
539.153	489.06
539.367	464.06
539.581	453.06
539.795	458.06
540.009	438.06
540.222	468.06
540.436	476.06
540.65	476.06
540.864	463.06
541.078	471.06
541.292	499.06
541.506	459.06
541.72	467.06
541.934	454.06
542.147	474.06
542.361	477.06
542.575	475.06
542.789	466.06
543.002	450.06
543.216	446.06
543.43	467.06
543.644	486.06
543.857	475.06
544.071	468.06
544.285	476.06
544.498	455.06
544.712	477.06
544.925	453.06
545.139	448.06
545.352	455.06
545.566	455.06
545.779	448.06
545.993	468.06
546.206	466.06
546.42	447.06
546.633	473.06
546.847	460.06
547.06	463.06
547.274	477.06
547.487	460.06
547.7	449.06
547.914	450.06
548.127	459.06
548.34	459.06
548.554	461.06
548.767	456.06
548.98	463.06
549.193	476.06
549.407	445.06
549.62	464.06
549.833	445.06
550.046	449.06
550.259	429.06
550.473	463.06
550.686	448.06
550.899	435.06
551.112	446.06
551.325	467.06
551.538	437.06
551.751	432.06
551.964	438.06
552.177	456.06
552.39	468.06
552.603	462.06
552.816	459.06
553.029	469.06
553.242	488.06
553.455	463.06
553.667	473.06
553.88	479.06
554.093	466.06
554.306	457.06
554.519	478.06
554.732	454.06
554.944	447.06
555.157	452.06
555.37	436.06
555.583	437.06
555.795	430.06
556.008	443.06
556.221	447.06
556.433	427.06
556.646	433.06
556.859	425.06
557.071	418.06
557.284	432.06
557.496	416.06
557.709	433.06
557.921	404.06
558.134	414.06
558.346	405.06
558.559	400.06
558.771	411.06
558.984	382.06
559.196	404.06
559.409	398.06
559.621	391.06
559.833	408.06
560.046	401.06
560.258	404.06
560.47	413.06
560.683	412.06
560.895	404.06
561.107	400.06
561.32	394.06
561.532	417.06
561.744	399.06
561.956	411.06
562.168	398.06
562.381	421.06
562.593	410.06
562.805	407.06
563.017	418.06
563.229	404.06
563.441	404.06
563.653	412.06
563.865	412.06
564.077	400.06
564.289	418.06
564.501	414.06
564.713	449.06
564.925	433.06
565.137	446.06
565.349	446.06
565.561	471.06
565.773	454.06
565.985	455.06
566.197	483.06
566.408	489.06
566.62	503.06
566.832	550.06
567.044	548.06
567.255	540.06
567.467	573.06
567.679	557.06
567.891	607.06
568.102	571.06
568.314	569.06
568.526	531.06
568.737	494.06
568.949	455.06
569.161	473.06
569.372	440.06
569.584	449.06
569.795	445.06
570.007	421.06
570.218	433.06
570.43	440.06
570.641	398.06
570.853	389.06
571.064	401.06
571.276	383.06
571.487	411.06
571.698	397.06
571.91	398.06
572.121	391.06
572.333	379.06
572.544	381.06
572.755	357.06
572.966	367.06
573.178	373.06
573.389	363.06
573.6	366.06
573.811	353.06
574.023	370.06
574.234	349.06
574.445	364.06
574.656	355.06
574.867	366.06
575.078	358.06
575.289	369.06
575.501	352.06
575.712	343.06
575.923	347.06
576.134	359.06
576.345	325.06
576.556	351.06
576.767	334.06
576.978	363.06
577.188	345.06
577.399	329.06
577.61	331.06
577.821	355.06
578.032	339.06
578.243	353.06
578.454	461.06
578.665	392.06
578.875	325.06
579.086	307.06
579.297	335.06
579.508	321.06
579.718	318.06
579.929	328.06
580.14	331.06
580.35	315.06
580.561	327.06
580.772	326.06
580.982	315.06
581.193	327.06
581.403	327.06
581.614	334.06
581.825	334.06
582.035	317.06
582.246	321.06
582.456	322.06
582.667	338.06
582.877	332.06
583.087	326.06
583.298	313.06
583.508	323.06
583.719	330.06
583.929	329.06
584.139	330.06
584.35	321.06
584.56	322.06
584.77	302.06
584.981	306.06
585.191	315.06
585.401	327.06
585.611	290.06
585.821	308.06
586.032	313.06
586.242	302.06
586.452	307.06
586.662	289.06
586.872	322.06
587.082	301.06
587.292	299.06
587.502	312.06
587.713	318.06
587.923	318.06
588.133	324.06
588.343	329.06
588.553	298.06
588.762	314.06
588.972	295.06
589.182	314.06
589.392	307.06
589.602	305.06
589.812	315.06
590.022	309.06
590.232	309.06
590.441	309.06
590.651	310.06
590.861	318.06
591.071	315.06
591.281	321.06
591.49	334.06
591.7	314.06
591.91	327.06
592.119	310.06
592.329	340.06
592.539	337.06
592.748	335.06
592.958	329.06
593.167	341.06
593.377	346.06
593.587	346.06
593.796	348.06
594.006	346.06
594.215	358.06
594.424	339.06
594.634	350.06
594.843	352.06
595.053	332.06
595.262	302.06
595.472	317.06
595.681	311.06
595.89	319.06
596.1	304.06
596.309	323.06
596.518	310.06
596.727	306.06
596.937	297.06
597.146	302.06
597.355	310.06
597.564	294.06
597.774	300.06
597.983	282.06
598.192	279.06
598.401	284.06
598.61	282.06
598.819	274.06
599.028	297.06
599.237	278.06
599.446	278.06
599.655	287.06
599.864	290.06
600.073	275.06
600.282	279.06
600.491	272.06
600.7	285.06
600.909	266.06
601.118	270.06
601.327	280.06
601.536	276.06
601.745	272.06
601.953	265.06
602.162	269.06
602.371	270.06
602.58	258.06
602.789	270.06
602.997	262.06
603.206	272.06
603.415	283.06
603.623	267.06
603.832	262.06
604.041	250.06
604.249	255.06
604.458	262.06
604.666	254.06
604.875	262.06
605.084	269.06
605.292	245.06
605.501	246.06
605.709	261.06
605.918	266.06
606.126	263.06
606.334	270.06
606.543	249.06
606.751	254.06
606.96	262.06
607.168	262.06
607.376	274.06
607.585	251.06
607.793	261.06
608.001	266.06
608.21	248.06
608.418	246.06
608.626	260.06
608.834	265.06
609.043	266.06
609.251	260.06
609.459	259.06
609.667	243.06
609.875	261.06
610.083	261.06
610.291	258.06
610.499	281.06
610.707	263.06
610.916	272.06
611.124	252.06
611.332	262.06
611.54	269.06
611.748	275.06
611.955	267.06
612.163	257.06
612.371	269.06
612.579	234.06
612.787	250.06
612.995	253.06
613.203	259.06
613.411	235.06
613.618	239.06
613.826	249.06
614.034	261.06
614.242	264.06
614.449	237.06
614.657	262.06
614.865	241.06
615.072	251.06
615.28	243.06
615.488	254.06
615.695	254.06
615.903	242.06
616.111	236.06
616.318	253.06
616.526	254.06
616.733	257.06
616.941	249.06
617.148	250.06
617.356	258.06
617.563	259.06
617.771	233.06
617.978	242.06
618.185	261.06
618.393	263.06
618.6	260.06
618.807	252.06
619.015	241.06
619.222	241.06
619.429	242.06
619.637	242.06
619.844	245.06
620.051	235.06
620.258	263.06
620.466	226.06
620.673	228.06
620.88	212.06
621.087	220.06
621.294	245.06
621.501	248.06
621.708	225.06
621.915	229.06
622.122	246.06
622.329	243.06
622.536	248.06
622.743	220.06
622.95	220.06
623.157	230.06
623.364	238.06
623.571	236.06
623.778	230.06
623.985	227.06
624.192	234.06
624.399	217.06
624.606	235.06
624.812	223.06
625.019	210.06
625.226	210.06
625.433	214.06
625.639	202.06
625.846	234.06
626.053	218.06
626.259	219.06
626.466	225.06
626.673	225.06
626.879	211.06
627.086	207.06
627.293	203.06
627.499	236.06
627.706	216.06
627.912	222.06
628.119	225.06
628.325	220.06
628.532	212.06
628.738	218.06
628.945	197.06
629.151	213.06
629.357	217.06
629.564	212.06
629.77	208.06
629.976	206.06
630.183	203.06
630.389	219.06
630.595	202.06
630.802	195.06
631.008	187.06
631.214	170.06
631.42	217.06
631.627	230.06
631.833	213.06
632.039	181.06
632.245	196.06
632.451	193.06
632.657	202.06
632.863	200.06
633.069	194.06
633.275	187.06
633.481	210.06
633.688	195.06
633.893	190.06
634.099	190.06
634.305	193.06
634.511	186.06
634.717	179.06
634.923	187.06
635.129	181.06
635.335	187.06
635.541	199.06
635.747	189.06
635.952	189.06
636.158	186.06
636.364	175.06
636.57	197.06
636.775	216.06
636.981	198.06
637.187	199.06
637.392	198.06
637.598	181.06
637.804	175.06
638.009	167.06
638.215	191.06
638.421	195.06
638.626	184.06
638.832	186.06
639.037	168.06
639.243	183.06
639.448	159.06
639.654	185.06
639.859	178.06
640.065	187.06
640.27	186.06
640.475	188.06
640.681	173.06
640.886	184.06
641.091	174.06
641.297	186.06
641.502	177.06
641.707	178.06
641.913	187.06
642.118	181.06
642.323	186.06
642.528	183.06
642.733	189.06
642.939	172.06
643.144	168.06
643.349	180.06
643.554	163.06
643.759	189.06
643.964	174.06
644.169	174.06
644.374	187.06
644.579	173.06
644.784	172.06
644.989	172.06
645.194	173.06
645.399	173.06
645.604	174.06
645.809	171.06
646.014	165.06
646.219	174.06
646.423	165.06
646.628	166.06
646.833	174.06
647.038	170.06
647.243	170.06
647.447	185.06
647.652	184.06
647.857	185.06
648.062	179.06
648.266	189.06
648.471	184.06
648.676	189.06
648.88	187.06
649.085	175.06
649.289	176.06
649.494	184.06
649.698	194.06
649.903	185.06
650.107	188.06
650.312	183.06
650.516	172.06
650.721	167.06
650.925	163.06
651.13	166.06
651.334	165.06
651.539	167.06
651.743	162.06
651.947	155.06
652.152	155.06
652.356	154.06
652.56	147.06
652.764	159.06
652.969	147.06
653.173	143.06
653.377	143.06
653.581	158.06
653.785	156.06
653.99	156.06
654.194	133.06
654.398	133.06
654.602	148.06
654.806	157.06
655.01	154.06
655.214	163.06
655.418	156.06
655.622	156.06
655.826	155.06
656.03	159.06
656.234	145.06
656.438	164.06
656.642	161.06
656.846	142.06
657.049	149.06
657.253	155.06
657.457	133.06
657.661	127.06
657.865	142.06
658.068	110.06
658.272	115.06
658.476	107.06
658.68	124.06
658.883	122.06
659.087	113.06
659.291	108.06
659.494	113.06
659.698	97.06
659.901	105.06
660.105	96.06
660.309	105.06
660.512	102.06
660.716	90.06
660.919	85.06
661.123	87.06
661.326	83.06
661.53	110.06
661.733	85.06
661.936	88.06
662.14	78.06
662.343	74.06
662.546	88.06
662.75	92.06
662.953	92.06
663.156	70.06
663.36	78.06
663.563	83.06
663.766	85.06
663.969	70.06
664.173	76.06
664.376	73.06
664.579	85.06
664.782	89.06
664.985	77.06
665.188	84.06
665.391	83.06
665.594	90.06
665.797	80.06
666	75.06
666.203	84.06
666.406	83.06
666.609	85.06
666.812	88.06
667.015	86.06
667.218	90.06
667.421	67.06
667.624	72.06
667.827	82.06
668.03	74.06
668.232	80.06
668.435	89.06
668.638	82.06
668.841	81.06
669.043	92.06
669.246	82.06
669.449	77.06
669.651	74.06
669.854	69.06
670.057	75.06
670.259	74.06
670.462	86.06
670.665	78.06
670.867	86.06
671.07	75.06
671.272	86.06
671.475	94.06
671.677	99.06
671.88	77.06
672.082	84.06
672.284	83.06
672.487	76.06
672.689	102.06
672.892	84.06
