Data from 1975.PennyLincolnUp.Lamp.En5.5.200Scan.071719.P1.Changed Mount._HRD10591_15-56-50-859.txt Node
Date: Thu Jul 18 15:56:50 EDT 2019
User: cochatt
Spectrometer: HR+D1059
Trigger mode: 1
Integration Time (sec): 1.000000E-1
Scans to average: 1
Electric dark correction enabled: true
Nonlinearity correction enabled: false
Boxcar width: 0
XAxis mode: Wavelengths
Number of Pixels in Spectrum: 2048
>>>>>Begin Spectral Data<<<<<
223.165	-6.19
223.4	-6.19
223.635	-6.19
223.869	-24.19
224.104	-9.19
224.338	-25.19
224.573	-13.19
224.808	-11.19
225.042	-3.19
225.277	-11.19
225.511	11.81
225.746	2.81
225.98	0.81
226.215	11.81
226.449	20.81
226.683	21.81
226.918	20.81
227.152	12.81
227.387	50.81
227.621	33.81
227.856	50.81
228.09	50.81
228.324	45.81
228.559	72.81
228.793	72.81
229.027	97.81
229.262	91.81
229.496	108.81
229.73	134.81
229.964	162.81
230.199	130.81
230.433	110.81
230.667	130.81
230.901	122.81
231.136	95.81
231.37	118.81
231.604	135.81
231.838	112.81
232.072	122.81
232.306	107.81
232.541	104.81
232.775	112.81
233.009	123.81
233.243	124.81
233.477	118.81
233.711	114.81
233.945	125.81
234.179	123.81
234.413	115.81
234.647	110.81
234.881	127.81
235.115	127.81
235.349	135.81
235.583	137.81
235.817	122.81
236.051	129.81
236.285	142.81
236.519	128.81
236.753	126.81
236.987	149.81
237.221	175.81
237.455	227.81
237.689	185.81
237.922	147.81
238.156	119.81
238.39	133.81
238.624	127.81
238.858	126.81
239.091	114.81
239.325	126.81
239.559	126.81
239.793	122.81
240.027	138.81
240.26	138.81
240.494	152.81
240.728	157.81
240.961	148.81
241.195	132.81
241.429	162.81
241.662	148.81
241.896	143.81
242.13	152.81
242.363	134.81
242.597	147.81
242.83	145.81
243.064	151.81
243.298	128.81
243.531	151.81
243.765	154.81
243.998	148.81
244.232	148.81
244.465	140.81
244.699	154.81
244.932	155.81
245.166	144.81
245.399	141.81
245.633	147.81
245.866	138.81
246.099	155.81
246.333	162.81
246.566	165.81
246.8	152.81
247.033	146.81
247.266	155.81
247.5	179.81
247.733	172.81
247.966	173.81
248.2	184.81
248.433	178.81
248.666	186.81
248.899	175.81
249.133	188.81
249.366	216.81
249.599	191.81
249.832	182.81
250.066	188.81
250.299	178.81
250.532	199.81
250.765	227.81
250.998	225.81
251.231	244.81
251.465	214.81
251.698	204.81
251.931	197.81
252.164	201.81
252.397	213.81
252.63	223.81
252.863	213.81
253.096	220.81
253.329	247.81
253.562	243.81
253.795	225.81
254.028	211.81
254.261	222.81
254.494	213.81
254.727	266.81
254.96	269.81
255.193	270.81
255.426	243.81
255.659	226.81
255.892	230.81
256.124	264.81
256.357	224.81
256.59	224.81
256.823	222.81
257.056	219.81
257.289	224.81
257.521	206.81
257.754	217.81
257.987	222.81
258.22	231.81
258.452	226.81
258.685	207.81
258.918	227.81
259.151	215.81
259.383	224.81
259.616	238.81
259.849	231.81
260.081	240.81
260.314	271.81
260.547	265.81
260.779	246.81
261.012	237.81
261.244	244.81
261.477	250.81
261.71	238.81
261.942	239.81
262.175	243.81
262.407	218.81
262.64	224.81
262.872	222.81
263.105	205.81
263.337	217.81
263.57	209.81
263.802	224.81
264.035	201.81
264.267	235.81
264.499	218.81
264.732	202.81
264.964	224.81
265.197	228.81
265.429	220.81
265.661	226.81
265.894	208.81
266.126	228.81
266.358	216.81
266.591	226.81
266.823	226.81
267.055	216.81
267.287	227.81
267.52	222.81
267.752	236.81
267.984	244.81
268.216	242.81
268.448	244.81
268.681	237.81
268.913	247.81
269.145	263.81
269.377	276.81
269.609	295.81
269.841	286.81
270.073	263.81
270.306	292.81
270.538	326.81
270.77	333.81
271.002	295.81
271.234	315.81
271.466	300.81
271.698	334.81
271.93	320.81
272.162	325.81
272.394	326.81
272.626	315.81
272.858	293.81
273.09	277.81
273.322	288.81
273.553	254.81
273.785	260.81
274.017	278.81
274.249	293.81
274.481	252.81
274.713	277.81
274.945	296.81
275.176	286.81
275.408	275.81
275.64	292.81
275.872	270.81
276.104	264.81
276.335	262.81
276.567	278.81
276.799	278.81
277.031	304.81
277.262	331.81
277.494	324.81
277.726	308.81
277.957	288.81
278.189	296.81
278.421	298.81
278.652	278.81
278.884	295.81
279.115	271.81
279.347	276.81
279.579	272.81
279.81	272.81
280.042	279.81
280.273	293.81
280.505	272.81
280.736	281.81
280.968	284.81
281.199	293.81
281.431	296.81
281.662	275.81
281.894	285.81
282.125	297.81
282.356	308.81
282.588	315.81
282.819	317.81
283.051	278.81
283.282	288.81
283.513	289.81
283.745	294.81
283.976	285.81
284.207	300.81
284.439	279.81
284.67	281.81
284.901	276.81
285.132	302.81
285.364	294.81
285.595	300.81
285.826	304.81
286.057	283.81
286.288	314.81
286.52	295.81
286.751	290.81
286.982	300.81
287.213	310.81
287.444	298.81
287.675	306.81
287.906	320.81
288.138	319.81
288.369	343.81
288.6	315.81
288.831	310.81
289.062	318.81
289.293	327.81
289.524	301.81
289.755	301.81
289.986	309.81
290.217	313.81
290.448	308.81
290.679	319.81
290.91	322.81
291.141	305.81
291.371	313.81
291.602	306.81
291.833	304.81
292.064	308.81
292.295	312.81
292.526	299.81
292.757	296.81
292.987	304.81
293.218	318.81
293.449	319.81
293.68	299.81
293.91	297.81
294.141	317.81
294.372	298.81
294.603	310.81
294.833	312.81
295.064	309.81
295.295	304.81
295.525	295.81
295.756	316.81
295.987	319.81
296.217	322.81
296.448	331.81
296.679	326.81
296.909	314.81
297.14	309.81
297.37	314.81
297.601	309.81
297.831	306.81
298.062	320.81
298.292	296.81
298.523	325.81
298.753	315.81
298.984	311.81
299.214	345.81
299.445	319.81
299.675	311.81
299.905	351.81
300.136	345.81
300.366	318.81
300.597	347.81
300.827	341.81
301.057	326.81
301.288	344.81
301.518	333.81
301.748	320.81
301.979	347.81
302.209	336.81
302.439	330.81
302.669	343.81
302.9	340.81
303.13	357.81
303.36	351.81
303.59	348.81
303.82	364.81
304.051	355.81
304.281	353.81
304.511	330.81
304.741	332.81
304.971	335.81
305.201	345.81
305.431	347.81
305.661	324.81
305.891	342.81
306.121	359.81
306.352	344.81
306.582	356.81
306.812	342.81
307.042	335.81
307.272	340.81
307.502	370.81
307.731	334.81
307.961	340.81
308.191	356.81
308.421	368.81
308.651	377.81
308.881	336.81
309.111	354.81
309.341	336.81
309.571	346.81
309.8	372.81
310.03	365.81
310.26	388.81
310.49	376.81
310.72	384.81
310.949	398.81
311.179	390.81
311.409	394.81
311.639	383.81
311.868	401.81
312.098	400.81
312.328	409.81
312.557	399.81
312.787	399.81
313.017	408.81
313.246	392.81
313.476	385.81
313.706	398.81
313.935	390.81
314.165	390.81
314.394	413.81
314.624	389.81
314.853	403.81
315.083	392.81
315.312	392.81
315.542	386.81
315.771	390.81
316.001	390.81
316.23	397.81
316.46	394.81
316.689	397.81
316.919	392.81
317.148	410.81
317.377	373.81
317.607	423.81
317.836	412.81
318.065	388.81
318.295	390.81
318.524	398.81
318.753	390.81
318.983	390.81
319.212	403.81
319.441	401.81
319.67	382.81
319.9	395.81
320.129	391.81
320.358	394.81
320.587	388.81
320.816	381.81
321.046	408.81
321.275	410.81
321.504	405.81
321.733	403.81
321.962	418.81
322.191	430.81
322.42	450.81
322.649	442.81
322.878	470.81
323.108	452.81
323.337	434.81
323.566	486.81
323.795	504.81
324.024	529.81
324.253	624.81
324.482	847.81
324.71	1392.81
324.939	1987.81
325.168	1758.81
325.397	892.81
325.626	602.81
325.855	502.81
326.084	475.81
326.313	477.81
326.542	493.81
326.77	532.81
326.999	611.81
327.228	807.81
327.457	1208.81
327.686	1536.81
327.914	1002.81
328.143	660.81
328.372	595.81
328.6	566.81
328.829	538.81
329.058	564.81
329.287	562.81
329.515	539.81
329.744	517.81
329.972	528.81
330.201	512.81
330.43	586.81
330.658	584.81
330.887	596.81
331.115	570.81
331.344	510.81
331.572	487.81
331.801	504.81
332.03	502.81
332.258	487.81
332.486	492.81
332.715	476.81
332.943	482.81
333.172	490.81
333.4	487.81
333.629	509.81
333.857	504.81
334.085	505.81
334.314	542.81
334.542	565.81
334.771	591.81
334.999	527.81
335.227	505.81
335.455	495.81
335.684	482.81
335.912	478.81
336.14	494.81
336.369	461.81
336.597	491.81
336.825	487.81
337.053	476.81
337.281	453.81
337.51	444.81
337.738	446.81
337.966	450.81
338.194	470.81
338.422	460.81
338.65	448.81
338.878	451.81
339.106	465.81
339.334	445.81
339.562	464.81
339.79	444.81
340.018	463.81
340.246	452.81
340.474	464.81
340.702	442.81
340.93	452.81
341.158	427.81
341.386	459.81
341.614	437.81
341.842	460.81
342.07	451.81
342.298	436.81
342.526	430.81
342.754	438.81
342.981	438.81
343.209	439.81
343.437	453.81
343.665	450.81
343.893	458.81
344.12	467.81
344.348	490.81
344.576	479.81
344.804	464.81
345.031	465.81
345.259	459.81
345.487	437.81
345.714	440.81
345.942	434.81
346.17	446.81
346.397	432.81
346.625	452.81
346.853	412.81
347.08	420.81
347.308	435.81
347.535	433.81
347.763	444.81
347.99	458.81
348.218	427.81
348.445	448.81
348.673	458.81
348.9	453.81
349.128	408.81
349.355	426.81
349.583	424.81
349.81	418.81
350.037	440.81
350.265	425.81
350.492	416.81
350.72	430.81
350.947	421.81
351.174	429.81
351.402	419.81
351.629	431.81
351.856	426.81
352.083	447.81
352.311	429.81
352.538	440.81
352.765	438.81
352.992	439.81
353.22	434.81
353.447	420.81
353.674	412.81
353.901	424.81
354.128	434.81
354.355	390.81
354.583	432.81
354.81	397.81
355.037	406.81
355.264	420.81
355.491	421.81
355.718	412.81
355.945	398.81
356.172	411.81
356.399	411.81
356.626	425.81
356.853	406.81
357.08	408.81
357.307	398.81
357.534	390.81
357.761	410.81
357.988	406.81
358.215	412.81
358.441	398.81
358.668	427.81
358.895	421.81
359.122	404.81
359.349	414.81
359.576	426.81
359.802	443.81
360.029	479.81
360.256	462.81
360.483	464.81
360.709	450.81
360.936	438.81
361.163	444.81
361.39	442.81
361.616	446.81
361.843	448.81
362.07	419.81
362.296	438.81
362.523	422.81
362.749	434.81
362.976	438.81
363.203	409.81
363.429	418.81
363.656	433.81
363.882	423.81
364.109	402.81
364.335	430.81
364.562	420.81
364.788	405.81
365.015	422.81
365.241	428.81
365.468	417.81
365.694	426.81
365.92	416.81
366.147	420.81
366.373	422.81
366.599	405.81
366.826	418.81
367.052	409.81
367.278	422.81
367.505	413.81
367.731	438.81
367.957	437.81
368.184	426.81
368.41	415.81
368.636	427.81
368.862	441.81
369.089	408.81
369.315	412.81
369.541	431.81
369.767	408.81
369.993	425.81
370.219	407.81
370.445	412.81
370.672	438.81
370.898	431.81
371.124	427.81
371.35	418.81
371.576	431.81
371.802	394.81
372.028	409.81
372.254	424.81
372.48	420.81
372.706	416.81
372.932	418.81
373.158	436.81
373.384	428.81
373.61	418.81
373.835	421.81
374.061	434.81
374.287	428.81
374.513	434.81
374.739	444.81
374.965	436.81
375.191	425.81
375.416	434.81
375.642	439.81
375.868	426.81
376.094	434.81
376.319	422.81
376.545	426.81
376.771	437.81
376.997	424.81
377.222	411.81
377.448	412.81
377.674	438.81
377.899	412.81
378.125	434.81
378.35	414.81
378.576	397.81
378.802	409.81
379.027	428.81
379.253	446.81
379.478	418.81
379.704	437.81
379.929	423.81
380.155	412.81
380.38	412.81
380.606	434.81
380.831	426.81
381.057	423.81
381.282	439.81
381.507	429.81
381.733	435.81
381.958	424.81
382.184	432.81
382.409	453.81
382.634	445.81
382.86	432.81
383.085	438.81
383.31	446.81
383.535	451.81
383.761	450.81
383.986	446.81
384.211	429.81
384.436	438.81
384.662	447.81
384.887	478.81
385.112	462.81
385.337	478.81
385.562	487.81
385.787	477.81
386.013	462.81
386.238	494.81
386.463	477.81
386.688	477.81
386.913	491.81
387.138	464.81
387.363	473.81
387.588	491.81
387.813	489.81
388.038	482.81
388.263	489.81
388.488	486.81
388.713	476.81
388.938	461.81
389.163	480.81
389.387	487.81
389.612	492.81
389.837	479.81
390.062	457.81
390.287	470.81
390.512	453.81
390.736	455.81
390.961	500.81
391.186	486.81
391.411	495.81
391.636	486.81
391.86	498.81
392.085	496.81
392.31	500.81
392.534	485.81
392.759	495.81
392.984	491.81
393.208	499.81
393.433	485.81
393.658	501.81
393.882	483.81
394.107	483.81
394.331	477.81
394.556	480.81
394.78	477.81
395.005	483.81
395.229	496.81
395.454	511.81
395.678	500.81
395.903	504.81
396.127	523.81
396.352	546.81
396.576	506.81
396.801	488.81
397.025	500.81
397.249	516.81
397.474	537.81
397.698	499.81
397.922	517.81
398.147	526.81
398.371	544.81
398.595	541.81
398.82	521.81
399.044	579.81
399.268	604.81
399.492	628.81
399.717	675.81
399.941	699.81
400.165	741.81
400.389	707.81
400.613	638.81
400.837	596.81
401.062	586.81
401.286	567.81
401.51	555.81
401.734	558.81
401.958	570.81
402.182	557.81
402.406	562.81
402.63	570.81
402.854	590.81
403.078	586.81
403.302	590.81
403.526	588.81
403.75	591.81
403.974	580.81
404.198	581.81
404.422	586.81
404.645	586.81
404.869	600.81
405.093	625.81
405.317	680.81
405.541	698.81
405.765	642.81
405.988	621.81
406.212	611.81
406.436	637.81
406.66	634.81
406.883	638.81
407.107	659.81
407.331	697.81
407.555	774.81
407.778	786.81
408.002	707.81
408.226	678.81
408.449	628.81
408.673	630.81
408.896	658.81
409.12	698.81
409.344	656.81
409.567	623.81
409.791	580.81
410.014	578.81
410.238	585.81
410.461	586.81
410.685	567.81
410.908	582.81
411.132	653.81
411.355	664.81
411.578	605.81
411.802	586.81
412.025	574.81
412.249	581.81
412.472	634.81
412.695	634.81
412.919	643.81
413.142	588.81
413.365	577.81
413.589	558.81
413.812	572.81
414.035	584.81
414.258	541.81
414.482	531.81
414.705	550.81
414.928	534.81
415.151	549.81
415.374	536.81
415.597	546.81
415.821	567.81
416.044	538.81
416.267	554.81
416.49	565.81
416.713	542.81
416.936	539.81
417.159	547.81
417.382	563.81
417.605	554.81
417.828	549.81
418.051	591.81
418.274	586.81
418.497	554.81
418.72	526.81
418.943	554.81
419.166	566.81
419.389	635.81
419.611	600.81
419.834	611.81
420.057	615.81
420.28	587.81
420.503	596.81
420.726	594.81
420.948	604.81
421.171	619.81
421.394	670.81
421.617	619.81
421.839	590.81
422.062	555.81
422.285	582.81
422.507	637.81
422.73	741.81
422.953	702.81
423.175	606.81
423.398	592.81
423.621	592.81
423.843	613.81
424.066	632.81
424.288	615.81
424.511	634.81
424.733	688.81
424.956	757.81
425.178	736.81
425.401	757.81
425.623	756.81
425.846	663.81
426.068	611.81
426.291	613.81
426.513	599.81
426.735	615.81
426.958	626.81
427.18	722.81
427.402	856.81
427.625	912.81
427.847	814.81
428.069	687.81
428.292	632.81
428.514	608.81
428.736	553.81
428.958	545.81
429.181	550.81
429.403	556.81
429.625	544.81
429.847	591.81
430.069	670.81
430.292	650.81
430.514	583.81
430.736	575.81
430.958	548.81
431.18	558.81
431.402	529.81
431.624	514.81
431.846	525.81
432.068	524.81
432.29	518.81
432.512	532.81
432.734	535.81
432.956	529.81
433.178	546.81
433.4	580.81
433.622	528.81
433.844	530.81
434.066	532.81
434.287	547.81
434.509	536.81
434.731	545.81
434.953	570.81
435.175	577.81
435.397	611.81
435.618	601.81
435.84	652.81
436.062	720.81
436.284	838.81
436.505	668.81
436.727	584.81
436.949	562.81
437.17	568.81
437.392	547.81
437.614	587.81
437.835	596.81
438.057	679.81
438.278	779.81
438.5	790.81
438.721	910.81
438.943	830.81
439.165	670.81
439.386	613.81
439.608	598.81
439.829	594.81
440.05	644.81
440.272	671.81
440.493	618.81
440.715	614.81
440.936	586.81
441.158	567.81
441.379	588.81
441.6	601.81
441.822	597.81
442.043	633.81
442.264	736.81
442.486	783.81
442.707	678.81
442.928	633.81
443.149	630.81
443.371	631.81
443.592	701.81
443.813	794.81
444.034	851.81
444.255	723.81
444.476	648.81
444.698	638.81
444.919	618.81
445.14	752.81
445.361	701.81
445.582	668.81
445.803	729.81
446.024	808.81
446.245	818.81
446.466	745.81
446.687	624.81
446.908	594.81
447.129	562.81
447.35	565.81
447.571	549.81
447.792	560.81
448.013	555.81
448.234	571.81
448.455	609.81
448.675	724.81
448.896	864.81
449.117	731.81
449.338	676.81
449.559	787.81
449.779	858.81
450	719.81
450.221	629.81
450.442	580.81
450.662	542.81
450.883	546.81
451.104	559.81
451.324	533.81
451.545	526.81
451.766	518.81
451.986	505.81
452.207	475.81
452.428	465.81
452.648	498.81
452.869	484.81
453.089	500.81
453.31	516.81
453.53	496.81
453.751	499.81
453.971	498.81
454.192	524.81
454.412	477.81
454.633	462.81
454.853	498.81
455.073	497.81
455.294	539.81
455.514	603.81
455.734	602.81
455.955	476.81
456.175	509.81
456.395	446.81
456.616	463.81
456.836	470.81
457.056	462.81
457.276	459.81
457.497	461.81
457.717	475.81
457.937	482.81
458.157	494.81
458.377	477.81
458.598	514.81
458.818	546.81
459.038	636.81
459.258	654.81
459.478	563.81
459.698	518.81
459.918	548.81
460.138	523.81
460.358	544.81
460.578	541.81
460.798	538.81
461.018	535.81
461.238	550.81
461.458	549.81
461.678	571.81
461.898	577.81
462.118	552.81
462.338	586.81
462.558	593.81
462.777	592.81
462.997	599.81
463.217	618.81
463.437	651.81
463.657	624.81
463.876	615.81
464.096	608.81
464.316	602.81
464.536	599.81
464.755	590.81
464.975	590.81
465.195	602.81
465.414	657.81
465.634	617.81
465.854	573.81
466.073	548.81
466.293	532.81
466.512	531.81
466.732	536.81
466.951	501.81
467.171	507.81
467.391	485.81
467.61	488.81
467.829	524.81
468.049	536.81
468.268	514.81
468.488	498.81
468.707	507.81
468.927	510.81
469.146	500.81
469.365	474.81
469.585	491.81
469.804	495.81
470.023	539.81
470.243	538.81
470.462	546.81
470.681	534.81
470.901	532.81
471.12	492.81
471.339	516.81
471.558	532.81
471.777	514.81
471.997	518.81
472.216	519.81
472.435	577.81
472.654	552.81
472.873	502.81
473.092	506.81
473.311	523.81
473.53	498.81
473.749	524.81
473.968	557.81
474.187	654.81
474.406	687.81
474.625	572.81
474.844	534.81
475.063	506.81
475.282	501.81
475.501	515.81
475.72	530.81
475.939	520.81
476.158	532.81
476.377	531.81
476.596	531.81
476.814	542.81
477.033	549.81
477.252	556.81
477.471	555.81
477.69	544.81
477.908	536.81
478.127	572.81
478.346	572.81
478.564	578.81
478.783	575.81
479.002	582.81
479.22	618.81
479.439	593.81
479.658	637.81
479.876	638.81
480.095	650.81
480.313	643.81
480.532	655.81
480.751	644.81
480.969	665.81
481.188	709.81
481.406	739.81
481.624	685.81
481.843	629.81
482.061	602.81
482.28	587.81
482.498	593.81
482.717	614.81
482.935	608.81
483.153	612.81
483.372	612.81
483.59	586.81
483.808	605.81
484.027	603.81
484.245	600.81
484.463	598.81
484.681	590.81
484.9	615.81
485.118	615.81
485.336	606.81
485.554	636.81
485.772	607.81
485.99	642.81
486.209	616.81
486.427	624.81
486.645	644.81
486.863	638.81
487.081	647.81
487.299	632.81
487.517	662.81
487.735	639.81
487.953	640.81
488.171	628.81
488.389	644.81
488.607	652.81
488.825	653.81
489.043	636.81
489.261	662.81
489.479	680.81
489.696	655.81
489.914	669.81
490.132	644.81
490.35	676.81
490.568	699.81
490.786	708.81
491.003	670.81
491.221	724.81
491.439	741.81
491.657	736.81
491.874	764.81
492.092	741.81
492.31	757.81
492.527	758.81
492.745	739.81
492.963	749.81
493.18	758.81
493.398	770.81
493.615	790.81
493.833	765.81
494.05	759.81
494.268	788.81
494.485	763.81
494.703	770.81
494.92	797.81
495.138	795.81
495.355	765.81
495.573	782.81
495.79	785.81
496.008	782.81
496.225	782.81
496.442	774.81
496.66	780.81
496.877	779.81
497.094	791.81
497.312	798.81
497.529	769.81
497.746	792.81
497.963	814.81
498.181	870.81
498.398	855.81
498.615	880.81
498.832	876.81
499.049	907.81
499.267	980.81
499.484	992.81
499.701	1027.81
499.918	1058.81
500.135	1149.81
500.352	1218.81
500.569	1205.81
500.786	1235.81
501.003	1202.81
501.22	1152.81
501.437	1094.81
501.654	1050.81
501.871	1030.81
502.088	990.81
502.305	954.81
502.522	908.81
502.739	901.81
502.956	840.81
503.172	822.81
503.389	805.81
503.606	788.81
503.823	827.81
504.04	792.81
504.256	786.81
504.473	759.81
504.69	785.81
504.907	783.81
505.123	771.81
505.34	766.81
505.557	735.81
505.773	740.81
505.99	736.81
506.207	717.81
506.423	724.81
506.64	726.81
506.856	725.81
507.073	714.81
507.289	703.81
507.506	679.81
507.722	720.81
507.939	703.81
508.155	708.81
508.372	706.81
508.588	677.81
508.805	666.81
509.021	676.81
509.238	692.81
509.454	710.81
509.67	698.81
509.887	693.81
510.103	687.81
510.319	656.81
510.536	754.81
510.752	1229.81
510.968	1024.81
511.184	674.81
511.401	666.81
511.617	646.81
511.833	640.81
512.049	642.81
512.265	636.81
512.481	642.81
512.698	640.81
512.914	651.81
513.13	639.81
513.346	627.81
513.562	645.81
513.778	642.81
513.994	639.81
514.21	691.81
514.426	666.81
514.642	698.81
514.858	736.81
515.074	749.81
515.29	876.81
515.506	1198.81
515.721	1034.81
515.937	764.81
516.153	716.81
516.369	682.81
516.585	678.81
516.801	681.81
517.016	660.81
517.232	671.81
517.448	707.81
517.664	706.81
517.879	712.81
518.095	687.81
518.311	698.81
518.527	676.81
518.742	673.81
518.958	655.81
519.173	668.81
519.389	676.81
519.605	647.81
519.82	643.81
520.036	642.81
520.251	648.81
520.467	657.81
520.682	670.81
520.898	705.81
521.113	692.81
521.329	724.81
521.544	809.81
521.76	951.81
521.975	1574.81
522.19	1552.81
522.406	868.81
522.621	700.81
522.836	640.81
523.052	620.81
523.267	578.81
523.482	605.81
523.698	574.81
523.913	585.81
524.128	586.81
524.343	551.81
524.559	562.81
524.774	552.81
524.989	549.81
525.204	548.81
525.419	563.81
525.634	559.81
525.849	544.81
526.064	553.81
526.28	537.81
526.495	532.81
526.71	541.81
526.925	533.81
527.14	539.81
527.355	530.81
527.57	525.81
527.785	522.81
527.999	519.81
528.214	523.81
528.429	547.81
528.644	541.81
528.859	536.81
529.074	553.81
529.289	534.81
529.503	615.81
529.718	609.81
529.933	576.81
530.148	533.81
530.363	526.81
530.577	502.81
530.792	529.81
531.007	535.81
531.221	525.81
531.436	506.81
531.651	528.81
531.865	524.81
532.08	524.81
532.295	500.81
532.509	535.81
532.724	503.81
532.938	511.81
533.153	510.81
533.367	523.81
533.582	509.81
533.796	524.81
534.011	502.81
534.225	504.81
534.44	500.81
534.654	512.81
534.868	502.81
535.083	495.81
535.297	486.81
535.511	513.81
535.726	511.81
535.94	508.81
536.154	507.81
536.369	494.81
536.583	474.81
536.797	490.81
537.011	494.81
537.225	482.81
537.44	509.81
537.654	495.81
537.868	494.81
538.082	505.81
538.296	490.81
538.51	485.81
538.724	483.81
538.938	488.81
539.153	472.81
539.367	479.81
539.581	490.81
539.795	465.81
540.009	504.81
540.222	483.81
540.436	489.81
540.65	491.81
540.864	484.81
541.078	512.81
541.292	527.81
541.506	489.81
541.72	489.81
541.934	493.81
542.147	499.81
542.361	463.81
542.575	481.81
542.789	487.81
543.002	493.81
543.216	496.81
543.43	502.81
543.644	488.81
543.857	491.81
544.071	490.81
544.285	499.81
544.498	480.81
544.712	504.81
544.925	482.81
545.139	503.81
545.352	483.81
545.566	470.81
545.779	472.81
545.993	482.81
546.206	473.81
546.42	488.81
546.633	468.81
546.847	470.81
547.06	475.81
547.274	482.81
547.487	471.81
547.7	475.81
547.914	461.81
548.127	469.81
548.34	468.81
548.554	477.81
548.767	474.81
548.98	479.81
549.193	468.81
549.407	483.81
549.62	492.81
549.833	512.81
550.046	471.81
550.259	462.81
550.473	476.81
550.686	485.81
550.899	484.81
551.112	458.81
551.325	455.81
551.538	476.81
551.751	471.81
551.964	503.81
552.177	482.81
552.39	478.81
552.603	476.81
552.816	474.81
553.029	475.81
553.242	489.81
553.455	506.81
553.667	506.81
553.88	500.81
554.093	490.81
554.306	485.81
554.519	482.81
554.732	476.81
554.944	447.81
555.157	474.81
555.37	454.81
555.583	438.81
555.795	464.81
556.008	443.81
556.221	419.81
556.433	442.81
556.646	455.81
556.859	451.81
557.071	436.81
557.284	422.81
557.496	410.81
557.709	422.81
557.921	427.81
558.134	426.81
558.346	428.81
558.559	429.81
558.771	426.81
558.984	424.81
559.196	423.81
559.409	407.81
559.621	410.81
559.833	407.81
560.046	416.81
560.258	431.81
560.47	427.81
560.683	422.81
560.895	404.81
561.107	422.81
561.32	400.81
561.532	426.81
561.744	425.81
561.956	401.81
562.168	436.81
562.381	414.81
562.593	431.81
562.805	422.81
563.017	412.81
563.229	425.81
563.441	455.81
563.653	426.81
563.865	428.81
564.077	449.81
564.289	419.81
564.501	425.81
564.713	452.81
564.925	452.81
565.137	471.81
565.349	470.81
565.561	458.81
565.773	468.81
565.985	474.81
566.197	490.81
566.408	528.81
566.62	532.81
566.832	556.81
567.044	566.81
567.255	568.81
567.467	554.81
567.679	582.81
567.891	576.81
568.102	576.81
568.314	579.81
568.526	538.81
568.737	490.81
568.949	481.81
569.161	475.81
569.372	458.81
569.584	472.81
569.795	446.81
570.007	428.81
570.218	469.81
570.43	460.81
570.641	453.81
570.853	432.81
571.064	404.81
571.276	428.81
571.487	416.81
571.698	415.81
571.91	397.81
572.121	397.81
572.333	417.81
572.544	415.81
572.755	393.81
572.966	379.81
573.178	388.81
573.389	379.81
573.6	374.81
573.811	372.81
574.023	369.81
574.234	379.81
574.445	365.81
574.656	372.81
574.867	376.81
575.078	386.81
575.289	372.81
575.501	368.81
575.712	354.81
575.923	364.81
576.134	360.81
576.345	369.81
576.556	366.81
576.767	349.81
576.978	366.81
577.188	350.81
577.399	339.81
577.61	332.81
577.821	333.81
578.032	367.81
578.243	388.81
578.454	564.81
578.665	428.81
578.875	372.81
579.086	338.81
579.297	337.81
579.508	339.81
579.718	335.81
579.929	339.81
580.14	349.81
580.35	331.81
580.561	336.81
580.772	309.81
580.982	321.81
581.193	320.81
581.403	332.81
581.614	318.81
581.825	322.81
582.035	328.81
582.246	328.81
582.456	328.81
582.667	322.81
582.877	326.81
583.087	326.81
583.298	317.81
583.508	310.81
583.719	328.81
583.929	327.81
584.139	336.81
584.35	323.81
584.56	328.81
584.77	325.81
584.981	300.81
585.191	326.81
585.401	311.81
585.611	332.81
585.821	325.81
586.032	332.81
586.242	337.81
586.452	322.81
586.662	323.81
586.872	318.81
587.082	312.81
587.292	331.81
587.502	337.81
587.713	321.81
587.923	317.81
588.133	319.81
588.343	318.81
588.553	325.81
588.762	326.81
588.972	323.81
589.182	311.81
589.392	314.81
589.602	314.81
589.812	316.81
590.022	334.81
590.232	308.81
590.441	327.81
590.651	328.81
590.861	317.81
591.071	325.81
591.281	325.81
591.49	326.81
591.7	317.81
591.91	340.81
592.119	325.81
592.329	331.81
592.539	333.81
592.748	343.81
592.958	344.81
593.167	342.81
593.377	349.81
593.587	366.81
593.796	359.81
594.006	346.81
594.215	354.81
594.424	346.81
594.634	350.81
594.843	340.81
595.053	339.81
595.262	343.81
595.472	317.81
595.681	320.81
595.89	313.81
596.1	328.81
596.309	317.81
596.518	308.81
596.727	294.81
596.937	309.81
597.146	320.81
597.355	296.81
597.564	310.81
597.774	298.81
597.983	287.81
598.192	298.81
598.401	270.81
598.61	290.81
598.819	278.81
599.028	276.81
599.237	285.81
599.446	270.81
599.655	295.81
599.864	270.81
600.073	282.81
600.282	282.81
600.491	287.81
600.7	268.81
600.909	277.81
601.118	278.81
601.327	290.81
601.536	276.81
601.745	283.81
601.953	271.81
602.162	281.81
602.371	266.81
602.58	278.81
602.789	278.81
602.997	271.81
603.206	269.81
603.415	277.81
603.623	279.81
603.832	275.81
604.041	287.81
604.249	281.81
604.458	271.81
604.666	263.81
604.875	263.81
605.084	248.81
605.292	272.81
605.501	266.81
605.709	271.81
605.918	269.81
606.126	272.81
606.334	277.81
606.543	262.81
606.751	266.81
606.96	251.81
607.168	247.81
607.376	268.81
607.585	272.81
607.793	269.81
608.001	259.81
608.21	239.81
608.418	255.81
608.626	281.81
608.834	268.81
609.043	255.81
609.251	255.81
609.459	251.81
609.667	263.81
609.875	247.81
610.083	271.81
610.291	266.81
610.499	258.81
610.707	244.81
610.916	272.81
611.124	263.81
611.332	278.81
611.54	270.81
611.748	267.81
611.955	268.81
612.163	260.81
612.371	243.81
612.579	253.81
612.787	262.81
612.995	257.81
613.203	262.81
613.411	258.81
613.618	258.81
613.826	253.81
614.034	260.81
614.242	264.81
614.449	248.81
614.657	258.81
614.865	260.81
615.072	265.81
615.28	241.81
615.488	236.81
615.695	259.81
615.903	270.81
616.111	272.81
616.318	252.81
616.526	267.81
616.733	254.81
616.941	244.81
617.148	245.81
617.356	249.81
617.563	233.81
617.771	238.81
617.978	258.81
618.185	275.81
618.393	264.81
618.6	256.81
618.807	240.81
619.015	242.81
619.222	249.81
619.429	235.81
619.637	253.81
619.844	242.81
620.051	243.81
620.258	235.81
620.466	246.81
620.673	235.81
620.88	227.81
621.087	240.81
621.294	252.81
621.501	239.81
621.708	244.81
621.915	246.81
622.122	263.81
622.329	245.81
622.536	249.81
622.743	229.81
622.95	228.81
623.157	245.81
623.364	228.81
623.571	238.81
623.778	218.81
623.985	233.81
624.192	234.81
624.399	222.81
624.606	233.81
624.812	230.81
625.019	232.81
625.226	206.81
625.433	232.81
625.639	212.81
625.846	209.81
626.053	233.81
626.259	234.81
626.466	229.81
626.673	216.81
626.879	215.81
627.086	217.81
627.293	235.81
627.499	221.81
627.706	223.81
627.912	235.81
628.119	223.81
628.325	224.81
628.532	217.81
628.738	203.81
628.945	208.81
629.151	223.81
629.357	206.81
629.564	197.81
629.77	199.81
629.976	205.81
630.183	207.81
630.389	204.81
630.595	216.81
630.802	210.81
631.008	198.81
631.214	203.81
631.42	212.81
631.627	208.81
631.833	205.81
632.039	205.81
632.245	190.81
632.451	216.81
632.657	198.81
632.863	200.81
633.069	199.81
633.275	203.81
633.481	207.81
633.688	199.81
633.893	209.81
634.099	205.81
634.305	194.81
634.511	211.81
634.717	198.81
634.923	196.81
635.129	208.81
635.335	204.81
635.541	189.81
635.747	182.81
635.952	197.81
636.158	198.81
636.364	197.81
636.57	211.81
636.775	221.81
636.981	198.81
637.187	202.81
637.392	198.81
637.598	187.81
637.804	202.81
638.009	191.81
638.215	190.81
638.421	188.81
638.626	184.81
638.832	179.81
639.037	191.81
639.243	170.81
639.448	184.81
639.654	191.81
639.859	178.81
640.065	201.81
640.27	195.81
640.475	183.81
640.681	188.81
640.886	205.81
641.091	182.81
641.297	193.81
641.502	182.81
641.707	191.81
641.913	180.81
642.118	170.81
642.323	207.81
642.528	177.81
642.733	183.81
642.939	181.81
643.144	196.81
643.349	186.81
643.554	166.81
643.759	184.81
643.964	173.81
644.169	184.81
644.374	181.81
644.579	172.81
644.784	158.81
644.989	183.81
645.194	184.81
645.399	170.81
645.604	164.81
645.809	179.81
646.014	156.81
646.219	174.81
646.423	192.81
646.628	192.81
646.833	174.81
647.038	191.81
647.243	190.81
647.447	170.81
647.652	179.81
647.857	171.81
648.062	170.81
648.266	178.81
648.471	186.81
648.676	182.81
648.88	174.81
649.085	199.81
649.289	176.81
649.494	178.81
649.698	182.81
649.903	182.81
650.107	178.81
650.312	170.81
650.516	157.81
650.721	182.81
650.925	172.81
651.13	168.81
651.334	165.81
651.539	161.81
651.743	164.81
651.947	159.81
652.152	152.81
652.356	150.81
652.56	142.81
652.764	139.81
652.969	145.81
653.173	144.81
653.377	132.81
653.581	141.81
653.785	148.81
653.99	152.81
654.194	142.81
654.398	142.81
654.602	131.81
654.806	138.81
655.01	134.81
655.214	137.81
655.418	148.81
655.622	148.81
655.826	134.81
656.03	136.81
656.234	124.81
656.438	130.81
656.642	141.81
656.846	142.81
657.049	134.81
657.253	129.81
657.457	127.81
657.661	117.81
657.865	126.81
658.068	107.81
658.272	121.81
658.476	117.81
658.68	111.81
658.883	105.81
659.087	115.81
659.291	102.81
659.494	96.81
659.698	103.81
659.901	102.81
660.105	94.81
660.309	105.81
660.512	94.81
660.716	109.81
660.919	94.81
661.123	96.81
661.326	86.81
661.53	93.81
661.733	107.81
661.936	85.81
662.14	88.81
662.343	96.81
662.546	95.81
662.75	78.81
662.953	84.81
663.156	83.81
663.36	82.81
663.563	82.81
663.766	74.81
663.969	91.81
664.173	90.81
664.376	103.81
664.579	97.81
664.782	90.81
664.985	76.81
665.188	74.81
665.391	87.81
665.594	90.81
665.797	80.81
666	71.81
666.203	75.81
666.406	84.81
666.609	82.81
666.812	75.81
667.015	87.81
667.218	98.81
667.421	82.81
667.624	84.81
667.827	90.81
668.03	75.81
668.232	86.81
668.435	86.81
668.638	87.81
668.841	101.81
669.043	75.81
669.246	74.81
669.449	75.81
669.651	85.81
669.854	76.81
670.057	79.81
670.259	73.81
670.462	89.81
670.665	84.81
670.867	71.81
671.07	84.81
671.272	94.81
671.475	87.81
671.677	96.81
671.88	105.81
672.082	78.81
672.284	76.81
672.487	75.81
672.689	81.81
672.892	83.81
