Data from 1975.PennyLincolnUp.Lamp.En5.5.200Scan.071719.P1.Changed Mount._HRD10591_15-57-19-860.txt Node
Date: Thu Jul 18 15:57:19 EDT 2019
User: cochatt
Spectrometer: HR+D1059
Trigger mode: 1
Integration Time (sec): 1.000000E-1
Scans to average: 1
Electric dark correction enabled: true
Nonlinearity correction enabled: false
Boxcar width: 0
XAxis mode: Wavelengths
Number of Pixels in Spectrum: 2048
>>>>>Begin Spectral Data<<<<<
223.165	-11.75
223.4	-11.75
223.635	-11.75
223.869	-11.75
224.104	-21.75
224.338	-23.75
224.573	-0.75
224.808	-5.75
225.042	-1.75
225.277	0.25
225.511	-13.75
225.746	-8.75
225.98	-16.75
226.215	9.25
226.449	33.25
226.683	17.25
226.918	28.25
227.152	28.25
227.387	35.25
227.621	33.25
227.856	44.25
228.09	53.25
228.324	61.25
228.559	46.25
228.793	64.25
229.027	92.25
229.262	119.25
229.496	115.25
229.73	122.25
229.964	142.25
230.199	145.25
230.433	118.25
230.667	117.25
230.901	100.25
231.136	106.25
231.37	110.25
231.604	117.25
231.838	107.25
232.072	97.25
232.306	111.25
232.541	123.25
232.775	121.25
233.009	100.25
233.243	125.25
233.477	114.25
233.711	124.25
233.945	133.25
234.179	105.25
234.413	119.25
234.647	123.25
234.881	122.25
235.115	132.25
235.349	137.25
235.583	122.25
235.817	134.25
236.051	139.25
236.285	121.25
236.519	131.25
236.753	131.25
236.987	126.25
237.221	176.25
237.455	217.25
237.689	198.25
237.922	141.25
238.156	139.25
238.39	131.25
238.624	133.25
238.858	126.25
239.091	126.25
239.325	130.25
239.559	115.25
239.793	134.25
240.027	131.25
240.26	130.25
240.494	150.25
240.728	148.25
240.961	164.25
241.195	149.25
241.429	141.25
241.662	132.25
241.896	139.25
242.13	151.25
242.363	125.25
242.597	126.25
242.83	140.25
243.064	151.25
243.298	151.25
243.531	135.25
243.765	124.25
243.998	138.25
244.232	132.25
244.465	147.25
244.699	141.25
244.932	146.25
245.166	169.25
245.399	152.25
245.633	158.25
245.866	168.25
246.099	173.25
246.333	157.25
246.566	149.25
246.8	146.25
247.033	153.25
247.266	149.25
247.5	165.25
247.733	178.25
247.966	174.25
248.2	166.25
248.433	174.25
248.666	202.25
248.899	195.25
249.133	198.25
249.366	215.25
249.599	187.25
249.832	196.25
250.066	190.25
250.299	184.25
250.532	205.25
250.765	213.25
250.998	219.25
251.231	235.25
251.465	217.25
251.698	214.25
251.931	203.25
252.164	194.25
252.397	187.25
252.63	201.25
252.863	211.25
253.096	217.25
253.329	230.25
253.562	228.25
253.795	229.25
254.028	221.25
254.261	220.25
254.494	242.25
254.727	242.25
254.96	281.25
255.193	266.25
255.426	257.25
255.659	245.25
255.892	241.25
256.124	249.25
256.357	243.25
256.59	215.25
256.823	231.25
257.056	226.25
257.289	218.25
257.521	198.25
257.754	222.25
257.987	222.25
258.22	202.25
258.452	223.25
258.685	219.25
258.918	202.25
259.151	226.25
259.383	217.25
259.616	218.25
259.849	215.25
260.081	234.25
260.314	229.25
260.547	265.25
260.779	257.25
261.012	233.25
261.244	237.25
261.477	235.25
261.71	219.25
261.942	235.25
262.175	237.25
262.407	232.25
262.64	218.25
262.872	218.25
263.105	238.25
263.337	213.25
263.57	210.25
263.802	214.25
264.035	210.25
264.267	219.25
264.499	206.25
264.732	227.25
264.964	233.25
265.197	219.25
265.429	214.25
265.661	227.25
265.894	230.25
266.126	233.25
266.358	226.25
266.591	227.25
266.823	243.25
267.055	246.25
267.287	234.25
267.52	235.25
267.752	242.25
267.984	215.25
268.216	233.25
268.448	221.25
268.681	244.25
268.913	260.25
269.145	275.25
269.377	291.25
269.609	269.25
269.841	280.25
270.073	268.25
270.306	303.25
270.538	321.25
270.77	313.25
271.002	303.25
271.234	312.25
271.466	308.25
271.698	300.25
271.93	313.25
272.162	332.25
272.394	309.25
272.626	321.25
272.858	295.25
273.09	287.25
273.322	283.25
273.553	289.25
273.785	287.25
274.017	283.25
274.249	278.25
274.481	273.25
274.713	261.25
274.945	273.25
275.176	284.25
275.408	267.25
275.64	261.25
275.872	272.25
276.104	283.25
276.335	293.25
276.567	275.25
276.799	300.25
277.031	319.25
277.262	337.25
277.494	316.25
277.726	311.25
277.957	311.25
278.189	281.25
278.421	270.25
278.652	282.25
278.884	282.25
279.115	294.25
279.347	290.25
279.579	286.25
279.81	297.25
280.042	268.25
280.273	279.25
280.505	291.25
280.736	265.25
280.968	263.25
281.199	299.25
281.431	275.25
281.662	272.25
281.894	272.25
282.125	270.25
282.356	286.25
282.588	298.25
282.819	323.25
283.051	287.25
283.282	290.25
283.513	287.25
283.745	286.25
283.976	295.25
284.207	282.25
284.439	297.25
284.67	291.25
284.901	303.25
285.132	305.25
285.364	291.25
285.595	282.25
285.826	303.25
286.057	300.25
286.288	309.25
286.52	301.25
286.751	309.25
286.982	310.25
287.213	297.25
287.444	307.25
287.675	313.25
287.906	305.25
288.138	302.25
288.369	325.25
288.6	315.25
288.831	317.25
289.062	332.25
289.293	327.25
289.524	323.25
289.755	286.25
289.986	320.25
290.217	307.25
290.448	307.25
290.679	305.25
290.91	313.25
291.141	305.25
291.371	303.25
291.602	294.25
291.833	298.25
292.064	307.25
292.295	315.25
292.526	311.25
292.757	328.25
292.987	318.25
293.218	313.25
293.449	309.25
293.68	313.25
293.91	315.25
294.141	316.25
294.372	316.25
294.603	295.25
294.833	318.25
295.064	305.25
295.295	321.25
295.525	307.25
295.756	319.25
295.987	312.25
296.217	331.25
296.448	337.25
296.679	333.25
296.909	327.25
297.14	327.25
297.37	325.25
297.601	311.25
297.831	333.25
298.062	307.25
298.292	311.25
298.523	328.25
298.753	328.25
298.984	329.25
299.214	341.25
299.445	327.25
299.675	318.25
299.905	339.25
300.136	331.25
300.366	318.25
300.597	338.25
300.827	332.25
301.057	324.25
301.288	344.25
301.518	349.25
301.748	346.25
301.979	332.25
302.209	341.25
302.439	347.25
302.669	356.25
302.9	350.25
303.13	351.25
303.36	350.25
303.59	333.25
303.82	354.25
304.051	336.25
304.281	345.25
304.511	357.25
304.741	349.25
304.971	335.25
305.201	339.25
305.431	333.25
305.661	353.25
305.891	341.25
306.121	343.25
306.352	352.25
306.582	345.25
306.812	323.25
307.042	346.25
307.272	337.25
307.502	355.25
307.731	350.25
307.961	358.25
308.191	359.25
308.421	346.25
308.651	345.25
308.881	342.25
309.111	351.25
309.341	350.25
309.571	371.25
309.8	364.25
310.03	373.25
310.26	369.25
310.49	371.25
310.72	374.25
310.949	397.25
311.179	397.25
311.409	391.25
311.639	400.25
311.868	388.25
312.098	395.25
312.328	401.25
312.557	413.25
312.787	429.25
313.017	426.25
313.246	412.25
313.476	381.25
313.706	397.25
313.935	396.25
314.165	398.25
314.394	397.25
314.624	394.25
314.853	401.25
315.083	381.25
315.312	405.25
315.542	375.25
315.771	391.25
316.001	386.25
316.23	391.25
316.46	380.25
316.689	399.25
316.919	417.25
317.148	409.25
317.377	395.25
317.607	420.25
317.836	388.25
318.065	400.25
318.295	383.25
318.524	384.25
318.753	392.25
318.983	376.25
319.212	398.25
319.441	392.25
319.67	389.25
319.9	397.25
320.129	402.25
320.358	389.25
320.587	389.25
320.816	395.25
321.046	403.25
321.275	390.25
321.504	384.25
321.733	419.25
321.962	423.25
322.191	420.25
322.42	428.25
322.649	428.25
322.878	428.25
323.108	452.25
323.337	452.25
323.566	480.25
323.795	486.25
324.024	523.25
324.253	617.25
324.482	839.25
324.71	1244.25
324.939	1873.25
325.168	1646.25
325.397	825.25
325.626	588.25
325.855	524.25
326.084	505.25
326.313	466.25
326.542	468.25
326.77	513.25
326.999	604.25
327.228	796.25
327.457	1135.25
327.686	1409.25
327.914	963.25
328.143	641.25
328.372	579.25
328.6	543.25
328.829	556.25
329.058	536.25
329.287	545.25
329.515	527.25
329.744	500.25
329.972	488.25
330.201	511.25
330.43	565.25
330.658	559.25
330.887	573.25
331.115	585.25
331.344	532.25
331.572	473.25
331.801	494.25
332.03	487.25
332.258	490.25
332.486	483.25
332.715	485.25
332.943	478.25
333.172	471.25
333.4	486.25
333.629	517.25
333.857	517.25
334.085	526.25
334.314	501.25
334.542	548.25
334.771	573.25
334.999	513.25
335.227	529.25
335.455	526.25
335.684	495.25
335.912	483.25
336.14	484.25
336.369	475.25
336.597	487.25
336.825	486.25
337.053	459.25
337.281	470.25
337.51	463.25
337.738	459.25
337.966	467.25
338.194	463.25
338.422	468.25
338.65	469.25
338.878	445.25
339.106	457.25
339.334	452.25
339.562	435.25
339.79	433.25
340.018	459.25
340.246	430.25
340.474	470.25
340.702	471.25
340.93	456.25
341.158	435.25
341.386	463.25
341.614	456.25
341.842	463.25
342.07	433.25
342.298	443.25
342.526	432.25
342.754	433.25
342.981	414.25
343.209	451.25
343.437	434.25
343.665	460.25
343.893	462.25
344.12	469.25
344.348	482.25
344.576	484.25
344.804	461.25
345.031	459.25
345.259	482.25
345.487	447.25
345.714	447.25
345.942	444.25
346.17	430.25
346.397	439.25
346.625	440.25
346.853	430.25
347.08	463.25
347.308	419.25
347.535	439.25
347.763	434.25
347.99	427.25
348.218	434.25
348.445	456.25
348.673	438.25
348.9	451.25
349.128	429.25
349.355	417.25
349.583	412.25
349.81	428.25
350.037	415.25
350.265	437.25
350.492	414.25
350.72	423.25
350.947	403.25
351.174	439.25
351.402	447.25
351.629	429.25
351.856	419.25
352.083	428.25
352.311	460.25
352.538	416.25
352.765	449.25
352.992	430.25
353.22	425.25
353.447	439.25
353.674	424.25
353.901	399.25
354.128	409.25
354.355	402.25
354.583	416.25
354.81	414.25
355.037	426.25
355.264	403.25
355.491	405.25
355.718	400.25
355.945	419.25
356.172	427.25
356.399	400.25
356.626	399.25
356.853	383.25
357.08	403.25
357.307	406.25
357.534	403.25
357.761	396.25
357.988	428.25
358.215	411.25
358.441	411.25
358.668	418.25
358.895	441.25
359.122	419.25
359.349	422.25
359.576	436.25
359.802	442.25
360.029	459.25
360.256	490.25
360.483	467.25
360.709	428.25
360.936	443.25
361.163	409.25
361.39	443.25
361.616	446.25
361.843	424.25
362.07	449.25
362.296	424.25
362.523	425.25
362.749	437.25
362.976	427.25
363.203	441.25
363.429	437.25
363.656	429.25
363.882	422.25
364.109	435.25
364.335	430.25
364.562	393.25
364.788	415.25
365.015	431.25
365.241	417.25
365.468	422.25
365.694	408.25
365.92	428.25
366.147	431.25
366.373	429.25
366.599	415.25
366.826	411.25
367.052	440.25
367.278	448.25
367.505	417.25
367.731	428.25
367.957	439.25
368.184	436.25
368.41	433.25
368.636	423.25
368.862	438.25
369.089	417.25
369.315	395.25
369.541	417.25
369.767	395.25
369.993	436.25
370.219	425.25
370.445	433.25
370.672	416.25
370.898	411.25
371.124	443.25
371.35	438.25
371.576	439.25
371.802	418.25
372.028	433.25
372.254	418.25
372.48	426.25
372.706	414.25
372.932	422.25
373.158	418.25
373.384	448.25
373.61	427.25
373.835	430.25
374.061	419.25
374.287	440.25
374.513	441.25
374.739	439.25
374.965	446.25
375.191	437.25
375.416	448.25
375.642	438.25
375.868	434.25
376.094	444.25
376.319	430.25
376.545	426.25
376.771	454.25
376.997	427.25
377.222	425.25
377.448	420.25
377.674	411.25
377.899	417.25
378.125	410.25
378.35	416.25
378.576	439.25
378.802	427.25
379.027	416.25
379.253	422.25
379.478	417.25
379.704	439.25
379.929	409.25
380.155	420.25
380.38	426.25
380.606	415.25
380.831	431.25
381.057	437.25
381.282	435.25
381.507	431.25
381.733	412.25
381.958	429.25
382.184	440.25
382.409	438.25
382.634	455.25
382.86	445.25
383.085	437.25
383.31	439.25
383.535	443.25
383.761	441.25
383.986	457.25
384.211	466.25
384.436	457.25
384.662	469.25
384.887	480.25
385.112	503.25
385.337	462.25
385.562	489.25
385.787	467.25
386.013	487.25
386.238	483.25
386.463	493.25
386.688	485.25
386.913	480.25
387.138	461.25
387.363	499.25
387.588	471.25
387.813	489.25
388.038	444.25
388.263	483.25
388.488	490.25
388.713	477.25
388.938	503.25
389.163	482.25
389.387	488.25
389.612	457.25
389.837	477.25
390.062	478.25
390.287	477.25
390.512	494.25
390.736	482.25
390.961	493.25
391.186	474.25
391.411	491.25
391.636	474.25
391.86	482.25
392.085	526.25
392.31	484.25
392.534	494.25
392.759	496.25
392.984	498.25
393.208	471.25
393.433	485.25
393.658	470.25
393.882	490.25
394.107	486.25
394.331	481.25
394.556	480.25
394.78	480.25
395.005	521.25
395.229	496.25
395.454	494.25
395.678	507.25
395.903	527.25
396.127	542.25
396.352	534.25
396.576	508.25
396.801	506.25
397.025	503.25
397.249	506.25
397.474	534.25
397.698	533.25
397.922	524.25
398.147	540.25
398.371	555.25
398.595	545.25
398.82	582.25
399.044	579.25
399.268	597.25
399.492	644.25
399.717	670.25
399.941	695.25
400.165	718.25
400.389	708.25
400.613	637.25
400.837	603.25
401.062	576.25
401.286	579.25
401.51	585.25
401.734	567.25
401.958	559.25
402.182	589.25
402.406	590.25
402.63	567.25
402.854	584.25
403.078	588.25
403.302	573.25
403.526	583.25
403.75	562.25
403.974	594.25
404.198	587.25
404.422	578.25
404.645	611.25
404.869	610.25
405.093	635.25
405.317	661.25
405.541	707.25
405.765	654.25
405.988	621.25
406.212	621.25
406.436	635.25
406.66	657.25
406.883	630.25
407.107	661.25
407.331	723.25
407.555	770.25
407.778	746.25
408.002	707.25
408.226	667.25
408.449	659.25
408.673	636.25
408.896	642.25
409.12	700.25
409.344	663.25
409.567	603.25
409.791	617.25
410.014	604.25
410.238	580.25
410.461	584.25
410.685	615.25
410.908	610.25
411.132	638.25
411.355	667.25
411.578	641.25
411.802	576.25
412.025	584.25
412.249	589.25
412.472	628.25
412.695	673.25
412.919	653.25
413.142	581.25
413.365	555.25
413.589	569.25
413.812	581.25
414.035	571.25
414.258	570.25
414.482	572.25
414.705	576.25
414.928	564.25
415.151	580.25
415.374	562.25
415.597	546.25
415.821	565.25
416.044	549.25
416.267	542.25
416.49	569.25
416.713	575.25
416.936	546.25
417.159	553.25
417.382	550.25
417.605	571.25
417.828	565.25
418.051	582.25
418.274	595.25
418.497	567.25
418.72	549.25
418.943	545.25
419.166	591.25
419.389	617.25
419.611	607.25
419.834	591.25
420.057	617.25
420.28	587.25
420.503	599.25
420.726	606.25
420.948	599.25
421.171	641.25
421.394	647.25
421.617	579.25
421.839	591.25
422.062	570.25
422.285	563.25
422.507	644.25
422.73	715.25
422.953	681.25
423.175	613.25
423.398	613.25
423.621	621.25
423.843	633.25
424.066	631.25
424.288	619.25
424.511	661.25
424.733	705.25
424.956	742.25
425.178	739.25
425.401	690.25
425.623	774.25
425.846	644.25
426.068	592.25
426.291	606.25
426.513	586.25
426.735	596.25
426.958	639.25
427.18	741.25
427.402	874.25
427.625	956.25
427.847	819.25
428.069	691.25
428.292	637.25
428.514	607.25
428.736	571.25
428.958	556.25
429.181	558.25
429.403	577.25
429.625	578.25
429.847	596.25
430.069	675.25
430.292	673.25
430.514	575.25
430.736	555.25
430.958	553.25
431.18	545.25
431.402	545.25
431.624	532.25
431.846	528.25
432.068	508.25
432.29	524.25
432.512	519.25
432.734	534.25
432.956	540.25
433.178	571.25
433.4	566.25
433.622	545.25
433.844	511.25
434.066	549.25
434.287	538.25
434.509	543.25
434.731	574.25
434.953	554.25
435.175	596.25
435.397	621.25
435.618	610.25
435.84	620.25
436.062	740.25
436.284	783.25
436.505	681.25
436.727	601.25
436.949	574.25
437.17	541.25
437.392	554.25
437.614	555.25
437.835	613.25
438.057	680.25
438.278	769.25
438.5	787.25
438.721	882.25
438.943	820.25
439.165	663.25
439.386	602.25
439.608	592.25
439.829	600.25
440.05	619.25
440.272	646.25
440.493	645.25
440.715	589.25
440.936	582.25
441.158	572.25
441.379	566.25
441.6	608.25
441.822	603.25
442.043	645.25
442.264	738.25
442.486	774.25
442.707	644.25
442.928	630.25
443.149	610.25
443.371	645.25
443.592	687.25
443.813	786.25
444.034	836.25
444.255	727.25
444.476	661.25
444.698	646.25
444.919	649.25
445.14	771.25
445.361	712.25
445.582	677.25
445.803	693.25
446.024	808.25
446.245	815.25
446.466	754.25
446.687	671.25
446.908	612.25
447.129	585.25
447.35	571.25
447.571	572.25
447.792	569.25
448.013	574.25
448.234	577.25
448.455	614.25
448.675	709.25
448.896	857.25
449.117	730.25
449.338	666.25
449.559	781.25
449.779	903.25
450	709.25
450.221	599.25
450.442	548.25
450.662	549.25
450.883	537.25
451.104	573.25
451.324	509.25
451.545	523.25
451.766	509.25
451.986	534.25
452.207	515.25
452.428	484.25
452.648	501.25
452.869	493.25
453.089	515.25
453.31	513.25
453.53	507.25
453.751	486.25
453.971	499.25
454.192	501.25
454.412	502.25
454.633	488.25
454.853	477.25
455.073	476.25
455.294	516.25
455.514	581.25
455.734	559.25
455.955	495.25
456.175	462.25
456.395	472.25
456.616	452.25
456.836	472.25
457.056	494.25
457.276	469.25
457.497	479.25
457.717	466.25
457.937	474.25
458.157	462.25
458.377	499.25
458.598	502.25
458.818	545.25
459.038	607.25
459.258	653.25
459.478	579.25
459.698	524.25
459.918	545.25
460.138	547.25
460.358	545.25
460.578	557.25
460.798	552.25
461.018	555.25
461.238	552.25
461.458	565.25
461.678	541.25
461.898	555.25
462.118	550.25
462.338	540.25
462.558	591.25
462.777	622.25
462.997	633.25
463.217	636.25
463.437	640.25
463.657	645.25
463.876	618.25
464.096	615.25
464.316	597.25
464.536	602.25
464.755	594.25
464.975	595.25
465.195	610.25
465.414	667.25
465.634	606.25
465.854	567.25
466.073	546.25
466.293	539.25
466.512	536.25
466.732	525.25
466.951	510.25
467.171	495.25
467.391	502.25
467.61	521.25
467.829	519.25
468.049	538.25
468.268	522.25
468.488	513.25
468.707	504.25
468.927	501.25
469.146	486.25
469.365	494.25
469.585	500.25
469.804	541.25
470.023	534.25
470.243	524.25
470.462	531.25
470.681	535.25
470.901	534.25
471.12	558.25
471.339	517.25
471.558	510.25
471.777	513.25
471.997	513.25
472.216	519.25
472.435	567.25
472.654	524.25
472.873	531.25
473.092	518.25
473.311	511.25
473.53	515.25
473.749	515.25
473.968	565.25
474.187	651.25
474.406	681.25
474.625	575.25
474.844	529.25
475.063	517.25
475.282	504.25
475.501	520.25
475.72	542.25
475.939	546.25
476.158	543.25
476.377	541.25
476.596	534.25
476.814	563.25
477.033	542.25
477.252	549.25
477.471	550.25
477.69	549.25
477.908	575.25
478.127	576.25
478.346	598.25
478.564	613.25
478.783	587.25
479.002	595.25
479.22	576.25
479.439	611.25
479.658	630.25
479.876	629.25
480.095	644.25
480.313	659.25
480.532	653.25
480.751	646.25
480.969	639.25
481.188	717.25
481.406	765.25
481.624	677.25
481.843	637.25
482.061	648.25
482.28	611.25
482.498	643.25
482.717	589.25
482.935	590.25
483.153	602.25
483.372	616.25
483.59	620.25
483.808	602.25
484.027	605.25
484.245	616.25
484.463	600.25
484.681	635.25
484.9	617.25
485.118	628.25
485.336	609.25
485.554	608.25
485.772	614.25
485.99	639.25
486.209	639.25
486.427	632.25
486.645	627.25
486.863	640.25
487.081	657.25
487.299	646.25
487.517	629.25
487.735	666.25
487.953	638.25
488.171	650.25
488.389	650.25
488.607	625.25
488.825	675.25
489.043	635.25
489.261	658.25
489.479	666.25
489.696	657.25
489.914	645.25
490.132	656.25
490.35	679.25
490.568	671.25
490.786	697.25
491.003	717.25
491.221	702.25
491.439	721.25
491.657	742.25
491.874	726.25
492.092	786.25
492.31	776.25
492.527	765.25
492.745	743.25
492.963	780.25
493.18	766.25
493.398	766.25
493.615	780.25
493.833	768.25
494.05	757.25
494.268	748.25
494.485	770.25
494.703	757.25
494.92	801.25
495.138	789.25
495.355	792.25
495.573	753.25
495.79	772.25
496.008	761.25
496.225	761.25
496.442	773.25
496.66	789.25
496.877	790.25
497.094	802.25
497.312	798.25
497.529	789.25
497.746	814.25
497.963	820.25
498.181	822.25
498.398	852.25
498.615	877.25
498.832	898.25
499.049	957.25
499.267	943.25
499.484	1009.25
499.701	1042.25
499.918	1105.25
500.135	1133.25
500.352	1256.25
500.569	1225.25
500.786	1262.25
501.003	1218.25
501.22	1189.25
501.437	1120.25
501.654	1073.25
501.871	1028.25
502.088	955.25
502.305	965.25
502.522	925.25
502.739	901.25
502.956	874.25
503.172	814.25
503.389	803.25
503.606	833.25
503.823	795.25
504.04	806.25
504.256	792.25
504.473	811.25
504.69	784.25
504.907	797.25
505.123	757.25
505.34	764.25
505.557	757.25
505.773	770.25
505.99	769.25
506.207	761.25
506.423	742.25
506.64	721.25
506.856	707.25
507.073	719.25
507.289	696.25
507.506	709.25
507.722	707.25
507.939	710.25
508.155	700.25
508.372	691.25
508.588	684.25
508.805	687.25
509.021	693.25
509.238	695.25
509.454	695.25
509.67	678.25
509.887	666.25
510.103	675.25
510.319	685.25
510.536	751.25
510.752	1093.25
510.968	917.25
511.184	673.25
511.401	667.25
511.617	647.25
511.833	647.25
512.049	652.25
512.265	670.25
512.481	652.25
512.698	652.25
512.914	634.25
513.13	638.25
513.346	610.25
513.562	622.25
513.778	631.25
513.994	617.25
514.21	639.25
514.426	672.25
514.642	698.25
514.858	710.25
515.074	713.25
515.29	819.25
515.506	1103.25
515.721	967.25
515.937	730.25
516.153	697.25
516.369	669.25
516.585	664.25
516.801	692.25
517.016	661.25
517.232	711.25
517.448	697.25
517.664	699.25
517.879	703.25
518.095	715.25
518.311	662.25
518.527	693.25
518.742	670.25
518.958	666.25
519.173	661.25
519.389	637.25
519.605	644.25
519.82	650.25
520.036	654.25
520.251	648.25
520.467	698.25
520.682	668.25
520.898	686.25
521.113	693.25
521.329	705.25
521.544	786.25
521.76	884.25
521.975	1384.25
522.19	1365.25
522.406	833.25
522.621	667.25
522.836	639.25
523.052	628.25
523.267	610.25
523.482	596.25
523.698	584.25
523.913	565.25
524.128	585.25
524.343	584.25
524.559	581.25
524.774	558.25
524.989	550.25
525.204	550.25
525.419	570.25
525.634	555.25
525.849	584.25
526.064	547.25
526.28	543.25
526.495	538.25
526.71	528.25
526.925	534.25
527.14	564.25
527.355	534.25
527.57	527.25
527.785	526.25
527.999	526.25
528.214	545.25
528.429	541.25
528.644	531.25
528.859	534.25
529.074	525.25
529.289	548.25
529.503	603.25
529.718	594.25
529.933	573.25
530.148	533.25
530.363	549.25
530.577	525.25
530.792	532.25
531.007	522.25
531.221	525.25
531.436	546.25
531.651	522.25
531.865	517.25
532.08	521.25
532.295	515.25
532.509	511.25
532.724	519.25
532.938	501.25
533.153	503.25
533.367	505.25
533.582	503.25
533.796	513.25
534.011	526.25
534.225	515.25
534.44	507.25
534.654	505.25
534.868	525.25
535.083	487.25
535.297	517.25
535.511	519.25
535.726	517.25
535.94	511.25
536.154	530.25
536.369	500.25
536.583	482.25
536.797	507.25
537.011	513.25
537.225	488.25
537.44	507.25
537.654	475.25
537.868	500.25
538.082	506.25
538.296	482.25
538.51	503.25
538.724	480.25
538.938	488.25
539.153	509.25
539.367	512.25
539.581	510.25
539.795	481.25
540.009	482.25
540.222	490.25
540.436	500.25
540.65	488.25
540.864	494.25
541.078	492.25
541.292	500.25
541.506	526.25
541.72	490.25
541.934	493.25
542.147	533.25
542.361	502.25
542.575	497.25
542.789	505.25
543.002	498.25
543.216	484.25
543.43	494.25
543.644	490.25
543.857	482.25
544.071	492.25
544.285	485.25
544.498	474.25
544.712	488.25
544.925	508.25
545.139	500.25
545.352	481.25
545.566	465.25
545.779	478.25
545.993	474.25
546.206	471.25
546.42	482.25
546.633	483.25
546.847	456.25
547.06	488.25
547.274	463.25
547.487	488.25
547.7	471.25
547.914	485.25
548.127	491.25
548.34	475.25
548.554	481.25
548.767	475.25
548.98	464.25
549.193	479.25
549.407	498.25
549.62	489.25
549.833	478.25
550.046	484.25
550.259	499.25
550.473	465.25
550.686	486.25
550.899	477.25
551.112	464.25
551.325	454.25
551.538	470.25
551.751	470.25
551.964	465.25
552.177	481.25
552.39	468.25
552.603	494.25
552.816	481.25
553.029	482.25
553.242	476.25
553.455	484.25
553.667	494.25
553.88	514.25
554.093	499.25
554.306	495.25
554.519	472.25
554.732	473.25
554.944	462.25
555.157	462.25
555.37	462.25
555.583	446.25
555.795	453.25
556.008	432.25
556.221	417.25
556.433	451.25
556.646	435.25
556.859	437.25
557.071	450.25
557.284	427.25
557.496	456.25
557.709	429.25
557.921	417.25
558.134	440.25
558.346	421.25
558.559	415.25
558.771	436.25
558.984	431.25
559.196	417.25
559.409	435.25
559.621	419.25
559.833	433.25
560.046	405.25
560.258	422.25
560.47	406.25
560.683	422.25
560.895	422.25
561.107	439.25
561.32	421.25
561.532	413.25
561.744	424.25
561.956	427.25
562.168	420.25
562.381	420.25
562.593	437.25
562.805	409.25
563.017	413.25
563.229	429.25
563.441	416.25
563.653	435.25
563.865	418.25
564.077	457.25
564.289	437.25
564.501	446.25
564.713	434.25
564.925	429.25
565.137	481.25
565.349	447.25
565.561	465.25
565.773	450.25
565.985	488.25
566.197	472.25
566.408	518.25
566.62	537.25
566.832	561.25
567.044	559.25
567.255	555.25
567.467	565.25
567.679	583.25
567.891	612.25
568.102	607.25
568.314	576.25
568.526	551.25
568.737	529.25
568.949	492.25
569.161	500.25
569.372	439.25
569.584	473.25
569.795	461.25
570.007	457.25
570.218	469.25
570.43	457.25
570.641	405.25
570.853	423.25
571.064	420.25
571.276	419.25
571.487	409.25
571.698	423.25
571.91	404.25
572.121	410.25
572.333	396.25
572.544	389.25
572.755	385.25
572.966	396.25
573.178	369.25
573.389	392.25
573.6	377.25
573.811	377.25
574.023	376.25
574.234	363.25
574.445	369.25
574.656	361.25
574.867	369.25
575.078	358.25
575.289	355.25
575.501	370.25
575.712	347.25
575.923	343.25
576.134	368.25
576.345	357.25
576.556	361.25
576.767	365.25
576.978	353.25
577.188	356.25
577.399	358.25
577.61	355.25
577.821	361.25
578.032	360.25
578.243	355.25
578.454	507.25
578.665	414.25
578.875	355.25
579.086	329.25
579.297	339.25
579.508	354.25
579.718	341.25
579.929	334.25
580.14	349.25
580.35	330.25
580.561	327.25
580.772	339.25
580.982	330.25
581.193	336.25
581.403	331.25
581.614	338.25
581.825	318.25
582.035	335.25
582.246	305.25
582.456	349.25
582.667	342.25
582.877	334.25
583.087	325.25
583.298	311.25
583.508	331.25
583.719	340.25
583.929	355.25
584.139	334.25
584.35	329.25
584.56	328.25
584.77	310.25
584.981	320.25
585.191	317.25
585.401	332.25
585.611	315.25
585.821	336.25
586.032	329.25
586.242	342.25
586.452	298.25
586.662	312.25
586.872	308.25
587.082	307.25
587.292	318.25
587.502	314.25
587.713	320.25
587.923	321.25
588.133	338.25
588.343	305.25
588.553	321.25
588.762	321.25
588.972	330.25
589.182	318.25
589.392	323.25
589.602	331.25
589.812	320.25
590.022	334.25
590.232	337.25
590.441	330.25
590.651	308.25
590.861	292.25
591.071	314.25
591.281	313.25
591.49	322.25
591.7	321.25
591.91	330.25
592.119	340.25
592.329	342.25
592.539	354.25
592.748	363.25
592.958	349.25
593.167	349.25
593.377	351.25
593.587	363.25
593.796	344.25
594.006	374.25
594.215	366.25
594.424	346.25
594.634	347.25
594.843	339.25
595.053	348.25
595.262	332.25
595.472	328.25
595.681	330.25
595.89	316.25
596.1	308.25
596.309	329.25
596.518	310.25
596.727	320.25
596.937	339.25
597.146	294.25
597.355	307.25
597.564	290.25
597.774	294.25
597.983	278.25
598.192	273.25
598.401	282.25
598.61	310.25
598.819	295.25
599.028	287.25
599.237	282.25
599.446	270.25
599.655	278.25
599.864	298.25
600.073	279.25
600.282	287.25
600.491	296.25
600.7	275.25
600.909	281.25
601.118	272.25
601.327	260.25
601.536	275.25
601.745	292.25
601.953	291.25
602.162	280.25
602.371	286.25
602.58	272.25
602.789	283.25
602.997	265.25
603.206	268.25
603.415	283.25
603.623	268.25
603.832	269.25
604.041	259.25
604.249	264.25
604.458	287.25
604.666	267.25
604.875	274.25
605.084	270.25
605.292	260.25
605.501	271.25
605.709	264.25
605.918	265.25
606.126	276.25
606.334	264.25
606.543	254.25
606.751	261.25
606.96	269.25
607.168	266.25
607.376	241.25
607.585	253.25
607.793	266.25
608.001	272.25
608.21	283.25
608.418	263.25
608.626	272.25
608.834	289.25
609.043	259.25
609.251	261.25
609.459	249.25
609.667	264.25
609.875	248.25
610.083	260.25
610.291	255.25
610.499	269.25
610.707	266.25
610.916	273.25
611.124	263.25
611.332	265.25
611.54	270.25
611.748	267.25
611.955	248.25
612.163	256.25
612.371	262.25
612.579	270.25
612.787	243.25
612.995	256.25
613.203	270.25
613.411	277.25
613.618	252.25
613.826	250.25
614.034	250.25
614.242	257.25
614.449	264.25
614.657	249.25
614.865	265.25
615.072	246.25
615.28	241.25
615.488	251.25
615.695	247.25
615.903	273.25
616.111	253.25
616.318	269.25
616.526	266.25
616.733	258.25
616.941	247.25
617.148	276.25
617.356	261.25
617.563	270.25
617.771	242.25
617.978	261.25
618.185	271.25
618.393	259.25
618.6	232.25
618.807	257.25
619.015	245.25
619.222	260.25
619.429	238.25
619.637	251.25
619.844	261.25
620.051	255.25
620.258	233.25
620.466	255.25
620.673	248.25
620.88	244.25
621.087	239.25
621.294	253.25
621.501	239.25
621.708	236.25
621.915	226.25
622.122	230.25
622.329	249.25
622.536	256.25
622.743	250.25
622.95	229.25
623.157	231.25
623.364	246.25
623.571	239.25
623.778	237.25
623.985	233.25
624.192	227.25
624.399	254.25
624.606	233.25
624.812	233.25
625.019	226.25
625.226	230.25
625.433	237.25
625.639	222.25
625.846	217.25
626.053	224.25
626.259	233.25
626.466	244.25
626.673	231.25
626.879	207.25
627.086	225.25
627.293	240.25
627.499	215.25
627.706	230.25
627.912	233.25
628.119	211.25
628.325	238.25
628.532	222.25
628.738	211.25
628.945	221.25
629.151	202.25
629.357	207.25
629.564	205.25
629.77	197.25
629.976	222.25
630.183	230.25
630.389	207.25
630.595	197.25
630.802	224.25
631.008	215.25
631.214	213.25
631.42	224.25
631.627	207.25
631.833	223.25
632.039	198.25
632.245	180.25
632.451	203.25
632.657	206.25
632.863	205.25
633.069	209.25
633.275	216.25
633.481	211.25
633.688	200.25
633.893	217.25
634.099	183.25
634.305	188.25
634.511	200.25
634.717	203.25
634.923	194.25
635.129	212.25
635.335	201.25
635.541	180.25
635.747	178.25
635.952	182.25
636.158	205.25
636.364	185.25
636.57	188.25
636.775	189.25
636.981	197.25
637.187	196.25
637.392	191.25
637.598	187.25
637.804	206.25
638.009	184.25
638.215	196.25
638.421	202.25
638.626	196.25
638.832	172.25
639.037	187.25
639.243	206.25
639.448	181.25
639.654	184.25
639.859	195.25
640.065	189.25
640.27	185.25
640.475	190.25
640.681	196.25
640.886	193.25
641.091	193.25
641.297	186.25
641.502	185.25
641.707	183.25
641.913	186.25
642.118	168.25
642.323	186.25
642.528	175.25
642.733	183.25
642.939	174.25
643.144	208.25
643.349	179.25
643.554	188.25
643.759	187.25
643.964	174.25
644.169	174.25
644.374	170.25
644.579	174.25
644.784	183.25
644.989	186.25
645.194	189.25
645.399	175.25
645.604	203.25
645.809	188.25
646.014	188.25
646.219	170.25
646.423	168.25
646.628	189.25
646.833	183.25
647.038	183.25
647.243	180.25
647.447	186.25
647.652	183.25
647.857	166.25
648.062	158.25
648.266	175.25
648.471	173.25
648.676	180.25
648.88	183.25
649.085	168.25
649.289	189.25
649.494	191.25
649.698	184.25
649.903	190.25
650.107	161.25
650.312	179.25
650.516	171.25
650.721	172.25
650.925	159.25
651.13	168.25
651.334	164.25
651.539	162.25
651.743	154.25
651.947	167.25
652.152	159.25
652.356	166.25
652.56	146.25
652.764	164.25
652.969	143.25
653.173	147.25
653.377	150.25
653.581	147.25
653.785	161.25
653.99	149.25
654.194	150.25
654.398	138.25
654.602	139.25
654.806	143.25
655.01	138.25
655.214	159.25
655.418	141.25
655.622	143.25
655.826	155.25
656.03	145.25
656.234	149.25
656.438	129.25
656.642	151.25
656.846	132.25
657.049	155.25
657.253	149.25
657.457	127.25
657.661	119.25
657.865	138.25
658.068	138.25
658.272	129.25
658.476	124.25
658.68	103.25
658.883	97.25
659.087	102.25
659.291	118.25
659.494	99.25
659.698	104.25
659.901	97.25
660.105	111.25
660.309	91.25
660.512	106.25
660.716	101.25
660.919	78.25
661.123	93.25
661.326	93.25
661.53	90.25
661.733	112.25
661.936	97.25
662.14	89.25
662.343	97.25
662.546	99.25
662.75	93.25
662.953	86.25
663.156	95.25
663.36	77.25
663.563	82.25
663.766	90.25
663.969	83.25
664.173	84.25
664.376	82.25
664.579	84.25
664.782	77.25
664.985	79.25
665.188	98.25
665.391	85.25
665.594	103.25
665.797	93.25
666	104.25
666.203	83.25
666.406	94.25
666.609	91.25
666.812	76.25
667.015	77.25
667.218	90.25
667.421	87.25
667.624	78.25
667.827	99.25
668.03	74.25
668.232	83.25
668.435	72.25
668.638	94.25
668.841	84.25
669.043	74.25
669.246	99.25
669.449	83.25
669.651	99.25
669.854	81.25
670.057	99.25
670.259	86.25
670.462	91.25
670.665	78.25
670.867	93.25
671.07	86.25
671.272	88.25
671.475	78.25
671.677	90.25
671.88	78.25
672.082	92.25
672.284	85.25
672.487	83.25
672.689	76.25
672.892	69.25
