Data from 1975.PennyLincolnUp.Lamp.En5.5.200Scan.071719.P1.Changed Mount._HRD10591_15-58-38-860.txt Node
Date: Thu Jul 18 15:58:38 EDT 2019
User: cochatt
Spectrometer: HR+D1059
Trigger mode: 1
Integration Time (sec): 1.000000E-1
Scans to average: 1
Electric dark correction enabled: true
Nonlinearity correction enabled: false
Boxcar width: 0
XAxis mode: Wavelengths
Number of Pixels in Spectrum: 2048
>>>>>Begin Spectral Data<<<<<
223.165	-4.75
223.4	-4.75
223.635	-4.75
223.869	-25.75
224.104	-7.75
224.338	-5.75
224.573	-26.75
224.808	-7.75
225.042	-5.75
225.277	-1.75
225.511	-15.75
225.746	0.25
225.98	9.25
226.215	6.25
226.449	-0.75
226.683	19.25
226.918	34.25
227.152	33.25
227.387	45.25
227.621	16.25
227.856	51.25
228.09	42.25
228.324	43.25
228.559	43.25
228.793	75.25
229.027	102.25
229.262	108.25
229.496	126.25
229.73	134.25
229.964	153.25
230.199	123.25
230.433	106.25
230.667	101.25
230.901	135.25
231.136	107.25
231.37	113.25
231.604	106.25
231.838	126.25
232.072	121.25
232.306	123.25
232.541	106.25
232.775	125.25
233.009	129.25
233.243	122.25
233.477	120.25
233.711	108.25
233.945	118.25
234.179	124.25
234.413	122.25
234.647	121.25
234.881	123.25
235.115	126.25
235.349	124.25
235.583	125.25
235.817	130.25
236.051	125.25
236.285	137.25
236.519	117.25
236.753	133.25
236.987	144.25
237.221	186.25
237.455	241.25
237.689	197.25
237.922	130.25
238.156	153.25
238.39	127.25
238.624	118.25
238.858	131.25
239.091	133.25
239.325	127.25
239.559	121.25
239.793	121.25
240.027	127.25
240.26	152.25
240.494	165.25
240.728	158.25
240.961	160.25
241.195	151.25
241.429	145.25
241.662	137.25
241.896	137.25
242.13	134.25
242.363	136.25
242.597	138.25
242.83	146.25
243.064	135.25
243.298	155.25
243.531	152.25
243.765	125.25
243.998	129.25
244.232	156.25
244.465	149.25
244.699	141.25
244.932	135.25
245.166	132.25
245.399	155.25
245.633	147.25
245.866	144.25
246.099	149.25
246.333	150.25
246.566	152.25
246.8	161.25
247.033	161.25
247.266	167.25
247.5	168.25
247.733	178.25
247.966	186.25
248.2	181.25
248.433	185.25
248.666	177.25
248.899	189.25
249.133	209.25
249.366	217.25
249.599	200.25
249.832	182.25
250.066	186.25
250.299	193.25
250.532	210.25
250.765	218.25
250.998	239.25
251.231	227.25
251.465	218.25
251.698	210.25
251.931	207.25
252.164	207.25
252.397	203.25
252.63	211.25
252.863	219.25
253.096	215.25
253.329	254.25
253.562	223.25
253.795	232.25
254.028	220.25
254.261	235.25
254.494	229.25
254.727	261.25
254.96	289.25
255.193	265.25
255.426	250.25
255.659	232.25
255.892	233.25
256.124	244.25
256.357	234.25
256.59	227.25
256.823	211.25
257.056	232.25
257.289	229.25
257.521	229.25
257.754	215.25
257.987	212.25
258.22	228.25
258.452	213.25
258.685	204.25
258.918	231.25
259.151	206.25
259.383	222.25
259.616	227.25
259.849	231.25
260.081	232.25
260.314	255.25
260.547	261.25
260.779	264.25
261.012	230.25
261.244	226.25
261.477	231.25
261.71	232.25
261.942	230.25
262.175	231.25
262.407	232.25
262.64	220.25
262.872	233.25
263.105	229.25
263.337	246.25
263.57	227.25
263.802	209.25
264.035	194.25
264.267	231.25
264.499	226.25
264.732	231.25
264.964	218.25
265.197	220.25
265.429	238.25
265.661	218.25
265.894	243.25
266.126	219.25
266.358	258.25
266.591	237.25
266.823	237.25
267.055	236.25
267.287	239.25
267.52	247.25
267.752	234.25
267.984	244.25
268.216	250.25
268.448	247.25
268.681	243.25
268.913	272.25
269.145	275.25
269.377	303.25
269.609	284.25
269.841	279.25
270.073	282.25
270.306	311.25
270.538	316.25
270.77	319.25
271.002	299.25
271.234	321.25
271.466	330.25
271.698	343.25
271.93	334.25
272.162	326.25
272.394	348.25
272.626	325.25
272.858	301.25
273.09	317.25
273.322	281.25
273.553	289.25
273.785	285.25
274.017	264.25
274.249	269.25
274.481	272.25
274.713	290.25
274.945	279.25
275.176	259.25
275.408	260.25
275.64	295.25
275.872	267.25
276.104	279.25
276.335	290.25
276.567	277.25
276.799	303.25
277.031	326.25
277.262	325.25
277.494	340.25
277.726	328.25
277.957	311.25
278.189	305.25
278.421	285.25
278.652	277.25
278.884	279.25
279.115	276.25
279.347	288.25
279.579	280.25
279.81	296.25
280.042	290.25
280.273	277.25
280.505	281.25
280.736	275.25
280.968	278.25
281.199	278.25
281.431	295.25
281.662	298.25
281.894	297.25
282.125	298.25
282.356	321.25
282.588	318.25
282.819	320.25
283.051	291.25
283.282	314.25
283.513	308.25
283.745	271.25
283.976	306.25
284.207	307.25
284.439	300.25
284.67	303.25
284.901	290.25
285.132	299.25
285.364	307.25
285.595	309.25
285.826	289.25
286.057	315.25
286.288	292.25
286.52	295.25
286.751	295.25
286.982	290.25
287.213	302.25
287.444	300.25
287.675	321.25
287.906	327.25
288.138	313.25
288.369	337.25
288.6	339.25
288.831	333.25
289.062	293.25
289.293	331.25
289.524	317.25
289.755	296.25
289.986	313.25
290.217	312.25
290.448	316.25
290.679	344.25
290.91	324.25
291.141	312.25
291.371	321.25
291.602	315.25
291.833	305.25
292.064	306.25
292.295	309.25
292.526	318.25
292.757	310.25
292.987	320.25
293.218	318.25
293.449	315.25
293.68	319.25
293.91	319.25
294.141	324.25
294.372	303.25
294.603	318.25
294.833	327.25
295.064	324.25
295.295	328.25
295.525	301.25
295.756	320.25
295.987	317.25
296.217	358.25
296.448	337.25
296.679	338.25
296.909	325.25
297.14	315.25
297.37	327.25
297.601	344.25
297.831	341.25
298.062	331.25
298.292	340.25
298.523	341.25
298.753	332.25
298.984	333.25
299.214	333.25
299.445	320.25
299.675	338.25
299.905	329.25
300.136	335.25
300.366	339.25
300.597	341.25
300.827	322.25
301.057	346.25
301.288	341.25
301.518	357.25
301.748	338.25
301.979	366.25
302.209	351.25
302.439	332.25
302.669	350.25
302.9	376.25
303.13	362.25
303.36	349.25
303.59	369.25
303.82	361.25
304.051	352.25
304.281	357.25
304.511	361.25
304.741	350.25
304.971	360.25
305.201	322.25
305.431	348.25
305.661	359.25
305.891	359.25
306.121	355.25
306.352	366.25
306.582	356.25
306.812	352.25
307.042	350.25
307.272	350.25
307.502	349.25
307.731	357.25
307.961	377.25
308.191	361.25
308.421	357.25
308.651	371.25
308.881	352.25
309.111	359.25
309.341	348.25
309.571	365.25
309.8	381.25
310.03	375.25
310.26	380.25
310.49	384.25
310.72	395.25
310.949	409.25
311.179	395.25
311.409	396.25
311.639	365.25
311.868	405.25
312.098	360.25
312.328	393.25
312.557	429.25
312.787	422.25
313.017	407.25
313.246	397.25
313.476	404.25
313.706	397.25
313.935	380.25
314.165	392.25
314.394	413.25
314.624	417.25
314.853	401.25
315.083	411.25
315.312	397.25
315.542	378.25
315.771	413.25
316.001	389.25
316.23	389.25
316.46	396.25
316.689	401.25
316.919	417.25
317.148	393.25
317.377	402.25
317.607	408.25
317.836	389.25
318.065	369.25
318.295	388.25
318.524	389.25
318.753	378.25
318.983	383.25
319.212	389.25
319.441	408.25
319.67	402.25
319.9	407.25
320.129	392.25
320.358	388.25
320.587	403.25
320.816	405.25
321.046	400.25
321.275	411.25
321.504	403.25
321.733	426.25
321.962	430.25
322.191	438.25
322.42	426.25
322.649	433.25
322.878	438.25
323.108	441.25
323.337	469.25
323.566	482.25
323.795	501.25
324.024	511.25
324.253	631.25
324.482	845.25
324.71	1318.25
324.939	1991.25
325.168	1742.25
325.397	891.25
325.626	608.25
325.855	511.25
326.084	508.25
326.313	495.25
326.542	499.25
326.77	535.25
326.999	615.25
327.228	797.25
327.457	1205.25
327.686	1511.25
327.914	1045.25
328.143	655.25
328.372	610.25
328.6	548.25
328.829	533.25
329.058	568.25
329.287	563.25
329.515	530.25
329.744	497.25
329.972	502.25
330.201	527.25
330.43	551.25
330.658	569.25
330.887	609.25
331.115	584.25
331.344	541.25
331.572	513.25
331.801	523.25
332.03	494.25
332.258	476.25
332.486	474.25
332.715	476.25
332.943	476.25
333.172	494.25
333.4	506.25
333.629	506.25
333.857	525.25
334.085	514.25
334.314	537.25
334.542	564.25
334.771	601.25
334.999	531.25
335.227	519.25
335.455	481.25
335.684	531.25
335.912	509.25
336.14	488.25
336.369	483.25
336.597	481.25
336.825	480.25
337.053	466.25
337.281	475.25
337.51	464.25
337.738	475.25
337.966	458.25
338.194	472.25
338.422	474.25
338.65	499.25
338.878	462.25
339.106	434.25
339.334	447.25
339.562	461.25
339.79	459.25
340.018	462.25
340.246	448.25
340.474	474.25
340.702	441.25
340.93	426.25
341.158	464.25
341.386	444.25
341.614	459.25
341.842	424.25
342.07	462.25
342.298	433.25
342.526	422.25
342.754	459.25
342.981	448.25
343.209	442.25
343.437	457.25
343.665	454.25
343.893	492.25
344.12	448.25
344.348	481.25
344.576	463.25
344.804	481.25
345.031	457.25
345.259	467.25
345.487	473.25
345.714	435.25
345.942	430.25
346.17	450.25
346.397	441.25
346.625	425.25
346.853	424.25
347.08	439.25
347.308	429.25
347.535	458.25
347.763	433.25
347.99	445.25
348.218	457.25
348.445	451.25
348.673	458.25
348.9	437.25
349.128	447.25
349.355	423.25
349.583	437.25
349.81	438.25
350.037	429.25
350.265	407.25
350.492	445.25
350.72	433.25
350.947	405.25
351.174	427.25
351.402	462.25
351.629	452.25
351.856	432.25
352.083	445.25
352.311	455.25
352.538	432.25
352.765	453.25
352.992	446.25
353.22	425.25
353.447	436.25
353.674	425.25
353.901	425.25
354.128	408.25
354.355	451.25
354.583	412.25
354.81	413.25
355.037	411.25
355.264	420.25
355.491	412.25
355.718	393.25
355.945	399.25
356.172	400.25
356.399	427.25
356.626	417.25
356.853	422.25
357.08	412.25
357.307	407.25
357.534	433.25
357.761	411.25
357.988	412.25
358.215	412.25
358.441	430.25
358.668	420.25
358.895	424.25
359.122	421.25
359.349	448.25
359.576	422.25
359.802	444.25
360.029	466.25
360.256	486.25
360.483	458.25
360.709	431.25
360.936	464.25
361.163	431.25
361.39	451.25
361.616	447.25
361.843	453.25
362.07	433.25
362.296	432.25
362.523	438.25
362.749	457.25
362.976	442.25
363.203	422.25
363.429	426.25
363.656	450.25
363.882	439.25
364.109	425.25
364.335	425.25
364.562	431.25
364.788	429.25
365.015	427.25
365.241	453.25
365.468	428.25
365.694	427.25
365.92	436.25
366.147	435.25
366.373	433.25
366.599	440.25
366.826	444.25
367.052	403.25
367.278	430.25
367.505	435.25
367.731	429.25
367.957	427.25
368.184	435.25
368.41	437.25
368.636	449.25
368.862	441.25
369.089	431.25
369.315	435.25
369.541	427.25
369.767	437.25
369.993	433.25
370.219	423.25
370.445	440.25
370.672	435.25
370.898	441.25
371.124	440.25
371.35	427.25
371.576	441.25
371.802	440.25
372.028	426.25
372.254	439.25
372.48	427.25
372.706	440.25
372.932	467.25
373.158	436.25
373.384	443.25
373.61	457.25
373.835	442.25
374.061	432.25
374.287	433.25
374.513	470.25
374.739	454.25
374.965	466.25
375.191	472.25
375.416	469.25
375.642	431.25
375.868	446.25
376.094	437.25
376.319	437.25
376.545	437.25
376.771	442.25
376.997	426.25
377.222	426.25
377.448	422.25
377.674	442.25
377.899	441.25
378.125	434.25
378.35	438.25
378.576	426.25
378.802	438.25
379.027	429.25
379.253	421.25
379.478	421.25
379.704	440.25
379.929	442.25
380.155	451.25
380.38	443.25
380.606	438.25
380.831	439.25
381.057	444.25
381.282	413.25
381.507	443.25
381.733	436.25
381.958	443.25
382.184	437.25
382.409	453.25
382.634	451.25
382.86	460.25
383.085	457.25
383.31	438.25
383.535	462.25
383.761	466.25
383.986	442.25
384.211	452.25
384.436	473.25
384.662	483.25
384.887	480.25
385.112	471.25
385.337	464.25
385.562	501.25
385.787	485.25
386.013	494.25
386.238	490.25
386.463	502.25
386.688	484.25
386.913	479.25
387.138	473.25
387.363	498.25
387.588	475.25
387.813	499.25
388.038	486.25
388.263	490.25
388.488	497.25
388.713	491.25
388.938	476.25
389.163	484.25
389.387	488.25
389.612	471.25
389.837	499.25
390.062	468.25
390.287	491.25
390.512	480.25
390.736	481.25
390.961	472.25
391.186	492.25
391.411	493.25
391.636	501.25
391.86	515.25
392.085	513.25
392.31	492.25
392.534	499.25
392.759	504.25
392.984	523.25
393.208	487.25
393.433	509.25
393.658	478.25
393.882	472.25
394.107	485.25
394.331	483.25
394.556	484.25
394.78	489.25
395.005	489.25
395.229	485.25
395.454	496.25
395.678	505.25
395.903	518.25
396.127	558.25
396.352	562.25
396.576	509.25
396.801	519.25
397.025	500.25
397.249	491.25
397.474	510.25
397.698	541.25
397.922	538.25
398.147	568.25
398.371	572.25
398.595	556.25
398.82	573.25
399.044	584.25
399.268	591.25
399.492	639.25
399.717	691.25
399.941	717.25
400.165	726.25
400.389	716.25
400.613	648.25
400.837	618.25
401.062	605.25
401.286	583.25
401.51	571.25
401.734	558.25
401.958	576.25
402.182	551.25
402.406	592.25
402.63	602.25
402.854	598.25
403.078	575.25
403.302	572.25
403.526	613.25
403.75	589.25
403.974	592.25
404.198	585.25
404.422	621.25
404.645	632.25
404.869	598.25
405.093	639.25
405.317	680.25
405.541	722.25
405.765	655.25
405.988	626.25
406.212	636.25
406.436	661.25
406.66	651.25
406.883	649.25
407.107	660.25
407.331	715.25
407.555	807.25
407.778	795.25
408.002	726.25
408.226	680.25
408.449	671.25
408.673	647.25
408.896	695.25
409.12	735.25
409.344	661.25
409.567	590.25
409.791	612.25
410.014	617.25
410.238	586.25
410.461	582.25
410.685	598.25
410.908	625.25
411.132	652.25
411.355	683.25
411.578	674.25
411.802	619.25
412.025	608.25
412.249	605.25
412.472	627.25
412.695	675.25
412.919	644.25
413.142	622.25
413.365	574.25
413.589	577.25
413.812	572.25
414.035	564.25
414.258	559.25
414.482	564.25
414.705	563.25
414.928	563.25
415.151	556.25
415.374	545.25
415.597	563.25
415.821	558.25
416.044	558.25
416.267	592.25
416.49	585.25
416.713	541.25
416.936	565.25
417.159	565.25
417.382	559.25
417.605	558.25
417.828	583.25
418.051	589.25
418.274	572.25
418.497	545.25
418.72	576.25
418.943	568.25
419.166	576.25
419.389	615.25
419.611	613.25
419.834	592.25
420.057	623.25
420.28	621.25
420.503	598.25
420.726	571.25
420.948	605.25
421.171	647.25
421.394	689.25
421.617	587.25
421.839	605.25
422.062	598.25
422.285	592.25
422.507	654.25
422.73	733.25
422.953	717.25
423.175	627.25
423.398	591.25
423.621	601.25
423.843	621.25
424.066	633.25
424.288	628.25
424.511	625.25
424.733	691.25
424.956	780.25
425.178	754.25
425.401	765.25
425.623	793.25
425.846	655.25
426.068	639.25
426.291	595.25
426.513	609.25
426.735	625.25
426.958	666.25
427.18	736.25
427.402	873.25
427.625	973.25
427.847	820.25
428.069	737.25
428.292	649.25
428.514	615.25
428.736	560.25
428.958	575.25
429.181	583.25
429.403	562.25
429.625	555.25
429.847	608.25
430.069	679.25
430.292	705.25
430.514	590.25
430.736	561.25
430.958	537.25
431.18	558.25
431.402	557.25
431.624	533.25
431.846	542.25
432.068	551.25
432.29	542.25
432.512	548.25
432.734	552.25
432.956	582.25
433.178	540.25
433.4	577.25
433.622	561.25
433.844	549.25
434.066	557.25
434.287	544.25
434.509	586.25
434.731	559.25
434.953	588.25
435.175	585.25
435.397	616.25
435.618	636.25
435.84	653.25
436.062	738.25
436.284	848.25
436.505	671.25
436.727	619.25
436.949	573.25
437.17	549.25
437.392	555.25
437.614	573.25
437.835	603.25
438.057	673.25
438.278	793.25
438.5	808.25
438.721	897.25
438.943	847.25
439.165	678.25
439.386	630.25
439.608	599.25
439.829	613.25
440.05	639.25
440.272	694.25
440.493	648.25
440.715	605.25
440.936	601.25
441.158	567.25
441.379	573.25
441.6	585.25
441.822	617.25
442.043	692.25
442.264	726.25
442.486	797.25
442.707	678.25
442.928	645.25
443.149	649.25
443.371	662.25
443.592	701.25
443.813	780.25
444.034	867.25
444.255	705.25
444.476	675.25
444.698	664.25
444.919	644.25
445.14	754.25
445.361	710.25
445.582	643.25
445.803	719.25
446.024	823.25
446.245	850.25
446.466	771.25
446.687	673.25
446.908	608.25
447.129	607.25
447.35	557.25
447.571	557.25
447.792	571.25
448.013	579.25
448.234	583.25
448.455	628.25
448.675	779.25
448.896	866.25
449.117	747.25
449.338	693.25
449.559	831.25
449.779	931.25
450	725.25
450.221	626.25
450.442	566.25
450.662	532.25
450.883	552.25
451.104	575.25
451.324	552.25
451.545	547.25
451.766	564.25
451.986	511.25
452.207	508.25
452.428	523.25
452.648	493.25
452.869	501.25
453.089	527.25
453.31	527.25
453.53	514.25
453.751	502.25
453.971	485.25
454.192	518.25
454.412	516.25
454.633	510.25
454.853	492.25
455.073	505.25
455.294	523.25
455.514	596.25
455.734	585.25
455.955	535.25
456.175	494.25
456.395	471.25
456.616	478.25
456.836	470.25
457.056	463.25
457.276	467.25
457.497	476.25
457.717	452.25
457.937	490.25
458.157	501.25
458.377	489.25
458.598	515.25
458.818	573.25
459.038	632.25
459.258	666.25
459.478	581.25
459.698	539.25
459.918	553.25
460.138	527.25
460.358	552.25
460.578	578.25
460.798	575.25
461.018	559.25
461.238	562.25
461.458	548.25
461.678	567.25
461.898	561.25
462.118	570.25
462.338	576.25
462.558	593.25
462.777	589.25
462.997	646.25
463.217	616.25
463.437	663.25
463.657	629.25
463.876	615.25
464.096	627.25
464.316	613.25
464.536	626.25
464.755	609.25
464.975	605.25
465.195	618.25
465.414	687.25
465.634	619.25
465.854	565.25
466.073	573.25
466.293	539.25
466.512	516.25
466.732	523.25
466.951	528.25
467.171	524.25
467.391	507.25
467.61	517.25
467.829	527.25
468.049	536.25
468.268	519.25
468.488	514.25
468.707	526.25
468.927	526.25
469.146	510.25
469.365	533.25
469.585	502.25
469.804	524.25
470.023	535.25
470.243	519.25
470.462	527.25
470.681	556.25
470.901	567.25
471.12	537.25
471.339	533.25
471.558	517.25
471.777	535.25
471.997	527.25
472.216	515.25
472.435	551.25
472.654	534.25
472.873	526.25
473.092	536.25
473.311	523.25
473.53	522.25
473.749	540.25
473.968	594.25
474.187	659.25
474.406	699.25
474.625	600.25
474.844	535.25
475.063	525.25
475.282	528.25
475.501	519.25
475.72	538.25
475.939	522.25
476.158	535.25
476.377	546.25
476.596	533.25
476.814	538.25
477.033	550.25
477.252	572.25
477.471	560.25
477.69	553.25
477.908	567.25
478.127	595.25
478.346	578.25
478.564	611.25
478.783	590.25
479.002	591.25
479.22	591.25
479.439	625.25
479.658	649.25
479.876	647.25
480.095	655.25
480.313	683.25
480.532	637.25
480.751	661.25
480.969	675.25
481.188	709.25
481.406	735.25
481.624	668.25
481.843	603.25
482.061	645.25
482.28	646.25
482.498	621.25
482.717	603.25
482.935	611.25
483.153	633.25
483.372	626.25
483.59	609.25
483.808	599.25
484.027	607.25
484.245	635.25
484.463	637.25
484.681	626.25
484.9	633.25
485.118	637.25
485.336	629.25
485.554	643.25
485.772	636.25
485.99	644.25
486.209	642.25
486.427	634.25
486.645	655.25
486.863	674.25
487.081	654.25
487.299	668.25
487.517	669.25
487.735	669.25
487.953	685.25
488.171	655.25
488.389	666.25
488.607	661.25
488.825	683.25
489.043	661.25
489.261	669.25
489.479	695.25
489.696	674.25
489.914	685.25
490.132	691.25
490.35	679.25
490.568	695.25
490.786	683.25
491.003	723.25
491.221	762.25
491.439	735.25
491.657	760.25
491.874	742.25
492.092	738.25
492.31	770.25
492.527	766.25
492.745	735.25
492.963	768.25
493.18	766.25
493.398	786.25
493.615	770.25
493.833	774.25
494.05	809.25
494.268	790.25
494.485	769.25
494.703	786.25
494.92	757.25
495.138	781.25
495.355	798.25
495.573	814.25
495.79	769.25
496.008	783.25
496.225	755.25
496.442	802.25
496.66	789.25
496.877	806.25
497.094	774.25
497.312	798.25
497.529	787.25
497.746	797.25
497.963	829.25
498.181	867.25
498.398	865.25
498.615	886.25
498.832	909.25
499.049	961.25
499.267	952.25
499.484	1026.25
499.701	1084.25
499.918	1110.25
500.135	1167.25
500.352	1217.25
500.569	1252.25
500.786	1294.25
501.003	1271.25
501.22	1188.25
501.437	1105.25
501.654	1092.25
501.871	1101.25
502.088	1022.25
502.305	966.25
502.522	942.25
502.739	914.25
502.956	871.25
503.172	875.25
503.389	844.25
503.606	825.25
503.823	821.25
504.04	796.25
504.256	823.25
504.473	803.25
504.69	817.25
504.907	798.25
505.123	769.25
505.34	753.25
505.557	764.25
505.773	747.25
505.99	765.25
506.207	753.25
506.423	737.25
506.64	726.25
506.856	724.25
507.073	724.25
507.289	711.25
507.506	725.25
507.722	715.25
507.939	724.25
508.155	699.25
508.372	713.25
508.588	691.25
508.805	686.25
509.021	684.25
509.238	702.25
509.454	701.25
509.67	701.25
509.887	669.25
510.103	686.25
510.319	706.25
510.536	750.25
510.752	1108.25
510.968	926.25
511.184	695.25
511.401	661.25
511.617	661.25
511.833	646.25
512.049	670.25
512.265	656.25
512.481	651.25
512.698	648.25
512.914	647.25
513.13	645.25
513.346	654.25
513.562	660.25
513.778	630.25
513.994	644.25
514.21	651.25
514.426	674.25
514.642	691.25
514.858	720.25
515.074	737.25
515.29	841.25
515.506	1125.25
515.721	984.25
515.937	747.25
516.153	697.25
516.369	680.25
516.585	689.25
516.801	679.25
517.016	693.25
517.232	693.25
517.448	716.25
517.664	717.25
517.879	724.25
518.095	699.25
518.311	711.25
518.527	683.25
518.742	686.25
518.958	682.25
519.173	694.25
519.389	668.25
519.605	665.25
519.82	694.25
520.036	668.25
520.251	682.25
520.467	669.25
520.682	685.25
520.898	682.25
521.113	693.25
521.329	719.25
521.544	779.25
521.76	918.25
521.975	1385.25
522.19	1351.25
522.406	827.25
522.621	664.25
522.836	645.25
523.052	638.25
523.267	620.25
523.482	599.25
523.698	584.25
523.913	582.25
524.128	610.25
524.343	596.25
524.559	581.25
524.774	567.25
524.989	590.25
525.204	556.25
525.419	574.25
525.634	580.25
525.849	569.25
526.064	524.25
526.28	548.25
526.495	539.25
526.71	553.25
526.925	540.25
527.14	544.25
527.355	523.25
527.57	543.25
527.785	540.25
527.999	519.25
528.214	530.25
528.429	555.25
528.644	550.25
528.859	550.25
529.074	538.25
529.289	558.25
529.503	642.25
529.718	597.25
529.933	577.25
530.148	531.25
530.363	548.25
530.577	529.25
530.792	534.25
531.007	517.25
531.221	515.25
531.436	525.25
531.651	526.25
531.865	527.25
532.08	523.25
532.295	519.25
532.509	514.25
532.724	524.25
532.938	523.25
533.153	545.25
533.367	520.25
533.582	516.25
533.796	519.25
534.011	521.25
534.225	523.25
534.44	499.25
534.654	526.25
534.868	523.25
535.083	517.25
535.297	512.25
535.511	552.25
535.726	530.25
535.94	518.25
536.154	504.25
536.369	527.25
536.583	505.25
536.797	492.25
537.011	501.25
537.225	505.25
537.44	505.25
537.654	519.25
537.868	490.25
538.082	503.25
538.296	492.25
538.51	491.25
538.724	501.25
538.938	519.25
539.153	513.25
539.367	514.25
539.581	493.25
539.795	498.25
540.009	514.25
540.222	497.25
540.436	493.25
540.65	492.25
540.864	498.25
541.078	498.25
541.292	486.25
541.506	482.25
541.72	498.25
541.934	492.25
542.147	504.25
542.361	491.25
542.575	502.25
542.789	492.25
543.002	496.25
543.216	487.25
543.43	499.25
543.644	493.25
543.857	496.25
544.071	503.25
544.285	500.25
544.498	505.25
544.712	511.25
544.925	515.25
545.139	495.25
545.352	514.25
545.566	489.25
545.779	489.25
545.993	509.25
546.206	497.25
546.42	517.25
546.633	480.25
546.847	490.25
547.06	481.25
547.274	474.25
547.487	497.25
547.7	486.25
547.914	511.25
548.127	492.25
548.34	490.25
548.554	485.25
548.767	456.25
548.98	477.25
549.193	474.25
549.407	473.25
549.62	473.25
549.833	473.25
550.046	482.25
550.259	471.25
550.473	482.25
550.686	477.25
550.899	472.25
551.112	465.25
551.325	465.25
551.538	460.25
551.751	493.25
551.964	493.25
552.177	486.25
552.39	467.25
552.603	470.25
552.816	484.25
553.029	493.25
553.242	502.25
553.455	499.25
553.667	482.25
553.88	506.25
554.093	485.25
554.306	494.25
554.519	491.25
554.732	513.25
554.944	477.25
555.157	482.25
555.37	467.25
555.583	470.25
555.795	461.25
556.008	438.25
556.221	423.25
556.433	431.25
556.646	459.25
556.859	449.25
557.071	439.25
557.284	456.25
557.496	421.25
557.709	435.25
557.921	429.25
558.134	439.25
558.346	431.25
558.559	422.25
558.771	424.25
558.984	439.25
559.196	401.25
559.409	433.25
559.621	394.25
559.833	411.25
560.046	443.25
560.258	420.25
560.47	434.25
560.683	419.25
560.895	425.25
561.107	434.25
561.32	418.25
561.532	439.25
561.744	433.25
561.956	434.25
562.168	432.25
562.381	422.25
562.593	445.25
562.805	441.25
563.017	441.25
563.229	439.25
563.441	443.25
563.653	437.25
563.865	437.25
564.077	432.25
564.289	439.25
564.501	444.25
564.713	478.25
564.925	453.25
565.137	476.25
565.349	475.25
565.561	468.25
565.773	475.25
565.985	519.25
566.197	487.25
566.408	540.25
566.62	537.25
566.832	553.25
567.044	525.25
567.255	571.25
567.467	555.25
567.679	579.25
567.891	645.25
568.102	592.25
568.314	591.25
568.526	561.25
568.737	565.25
568.949	501.25
569.161	493.25
569.372	481.25
569.584	458.25
569.795	446.25
570.007	442.25
570.218	465.25
570.43	465.25
570.641	443.25
570.853	436.25
571.064	435.25
571.276	431.25
571.487	409.25
571.698	418.25
571.91	403.25
572.121	412.25
572.333	396.25
572.544	394.25
572.755	413.25
572.966	377.25
573.178	387.25
573.389	376.25
573.6	381.25
573.811	379.25
574.023	373.25
574.234	386.25
574.445	375.25
574.656	376.25
574.867	371.25
575.078	359.25
575.289	373.25
575.501	383.25
575.712	362.25
575.923	362.25
576.134	353.25
576.345	355.25
576.556	366.25
576.767	377.25
576.978	381.25
577.188	363.25
577.399	352.25
577.61	360.25
577.821	351.25
578.032	361.25
578.243	364.25
578.454	532.25
578.665	426.25
578.875	355.25
579.086	346.25
579.297	370.25
579.508	355.25
579.718	347.25
579.929	345.25
580.14	363.25
580.35	326.25
580.561	345.25
580.772	353.25
580.982	325.25
581.193	328.25
581.403	324.25
581.614	348.25
581.825	344.25
582.035	313.25
582.246	318.25
582.456	333.25
582.667	340.25
582.877	337.25
583.087	328.25
583.298	330.25
583.508	329.25
583.719	332.25
583.929	328.25
584.139	332.25
584.35	315.25
584.56	315.25
584.77	324.25
584.981	331.25
585.191	344.25
585.401	320.25
585.611	329.25
585.821	314.25
586.032	312.25
586.242	306.25
586.452	319.25
586.662	310.25
586.872	312.25
587.082	312.25
587.292	331.25
587.502	341.25
587.713	335.25
587.923	340.25
588.133	330.25
588.343	311.25
588.553	294.25
588.762	309.25
588.972	327.25
589.182	327.25
589.392	339.25
589.602	321.25
589.812	327.25
590.022	320.25
590.232	328.25
590.441	330.25
590.651	326.25
590.861	338.25
591.071	329.25
591.281	329.25
591.49	315.25
591.7	341.25
591.91	335.25
592.119	334.25
592.329	346.25
592.539	348.25
592.748	341.25
592.958	349.25
593.167	359.25
593.377	374.25
593.587	367.25
593.796	359.25
594.006	345.25
594.215	350.25
594.424	342.25
594.634	354.25
594.843	342.25
595.053	350.25
595.262	335.25
595.472	345.25
595.681	321.25
595.89	327.25
596.1	325.25
596.309	309.25
596.518	325.25
596.727	290.25
596.937	325.25
597.146	304.25
597.355	296.25
597.564	306.25
597.774	284.25
597.983	291.25
598.192	300.25
598.401	297.25
598.61	293.25
598.819	286.25
599.028	279.25
599.237	272.25
599.446	285.25
599.655	305.25
599.864	271.25
600.073	290.25
600.282	293.25
600.491	292.25
600.7	274.25
600.909	281.25
601.118	286.25
601.327	291.25
601.536	284.25
601.745	275.25
601.953	289.25
602.162	277.25
602.371	276.25
602.58	277.25
602.789	266.25
602.997	268.25
603.206	269.25
603.415	265.25
603.623	264.25
603.832	262.25
604.041	267.25
604.249	279.25
604.458	263.25
604.666	280.25
604.875	265.25
605.084	266.25
605.292	268.25
605.501	266.25
605.709	287.25
605.918	269.25
606.126	255.25
606.334	266.25
606.543	253.25
606.751	281.25
606.96	254.25
607.168	264.25
607.376	279.25
607.585	258.25
607.793	263.25
608.001	271.25
608.21	281.25
608.418	273.25
608.626	263.25
608.834	245.25
609.043	265.25
609.251	262.25
609.459	261.25
609.667	265.25
609.875	257.25
610.083	259.25
610.291	258.25
610.499	266.25
610.707	268.25
610.916	281.25
611.124	249.25
611.332	263.25
611.54	265.25
611.748	284.25
611.955	261.25
612.163	276.25
612.371	258.25
612.579	262.25
612.787	266.25
612.995	248.25
613.203	265.25
613.411	259.25
613.618	251.25
613.826	257.25
614.034	253.25
614.242	257.25
614.449	251.25
614.657	241.25
614.865	265.25
615.072	234.25
615.28	273.25
615.488	235.25
615.695	265.25
615.903	262.25
616.111	246.25
616.318	277.25
616.526	266.25
616.733	268.25
616.941	274.25
617.148	250.25
617.356	262.25
617.563	248.25
617.771	258.25
617.978	249.25
618.185	271.25
618.393	243.25
618.6	259.25
618.807	260.25
619.015	259.25
619.222	255.25
619.429	243.25
619.637	257.25
619.844	257.25
620.051	266.25
620.258	251.25
620.466	233.25
620.673	244.25
620.88	232.25
621.087	215.25
621.294	236.25
621.501	234.25
621.708	246.25
621.915	240.25
622.122	230.25
622.329	247.25
622.536	263.25
622.743	241.25
622.95	233.25
623.157	236.25
623.364	255.25
623.571	231.25
623.778	242.25
623.985	246.25
624.192	226.25
624.399	244.25
624.606	246.25
624.812	226.25
625.019	231.25
625.226	238.25
625.433	247.25
625.639	230.25
625.846	241.25
626.053	237.25
626.259	231.25
626.466	230.25
626.673	215.25
626.879	217.25
627.086	220.25
627.293	229.25
627.499	205.25
627.706	209.25
627.912	212.25
628.119	221.25
628.325	225.25
628.532	211.25
628.738	215.25
628.945	207.25
629.151	223.25
629.357	203.25
629.564	216.25
629.77	204.25
629.976	208.25
630.183	205.25
630.389	177.25
630.595	207.25
630.802	211.25
631.008	215.25
631.214	204.25
631.42	202.25
631.627	202.25
631.833	207.25
632.039	207.25
632.245	198.25
632.451	205.25
632.657	215.25
632.863	208.25
633.069	220.25
633.275	212.25
633.481	198.25
633.688	205.25
633.893	202.25
634.099	197.25
634.305	195.25
634.511	210.25
634.717	195.25
634.923	187.25
635.129	190.25
635.335	206.25
635.541	202.25
635.747	207.25
635.952	196.25
636.158	199.25
636.364	207.25
636.57	183.25
636.775	189.25
636.981	210.25
637.187	217.25
637.392	182.25
637.598	197.25
637.804	187.25
638.009	191.25
638.215	198.25
638.421	179.25
638.626	184.25
638.832	181.25
639.037	187.25
639.243	196.25
639.448	181.25
639.654	193.25
639.859	201.25
640.065	183.25
640.27	198.25
640.475	183.25
640.681	185.25
640.886	188.25
641.091	165.25
641.297	200.25
641.502	169.25
641.707	182.25
641.913	181.25
642.118	184.25
642.323	196.25
642.528	178.25
642.733	191.25
642.939	179.25
643.144	175.25
643.349	172.25
643.554	187.25
643.759	189.25
643.964	197.25
644.169	178.25
644.374	188.25
644.579	178.25
644.784	181.25
644.989	175.25
645.194	181.25
645.399	166.25
645.604	170.25
645.809	179.25
646.014	194.25
646.219	180.25
646.423	193.25
646.628	169.25
646.833	177.25
647.038	185.25
647.243	195.25
647.447	163.25
647.652	181.25
647.857	178.25
648.062	183.25
648.266	189.25
648.471	178.25
648.676	197.25
648.88	183.25
649.085	183.25
649.289	181.25
649.494	186.25
649.698	203.25
649.903	208.25
650.107	185.25
650.312	184.25
650.516	174.25
650.721	169.25
650.925	172.25
651.13	165.25
651.334	175.25
651.539	169.25
651.743	142.25
651.947	159.25
652.152	162.25
652.356	155.25
652.56	161.25
652.764	162.25
652.969	139.25
653.173	158.25
653.377	142.25
653.581	146.25
653.785	147.25
653.99	154.25
654.194	159.25
654.398	143.25
654.602	140.25
654.806	153.25
655.01	165.25
655.214	155.25
655.418	157.25
655.622	134.25
655.826	149.25
656.03	141.25
656.234	142.25
656.438	144.25
656.642	147.25
656.846	138.25
657.049	127.25
657.253	129.25
657.457	141.25
657.661	129.25
657.865	119.25
658.068	117.25
658.272	114.25
658.476	123.25
658.68	119.25
658.883	105.25
659.087	107.25
659.291	114.25
659.494	100.25
659.698	104.25
659.901	103.25
660.105	93.25
660.309	103.25
660.512	92.25
660.716	97.25
660.919	91.25
661.123	90.25
661.326	95.25
661.53	83.25
661.733	86.25
661.936	81.25
662.14	87.25
662.343	85.25
662.546	78.25
662.75	96.25
662.953	93.25
663.156	99.25
663.36	89.25
663.563	84.25
663.766	82.25
663.969	76.25
664.173	91.25
664.376	88.25
664.579	95.25
664.782	77.25
664.985	66.25
665.188	77.25
665.391	75.25
665.594	94.25
665.797	86.25
666	86.25
666.203	80.25
666.406	75.25
666.609	69.25
666.812	80.25
667.015	88.25
667.218	76.25
667.421	85.25
667.624	81.25
667.827	76.25
668.03	81.25
668.232	88.25
668.435	92.25
668.638	80.25
668.841	77.25
669.043	91.25
669.246	87.25
669.449	78.25
669.651	85.25
669.854	89.25
670.057	68.25
670.259	84.25
670.462	84.25
670.665	81.25
670.867	83.25
671.07	87.25
671.272	67.25
671.475	87.25
671.677	89.25
671.88	87.25
672.082	70.25
672.284	95.25
672.487	97.25
672.689	88.25
672.892	86.25
