Data from 1975.PennyLincolnUp.Lamp.En5.5.200Scan.071719.P1.Changed Mount._HRD10591_15-56-15-858.txt Node
Date: Thu Jul 18 15:56:15 EDT 2019
User: cochatt
Spectrometer: HR+D1059
Trigger mode: 1
Integration Time (sec): 1.000000E-1
Scans to average: 1
Electric dark correction enabled: true
Nonlinearity correction enabled: false
Boxcar width: 0
XAxis mode: Wavelengths
Number of Pixels in Spectrum: 2048
>>>>>Begin Spectral Data<<<<<
223.165	-20.62
223.4	-20.62
223.635	-20.62
223.869	-13.62
224.104	-12.62
224.338	-13.62
224.573	-4.62
224.808	-2.62
225.042	-8.62
225.277	-12.62
225.511	-12.62
225.746	4.38
225.98	-1.62
226.215	20.38
226.449	18.38
226.683	9.38
226.918	17.38
227.152	33.38
227.387	41.38
227.621	33.38
227.856	46.38
228.09	32.38
228.324	59.38
228.559	53.38
228.793	55.38
229.027	94.38
229.262	86.38
229.496	114.38
229.73	125.38
229.964	146.38
230.199	133.38
230.433	109.38
230.667	96.38
230.901	137.38
231.136	103.38
231.37	107.38
231.604	118.38
231.838	109.38
232.072	108.38
232.306	123.38
232.541	100.38
232.775	115.38
233.009	115.38
233.243	126.38
233.477	110.38
233.711	124.38
233.945	114.38
234.179	119.38
234.413	122.38
234.647	116.38
234.881	111.38
235.115	123.38
235.349	113.38
235.583	126.38
235.817	131.38
236.051	131.38
236.285	126.38
236.519	134.38
236.753	126.38
236.987	154.38
237.221	163.38
237.455	215.38
237.689	165.38
237.922	127.38
238.156	139.38
238.39	129.38
238.624	126.38
238.858	121.38
239.091	130.38
239.325	120.38
239.559	117.38
239.793	122.38
240.027	125.38
240.26	131.38
240.494	141.38
240.728	135.38
240.961	147.38
241.195	149.38
241.429	148.38
241.662	126.38
241.896	144.38
242.13	123.38
242.363	130.38
242.597	146.38
242.83	141.38
243.064	154.38
243.298	131.38
243.531	153.38
243.765	139.38
243.998	153.38
244.232	130.38
244.465	151.38
244.699	157.38
244.932	152.38
245.166	146.38
245.399	153.38
245.633	148.38
245.866	142.38
246.099	146.38
246.333	155.38
246.566	160.38
246.8	147.38
247.033	146.38
247.266	160.38
247.5	164.38
247.733	172.38
247.966	192.38
248.2	160.38
248.433	178.38
248.666	183.38
248.899	177.38
249.133	222.38
249.366	215.38
249.599	193.38
249.832	180.38
250.066	185.38
250.299	188.38
250.532	189.38
250.765	194.38
250.998	226.38
251.231	230.38
251.465	212.38
251.698	198.38
251.931	193.38
252.164	212.38
252.397	208.38
252.63	189.38
252.863	204.38
253.096	204.38
253.329	228.38
253.562	222.38
253.795	219.38
254.028	207.38
254.261	215.38
254.494	237.38
254.727	231.38
254.96	274.38
255.193	260.38
255.426	245.38
255.659	237.38
255.892	234.38
256.124	215.38
256.357	257.38
256.59	224.38
256.823	217.38
257.056	206.38
257.289	196.38
257.521	205.38
257.754	212.38
257.987	200.38
258.22	218.38
258.452	204.38
258.685	195.38
258.918	209.38
259.151	214.38
259.383	210.38
259.616	226.38
259.849	215.38
260.081	233.38
260.314	252.38
260.547	267.38
260.779	220.38
261.012	221.38
261.244	238.38
261.477	228.38
261.71	218.38
261.942	225.38
262.175	212.38
262.407	235.38
262.64	229.38
262.872	229.38
263.105	214.38
263.337	210.38
263.57	216.38
263.802	211.38
264.035	212.38
264.267	213.38
264.499	205.38
264.732	222.38
264.964	222.38
265.197	220.38
265.429	208.38
265.661	206.38
265.894	213.38
266.126	218.38
266.358	213.38
266.591	216.38
266.823	233.38
267.055	221.38
267.287	225.38
267.52	229.38
267.752	229.38
267.984	245.38
268.216	227.38
268.448	228.38
268.681	233.38
268.913	232.38
269.145	262.38
269.377	277.38
269.609	268.38
269.841	278.38
270.073	267.38
270.306	294.38
270.538	305.38
270.77	315.38
271.002	289.38
271.234	279.38
271.466	298.38
271.698	302.38
271.93	299.38
272.162	285.38
272.394	316.38
272.626	286.38
272.858	277.38
273.09	271.38
273.322	269.38
273.553	264.38
273.785	245.38
274.017	249.38
274.249	262.38
274.481	253.38
274.713	264.38
274.945	277.38
275.176	281.38
275.408	279.38
275.64	293.38
275.872	255.38
276.104	267.38
276.335	250.38
276.567	248.38
276.799	270.38
277.031	296.38
277.262	325.38
277.494	324.38
277.726	305.38
277.957	287.38
278.189	285.38
278.421	274.38
278.652	276.38
278.884	293.38
279.115	270.38
279.347	266.38
279.579	255.38
279.81	255.38
280.042	278.38
280.273	279.38
280.505	284.38
280.736	274.38
280.968	269.38
281.199	287.38
281.431	291.38
281.662	282.38
281.894	289.38
282.125	279.38
282.356	291.38
282.588	331.38
282.819	309.38
283.051	289.38
283.282	284.38
283.513	285.38
283.745	290.38
283.976	301.38
284.207	280.38
284.439	296.38
284.67	304.38
284.901	302.38
285.132	294.38
285.364	289.38
285.595	270.38
285.826	279.38
286.057	276.38
286.288	298.38
286.52	287.38
286.751	287.38
286.982	282.38
287.213	284.38
287.444	286.38
287.675	271.38
287.906	303.38
288.138	310.38
288.369	287.38
288.6	305.38
288.831	293.38
289.062	301.38
289.293	308.38
289.524	285.38
289.755	293.38
289.986	299.38
290.217	297.38
290.448	286.38
290.679	305.38
290.91	298.38
291.141	314.38
291.371	315.38
291.602	296.38
291.833	315.38
292.064	306.38
292.295	301.38
292.526	294.38
292.757	297.38
292.987	295.38
293.218	291.38
293.449	319.38
293.68	290.38
293.91	311.38
294.141	294.38
294.372	302.38
294.603	300.38
294.833	285.38
295.064	302.38
295.295	298.38
295.525	316.38
295.756	318.38
295.987	322.38
296.217	311.38
296.448	341.38
296.679	322.38
296.909	291.38
297.14	329.38
297.37	320.38
297.601	305.38
297.831	285.38
298.062	303.38
298.292	328.38
298.523	329.38
298.753	326.38
298.984	309.38
299.214	309.38
299.445	314.38
299.675	319.38
299.905	341.38
300.136	319.38
300.366	314.38
300.597	323.38
300.827	322.38
301.057	322.38
301.288	339.38
301.518	317.38
301.748	334.38
301.979	339.38
302.209	335.38
302.439	344.38
302.669	343.38
302.9	331.38
303.13	333.38
303.36	325.38
303.59	346.38
303.82	347.38
304.051	345.38
304.281	345.38
304.511	339.38
304.741	346.38
304.971	330.38
305.201	317.38
305.431	358.38
305.661	337.38
305.891	333.38
306.121	333.38
306.352	341.38
306.582	355.38
306.812	330.38
307.042	315.38
307.272	339.38
307.502	346.38
307.731	335.38
307.961	333.38
308.191	334.38
308.421	332.38
308.651	331.38
308.881	336.38
309.111	335.38
309.341	338.38
309.571	360.38
309.8	352.38
310.03	377.38
310.26	345.38
310.49	375.38
310.72	374.38
310.949	378.38
311.179	375.38
311.409	377.38
311.639	385.38
311.868	375.38
312.098	366.38
312.328	368.38
312.557	383.38
312.787	404.38
313.017	397.38
313.246	366.38
313.476	357.38
313.706	369.38
313.935	371.38
314.165	371.38
314.394	391.38
314.624	383.38
314.853	375.38
315.083	391.38
315.312	371.38
315.542	369.38
315.771	383.38
316.001	367.38
316.23	377.38
316.46	359.38
316.689	364.38
316.919	372.38
317.148	389.38
317.377	381.38
317.607	387.38
317.836	363.38
318.065	364.38
318.295	375.38
318.524	387.38
318.753	379.38
318.983	371.38
319.212	361.38
319.441	377.38
319.67	392.38
319.9	360.38
320.129	381.38
320.358	382.38
320.587	393.38
320.816	389.38
321.046	391.38
321.275	393.38
321.504	379.38
321.733	383.38
321.962	402.38
322.191	414.38
322.42	403.38
322.649	407.38
322.878	444.38
323.108	442.38
323.337	453.38
323.566	454.38
323.795	492.38
324.024	497.38
324.253	569.38
324.482	780.38
324.71	1118.38
324.939	1735.38
325.168	1508.38
325.397	759.38
325.626	555.38
325.855	477.38
326.084	463.38
326.313	445.38
326.542	446.38
326.77	476.38
326.999	553.38
327.228	699.38
327.457	1070.38
327.686	1293.38
327.914	895.38
328.143	602.38
328.372	541.38
328.6	499.38
328.829	506.38
329.058	519.38
329.287	513.38
329.515	487.38
329.744	469.38
329.972	486.38
330.201	511.38
330.43	529.38
330.658	519.38
330.887	540.38
331.115	528.38
331.344	487.38
331.572	474.38
331.801	482.38
332.03	477.38
332.258	454.38
332.486	460.38
332.715	446.38
332.943	464.38
333.172	455.38
333.4	464.38
333.629	503.38
333.857	510.38
334.085	513.38
334.314	508.38
334.542	516.38
334.771	554.38
334.999	509.38
335.227	493.38
335.455	461.38
335.684	458.38
335.912	486.38
336.14	457.38
336.369	466.38
336.597	469.38
336.825	462.38
337.053	462.38
337.281	450.38
337.51	442.38
337.738	443.38
337.966	433.38
338.194	443.38
338.422	450.38
338.65	444.38
338.878	436.38
339.106	417.38
339.334	427.38
339.562	410.38
339.79	444.38
340.018	441.38
340.246	437.38
340.474	427.38
340.702	447.38
340.93	424.38
341.158	441.38
341.386	459.38
341.614	417.38
341.842	437.38
342.07	413.38
342.298	410.38
342.526	442.38
342.754	414.38
342.981	419.38
343.209	420.38
343.437	445.38
343.665	441.38
343.893	441.38
344.12	463.38
344.348	465.38
344.576	449.38
344.804	457.38
345.031	450.38
345.259	444.38
345.487	435.38
345.714	432.38
345.942	437.38
346.17	436.38
346.397	437.38
346.625	428.38
346.853	422.38
347.08	440.38
347.308	420.38
347.535	443.38
347.763	424.38
347.99	415.38
348.218	415.38
348.445	438.38
348.673	415.38
348.9	418.38
349.128	399.38
349.355	383.38
349.583	421.38
349.81	433.38
350.037	406.38
350.265	397.38
350.492	398.38
350.72	397.38
350.947	419.38
351.174	415.38
351.402	398.38
351.629	409.38
351.856	424.38
352.083	425.38
352.311	439.38
352.538	430.38
352.765	420.38
352.992	422.38
353.22	425.38
353.447	402.38
353.674	403.38
353.901	418.38
354.128	411.38
354.355	395.38
354.583	411.38
354.81	404.38
355.037	398.38
355.264	395.38
355.491	395.38
355.718	386.38
355.945	390.38
356.172	414.38
356.399	414.38
356.626	404.38
356.853	411.38
357.08	401.38
357.307	394.38
357.534	380.38
357.761	381.38
357.988	392.38
358.215	395.38
358.441	399.38
358.668	399.38
358.895	406.38
359.122	395.38
359.349	426.38
359.576	414.38
359.802	424.38
360.029	444.38
360.256	460.38
360.483	446.38
360.709	414.38
360.936	422.38
361.163	411.38
361.39	404.38
361.616	419.38
361.843	418.38
362.07	412.38
362.296	398.38
362.523	408.38
362.749	411.38
362.976	409.38
363.203	433.38
363.429	420.38
363.656	433.38
363.882	413.38
364.109	415.38
364.335	410.38
364.562	395.38
364.788	401.38
365.015	423.38
365.241	424.38
365.468	420.38
365.694	394.38
365.92	422.38
366.147	403.38
366.373	416.38
366.599	383.38
366.826	391.38
367.052	399.38
367.278	397.38
367.505	414.38
367.731	426.38
367.957	410.38
368.184	413.38
368.41	411.38
368.636	416.38
368.862	441.38
369.089	425.38
369.315	421.38
369.541	407.38
369.767	409.38
369.993	411.38
370.219	421.38
370.445	409.38
370.672	413.38
370.898	395.38
371.124	425.38
371.35	406.38
371.576	416.38
371.802	389.38
372.028	427.38
372.254	423.38
372.48	433.38
372.706	429.38
372.932	411.38
373.158	428.38
373.384	421.38
373.61	428.38
373.835	418.38
374.061	409.38
374.287	436.38
374.513	440.38
374.739	405.38
374.965	436.38
375.191	432.38
375.416	430.38
375.642	417.38
375.868	427.38
376.094	415.38
376.319	402.38
376.545	422.38
376.771	403.38
376.997	420.38
377.222	423.38
377.448	397.38
377.674	437.38
377.899	424.38
378.125	398.38
378.35	404.38
378.576	409.38
378.802	394.38
379.027	412.38
379.253	423.38
379.478	424.38
379.704	429.38
379.929	427.38
380.155	416.38
380.38	418.38
380.606	420.38
380.831	429.38
381.057	421.38
381.282	419.38
381.507	420.38
381.733	449.38
381.958	434.38
382.184	421.38
382.409	422.38
382.634	452.38
382.86	443.38
383.085	420.38
383.31	432.38
383.535	458.38
383.761	432.38
383.986	436.38
384.211	445.38
384.436	463.38
384.662	449.38
384.887	467.38
385.112	450.38
385.337	467.38
385.562	470.38
385.787	457.38
386.013	482.38
386.238	487.38
386.463	479.38
386.688	451.38
386.913	468.38
387.138	470.38
387.363	465.38
387.588	459.38
387.813	469.38
388.038	474.38
388.263	487.38
388.488	479.38
388.713	463.38
388.938	460.38
389.163	477.38
389.387	458.38
389.612	469.38
389.837	434.38
390.062	457.38
390.287	462.38
390.512	455.38
390.736	473.38
390.961	486.38
391.186	473.38
391.411	470.38
391.636	477.38
391.86	491.38
392.085	488.38
392.31	497.38
392.534	487.38
392.759	492.38
392.984	472.38
393.208	471.38
393.433	473.38
393.658	479.38
393.882	472.38
394.107	469.38
394.331	461.38
394.556	484.38
394.78	486.38
395.005	483.38
395.229	487.38
395.454	501.38
395.678	498.38
395.903	491.38
396.127	508.38
396.352	523.38
396.576	507.38
396.801	501.38
397.025	496.38
397.249	535.38
397.474	507.38
397.698	485.38
397.922	508.38
398.147	513.38
398.371	524.38
398.595	502.38
398.82	567.38
399.044	556.38
399.268	601.38
399.492	625.38
399.717	667.38
399.941	691.38
400.165	689.38
400.389	690.38
400.613	635.38
400.837	611.38
401.062	561.38
401.286	555.38
401.51	531.38
401.734	537.38
401.958	546.38
402.182	542.38
402.406	545.38
402.63	557.38
402.854	554.38
403.078	562.38
403.302	561.38
403.526	576.38
403.75	566.38
403.974	574.38
404.198	589.38
404.422	577.38
404.645	598.38
404.869	562.38
405.093	614.38
405.317	673.38
405.541	684.38
405.765	630.38
405.988	621.38
406.212	596.38
406.436	626.38
406.66	616.38
406.883	618.38
407.107	621.38
407.331	684.38
407.555	721.38
407.778	735.38
408.002	712.38
408.226	653.38
408.449	639.38
408.673	631.38
408.896	639.38
409.12	686.38
409.344	684.38
409.567	600.38
409.791	588.38
410.014	576.38
410.238	564.38
410.461	579.38
410.685	585.38
410.908	601.38
411.132	618.38
411.355	653.38
411.578	622.38
411.802	593.38
412.025	573.38
412.249	576.38
412.472	599.38
412.695	666.38
412.919	642.38
413.142	593.38
413.365	558.38
413.589	556.38
413.812	531.38
414.035	544.38
414.258	551.38
414.482	548.38
414.705	552.38
414.928	555.38
415.151	537.38
415.374	550.38
415.597	540.38
415.821	534.38
416.044	545.38
416.267	534.38
416.49	570.38
416.713	533.38
416.936	528.38
417.159	550.38
417.382	552.38
417.605	551.38
417.828	551.38
418.051	549.38
418.274	556.38
418.497	557.38
418.72	559.38
418.943	545.38
419.166	569.38
419.389	616.38
419.611	601.38
419.834	575.38
420.057	584.38
420.28	577.38
420.503	572.38
420.726	557.38
420.948	582.38
421.171	621.38
421.394	666.38
421.617	565.38
421.839	569.38
422.062	563.38
422.285	589.38
422.507	606.38
422.73	717.38
422.953	683.38
423.175	610.38
423.398	621.38
423.621	582.38
423.843	633.38
424.066	605.38
424.288	595.38
424.511	602.38
424.733	693.38
424.956	750.38
425.178	713.38
425.401	678.38
425.623	730.38
425.846	645.38
426.068	617.38
426.291	597.38
426.513	591.38
426.735	591.38
426.958	627.38
427.18	693.38
427.402	844.38
427.625	924.38
427.847	796.38
428.069	671.38
428.292	613.38
428.514	558.38
428.736	558.38
428.958	566.38
429.181	551.38
429.403	533.38
429.625	537.38
429.847	588.38
430.069	611.38
430.292	607.38
430.514	553.38
430.736	539.38
430.958	562.38
431.18	517.38
431.402	511.38
431.624	517.38
431.846	532.38
432.068	513.38
432.29	532.38
432.512	536.38
432.734	519.38
432.956	546.38
433.178	541.38
433.4	521.38
433.622	524.38
433.844	524.38
434.066	533.38
434.287	533.38
434.509	524.38
434.731	547.38
434.953	565.38
435.175	553.38
435.397	567.38
435.618	616.38
435.84	629.38
436.062	719.38
436.284	794.38
436.505	643.38
436.727	599.38
436.949	560.38
437.17	532.38
437.392	533.38
437.614	563.38
437.835	586.38
438.057	638.38
438.278	771.38
438.5	757.38
438.721	861.38
438.943	849.38
439.165	651.38
439.386	593.38
439.608	603.38
439.829	572.38
440.05	612.38
440.272	639.38
440.493	593.38
440.715	594.38
440.936	557.38
441.158	561.38
441.379	554.38
441.6	575.38
441.822	569.38
442.043	640.38
442.264	731.38
442.486	730.38
442.707	646.38
442.928	589.38
443.149	625.38
443.371	617.38
443.592	647.38
443.813	758.38
444.034	835.38
444.255	684.38
444.476	638.38
444.698	601.38
444.919	632.38
445.14	675.38
445.361	627.38
445.582	633.38
445.803	681.38
446.024	790.38
446.245	796.38
446.466	720.38
446.687	622.38
446.908	580.38
447.129	558.38
447.35	528.38
447.571	531.38
447.792	533.38
448.013	526.38
448.234	551.38
448.455	608.38
448.675	711.38
448.896	846.38
449.117	722.38
449.338	650.38
449.559	767.38
449.779	883.38
450	699.38
450.221	571.38
450.442	539.38
450.662	519.38
450.883	507.38
451.104	537.38
451.324	507.38
451.545	518.38
451.766	498.38
451.986	463.38
452.207	465.38
452.428	477.38
452.648	482.38
452.869	477.38
453.089	463.38
453.31	473.38
453.53	489.38
453.751	473.38
453.971	461.38
454.192	479.38
454.412	461.38
454.633	474.38
454.853	465.38
455.073	466.38
455.294	502.38
455.514	542.38
455.734	555.38
455.955	485.38
456.175	470.38
456.395	439.38
456.616	464.38
456.836	463.38
457.056	438.38
457.276	456.38
457.497	447.38
457.717	478.38
457.937	451.38
458.157	459.38
458.377	472.38
458.598	490.38
458.818	542.38
459.038	600.38
459.258	620.38
459.478	551.38
459.698	532.38
459.918	520.38
460.138	527.38
460.358	533.38
460.578	547.38
460.798	549.38
461.018	538.38
461.238	547.38
461.458	541.38
461.678	543.38
461.898	548.38
462.118	548.38
462.338	555.38
462.558	555.38
462.777	596.38
462.997	583.38
463.217	608.38
463.437	622.38
463.657	608.38
463.876	604.38
464.096	595.38
464.316	588.38
464.536	597.38
464.755	583.38
464.975	551.38
465.195	589.38
465.414	620.38
465.634	569.38
465.854	556.38
466.073	559.38
466.293	537.38
466.512	500.38
466.732	476.38
466.951	507.38
467.171	505.38
467.391	497.38
467.61	505.38
467.829	493.38
468.049	508.38
468.268	509.38
468.488	493.38
468.707	504.38
468.927	496.38
469.146	492.38
469.365	489.38
469.585	494.38
469.804	517.38
470.023	503.38
470.243	489.38
470.462	513.38
470.681	531.38
470.901	532.38
471.12	508.38
471.339	499.38
471.558	517.38
471.777	487.38
471.997	489.38
472.216	490.38
472.435	516.38
472.654	533.38
472.873	499.38
473.092	493.38
473.311	484.38
473.53	508.38
473.749	499.38
473.968	539.38
474.187	630.38
474.406	649.38
474.625	565.38
474.844	524.38
475.063	499.38
475.282	508.38
475.501	518.38
475.72	508.38
475.939	516.38
476.158	536.38
476.377	521.38
476.596	509.38
476.814	538.38
477.033	548.38
477.252	571.38
477.471	537.38
477.69	558.38
477.908	561.38
478.127	555.38
478.346	545.38
478.564	565.38
478.783	564.38
479.002	580.38
479.22	581.38
479.439	602.38
479.658	611.38
479.876	618.38
480.095	613.38
480.313	645.38
480.532	653.38
480.751	622.38
480.969	618.38
481.188	677.38
481.406	679.38
481.624	626.38
481.843	616.38
482.061	587.38
482.28	611.38
482.498	586.38
482.717	576.38
482.935	570.38
483.153	584.38
483.372	617.38
483.59	610.38
483.808	603.38
484.027	622.38
484.245	605.38
484.463	609.38
484.681	626.38
484.9	612.38
485.118	602.38
485.336	599.38
485.554	611.38
485.772	609.38
485.99	619.38
486.209	635.38
486.427	607.38
486.645	629.38
486.863	636.38
487.081	613.38
487.299	657.38
487.517	630.38
487.735	638.38
487.953	623.38
488.171	620.38
488.389	638.38
488.607	647.38
488.825	620.38
489.043	641.38
489.261	653.38
489.479	651.38
489.696	635.38
489.914	644.38
490.132	658.38
490.35	659.38
490.568	684.38
490.786	686.38
491.003	715.38
491.221	696.38
491.439	711.38
491.657	735.38
491.874	727.38
492.092	726.38
492.31	730.38
492.527	734.38
492.745	734.38
492.963	747.38
493.18	740.38
493.398	747.38
493.615	753.38
493.833	758.38
494.05	748.38
494.268	742.38
494.485	734.38
494.703	726.38
494.92	771.38
495.138	751.38
495.355	727.38
495.573	777.38
495.79	755.38
496.008	747.38
496.225	748.38
496.442	759.38
496.66	762.38
496.877	764.38
497.094	768.38
497.312	776.38
497.529	771.38
497.746	820.38
497.963	821.38
498.181	824.38
498.398	823.38
498.615	837.38
498.832	889.38
499.049	909.38
499.267	943.38
499.484	967.38
499.701	1022.38
499.918	1090.38
500.135	1127.38
500.352	1189.38
500.569	1241.38
500.786	1182.38
501.003	1206.38
501.22	1132.38
501.437	1102.38
501.654	1047.38
501.871	1025.38
502.088	974.38
502.305	931.38
502.522	883.38
502.739	868.38
502.956	857.38
503.172	826.38
503.389	814.38
503.606	756.38
503.823	806.38
504.04	796.38
504.256	753.38
504.473	731.38
504.69	752.38
504.907	758.38
505.123	743.38
505.34	751.38
505.557	719.38
505.773	713.38
505.99	708.38
506.207	695.38
506.423	714.38
506.64	707.38
506.856	706.38
507.073	694.38
507.289	710.38
507.506	677.38
507.722	685.38
507.939	676.38
508.155	673.38
508.372	682.38
508.588	655.38
508.805	670.38
509.021	662.38
509.238	669.38
509.454	665.38
509.67	660.38
509.887	663.38
510.103	655.38
510.319	653.38
510.536	695.38
510.752	1018.38
510.968	862.38
511.184	654.38
511.401	651.38
511.617	634.38
511.833	602.38
512.049	618.38
512.265	608.38
512.481	649.38
512.698	619.38
512.914	612.38
513.13	613.38
513.346	601.38
513.562	610.38
513.778	645.38
513.994	617.38
514.21	611.38
514.426	625.38
514.642	645.38
514.858	677.38
515.074	701.38
515.29	791.38
515.506	1042.38
515.721	915.38
515.937	720.38
516.153	659.38
516.369	659.38
516.585	635.38
516.801	655.38
517.016	652.38
517.232	670.38
517.448	691.38
517.664	692.38
517.879	664.38
518.095	650.38
518.311	666.38
518.527	666.38
518.742	664.38
518.958	644.38
519.173	622.38
519.389	626.38
519.605	605.38
519.82	603.38
520.036	634.38
520.251	621.38
520.467	649.38
520.682	644.38
520.898	644.38
521.113	667.38
521.329	675.38
521.544	729.38
521.76	838.38
521.975	1242.38
522.19	1241.38
522.406	789.38
522.621	645.38
522.836	617.38
523.052	596.38
523.267	585.38
523.482	580.38
523.698	571.38
523.913	551.38
524.128	554.38
524.343	549.38
524.559	552.38
524.774	551.38
524.989	556.38
525.204	531.38
525.419	545.38
525.634	534.38
525.849	534.38
526.064	552.38
526.28	537.38
526.495	541.38
526.71	519.38
526.925	515.38
527.14	514.38
527.355	499.38
527.57	487.38
527.785	531.38
527.999	496.38
528.214	522.38
528.429	523.38
528.644	508.38
528.859	515.38
529.074	519.38
529.289	521.38
529.503	559.38
529.718	581.38
529.933	555.38
530.148	525.38
530.363	520.38
530.577	513.38
530.792	546.38
531.007	513.38
531.221	507.38
531.436	529.38
531.651	486.38
531.865	518.38
532.08	505.38
532.295	491.38
532.509	502.38
532.724	492.38
532.938	516.38
533.153	491.38
533.367	489.38
533.582	491.38
533.796	499.38
534.011	514.38
534.225	469.38
534.44	477.38
534.654	494.38
534.868	500.38
535.083	488.38
535.297	510.38
535.511	509.38
535.726	472.38
535.94	489.38
536.154	487.38
536.369	482.38
536.583	478.38
536.797	485.38
537.011	482.38
537.225	489.38
537.44	481.38
537.654	499.38
537.868	456.38
538.082	468.38
538.296	455.38
538.51	478.38
538.724	479.38
538.938	471.38
539.153	468.38
539.367	503.38
539.581	460.38
539.795	475.38
540.009	474.38
540.222	479.38
540.436	483.38
540.65	489.38
540.864	476.38
541.078	469.38
541.292	483.38
541.506	478.38
541.72	486.38
541.934	455.38
542.147	494.38
542.361	479.38
542.575	468.38
542.789	460.38
543.002	472.38
543.216	473.38
543.43	480.38
543.644	455.38
543.857	462.38
544.071	470.38
544.285	485.38
544.498	484.38
544.712	501.38
544.925	487.38
545.139	493.38
545.352	484.38
545.566	482.38
545.779	478.38
545.993	503.38
546.206	490.38
546.42	478.38
546.633	475.38
546.847	482.38
547.06	476.38
547.274	484.38
547.487	476.38
547.7	461.38
547.914	459.38
548.127	460.38
548.34	486.38
548.554	452.38
548.767	453.38
548.98	450.38
549.193	496.38
549.407	458.38
549.62	455.38
549.833	472.38
550.046	473.38
550.259	475.38
550.473	449.38
550.686	469.38
550.899	468.38
551.112	438.38
551.325	480.38
551.538	478.38
551.751	451.38
551.964	468.38
552.177	462.38
552.39	466.38
552.603	468.38
552.816	449.38
553.029	471.38
553.242	482.38
553.455	495.38
553.667	513.38
553.88	484.38
554.093	495.38
554.306	459.38
554.519	476.38
554.732	458.38
554.944	474.38
555.157	472.38
555.37	471.38
555.583	443.38
555.795	438.38
556.008	430.38
556.221	441.38
556.433	437.38
556.646	416.38
556.859	433.38
557.071	424.38
557.284	419.38
557.496	421.38
557.709	420.38
557.921	418.38
558.134	423.38
558.346	411.38
558.559	434.38
558.771	426.38
558.984	449.38
559.196	411.38
559.409	414.38
559.621	405.38
559.833	413.38
560.046	405.38
560.258	420.38
560.47	418.38
560.683	436.38
560.895	412.38
561.107	429.38
561.32	413.38
561.532	398.38
561.744	422.38
561.956	411.38
562.168	412.38
562.381	421.38
562.593	423.38
562.805	406.38
563.017	422.38
563.229	433.38
563.441	429.38
563.653	407.38
563.865	441.38
564.077	421.38
564.289	423.38
564.501	439.38
564.713	431.38
564.925	436.38
565.137	446.38
565.349	453.38
565.561	456.38
565.773	498.38
565.985	465.38
566.197	502.38
566.408	523.38
566.62	557.38
566.832	558.38
567.044	568.38
567.255	557.38
567.467	563.38
567.679	567.38
567.891	596.38
568.102	599.38
568.314	582.38
568.526	551.38
568.737	519.38
568.949	512.38
569.161	472.38
569.372	459.38
569.584	447.38
569.795	449.38
570.007	442.38
570.218	426.38
570.43	440.38
570.641	410.38
570.853	403.38
571.064	426.38
571.276	417.38
571.487	399.38
571.698	412.38
571.91	402.38
572.121	388.38
572.333	389.38
572.544	385.38
572.755	368.38
572.966	395.38
573.178	373.38
573.389	371.38
573.6	365.38
573.811	378.38
574.023	378.38
574.234	365.38
574.445	347.38
574.656	344.38
574.867	362.38
575.078	361.38
575.289	359.38
575.501	356.38
575.712	364.38
575.923	355.38
576.134	351.38
576.345	360.38
576.556	347.38
576.767	329.38
576.978	356.38
577.188	337.38
577.399	347.38
577.61	348.38
577.821	347.38
578.032	346.38
578.243	364.38
578.454	492.38
578.665	382.38
578.875	339.38
579.086	337.38
579.297	313.38
579.508	328.38
579.718	348.38
579.929	343.38
580.14	332.38
580.35	318.38
580.561	327.38
580.772	332.38
580.982	314.38
581.193	333.38
581.403	329.38
581.614	330.38
581.825	341.38
582.035	337.38
582.246	328.38
582.456	329.38
582.667	330.38
582.877	317.38
583.087	335.38
583.298	329.38
583.508	324.38
583.719	323.38
583.929	319.38
584.139	323.38
584.35	305.38
584.56	326.38
584.77	323.38
584.981	331.38
585.191	325.38
585.401	301.38
585.611	308.38
585.821	301.38
586.032	331.38
586.242	305.38
586.452	313.38
586.662	317.38
586.872	315.38
587.082	305.38
587.292	311.38
587.502	319.38
587.713	294.38
587.923	305.38
588.133	320.38
588.343	323.38
588.553	313.38
588.762	315.38
588.972	312.38
589.182	326.38
589.392	325.38
589.602	297.38
589.812	299.38
590.022	322.38
590.232	319.38
590.441	310.38
590.651	309.38
590.861	320.38
591.071	327.38
591.281	323.38
591.49	309.38
591.7	305.38
591.91	318.38
592.119	339.38
592.329	353.38
592.539	341.38
592.748	338.38
592.958	333.38
593.167	336.38
593.377	337.38
593.587	334.38
593.796	341.38
594.006	350.38
594.215	337.38
594.424	349.38
594.634	343.38
594.843	343.38
595.053	335.38
595.262	332.38
595.472	329.38
595.681	317.38
595.89	324.38
596.1	309.38
596.309	322.38
596.518	296.38
596.727	291.38
596.937	300.38
597.146	303.38
597.355	311.38
597.564	294.38
597.774	289.38
597.983	293.38
598.192	281.38
598.401	300.38
598.61	282.38
598.819	292.38
599.028	285.38
599.237	292.38
599.446	270.38
599.655	277.38
599.864	292.38
600.073	283.38
600.282	289.38
600.491	288.38
600.7	262.38
600.909	262.38
601.118	265.38
601.327	287.38
601.536	270.38
601.745	271.38
601.953	257.38
602.162	294.38
602.371	275.38
602.58	279.38
602.789	283.38
602.997	269.38
603.206	277.38
603.415	282.38
603.623	263.38
603.832	259.38
604.041	264.38
604.249	274.38
604.458	267.38
604.666	253.38
604.875	275.38
605.084	266.38
605.292	270.38
605.501	262.38
605.709	268.38
605.918	254.38
606.126	262.38
606.334	269.38
606.543	260.38
606.751	270.38
606.96	264.38
607.168	260.38
607.376	266.38
607.585	278.38
607.793	273.38
608.001	269.38
608.21	246.38
608.418	249.38
608.626	272.38
608.834	267.38
609.043	262.38
609.251	260.38
609.459	252.38
609.667	266.38
609.875	262.38
610.083	261.38
610.291	252.38
610.499	252.38
610.707	270.38
610.916	266.38
611.124	263.38
611.332	263.38
611.54	263.38
611.748	250.38
611.955	274.38
612.163	237.38
612.371	241.38
612.579	249.38
612.787	266.38
612.995	249.38
613.203	243.38
613.411	241.38
613.618	263.38
613.826	265.38
614.034	248.38
614.242	238.38
614.449	264.38
614.657	249.38
614.865	270.38
615.072	270.38
615.28	238.38
615.488	258.38
615.695	238.38
615.903	252.38
616.111	273.38
616.318	266.38
616.526	249.38
616.733	248.38
616.941	253.38
617.148	254.38
617.356	259.38
617.563	244.38
617.771	261.38
617.978	257.38
618.185	258.38
618.393	251.38
618.6	259.38
618.807	262.38
619.015	258.38
619.222	242.38
619.429	261.38
619.637	253.38
619.844	228.38
620.051	248.38
620.258	241.38
620.466	232.38
620.673	233.38
620.88	235.38
621.087	234.38
621.294	237.38
621.501	244.38
621.708	231.38
621.915	248.38
622.122	243.38
622.329	232.38
622.536	219.38
622.743	249.38
622.95	219.38
623.157	239.38
623.364	234.38
623.571	250.38
623.778	243.38
623.985	241.38
624.192	237.38
624.399	212.38
624.606	234.38
624.812	222.38
625.019	217.38
625.226	225.38
625.433	219.38
625.639	222.38
625.846	234.38
626.053	223.38
626.259	213.38
626.466	226.38
626.673	212.38
626.879	228.38
627.086	213.38
627.293	219.38
627.499	227.38
627.706	225.38
627.912	219.38
628.119	231.38
628.325	226.38
628.532	213.38
628.738	211.38
628.945	221.38
629.151	216.38
629.357	222.38
629.564	214.38
629.77	227.38
629.976	218.38
630.183	223.38
630.389	223.38
630.595	208.38
630.802	193.38
631.008	220.38
631.214	213.38
631.42	205.38
631.627	199.38
631.833	209.38
632.039	204.38
632.245	216.38
632.451	205.38
632.657	210.38
632.863	192.38
633.069	194.38
633.275	185.38
633.481	201.38
633.688	188.38
633.893	195.38
634.099	188.38
634.305	185.38
634.511	193.38
634.717	200.38
634.923	193.38
635.129	189.38
635.335	187.38
635.541	203.38
635.747	179.38
635.952	195.38
636.158	199.38
636.364	178.38
636.57	195.38
636.775	193.38
636.981	196.38
637.187	185.38
637.392	200.38
637.598	207.38
637.804	204.38
638.009	197.38
638.215	179.38
638.421	191.38
638.626	187.38
638.832	190.38
639.037	163.38
639.243	184.38
639.448	189.38
639.654	195.38
639.859	188.38
640.065	188.38
640.27	185.38
640.475	168.38
640.681	184.38
640.886	181.38
641.091	187.38
641.297	197.38
641.502	186.38
641.707	193.38
641.913	182.38
642.118	189.38
642.323	191.38
642.528	169.38
642.733	189.38
642.939	177.38
643.144	170.38
643.349	173.38
643.554	173.38
643.759	157.38
643.964	179.38
644.169	171.38
644.374	165.38
644.579	185.38
644.784	178.38
644.989	172.38
645.194	182.38
645.399	175.38
645.604	171.38
645.809	182.38
646.014	193.38
646.219	159.38
646.423	161.38
646.628	181.38
646.833	175.38
647.038	177.38
647.243	190.38
647.447	174.38
647.652	181.38
647.857	177.38
648.062	166.38
648.266	185.38
648.471	162.38
648.676	176.38
648.88	189.38
649.085	184.38
649.289	188.38
649.494	191.38
649.698	190.38
649.903	193.38
650.107	182.38
650.312	163.38
650.516	168.38
650.721	165.38
650.925	158.38
651.13	173.38
651.334	172.38
651.539	156.38
651.743	156.38
651.947	156.38
652.152	166.38
652.356	153.38
652.56	147.38
652.764	147.38
652.969	142.38
653.173	148.38
653.377	150.38
653.581	133.38
653.785	136.38
653.99	145.38
654.194	140.38
654.398	142.38
654.602	148.38
654.806	143.38
655.01	147.38
655.214	172.38
655.418	150.38
655.622	141.38
655.826	131.38
656.03	133.38
656.234	139.38
656.438	147.38
656.642	139.38
656.846	143.38
657.049	134.38
657.253	135.38
657.457	143.38
657.661	129.38
657.865	106.38
658.068	110.38
658.272	118.38
658.476	123.38
658.68	123.38
658.883	110.38
659.087	109.38
659.291	104.38
659.494	103.38
659.698	116.38
659.901	101.38
660.105	95.38
660.309	80.38
660.512	87.38
660.716	93.38
660.919	86.38
661.123	97.38
661.326	88.38
661.53	105.38
661.733	89.38
661.936	99.38
662.14	84.38
662.343	93.38
662.546	86.38
662.75	87.38
662.953	80.38
663.156	87.38
663.36	77.38
663.563	73.38
663.766	78.38
663.969	90.38
664.173	86.38
664.376	76.38
664.579	80.38
664.782	78.38
664.985	79.38
665.188	78.38
665.391	86.38
665.594	80.38
665.797	71.38
666	65.38
666.203	85.38
666.406	89.38
666.609	78.38
666.812	87.38
667.015	78.38
667.218	87.38
667.421	100.38
667.624	76.38
667.827	85.38
668.03	87.38
668.232	82.38
668.435	85.38
668.638	78.38
668.841	98.38
669.043	93.38
669.246	103.38
669.449	88.38
669.651	90.38
669.854	84.38
670.057	100.38
670.259	75.38
670.462	85.38
670.665	81.38
670.867	83.38
671.07	71.38
671.272	83.38
671.475	91.38
671.677	94.38
671.88	77.38
672.082	83.38
672.284	94.38
672.487	83.38
672.689	93.38
672.892	92.38
