Data from 1975.PennyLincolnUp.Lamp.En5.5.200Scan.071719.P1.Changed Mount._HRD10591_15-57-01-859.txt Node
Date: Thu Jul 18 15:57:01 EDT 2019
User: cochatt
Spectrometer: HR+D1059
Trigger mode: 1
Integration Time (sec): 1.000000E-1
Scans to average: 1
Electric dark correction enabled: true
Nonlinearity correction enabled: false
Boxcar width: 0
XAxis mode: Wavelengths
Number of Pixels in Spectrum: 2048
>>>>>Begin Spectral Data<<<<<
223.165	-19.12
223.4	-19.12
223.635	-19.12
223.869	-8.12
224.104	-23.12
224.338	-26.12
224.573	-7.12
224.808	-22.12
225.042	0.88
225.277	-1.12
225.511	-1.12
225.746	-0.12
225.98	9.88
226.215	11.88
226.449	17.88
226.683	20.88
226.918	17.88
227.152	28.88
227.387	29.88
227.621	40.88
227.856	34.88
228.09	51.88
228.324	53.88
228.559	46.88
228.793	62.88
229.027	86.88
229.262	114.88
229.496	104.88
229.73	120.88
229.964	150.88
230.199	135.88
230.433	94.88
230.667	102.88
230.901	124.88
231.136	116.88
231.37	101.88
231.604	110.88
231.838	109.88
232.072	118.88
232.306	93.88
232.541	103.88
232.775	121.88
233.009	103.88
233.243	103.88
233.477	114.88
233.711	121.88
233.945	126.88
234.179	108.88
234.413	106.88
234.647	117.88
234.881	128.88
235.115	123.88
235.349	120.88
235.583	129.88
235.817	121.88
236.051	136.88
236.285	138.88
236.519	123.88
236.753	139.88
236.987	152.88
237.221	168.88
237.455	209.88
237.689	190.88
237.922	144.88
238.156	128.88
238.39	123.88
238.624	137.88
238.858	132.88
239.091	118.88
239.325	116.88
239.559	113.88
239.793	121.88
240.027	131.88
240.26	133.88
240.494	153.88
240.728	147.88
240.961	143.88
241.195	143.88
241.429	131.88
241.662	146.88
241.896	126.88
242.13	123.88
242.363	118.88
242.597	123.88
242.83	130.88
243.064	144.88
243.298	140.88
243.531	148.88
243.765	128.88
243.998	139.88
244.232	132.88
244.465	138.88
244.699	138.88
244.932	135.88
245.166	152.88
245.399	146.88
245.633	146.88
245.866	158.88
246.099	136.88
246.333	164.88
246.566	159.88
246.8	157.88
247.033	168.88
247.266	142.88
247.5	154.88
247.733	187.88
247.966	161.88
248.2	162.88
248.433	169.88
248.666	156.88
248.899	175.88
249.133	190.88
249.366	202.88
249.599	196.88
249.832	193.88
250.066	161.88
250.299	170.88
250.532	199.88
250.765	204.88
250.998	227.88
251.231	227.88
251.465	213.88
251.698	216.88
251.931	192.88
252.164	192.88
252.397	194.88
252.63	170.88
252.863	212.88
253.096	208.88
253.329	233.88
253.562	224.88
253.795	206.88
254.028	222.88
254.261	219.88
254.494	226.88
254.727	246.88
254.96	262.88
255.193	268.88
255.426	223.88
255.659	224.88
255.892	235.88
256.124	245.88
256.357	237.88
256.59	228.88
256.823	209.88
257.056	206.88
257.289	199.88
257.521	218.88
257.754	219.88
257.987	194.88
258.22	221.88
258.452	208.88
258.685	210.88
258.918	219.88
259.151	214.88
259.383	210.88
259.616	215.88
259.849	251.88
260.081	238.88
260.314	260.88
260.547	259.88
260.779	249.88
261.012	245.88
261.244	234.88
261.477	220.88
261.71	216.88
261.942	201.88
262.175	210.88
262.407	233.88
262.64	214.88
262.872	213.88
263.105	214.88
263.337	198.88
263.57	199.88
263.802	216.88
264.035	218.88
264.267	208.88
264.499	209.88
264.732	219.88
264.964	210.88
265.197	213.88
265.429	218.88
265.661	228.88
265.894	242.88
266.126	203.88
266.358	231.88
266.591	223.88
266.823	203.88
267.055	241.88
267.287	230.88
267.52	238.88
267.752	225.88
267.984	236.88
268.216	218.88
268.448	249.88
268.681	232.88
268.913	255.88
269.145	279.88
269.377	279.88
269.609	278.88
269.841	266.88
270.073	276.88
270.306	284.88
270.538	304.88
270.77	322.88
271.002	294.88
271.234	264.88
271.466	293.88
271.698	322.88
271.93	326.88
272.162	330.88
272.394	318.88
272.626	302.88
272.858	277.88
273.09	277.88
273.322	269.88
273.553	262.88
273.785	283.88
274.017	264.88
274.249	275.88
274.481	260.88
274.713	260.88
274.945	270.88
275.176	266.88
275.408	285.88
275.64	261.88
275.872	262.88
276.104	258.88
276.335	282.88
276.567	277.88
276.799	299.88
277.031	305.88
277.262	311.88
277.494	339.88
277.726	311.88
277.957	289.88
278.189	274.88
278.421	286.88
278.652	269.88
278.884	270.88
279.115	254.88
279.347	279.88
279.579	272.88
279.81	271.88
280.042	276.88
280.273	273.88
280.505	285.88
280.736	280.88
280.968	257.88
281.199	267.88
281.431	264.88
281.662	271.88
281.894	274.88
282.125	283.88
282.356	280.88
282.588	305.88
282.819	281.88
283.051	271.88
283.282	281.88
283.513	284.88
283.745	288.88
283.976	291.88
284.207	298.88
284.439	297.88
284.67	296.88
284.901	271.88
285.132	282.88
285.364	285.88
285.595	275.88
285.826	306.88
286.057	293.88
286.288	299.88
286.52	307.88
286.751	292.88
286.982	288.88
287.213	288.88
287.444	295.88
287.675	310.88
287.906	344.88
288.138	311.88
288.369	322.88
288.6	310.88
288.831	306.88
289.062	308.88
289.293	314.88
289.524	296.88
289.755	305.88
289.986	304.88
290.217	291.88
290.448	308.88
290.679	295.88
290.91	297.88
291.141	306.88
291.371	305.88
291.602	305.88
291.833	302.88
292.064	299.88
292.295	298.88
292.526	314.88
292.757	301.88
292.987	293.88
293.218	284.88
293.449	316.88
293.68	309.88
293.91	297.88
294.141	299.88
294.372	280.88
294.603	293.88
294.833	303.88
295.064	309.88
295.295	321.88
295.525	308.88
295.756	306.88
295.987	314.88
296.217	330.88
296.448	343.88
296.679	302.88
296.909	305.88
297.14	305.88
297.37	318.88
297.601	325.88
297.831	303.88
298.062	316.88
298.292	319.88
298.523	291.88
298.753	321.88
298.984	310.88
299.214	314.88
299.445	323.88
299.675	329.88
299.905	315.88
300.136	310.88
300.366	321.88
300.597	329.88
300.827	333.88
301.057	332.88
301.288	330.88
301.518	333.88
301.748	338.88
301.979	351.88
302.209	327.88
302.439	339.88
302.669	337.88
302.9	321.88
303.13	328.88
303.36	327.88
303.59	319.88
303.82	343.88
304.051	333.88
304.281	330.88
304.511	334.88
304.741	313.88
304.971	330.88
305.201	322.88
305.431	347.88
305.661	333.88
305.891	339.88
306.121	340.88
306.352	338.88
306.582	338.88
306.812	351.88
307.042	325.88
307.272	347.88
307.502	326.88
307.731	328.88
307.961	337.88
308.191	344.88
308.421	349.88
308.651	340.88
308.881	366.88
309.111	370.88
309.341	353.88
309.571	363.88
309.8	353.88
310.03	374.88
310.26	380.88
310.49	351.88
310.72	376.88
310.949	372.88
311.179	378.88
311.409	365.88
311.639	379.88
311.868	375.88
312.098	382.88
312.328	376.88
312.557	370.88
312.787	401.88
313.017	385.88
313.246	391.88
313.476	356.88
313.706	356.88
313.935	363.88
314.165	396.88
314.394	395.88
314.624	375.88
314.853	386.88
315.083	400.88
315.312	379.88
315.542	387.88
315.771	359.88
316.001	380.88
316.23	398.88
316.46	372.88
316.689	390.88
316.919	374.88
317.148	373.88
317.377	384.88
317.607	362.88
317.836	372.88
318.065	390.88
318.295	374.88
318.524	375.88
318.753	380.88
318.983	378.88
319.212	370.88
319.441	384.88
319.67	363.88
319.9	386.88
320.129	394.88
320.358	393.88
320.587	379.88
320.816	403.88
321.046	394.88
321.275	411.88
321.504	407.88
321.733	399.88
321.962	386.88
322.191	407.88
322.42	410.88
322.649	399.88
322.878	421.88
323.108	432.88
323.337	438.88
323.566	459.88
323.795	459.88
324.024	501.88
324.253	606.88
324.482	809.88
324.71	1240.88
324.939	1848.88
325.168	1633.88
325.397	834.88
325.626	599.88
325.855	517.88
326.084	479.88
326.313	456.88
326.542	452.88
326.77	497.88
326.999	572.88
327.228	744.88
327.457	1140.88
327.686	1415.88
327.914	960.88
328.143	633.88
328.372	579.88
328.6	525.88
328.829	523.88
329.058	522.88
329.287	516.88
329.515	515.88
329.744	482.88
329.972	480.88
330.201	503.88
330.43	530.88
330.658	542.88
330.887	548.88
331.115	555.88
331.344	494.88
331.572	482.88
331.801	471.88
332.03	483.88
332.258	462.88
332.486	462.88
332.715	472.88
332.943	470.88
333.172	470.88
333.4	491.88
333.629	498.88
333.857	496.88
334.085	491.88
334.314	500.88
334.542	544.88
334.771	584.88
334.999	507.88
335.227	490.88
335.455	494.88
335.684	481.88
335.912	451.88
336.14	446.88
336.369	462.88
336.597	482.88
336.825	463.88
337.053	440.88
337.281	457.88
337.51	446.88
337.738	445.88
337.966	457.88
338.194	441.88
338.422	444.88
338.65	435.88
338.878	434.88
339.106	456.88
339.334	437.88
339.562	432.88
339.79	435.88
340.018	430.88
340.246	437.88
340.474	432.88
340.702	450.88
340.93	419.88
341.158	422.88
341.386	434.88
341.614	451.88
341.842	434.88
342.07	434.88
342.298	411.88
342.526	423.88
342.754	424.88
342.981	399.88
343.209	416.88
343.437	425.88
343.665	425.88
343.893	439.88
344.12	429.88
344.348	481.88
344.576	459.88
344.804	446.88
345.031	433.88
345.259	443.88
345.487	439.88
345.714	435.88
345.942	434.88
346.17	429.88
346.397	437.88
346.625	420.88
346.853	422.88
347.08	443.88
347.308	428.88
347.535	436.88
347.763	447.88
347.99	426.88
348.218	434.88
348.445	421.88
348.673	436.88
348.9	413.88
349.128	400.88
349.355	378.88
349.583	400.88
349.81	418.88
350.037	410.88
350.265	408.88
350.492	411.88
350.72	402.88
350.947	397.88
351.174	421.88
351.402	435.88
351.629	434.88
351.856	409.88
352.083	420.88
352.311	442.88
352.538	428.88
352.765	445.88
352.992	431.88
353.22	411.88
353.447	417.88
353.674	433.88
353.901	400.88
354.128	406.88
354.355	402.88
354.583	397.88
354.81	399.88
355.037	390.88
355.264	415.88
355.491	402.88
355.718	390.88
355.945	393.88
356.172	395.88
356.399	396.88
356.626	410.88
356.853	400.88
357.08	394.88
357.307	393.88
357.534	414.88
357.761	401.88
357.988	410.88
358.215	394.88
358.441	403.88
358.668	397.88
358.895	395.88
359.122	392.88
359.349	413.88
359.576	408.88
359.802	437.88
360.029	459.88
360.256	453.88
360.483	443.88
360.709	446.88
360.936	424.88
361.163	403.88
361.39	413.88
361.616	422.88
361.843	436.88
362.07	439.88
362.296	390.88
362.523	429.88
362.749	422.88
362.976	427.88
363.203	412.88
363.429	431.88
363.656	438.88
363.882	423.88
364.109	428.88
364.335	420.88
364.562	408.88
364.788	413.88
365.015	416.88
365.241	421.88
365.468	406.88
365.694	414.88
365.92	419.88
366.147	402.88
366.373	404.88
366.599	409.88
366.826	392.88
367.052	394.88
367.278	400.88
367.505	399.88
367.731	414.88
367.957	432.88
368.184	422.88
368.41	424.88
368.636	410.88
368.862	436.88
369.089	420.88
369.315	414.88
369.541	422.88
369.767	414.88
369.993	439.88
370.219	404.88
370.445	426.88
370.672	415.88
370.898	394.88
371.124	416.88
371.35	410.88
371.576	414.88
371.802	414.88
372.028	425.88
372.254	411.88
372.48	423.88
372.706	430.88
372.932	436.88
373.158	430.88
373.384	416.88
373.61	422.88
373.835	435.88
374.061	414.88
374.287	425.88
374.513	422.88
374.739	447.88
374.965	437.88
375.191	433.88
375.416	419.88
375.642	435.88
375.868	428.88
376.094	418.88
376.319	415.88
376.545	405.88
376.771	402.88
376.997	411.88
377.222	420.88
377.448	405.88
377.674	414.88
377.899	389.88
378.125	433.88
378.35	418.88
378.576	427.88
378.802	424.88
379.027	410.88
379.253	425.88
379.478	412.88
379.704	419.88
379.929	431.88
380.155	426.88
380.38	405.88
380.606	446.88
380.831	408.88
381.057	413.88
381.282	415.88
381.507	431.88
381.733	411.88
381.958	426.88
382.184	435.88
382.409	417.88
382.634	445.88
382.86	436.88
383.085	439.88
383.31	431.88
383.535	441.88
383.761	431.88
383.986	467.88
384.211	438.88
384.436	435.88
384.662	462.88
384.887	472.88
385.112	456.88
385.337	472.88
385.562	468.88
385.787	459.88
386.013	468.88
386.238	475.88
386.463	465.88
386.688	465.88
386.913	471.88
387.138	473.88
387.363	470.88
387.588	472.88
387.813	466.88
388.038	468.88
388.263	474.88
388.488	463.88
388.713	462.88
388.938	490.88
389.163	485.88
389.387	452.88
389.612	454.88
389.837	473.88
390.062	459.88
390.287	466.88
390.512	455.88
390.736	468.88
390.961	476.88
391.186	460.88
391.411	480.88
391.636	496.88
391.86	489.88
392.085	503.88
392.31	499.88
392.534	504.88
392.759	479.88
392.984	501.88
393.208	486.88
393.433	483.88
393.658	484.88
393.882	490.88
394.107	483.88
394.331	494.88
394.556	489.88
394.78	478.88
395.005	466.88
395.229	482.88
395.454	494.88
395.678	490.88
395.903	494.88
396.127	516.88
396.352	532.88
396.576	504.88
396.801	496.88
397.025	487.88
397.249	498.88
397.474	488.88
397.698	496.88
397.922	497.88
398.147	512.88
398.371	549.88
398.595	532.88
398.82	538.88
399.044	569.88
399.268	586.88
399.492	627.88
399.717	675.88
399.941	673.88
400.165	707.88
400.389	699.88
400.613	627.88
400.837	601.88
401.062	578.88
401.286	571.88
401.51	553.88
401.734	523.88
401.958	526.88
402.182	570.88
402.406	536.88
402.63	556.88
402.854	558.88
403.078	560.88
403.302	579.88
403.526	592.88
403.75	582.88
403.974	578.88
404.198	570.88
404.422	589.88
404.645	580.88
404.869	600.88
405.093	646.88
405.317	672.88
405.541	693.88
405.765	652.88
405.988	611.88
406.212	598.88
406.436	624.88
406.66	631.88
406.883	625.88
407.107	664.88
407.331	697.88
407.555	752.88
407.778	774.88
408.002	697.88
408.226	634.88
408.449	668.88
408.673	616.88
408.896	651.88
409.12	698.88
409.344	637.88
409.567	624.88
409.791	601.88
410.014	593.88
410.238	551.88
410.461	587.88
410.685	575.88
410.908	586.88
411.132	606.88
411.355	671.88
411.578	633.88
411.802	590.88
412.025	577.88
412.249	575.88
412.472	616.88
412.695	645.88
412.919	607.88
413.142	567.88
413.365	567.88
413.589	540.88
413.812	545.88
414.035	520.88
414.258	538.88
414.482	560.88
414.705	571.88
414.928	556.88
415.151	550.88
415.374	545.88
415.597	536.88
415.821	562.88
416.044	528.88
416.267	551.88
416.49	540.88
416.713	550.88
416.936	532.88
417.159	542.88
417.382	547.88
417.605	568.88
417.828	549.88
418.051	564.88
418.274	536.88
418.497	561.88
418.72	572.88
418.943	537.88
419.166	560.88
419.389	600.88
419.611	587.88
419.834	572.88
420.057	579.88
420.28	581.88
420.503	590.88
420.726	562.88
420.948	599.88
421.171	628.88
421.394	657.88
421.617	587.88
421.839	564.88
422.062	578.88
422.285	578.88
422.507	628.88
422.73	720.88
422.953	686.88
423.175	619.88
423.398	629.88
423.621	592.88
423.843	595.88
424.066	622.88
424.288	589.88
424.511	632.88
424.733	672.88
424.956	746.88
425.178	723.88
425.401	697.88
425.623	734.88
425.846	640.88
426.068	594.88
426.291	604.88
426.513	593.88
426.735	607.88
426.958	629.88
427.18	736.88
427.402	838.88
427.625	922.88
427.847	798.88
428.069	741.88
428.292	631.88
428.514	593.88
428.736	552.88
428.958	546.88
429.181	565.88
429.403	536.88
429.625	558.88
429.847	591.88
430.069	663.88
430.292	658.88
430.514	571.88
430.736	544.88
430.958	573.88
431.18	546.88
431.402	540.88
431.624	513.88
431.846	516.88
432.068	520.88
432.29	547.88
432.512	526.88
432.734	528.88
432.956	531.88
433.178	548.88
433.4	547.88
433.622	548.88
433.844	527.88
434.066	536.88
434.287	511.88
434.509	528.88
434.731	544.88
434.953	567.88
435.175	567.88
435.397	599.88
435.618	601.88
435.84	657.88
436.062	717.88
436.284	808.88
436.505	654.88
436.727	629.88
436.949	572.88
437.17	578.88
437.392	543.88
437.614	540.88
437.835	596.88
438.057	682.88
438.278	786.88
438.5	750.88
438.721	858.88
438.943	826.88
439.165	658.88
439.386	608.88
439.608	592.88
439.829	590.88
440.05	612.88
440.272	662.88
440.493	627.88
440.715	590.88
440.936	548.88
441.158	562.88
441.379	556.88
441.6	610.88
441.822	588.88
442.043	642.88
442.264	723.88
442.486	778.88
442.707	666.88
442.928	609.88
443.149	626.88
443.371	664.88
443.592	660.88
443.813	784.88
444.034	859.88
444.255	681.88
444.476	612.88
444.698	600.88
444.919	634.88
445.14	731.88
445.361	683.88
445.582	658.88
445.803	698.88
446.024	789.88
446.245	810.88
446.466	734.88
446.687	616.88
446.908	580.88
447.129	560.88
447.35	562.88
447.571	529.88
447.792	534.88
448.013	548.88
448.234	563.88
448.455	589.88
448.675	706.88
448.896	863.88
449.117	722.88
449.338	661.88
449.559	792.88
449.779	878.88
450	710.88
450.221	593.88
450.442	514.88
450.662	540.88
450.883	522.88
451.104	549.88
451.324	522.88
451.545	517.88
451.766	508.88
451.986	496.88
452.207	497.88
452.428	486.88
452.648	480.88
452.869	481.88
453.089	499.88
453.31	497.88
453.53	505.88
453.751	486.88
453.971	467.88
454.192	491.88
454.412	473.88
454.633	470.88
454.853	467.88
455.073	472.88
455.294	501.88
455.514	561.88
455.734	562.88
455.955	476.88
456.175	468.88
456.395	478.88
456.616	455.88
456.836	440.88
457.056	449.88
457.276	420.88
457.497	442.88
457.717	471.88
457.937	462.88
458.157	472.88
458.377	496.88
458.598	501.88
458.818	526.88
459.038	616.88
459.258	646.88
459.478	579.88
459.698	508.88
459.918	514.88
460.138	520.88
460.358	529.88
460.578	555.88
460.798	564.88
461.018	545.88
461.238	530.88
461.458	563.88
461.678	548.88
461.898	562.88
462.118	554.88
462.338	551.88
462.558	571.88
462.777	580.88
462.997	617.88
463.217	610.88
463.437	622.88
463.657	593.88
463.876	603.88
464.096	598.88
464.316	588.88
464.536	603.88
464.755	596.88
464.975	601.88
465.195	593.88
465.414	639.88
465.634	582.88
465.854	554.88
466.073	525.88
466.293	541.88
466.512	516.88
466.732	495.88
466.951	500.88
467.171	491.88
467.391	491.88
467.61	489.88
467.829	523.88
468.049	520.88
468.268	508.88
468.488	503.88
468.707	499.88
468.927	509.88
469.146	484.88
469.365	496.88
469.585	473.88
469.804	510.88
470.023	502.88
470.243	504.88
470.462	509.88
470.681	520.88
470.901	518.88
471.12	513.88
471.339	514.88
471.558	534.88
471.777	512.88
471.997	506.88
472.216	514.88
472.435	531.88
472.654	514.88
472.873	512.88
473.092	510.88
473.311	510.88
473.53	504.88
473.749	522.88
473.968	575.88
474.187	640.88
474.406	678.88
474.625	569.88
474.844	519.88
475.063	518.88
475.282	517.88
475.501	512.88
475.72	526.88
475.939	536.88
476.158	504.88
476.377	520.88
476.596	517.88
476.814	544.88
477.033	527.88
477.252	521.88
477.471	530.88
477.69	546.88
477.908	560.88
478.127	571.88
478.346	540.88
478.564	583.88
478.783	587.88
479.002	612.88
479.22	592.88
479.439	593.88
479.658	629.88
479.876	609.88
480.095	619.88
480.313	658.88
480.532	642.88
480.751	620.88
480.969	634.88
481.188	698.88
481.406	719.88
481.624	640.88
481.843	618.88
482.061	606.88
482.28	612.88
482.498	610.88
482.717	608.88
482.935	569.88
483.153	584.88
483.372	616.88
483.59	609.88
483.808	612.88
484.027	598.88
484.245	596.88
484.463	598.88
484.681	636.88
484.9	592.88
485.118	621.88
485.336	629.88
485.554	620.88
485.772	623.88
485.99	609.88
486.209	592.88
486.427	598.88
486.645	638.88
486.863	643.88
487.081	649.88
487.299	644.88
487.517	635.88
487.735	642.88
487.953	626.88
488.171	642.88
488.389	655.88
488.607	634.88
488.825	627.88
489.043	654.88
489.261	634.88
489.479	660.88
489.696	640.88
489.914	652.88
490.132	650.88
490.35	669.88
490.568	683.88
490.786	687.88
491.003	696.88
491.221	716.88
491.439	719.88
491.657	708.88
491.874	741.88
492.092	768.88
492.31	744.88
492.527	763.88
492.745	772.88
492.963	766.88
493.18	735.88
493.398	736.88
493.615	766.88
493.833	754.88
494.05	775.88
494.268	752.88
494.485	764.88
494.703	782.88
494.92	770.88
495.138	766.88
495.355	762.88
495.573	761.88
495.79	756.88
496.008	770.88
496.225	763.88
496.442	755.88
496.66	770.88
496.877	766.88
497.094	772.88
497.312	769.88
497.529	796.88
497.746	802.88
497.963	806.88
498.181	810.88
498.398	838.88
498.615	890.88
498.832	894.88
499.049	900.88
499.267	923.88
499.484	969.88
499.701	1024.88
499.918	1050.88
500.135	1143.88
500.352	1202.88
500.569	1250.88
500.786	1226.88
501.003	1217.88
501.22	1138.88
501.437	1098.88
501.654	1026.88
501.871	993.88
502.088	954.88
502.305	895.88
502.522	879.88
502.739	880.88
502.956	815.88
503.172	826.88
503.389	812.88
503.606	792.88
503.823	816.88
504.04	777.88
504.256	761.88
504.473	752.88
504.69	751.88
504.907	783.88
505.123	741.88
505.34	739.88
505.557	720.88
505.773	728.88
505.99	729.88
506.207	716.88
506.423	728.88
506.64	686.88
506.856	725.88
507.073	711.88
507.289	705.88
507.506	693.88
507.722	698.88
507.939	734.88
508.155	686.88
508.372	692.88
508.588	702.88
508.805	666.88
509.021	651.88
509.238	660.88
509.454	688.88
509.67	658.88
509.887	667.88
510.103	639.88
510.319	663.88
510.536	682.88
510.752	1050.88
510.968	903.88
511.184	663.88
511.401	641.88
511.617	634.88
511.833	638.88
512.049	633.88
512.265	616.88
512.481	629.88
512.698	627.88
512.914	624.88
513.13	644.88
513.346	620.88
513.562	638.88
513.778	626.88
513.994	633.88
514.21	642.88
514.426	661.88
514.642	671.88
514.858	682.88
515.074	724.88
515.29	808.88
515.506	1080.88
515.721	920.88
515.937	723.88
516.153	668.88
516.369	658.88
516.585	659.88
516.801	654.88
517.016	700.88
517.232	667.88
517.448	660.88
517.664	684.88
517.879	682.88
518.095	687.88
518.311	691.88
518.527	652.88
518.742	677.88
518.958	668.88
519.173	599.88
519.389	627.88
519.605	636.88
519.82	628.88
520.036	648.88
520.251	679.88
520.467	651.88
520.682	658.88
520.898	674.88
521.113	676.88
521.329	698.88
521.544	740.88
521.76	878.88
521.975	1308.88
522.19	1338.88
522.406	802.88
522.621	670.88
522.836	643.88
523.052	626.88
523.267	570.88
523.482	565.88
523.698	580.88
523.913	574.88
524.128	575.88
524.343	576.88
524.559	538.88
524.774	545.88
524.989	534.88
525.204	545.88
525.419	552.88
525.634	540.88
525.849	538.88
526.064	533.88
526.28	546.88
526.495	515.88
526.71	525.88
526.925	520.88
527.14	521.88
527.355	514.88
527.57	506.88
527.785	506.88
527.999	515.88
528.214	519.88
528.429	491.88
528.644	525.88
528.859	530.88
529.074	524.88
529.289	518.88
529.503	605.88
529.718	575.88
529.933	555.88
530.148	544.88
530.363	518.88
530.577	527.88
530.792	528.88
531.007	499.88
531.221	517.88
531.436	517.88
531.651	500.88
531.865	502.88
532.08	503.88
532.295	506.88
532.509	492.88
532.724	504.88
532.938	495.88
533.153	500.88
533.367	494.88
533.582	492.88
533.796	508.88
534.011	519.88
534.225	514.88
534.44	485.88
534.654	494.88
534.868	498.88
535.083	493.88
535.297	511.88
535.511	494.88
535.726	503.88
535.94	516.88
536.154	496.88
536.369	475.88
536.583	475.88
536.797	488.88
537.011	471.88
537.225	470.88
537.44	477.88
537.654	477.88
537.868	485.88
538.082	491.88
538.296	460.88
538.51	490.88
538.724	476.88
538.938	492.88
539.153	477.88
539.367	510.88
539.581	461.88
539.795	470.88
540.009	468.88
540.222	477.88
540.436	478.88
540.65	475.88
540.864	474.88
541.078	495.88
541.292	480.88
541.506	482.88
541.72	471.88
541.934	506.88
542.147	489.88
542.361	475.88
542.575	476.88
542.789	481.88
543.002	490.88
543.216	456.88
543.43	484.88
543.644	476.88
543.857	478.88
544.071	473.88
544.285	470.88
544.498	465.88
544.712	486.88
544.925	483.88
545.139	490.88
545.352	483.88
545.566	496.88
545.779	477.88
545.993	481.88
546.206	474.88
546.42	458.88
546.633	461.88
546.847	464.88
547.06	466.88
547.274	460.88
547.487	459.88
547.7	460.88
547.914	462.88
548.127	471.88
548.34	479.88
548.554	467.88
548.767	479.88
548.98	481.88
549.193	497.88
549.407	462.88
549.62	483.88
549.833	471.88
550.046	460.88
550.259	472.88
550.473	459.88
550.686	451.88
550.899	455.88
551.112	443.88
551.325	457.88
551.538	434.88
551.751	462.88
551.964	447.88
552.177	472.88
552.39	466.88
552.603	494.88
552.816	491.88
553.029	486.88
553.242	488.88
553.455	498.88
553.667	491.88
553.88	502.88
554.093	470.88
554.306	472.88
554.519	479.88
554.732	471.88
554.944	459.88
555.157	448.88
555.37	473.88
555.583	440.88
555.795	443.88
556.008	433.88
556.221	434.88
556.433	446.88
556.646	434.88
556.859	448.88
557.071	427.88
557.284	430.88
557.496	438.88
557.709	430.88
557.921	412.88
558.134	424.88
558.346	428.88
558.559	435.88
558.771	417.88
558.984	420.88
559.196	397.88
559.409	423.88
559.621	434.88
559.833	420.88
560.046	403.88
560.258	418.88
560.47	421.88
560.683	424.88
560.895	423.88
561.107	405.88
561.32	411.88
561.532	413.88
561.744	404.88
561.956	396.88
562.168	401.88
562.381	420.88
562.593	418.88
562.805	410.88
563.017	409.88
563.229	418.88
563.441	438.88
563.653	408.88
563.865	422.88
564.077	409.88
564.289	427.88
564.501	415.88
564.713	439.88
564.925	434.88
565.137	468.88
565.349	438.88
565.561	458.88
565.773	461.88
565.985	470.88
566.197	479.88
566.408	496.88
566.62	537.88
566.832	551.88
567.044	553.88
567.255	534.88
567.467	582.88
567.679	579.88
567.891	562.88
568.102	570.88
568.314	551.88
568.526	545.88
568.737	532.88
568.949	496.88
569.161	471.88
569.372	468.88
569.584	454.88
569.795	436.88
570.007	425.88
570.218	455.88
570.43	427.88
570.641	407.88
570.853	431.88
571.064	400.88
571.276	393.88
571.487	388.88
571.698	404.88
571.91	385.88
572.121	388.88
572.333	379.88
572.544	386.88
572.755	370.88
572.966	380.88
573.178	374.88
573.389	361.88
573.6	372.88
573.811	358.88
574.023	378.88
574.234	371.88
574.445	347.88
574.656	371.88
574.867	354.88
575.078	348.88
575.289	355.88
575.501	360.88
575.712	355.88
575.923	353.88
576.134	353.88
576.345	345.88
576.556	359.88
576.767	358.88
576.978	343.88
577.188	351.88
577.399	346.88
577.61	353.88
577.821	351.88
578.032	344.88
578.243	356.88
578.454	524.88
578.665	423.88
578.875	328.88
579.086	336.88
579.297	339.88
579.508	329.88
579.718	349.88
579.929	342.88
580.14	323.88
580.35	316.88
580.561	324.88
580.772	342.88
580.982	342.88
581.193	328.88
581.403	326.88
581.614	323.88
581.825	326.88
582.035	327.88
582.246	340.88
582.456	314.88
582.667	328.88
582.877	320.88
583.087	335.88
583.298	326.88
583.508	312.88
583.719	331.88
583.929	312.88
584.139	307.88
584.35	313.88
584.56	310.88
584.77	313.88
584.981	319.88
585.191	327.88
585.401	319.88
585.611	310.88
585.821	324.88
586.032	312.88
586.242	306.88
586.452	310.88
586.662	307.88
586.872	322.88
587.082	302.88
587.292	332.88
587.502	320.88
587.713	303.88
587.923	298.88
588.133	306.88
588.343	302.88
588.553	314.88
588.762	307.88
588.972	284.88
589.182	298.88
589.392	319.88
589.602	297.88
589.812	311.88
590.022	326.88
590.232	315.88
590.441	318.88
590.651	306.88
590.861	330.88
591.071	310.88
591.281	310.88
591.49	305.88
591.7	315.88
591.91	328.88
592.119	308.88
592.329	331.88
592.539	326.88
592.748	354.88
592.958	349.88
593.167	341.88
593.377	323.88
593.587	349.88
593.796	358.88
594.006	341.88
594.215	333.88
594.424	346.88
594.634	338.88
594.843	339.88
595.053	345.88
595.262	324.88
595.472	326.88
595.681	312.88
595.89	322.88
596.1	313.88
596.309	312.88
596.518	292.88
596.727	314.88
596.937	309.88
597.146	291.88
597.355	292.88
597.564	290.88
597.774	269.88
597.983	282.88
598.192	292.88
598.401	292.88
598.61	271.88
598.819	286.88
599.028	291.88
599.237	268.88
599.446	267.88
599.655	281.88
599.864	296.88
600.073	280.88
600.282	269.88
600.491	292.88
600.7	259.88
600.909	266.88
601.118	268.88
601.327	267.88
601.536	271.88
601.745	282.88
601.953	274.88
602.162	266.88
602.371	280.88
602.58	287.88
602.789	276.88
602.997	272.88
603.206	285.88
603.415	263.88
603.623	281.88
603.832	262.88
604.041	266.88
604.249	265.88
604.458	272.88
604.666	272.88
604.875	263.88
605.084	275.88
605.292	297.88
605.501	252.88
605.709	265.88
605.918	280.88
606.126	267.88
606.334	235.88
606.543	267.88
606.751	248.88
606.96	268.88
607.168	264.88
607.376	258.88
607.585	248.88
607.793	254.88
608.001	258.88
608.21	245.88
608.418	244.88
608.626	249.88
608.834	261.88
609.043	260.88
609.251	250.88
609.459	254.88
609.667	249.88
609.875	252.88
610.083	259.88
610.291	239.88
610.499	254.88
610.707	277.88
610.916	254.88
611.124	267.88
611.332	244.88
611.54	247.88
611.748	239.88
611.955	244.88
612.163	258.88
612.371	260.88
612.579	243.88
612.787	262.88
612.995	244.88
613.203	266.88
613.411	257.88
613.618	234.88
613.826	257.88
614.034	258.88
614.242	255.88
614.449	250.88
614.657	247.88
614.865	247.88
615.072	238.88
615.28	252.88
615.488	255.88
615.695	246.88
615.903	247.88
616.111	240.88
616.318	252.88
616.526	272.88
616.733	263.88
616.941	258.88
617.148	244.88
617.356	236.88
617.563	239.88
617.771	247.88
617.978	250.88
618.185	234.88
618.393	232.88
618.6	246.88
618.807	242.88
619.015	260.88
619.222	228.88
619.429	257.88
619.637	242.88
619.844	247.88
620.051	246.88
620.258	260.88
620.466	238.88
620.673	238.88
620.88	230.88
621.087	244.88
621.294	240.88
621.501	245.88
621.708	215.88
621.915	231.88
622.122	219.88
622.329	232.88
622.536	242.88
622.743	223.88
622.95	234.88
623.157	225.88
623.364	230.88
623.571	243.88
623.778	208.88
623.985	205.88
624.192	227.88
624.399	223.88
624.606	214.88
624.812	241.88
625.019	235.88
625.226	228.88
625.433	222.88
625.639	224.88
625.846	225.88
626.053	214.88
626.259	235.88
626.466	212.88
626.673	227.88
626.879	211.88
627.086	218.88
627.293	211.88
627.499	211.88
627.706	218.88
627.912	223.88
628.119	219.88
628.325	213.88
628.532	220.88
628.738	215.88
628.945	203.88
629.151	202.88
629.357	211.88
629.564	197.88
629.77	216.88
629.976	198.88
630.183	194.88
630.389	197.88
630.595	203.88
630.802	196.88
631.008	204.88
631.214	203.88
631.42	200.88
631.627	219.88
631.833	192.88
632.039	202.88
632.245	188.88
632.451	181.88
632.657	209.88
632.863	202.88
633.069	201.88
633.275	201.88
633.481	195.88
633.688	190.88
633.893	193.88
634.099	195.88
634.305	199.88
634.511	197.88
634.717	179.88
634.923	199.88
635.129	184.88
635.335	171.88
635.541	186.88
635.747	190.88
635.952	185.88
636.158	196.88
636.364	200.88
636.57	208.88
636.775	200.88
636.981	187.88
637.187	182.88
637.392	187.88
637.598	190.88
637.804	185.88
638.009	184.88
638.215	188.88
638.421	182.88
638.626	178.88
638.832	177.88
639.037	181.88
639.243	189.88
639.448	186.88
639.654	178.88
639.859	180.88
640.065	180.88
640.27	191.88
640.475	180.88
640.681	171.88
640.886	178.88
641.091	189.88
641.297	196.88
641.502	176.88
641.707	163.88
641.913	173.88
642.118	181.88
642.323	177.88
642.528	172.88
642.733	161.88
642.939	171.88
643.144	159.88
643.349	187.88
643.554	188.88
643.759	162.88
643.964	178.88
644.169	161.88
644.374	165.88
644.579	176.88
644.784	195.88
644.989	185.88
645.194	168.88
645.399	180.88
645.604	169.88
645.809	176.88
646.014	198.88
646.219	180.88
646.423	180.88
646.628	167.88
646.833	184.88
647.038	178.88
647.243	170.88
647.447	167.88
647.652	152.88
647.857	167.88
648.062	171.88
648.266	188.88
648.471	186.88
648.676	193.88
648.88	159.88
649.085	177.88
649.289	171.88
649.494	168.88
649.698	196.88
649.903	162.88
650.107	153.88
650.312	173.88
650.516	150.88
650.721	144.88
650.925	164.88
651.13	162.88
651.334	163.88
651.539	160.88
651.743	157.88
651.947	155.88
652.152	160.88
652.356	160.88
652.56	165.88
652.764	126.88
652.969	146.88
653.173	132.88
653.377	130.88
653.581	142.88
653.785	146.88
653.99	138.88
654.194	146.88
654.398	118.88
654.602	147.88
654.806	138.88
655.01	144.88
655.214	140.88
655.418	141.88
655.622	151.88
655.826	138.88
656.03	128.88
656.234	136.88
656.438	140.88
656.642	150.88
656.846	133.88
657.049	128.88
657.253	131.88
657.457	120.88
657.661	114.88
657.865	123.88
658.068	116.88
658.272	111.88
658.476	110.88
658.68	113.88
658.883	89.88
659.087	98.88
659.291	95.88
659.494	92.88
659.698	93.88
659.901	91.88
660.105	75.88
660.309	92.88
660.512	82.88
660.716	78.88
660.919	90.88
661.123	75.88
661.326	91.88
661.53	95.88
661.733	83.88
661.936	87.88
662.14	78.88
662.343	95.88
662.546	84.88
662.75	95.88
662.953	87.88
663.156	89.88
663.36	89.88
663.563	84.88
663.766	81.88
663.969	98.88
664.173	83.88
664.376	83.88
664.579	73.88
664.782	72.88
664.985	86.88
665.188	77.88
665.391	64.88
665.594	86.88
665.797	71.88
666	66.88
666.203	78.88
666.406	69.88
666.609	97.88
666.812	62.88
667.015	71.88
667.218	72.88
667.421	76.88
667.624	72.88
667.827	78.88
668.03	68.88
668.232	71.88
668.435	84.88
668.638	79.88
668.841	66.88
669.043	79.88
669.246	88.88
669.449	86.88
669.651	78.88
669.854	73.88
670.057	75.88
670.259	92.88
670.462	91.88
670.665	74.88
670.867	82.88
671.07	83.88
671.272	75.88
671.475	79.88
671.677	73.88
671.88	90.88
672.082	82.88
672.284	59.88
672.487	84.88
672.689	78.88
672.892	75.88
