Data from 1975.PennyLincolnUp.Lamp.En5.5.200Scan.071719.P1.Changed Mount._HRD10591_15-57-11-859.txt Node
Date: Thu Jul 18 15:57:11 EDT 2019
User: cochatt
Spectrometer: HR+D1059
Trigger mode: 1
Integration Time (sec): 1.000000E-1
Scans to average: 1
Electric dark correction enabled: true
Nonlinearity correction enabled: false
Boxcar width: 0
XAxis mode: Wavelengths
Number of Pixels in Spectrum: 2048
>>>>>Begin Spectral Data<<<<<
223.165	-8.56
223.4	-8.56
223.635	-8.56
223.869	-4.56
224.104	-15.56
224.338	-11.56
224.573	-21.56
224.808	-29.56
225.042	-5.56
225.277	-21.56
225.511	15.44
225.746	-4.56
225.98	4.44
226.215	22.44
226.449	15.44
226.683	10.44
226.918	23.44
227.152	31.44
227.387	29.44
227.621	34.44
227.856	35.44
228.09	44.44
228.324	43.44
228.559	51.44
228.793	73.44
229.027	100.44
229.262	90.44
229.496	110.44
229.73	135.44
229.964	145.44
230.199	128.44
230.433	108.44
230.667	112.44
230.901	111.44
231.136	122.44
231.37	100.44
231.604	115.44
231.838	124.44
232.072	107.44
232.306	121.44
232.541	111.44
232.775	122.44
233.009	123.44
233.243	116.44
233.477	121.44
233.711	106.44
233.945	127.44
234.179	129.44
234.413	128.44
234.647	120.44
234.881	118.44
235.115	118.44
235.349	110.44
235.583	126.44
235.817	127.44
236.051	127.44
236.285	140.44
236.519	129.44
236.753	138.44
236.987	155.44
237.221	173.44
237.455	229.44
237.689	171.44
237.922	151.44
238.156	138.44
238.39	140.44
238.624	123.44
238.858	131.44
239.091	108.44
239.325	125.44
239.559	139.44
239.793	124.44
240.027	140.44
240.26	141.44
240.494	144.44
240.728	143.44
240.961	156.44
241.195	149.44
241.429	137.44
241.662	136.44
241.896	147.44
242.13	140.44
242.363	137.44
242.597	144.44
242.83	131.44
243.064	144.44
243.298	143.44
243.531	153.44
243.765	155.44
243.998	158.44
244.232	144.44
244.465	156.44
244.699	142.44
244.932	149.44
245.166	162.44
245.399	152.44
245.633	157.44
245.866	144.44
246.099	140.44
246.333	138.44
246.566	148.44
246.8	152.44
247.033	156.44
247.266	180.44
247.5	168.44
247.733	165.44
247.966	190.44
248.2	177.44
248.433	174.44
248.666	171.44
248.899	201.44
249.133	208.44
249.366	210.44
249.599	197.44
249.832	199.44
250.066	175.44
250.299	169.44
250.532	197.44
250.765	210.44
250.998	244.44
251.231	249.44
251.465	219.44
251.698	203.44
251.931	197.44
252.164	209.44
252.397	194.44
252.63	212.44
252.863	215.44
253.096	196.44
253.329	216.44
253.562	241.44
253.795	231.44
254.028	222.44
254.261	225.44
254.494	218.44
254.727	263.44
254.96	303.44
255.193	265.44
255.426	247.44
255.659	259.44
255.892	244.44
256.124	246.44
256.357	227.44
256.59	226.44
256.823	212.44
257.056	201.44
257.289	218.44
257.521	217.44
257.754	233.44
257.987	229.44
258.22	223.44
258.452	206.44
258.685	221.44
258.918	214.44
259.151	225.44
259.383	239.44
259.616	232.44
259.849	233.44
260.081	236.44
260.314	251.44
260.547	274.44
260.779	253.44
261.012	243.44
261.244	240.44
261.477	231.44
261.71	216.44
261.942	238.44
262.175	222.44
262.407	235.44
262.64	229.44
262.872	222.44
263.105	227.44
263.337	222.44
263.57	216.44
263.802	239.44
264.035	209.44
264.267	205.44
264.499	217.44
264.732	209.44
264.964	236.44
265.197	218.44
265.429	214.44
265.661	224.44
265.894	234.44
266.126	237.44
266.358	227.44
266.591	229.44
266.823	240.44
267.055	234.44
267.287	249.44
267.52	232.44
267.752	225.44
267.984	227.44
268.216	237.44
268.448	246.44
268.681	238.44
268.913	263.44
269.145	273.44
269.377	286.44
269.609	275.44
269.841	283.44
270.073	272.44
270.306	301.44
270.538	312.44
270.77	333.44
271.002	309.44
271.234	297.44
271.466	310.44
271.698	318.44
271.93	321.44
272.162	319.44
272.394	314.44
272.626	299.44
272.858	281.44
273.09	286.44
273.322	273.44
273.553	277.44
273.785	271.44
274.017	269.44
274.249	270.44
274.481	269.44
274.713	262.44
274.945	296.44
275.176	295.44
275.408	256.44
275.64	295.44
275.872	280.44
276.104	271.44
276.335	286.44
276.567	296.44
276.799	302.44
277.031	313.44
277.262	341.44
277.494	324.44
277.726	317.44
277.957	302.44
278.189	295.44
278.421	294.44
278.652	289.44
278.884	296.44
279.115	291.44
279.347	300.44
279.579	278.44
279.81	284.44
280.042	272.44
280.273	284.44
280.505	263.44
280.736	277.44
280.968	283.44
281.199	304.44
281.431	299.44
281.662	286.44
281.894	281.44
282.125	271.44
282.356	292.44
282.588	323.44
282.819	328.44
283.051	293.44
283.282	291.44
283.513	309.44
283.745	284.44
283.976	296.44
284.207	306.44
284.439	288.44
284.67	287.44
284.901	286.44
285.132	304.44
285.364	299.44
285.595	292.44
285.826	297.44
286.057	287.44
286.288	292.44
286.52	305.44
286.751	275.44
286.982	301.44
287.213	302.44
287.444	320.44
287.675	308.44
287.906	332.44
288.138	318.44
288.369	323.44
288.6	333.44
288.831	272.44
289.062	311.44
289.293	309.44
289.524	319.44
289.755	301.44
289.986	305.44
290.217	307.44
290.448	294.44
290.679	308.44
290.91	286.44
291.141	289.44
291.371	301.44
291.602	313.44
291.833	300.44
292.064	305.44
292.295	305.44
292.526	314.44
292.757	316.44
292.987	304.44
293.218	311.44
293.449	328.44
293.68	314.44
293.91	300.44
294.141	300.44
294.372	320.44
294.603	311.44
294.833	311.44
295.064	328.44
295.295	319.44
295.525	311.44
295.756	304.44
295.987	325.44
296.217	332.44
296.448	342.44
296.679	319.44
296.909	310.44
297.14	330.44
297.37	331.44
297.601	326.44
297.831	334.44
298.062	341.44
298.292	315.44
298.523	323.44
298.753	337.44
298.984	329.44
299.214	331.44
299.445	319.44
299.675	325.44
299.905	335.44
300.136	325.44
300.366	335.44
300.597	321.44
300.827	346.44
301.057	344.44
301.288	343.44
301.518	349.44
301.748	337.44
301.979	340.44
302.209	331.44
302.439	364.44
302.669	343.44
302.9	355.44
303.13	353.44
303.36	352.44
303.59	353.44
303.82	357.44
304.051	361.44
304.281	343.44
304.511	341.44
304.741	335.44
304.971	355.44
305.201	346.44
305.431	328.44
305.661	332.44
305.891	344.44
306.121	348.44
306.352	351.44
306.582	355.44
306.812	336.44
307.042	328.44
307.272	357.44
307.502	336.44
307.731	325.44
307.961	359.44
308.191	334.44
308.421	337.44
308.651	340.44
308.881	350.44
309.111	349.44
309.341	341.44
309.571	382.44
309.8	361.44
310.03	359.44
310.26	368.44
310.49	393.44
310.72	381.44
310.949	401.44
311.179	381.44
311.409	390.44
311.639	374.44
311.868	382.44
312.098	388.44
312.328	389.44
312.557	406.44
312.787	407.44
313.017	408.44
313.246	376.44
313.476	377.44
313.706	394.44
313.935	416.44
314.165	408.44
314.394	433.44
314.624	393.44
314.853	415.44
315.083	382.44
315.312	379.44
315.542	381.44
315.771	389.44
316.001	402.44
316.23	376.44
316.46	362.44
316.689	364.44
316.919	389.44
317.148	403.44
317.377	392.44
317.607	397.44
317.836	398.44
318.065	383.44
318.295	397.44
318.524	381.44
318.753	372.44
318.983	386.44
319.212	388.44
319.441	411.44
319.67	418.44
319.9	396.44
320.129	382.44
320.358	384.44
320.587	391.44
320.816	391.44
321.046	413.44
321.275	401.44
321.504	408.44
321.733	408.44
321.962	409.44
322.191	427.44
322.42	424.44
322.649	451.44
322.878	446.44
323.108	429.44
323.337	469.44
323.566	488.44
323.795	496.44
324.024	551.44
324.253	628.44
324.482	893.44
324.71	1346.44
324.939	1996.44
325.168	1790.44
325.397	911.44
325.626	619.44
325.855	529.44
326.084	500.44
326.313	489.44
326.542	479.44
326.77	523.44
326.999	624.44
327.228	800.44
327.457	1208.44
327.686	1574.44
327.914	1041.44
328.143	684.44
328.372	606.44
328.6	564.44
328.829	555.44
329.058	567.44
329.287	577.44
329.515	560.44
329.744	523.44
329.972	511.44
330.201	537.44
330.43	577.44
330.658	598.44
330.887	590.44
331.115	562.44
331.344	543.44
331.572	495.44
331.801	492.44
332.03	517.44
332.258	466.44
332.486	487.44
332.715	476.44
332.943	487.44
333.172	492.44
333.4	487.44
333.629	488.44
333.857	500.44
334.085	536.44
334.314	548.44
334.542	572.44
334.771	591.44
334.999	524.44
335.227	527.44
335.455	497.44
335.684	489.44
335.912	463.44
336.14	473.44
336.369	459.44
336.597	480.44
336.825	472.44
337.053	479.44
337.281	452.44
337.51	447.44
337.738	468.44
337.966	469.44
338.194	471.44
338.422	471.44
338.65	451.44
338.878	441.44
339.106	451.44
339.334	463.44
339.562	461.44
339.79	439.44
340.018	445.44
340.246	436.44
340.474	408.44
340.702	446.44
340.93	443.44
341.158	469.44
341.386	443.44
341.614	458.44
341.842	424.44
342.07	435.44
342.298	447.44
342.526	451.44
342.754	456.44
342.981	436.44
343.209	453.44
343.437	443.44
343.665	451.44
343.893	465.44
344.12	469.44
344.348	471.44
344.576	478.44
344.804	468.44
345.031	477.44
345.259	464.44
345.487	460.44
345.714	454.44
345.942	418.44
346.17	431.44
346.397	424.44
346.625	432.44
346.853	437.44
347.08	438.44
347.308	441.44
347.535	438.44
347.763	429.44
347.99	460.44
348.218	446.44
348.445	428.44
348.673	455.44
348.9	439.44
349.128	437.44
349.355	415.44
349.583	431.44
349.81	414.44
350.037	420.44
350.265	425.44
350.492	401.44
350.72	433.44
350.947	422.44
351.174	462.44
351.402	439.44
351.629	433.44
351.856	425.44
352.083	416.44
352.311	441.44
352.538	454.44
352.765	432.44
352.992	445.44
353.22	435.44
353.447	443.44
353.674	436.44
353.901	423.44
354.128	425.44
354.355	406.44
354.583	399.44
354.81	417.44
355.037	396.44
355.264	409.44
355.491	417.44
355.718	421.44
355.945	414.44
356.172	399.44
356.399	393.44
356.626	397.44
356.853	401.44
357.08	412.44
357.307	404.44
357.534	403.44
357.761	402.44
357.988	419.44
358.215	407.44
358.441	410.44
358.668	411.44
358.895	432.44
359.122	435.44
359.349	415.44
359.576	425.44
359.802	429.44
360.029	462.44
360.256	481.44
360.483	469.44
360.709	462.44
360.936	435.44
361.163	429.44
361.39	458.44
361.616	438.44
361.843	447.44
362.07	430.44
362.296	439.44
362.523	432.44
362.749	437.44
362.976	431.44
363.203	428.44
363.429	438.44
363.656	426.44
363.882	427.44
364.109	444.44
364.335	431.44
364.562	428.44
364.788	408.44
365.015	412.44
365.241	414.44
365.468	444.44
365.694	443.44
365.92	444.44
366.147	415.44
366.373	409.44
366.599	402.44
366.826	403.44
367.052	404.44
367.278	415.44
367.505	428.44
367.731	436.44
367.957	420.44
368.184	418.44
368.41	417.44
368.636	432.44
368.862	423.44
369.089	411.44
369.315	427.44
369.541	436.44
369.767	401.44
369.993	420.44
370.219	409.44
370.445	434.44
370.672	427.44
370.898	410.44
371.124	420.44
371.35	405.44
371.576	413.44
371.802	412.44
372.028	423.44
372.254	441.44
372.48	421.44
372.706	437.44
372.932	421.44
373.158	464.44
373.384	440.44
373.61	430.44
373.835	425.44
374.061	444.44
374.287	425.44
374.513	431.44
374.739	437.44
374.965	431.44
375.191	449.44
375.416	449.44
375.642	443.44
375.868	433.44
376.094	424.44
376.319	420.44
376.545	415.44
376.771	417.44
376.997	409.44
377.222	424.44
377.448	415.44
377.674	415.44
377.899	443.44
378.125	409.44
378.35	409.44
378.576	424.44
378.802	417.44
379.027	429.44
379.253	429.44
379.478	419.44
379.704	431.44
379.929	441.44
380.155	417.44
380.38	423.44
380.606	412.44
380.831	428.44
381.057	423.44
381.282	435.44
381.507	450.44
381.733	426.44
381.958	409.44
382.184	454.44
382.409	430.44
382.634	445.44
382.86	456.44
383.085	433.44
383.31	435.44
383.535	443.44
383.761	439.44
383.986	464.44
384.211	432.44
384.436	445.44
384.662	459.44
384.887	484.44
385.112	476.44
385.337	485.44
385.562	467.44
385.787	454.44
386.013	476.44
386.238	499.44
386.463	480.44
386.688	482.44
386.913	477.44
387.138	465.44
387.363	485.44
387.588	471.44
387.813	477.44
388.038	464.44
388.263	439.44
388.488	485.44
388.713	476.44
388.938	478.44
389.163	476.44
389.387	483.44
389.612	454.44
389.837	465.44
390.062	475.44
390.287	464.44
390.512	454.44
390.736	483.44
390.961	465.44
391.186	487.44
391.411	474.44
391.636	517.44
391.86	500.44
392.085	489.44
392.31	502.44
392.534	511.44
392.759	501.44
392.984	506.44
393.208	493.44
393.433	471.44
393.658	499.44
393.882	484.44
394.107	498.44
394.331	479.44
394.556	479.44
394.78	488.44
395.005	500.44
395.229	490.44
395.454	513.44
395.678	509.44
395.903	519.44
396.127	533.44
396.352	524.44
396.576	514.44
396.801	501.44
397.025	495.44
397.249	517.44
397.474	508.44
397.698	512.44
397.922	542.44
398.147	571.44
398.371	555.44
398.595	560.44
398.82	568.44
399.044	579.44
399.268	601.44
399.492	640.44
399.717	687.44
399.941	688.44
400.165	719.44
400.389	710.44
400.613	645.44
400.837	610.44
401.062	572.44
401.286	583.44
401.51	571.44
401.734	568.44
401.958	542.44
402.182	563.44
402.406	564.44
402.63	572.44
402.854	594.44
403.078	600.44
403.302	586.44
403.526	597.44
403.75	582.44
403.974	560.44
404.198	585.44
404.422	605.44
404.645	575.44
404.869	595.44
405.093	631.44
405.317	665.44
405.541	715.44
405.765	635.44
405.988	605.44
406.212	613.44
406.436	647.44
406.66	655.44
406.883	640.44
407.107	644.44
407.331	705.44
407.555	773.44
407.778	760.44
408.002	725.44
408.226	647.44
408.449	645.44
408.673	646.44
408.896	685.44
409.12	721.44
409.344	676.44
409.567	612.44
409.791	604.44
410.014	591.44
410.238	601.44
410.461	605.44
410.685	584.44
410.908	614.44
411.132	637.44
411.355	679.44
411.578	641.44
411.802	581.44
412.025	599.44
412.249	595.44
412.472	624.44
412.695	651.44
412.919	647.44
413.142	588.44
413.365	593.44
413.589	583.44
413.812	561.44
414.035	575.44
414.258	529.44
414.482	534.44
414.705	566.44
414.928	551.44
415.151	557.44
415.374	541.44
415.597	553.44
415.821	536.44
416.044	578.44
416.267	573.44
416.49	539.44
416.713	553.44
416.936	539.44
417.159	529.44
417.382	548.44
417.605	559.44
417.828	558.44
418.051	582.44
418.274	580.44
418.497	579.44
418.72	567.44
418.943	552.44
419.166	589.44
419.389	623.44
419.611	612.44
419.834	577.44
420.057	598.44
420.28	587.44
420.503	583.44
420.726	575.44
420.948	582.44
421.171	633.44
421.394	655.44
421.617	601.44
421.839	567.44
422.062	578.44
422.285	587.44
422.507	631.44
422.73	725.44
422.953	703.44
423.175	645.44
423.398	604.44
423.621	586.44
423.843	630.44
424.066	635.44
424.288	618.44
424.511	634.44
424.733	680.44
424.956	779.44
425.178	735.44
425.401	742.44
425.623	765.44
425.846	646.44
426.068	615.44
426.291	607.44
426.513	613.44
426.735	613.44
426.958	643.44
427.18	741.44
427.402	889.44
427.625	931.44
427.847	815.44
428.069	698.44
428.292	657.44
428.514	625.44
428.736	563.44
428.958	579.44
429.181	582.44
429.403	548.44
429.625	570.44
429.847	627.44
430.069	680.44
430.292	688.44
430.514	560.44
430.736	561.44
430.958	553.44
431.18	544.44
431.402	535.44
431.624	551.44
431.846	541.44
432.068	497.44
432.29	557.44
432.512	509.44
432.734	542.44
432.956	544.44
433.178	545.44
433.4	541.44
433.622	541.44
433.844	566.44
434.066	545.44
434.287	513.44
434.509	537.44
434.731	564.44
434.953	575.44
435.175	581.44
435.397	597.44
435.618	619.44
435.84	637.44
436.062	767.44
436.284	838.44
436.505	679.44
436.727	617.44
436.949	601.44
437.17	570.44
437.392	555.44
437.614	561.44
437.835	605.44
438.057	679.44
438.278	811.44
438.5	791.44
438.721	854.44
438.943	846.44
439.165	695.44
439.386	629.44
439.608	620.44
439.829	620.44
440.05	623.44
440.272	672.44
440.493	620.44
440.715	598.44
440.936	589.44
441.158	569.44
441.379	584.44
441.6	597.44
441.822	591.44
442.043	647.44
442.264	725.44
442.486	763.44
442.707	672.44
442.928	631.44
443.149	615.44
443.371	645.44
443.592	709.44
443.813	783.44
444.034	850.44
444.255	729.44
444.476	647.44
444.698	623.44
444.919	642.44
445.14	765.44
445.361	685.44
445.582	667.44
445.803	721.44
446.024	813.44
446.245	829.44
446.466	773.44
446.687	655.44
446.908	612.44
447.129	593.44
447.35	571.44
447.571	559.44
447.792	545.44
448.013	555.44
448.234	582.44
448.455	603.44
448.675	750.44
448.896	856.44
449.117	735.44
449.338	699.44
449.559	791.44
449.779	895.44
450	720.44
450.221	604.44
450.442	570.44
450.662	553.44
450.883	548.44
451.104	532.44
451.324	550.44
451.545	531.44
451.766	514.44
451.986	514.44
452.207	510.44
452.428	506.44
452.648	496.44
452.869	509.44
453.089	478.44
453.31	519.44
453.53	507.44
453.751	494.44
453.971	484.44
454.192	502.44
454.412	506.44
454.633	479.44
454.853	470.44
455.073	487.44
455.294	517.44
455.514	581.44
455.734	559.44
455.955	516.44
456.175	471.44
456.395	453.44
456.616	477.44
456.836	480.44
457.056	477.44
457.276	453.44
457.497	473.44
457.717	483.44
457.937	488.44
458.157	487.44
458.377	472.44
458.598	508.44
458.818	558.44
459.038	646.44
459.258	634.44
459.478	608.44
459.698	569.44
459.918	522.44
460.138	533.44
460.358	574.44
460.578	555.44
460.798	575.44
461.018	545.44
461.238	558.44
461.458	559.44
461.678	527.44
461.898	572.44
462.118	558.44
462.338	580.44
462.558	603.44
462.777	600.44
462.997	631.44
463.217	651.44
463.437	641.44
463.657	616.44
463.876	598.44
464.096	598.44
464.316	604.44
464.536	611.44
464.755	596.44
464.975	591.44
465.195	613.44
465.414	691.44
465.634	621.44
465.854	581.44
466.073	540.44
466.293	551.44
466.512	513.44
466.732	526.44
466.951	523.44
467.171	497.44
467.391	523.44
467.61	524.44
467.829	520.44
468.049	525.44
468.268	537.44
468.488	515.44
468.707	496.44
468.927	482.44
469.146	504.44
469.365	488.44
469.585	495.44
469.804	503.44
470.023	525.44
470.243	511.44
470.462	551.44
470.681	540.44
470.901	535.44
471.12	538.44
471.339	505.44
471.558	511.44
471.777	517.44
471.997	517.44
472.216	526.44
472.435	556.44
472.654	528.44
472.873	539.44
473.092	513.44
473.311	524.44
473.53	516.44
473.749	522.44
473.968	548.44
474.187	647.44
474.406	703.44
474.625	576.44
474.844	523.44
475.063	533.44
475.282	515.44
475.501	520.44
475.72	535.44
475.939	522.44
476.158	541.44
476.377	515.44
476.596	539.44
476.814	547.44
477.033	541.44
477.252	555.44
477.471	541.44
477.69	577.44
477.908	595.44
478.127	592.44
478.346	599.44
478.564	593.44
478.783	605.44
479.002	606.44
479.22	598.44
479.439	607.44
479.658	621.44
479.876	646.44
480.095	616.44
480.313	683.44
480.532	646.44
480.751	655.44
480.969	645.44
481.188	700.44
481.406	736.44
481.624	648.44
481.843	620.44
482.061	613.44
482.28	615.44
482.498	585.44
482.717	590.44
482.935	603.44
483.153	593.44
483.372	621.44
483.59	617.44
483.808	621.44
484.027	606.44
484.245	622.44
484.463	632.44
484.681	613.44
484.9	601.44
485.118	633.44
485.336	631.44
485.554	620.44
485.772	637.44
485.99	626.44
486.209	628.44
486.427	620.44
486.645	635.44
486.863	659.44
487.081	675.44
487.299	658.44
487.517	623.44
487.735	631.44
487.953	671.44
488.171	675.44
488.389	650.44
488.607	648.44
488.825	658.44
489.043	654.44
489.261	665.44
489.479	655.44
489.696	668.44
489.914	676.44
490.132	662.44
490.35	675.44
490.568	679.44
490.786	699.44
491.003	704.44
491.221	710.44
491.439	740.44
491.657	742.44
491.874	747.44
492.092	738.44
492.31	751.44
492.527	768.44
492.745	745.44
492.963	776.44
493.18	764.44
493.398	778.44
493.615	780.44
493.833	777.44
494.05	782.44
494.268	760.44
494.485	780.44
494.703	775.44
494.92	753.44
495.138	785.44
495.355	770.44
495.573	783.44
495.79	760.44
496.008	817.44
496.225	786.44
496.442	796.44
496.66	785.44
496.877	787.44
497.094	787.44
497.312	774.44
497.529	760.44
497.746	813.44
497.963	832.44
498.181	866.44
498.398	875.44
498.615	872.44
498.832	897.44
499.049	923.44
499.267	986.44
499.484	988.44
499.701	1036.44
499.918	1083.44
500.135	1144.44
500.352	1215.44
500.569	1238.44
500.786	1238.44
501.003	1204.44
501.22	1169.44
501.437	1084.44
501.654	1063.44
501.871	1037.44
502.088	994.44
502.305	941.44
502.522	914.44
502.739	906.44
502.956	846.44
503.172	829.44
503.389	831.44
503.606	828.44
503.823	807.44
504.04	773.44
504.256	780.44
504.473	803.44
504.69	798.44
504.907	788.44
505.123	785.44
505.34	734.44
505.557	740.44
505.773	739.44
505.99	783.44
506.207	743.44
506.423	724.44
506.64	718.44
506.856	726.44
507.073	705.44
507.289	707.44
507.506	709.44
507.722	724.44
507.939	717.44
508.155	666.44
508.372	675.44
508.588	693.44
508.805	684.44
509.021	689.44
509.238	717.44
509.454	736.44
509.67	680.44
509.887	679.44
510.103	672.44
510.319	669.44
510.536	768.44
510.752	1176.44
510.968	974.44
511.184	695.44
511.401	659.44
511.617	668.44
511.833	649.44
512.049	661.44
512.265	631.44
512.481	656.44
512.698	648.44
512.914	643.44
513.13	668.44
513.346	651.44
513.562	648.44
513.778	633.44
513.994	657.44
514.21	679.44
514.426	664.44
514.642	702.44
514.858	715.44
515.074	768.44
515.29	870.44
515.506	1225.44
515.721	1047.44
515.937	751.44
516.153	693.44
516.369	707.44
516.585	680.44
516.801	665.44
517.016	685.44
517.232	689.44
517.448	689.44
517.664	696.44
517.879	715.44
518.095	699.44
518.311	676.44
518.527	709.44
518.742	663.44
518.958	687.44
519.173	656.44
519.389	664.44
519.605	637.44
519.82	635.44
520.036	660.44
520.251	683.44
520.467	699.44
520.682	680.44
520.898	677.44
521.113	672.44
521.329	716.44
521.544	807.44
521.76	961.44
521.975	1510.44
522.19	1527.44
522.406	896.44
522.621	705.44
522.836	624.44
523.052	611.44
523.267	607.44
523.482	590.44
523.698	583.44
523.913	586.44
524.128	569.44
524.343	583.44
524.559	572.44
524.774	559.44
524.989	547.44
525.204	565.44
525.419	563.44
525.634	558.44
525.849	543.44
526.064	555.44
526.28	540.44
526.495	525.44
526.71	555.44
526.925	558.44
527.14	519.44
527.355	512.44
527.57	518.44
527.785	539.44
527.999	500.44
528.214	527.44
528.429	525.44
528.644	545.44
528.859	540.44
529.074	555.44
529.289	553.44
529.503	633.44
529.718	567.44
529.933	542.44
530.148	556.44
530.363	552.44
530.577	527.44
530.792	531.44
531.007	533.44
531.221	528.44
531.436	503.44
531.651	512.44
531.865	525.44
532.08	521.44
532.295	512.44
532.509	512.44
532.724	496.44
532.938	529.44
533.153	513.44
533.367	516.44
533.582	523.44
533.796	517.44
534.011	517.44
534.225	507.44
534.44	489.44
534.654	501.44
534.868	498.44
535.083	500.44
535.297	519.44
535.511	525.44
535.726	495.44
535.94	508.44
536.154	519.44
536.369	495.44
536.583	500.44
536.797	489.44
537.011	478.44
537.225	493.44
537.44	491.44
537.654	505.44
537.868	498.44
538.082	478.44
538.296	479.44
538.51	499.44
538.724	495.44
538.938	501.44
539.153	493.44
539.367	518.44
539.581	506.44
539.795	499.44
540.009	485.44
540.222	517.44
540.436	481.44
540.65	495.44
540.864	508.44
541.078	490.44
541.292	525.44
541.506	522.44
541.72	504.44
541.934	488.44
542.147	495.44
542.361	495.44
542.575	464.44
542.789	468.44
543.002	483.44
543.216	494.44
543.43	495.44
543.644	495.44
543.857	490.44
544.071	477.44
544.285	483.44
544.498	477.44
544.712	513.44
544.925	477.44
545.139	480.44
545.352	490.44
545.566	471.44
545.779	473.44
545.993	482.44
546.206	493.44
546.42	507.44
546.633	491.44
546.847	493.44
547.06	476.44
547.274	464.44
547.487	474.44
547.7	520.44
547.914	489.44
548.127	465.44
548.34	480.44
548.554	481.44
548.767	481.44
548.98	487.44
549.193	496.44
549.407	474.44
549.62	481.44
549.833	474.44
550.046	487.44
550.259	479.44
550.473	477.44
550.686	469.44
550.899	477.44
551.112	484.44
551.325	465.44
551.538	472.44
551.751	445.44
551.964	451.44
552.177	477.44
552.39	468.44
552.603	475.44
552.816	476.44
553.029	482.44
553.242	478.44
553.455	488.44
553.667	495.44
553.88	491.44
554.093	506.44
554.306	516.44
554.519	492.44
554.732	488.44
554.944	474.44
555.157	484.44
555.37	454.44
555.583	456.44
555.795	452.44
556.008	439.44
556.221	446.44
556.433	449.44
556.646	471.44
556.859	442.44
557.071	441.44
557.284	438.44
557.496	440.44
557.709	425.44
557.921	414.44
558.134	422.44
558.346	421.44
558.559	435.44
558.771	440.44
558.984	407.44
559.196	412.44
559.409	435.44
559.621	422.44
559.833	441.44
560.046	425.44
560.258	428.44
560.47	431.44
560.683	417.44
560.895	413.44
561.107	406.44
561.32	400.44
561.532	396.44
561.744	423.44
561.956	415.44
562.168	416.44
562.381	434.44
562.593	415.44
562.805	418.44
563.017	419.44
563.229	429.44
563.441	434.44
563.653	421.44
563.865	427.44
564.077	412.44
564.289	418.44
564.501	435.44
564.713	445.44
564.925	442.44
565.137	463.44
565.349	463.44
565.561	483.44
565.773	467.44
565.985	480.44
566.197	501.44
566.408	523.44
566.62	554.44
566.832	545.44
567.044	556.44
567.255	551.44
567.467	551.44
567.679	588.44
567.891	586.44
568.102	612.44
568.314	593.44
568.526	546.44
568.737	508.44
568.949	513.44
569.161	469.44
569.372	454.44
569.584	448.44
569.795	462.44
570.007	443.44
570.218	457.44
570.43	479.44
570.641	430.44
570.853	423.44
571.064	442.44
571.276	413.44
571.487	425.44
571.698	411.44
571.91	407.44
572.121	409.44
572.333	382.44
572.544	393.44
572.755	414.44
572.966	399.44
573.178	406.44
573.389	371.44
573.6	368.44
573.811	371.44
574.023	361.44
574.234	368.44
574.445	355.44
574.656	385.44
574.867	358.44
575.078	371.44
575.289	345.44
575.501	359.44
575.712	366.44
575.923	364.44
576.134	360.44
576.345	341.44
576.556	351.44
576.767	343.44
576.978	364.44
577.188	375.44
577.399	347.44
577.61	364.44
577.821	344.44
578.032	344.44
578.243	371.44
578.454	559.44
578.665	457.44
578.875	360.44
579.086	336.44
579.297	340.44
579.508	345.44
579.718	325.44
579.929	330.44
580.14	324.44
580.35	336.44
580.561	343.44
580.772	329.44
580.982	331.44
581.193	327.44
581.403	340.44
581.614	326.44
581.825	332.44
582.035	334.44
582.246	342.44
582.456	329.44
582.667	337.44
582.877	347.44
583.087	316.44
583.298	316.44
583.508	320.44
583.719	319.44
583.929	332.44
584.139	318.44
584.35	321.44
584.56	338.44
584.77	329.44
584.981	334.44
585.191	329.44
585.401	308.44
585.611	323.44
585.821	315.44
586.032	335.44
586.242	327.44
586.452	339.44
586.662	317.44
586.872	329.44
587.082	305.44
587.292	330.44
587.502	313.44
587.713	293.44
587.923	305.44
588.133	320.44
588.343	315.44
588.553	320.44
588.762	305.44
588.972	332.44
589.182	318.44
589.392	302.44
589.602	316.44
589.812	325.44
590.022	318.44
590.232	329.44
590.441	320.44
590.651	309.44
590.861	307.44
591.071	309.44
591.281	326.44
591.49	314.44
591.7	332.44
591.91	333.44
592.119	320.44
592.329	321.44
592.539	345.44
592.748	343.44
592.958	353.44
593.167	348.44
593.377	337.44
593.587	352.44
593.796	358.44
594.006	363.44
594.215	335.44
594.424	347.44
594.634	359.44
594.843	327.44
595.053	339.44
595.262	338.44
595.472	311.44
595.681	327.44
595.89	320.44
596.1	327.44
596.309	315.44
596.518	309.44
596.727	293.44
596.937	286.44
597.146	303.44
597.355	298.44
597.564	294.44
597.774	301.44
597.983	274.44
598.192	293.44
598.401	286.44
598.61	275.44
598.819	279.44
599.028	284.44
599.237	267.44
599.446	286.44
599.655	292.44
599.864	281.44
600.073	301.44
600.282	279.44
600.491	292.44
600.7	277.44
600.909	280.44
601.118	282.44
601.327	272.44
601.536	278.44
601.745	270.44
601.953	261.44
602.162	273.44
602.371	267.44
602.58	270.44
602.789	280.44
602.997	267.44
603.206	272.44
603.415	272.44
603.623	257.44
603.832	277.44
604.041	277.44
604.249	268.44
604.458	281.44
604.666	272.44
604.875	271.44
605.084	261.44
605.292	254.44
605.501	272.44
605.709	263.44
605.918	263.44
606.126	263.44
606.334	243.44
606.543	267.44
606.751	265.44
606.96	268.44
607.168	278.44
607.376	267.44
607.585	271.44
607.793	261.44
608.001	243.44
608.21	267.44
608.418	274.44
608.626	255.44
608.834	258.44
609.043	252.44
609.251	260.44
609.459	263.44
609.667	253.44
609.875	286.44
610.083	273.44
610.291	258.44
610.499	262.44
610.707	263.44
610.916	265.44
611.124	263.44
611.332	267.44
611.54	277.44
611.748	270.44
611.955	256.44
612.163	270.44
612.371	266.44
612.579	272.44
612.787	258.44
612.995	251.44
613.203	261.44
613.411	252.44
613.618	254.44
613.826	268.44
614.034	259.44
614.242	277.44
614.449	244.44
614.657	248.44
614.865	265.44
615.072	264.44
615.28	250.44
615.488	247.44
615.695	254.44
615.903	274.44
616.111	251.44
616.318	260.44
616.526	263.44
616.733	259.44
616.941	275.44
617.148	269.44
617.356	252.44
617.563	242.44
617.771	257.44
617.978	243.44
618.185	256.44
618.393	256.44
618.6	269.44
618.807	256.44
619.015	262.44
619.222	245.44
619.429	254.44
619.637	241.44
619.844	237.44
620.051	233.44
620.258	264.44
620.466	243.44
620.673	235.44
620.88	245.44
621.087	230.44
621.294	234.44
621.501	239.44
621.708	227.44
621.915	239.44
622.122	240.44
622.329	261.44
622.536	232.44
622.743	229.44
622.95	227.44
623.157	232.44
623.364	236.44
623.571	224.44
623.778	237.44
623.985	226.44
624.192	219.44
624.399	237.44
624.606	229.44
624.812	233.44
625.019	229.44
625.226	239.44
625.433	237.44
625.639	214.44
625.846	216.44
626.053	217.44
626.259	204.44
626.466	210.44
626.673	214.44
626.879	234.44
627.086	233.44
627.293	224.44
627.499	229.44
627.706	226.44
627.912	211.44
628.119	223.44
628.325	224.44
628.532	222.44
628.738	215.44
628.945	205.44
629.151	224.44
629.357	215.44
629.564	207.44
629.77	218.44
629.976	209.44
630.183	208.44
630.389	219.44
630.595	216.44
630.802	209.44
631.008	214.44
631.214	198.44
631.42	200.44
631.627	207.44
631.833	207.44
632.039	196.44
632.245	199.44
632.451	190.44
632.657	208.44
632.863	210.44
633.069	212.44
633.275	196.44
633.481	198.44
633.688	202.44
633.893	197.44
634.099	182.44
634.305	192.44
634.511	192.44
634.717	190.44
634.923	192.44
635.129	184.44
635.335	187.44
635.541	204.44
635.747	189.44
635.952	192.44
636.158	183.44
636.364	203.44
636.57	189.44
636.775	197.44
636.981	203.44
637.187	208.44
637.392	198.44
637.598	203.44
637.804	203.44
638.009	213.44
638.215	187.44
638.421	197.44
638.626	196.44
638.832	187.44
639.037	192.44
639.243	190.44
639.448	188.44
639.654	188.44
639.859	180.44
640.065	185.44
640.27	193.44
640.475	184.44
640.681	185.44
640.886	189.44
641.091	186.44
641.297	184.44
641.502	201.44
641.707	165.44
641.913	178.44
642.118	187.44
642.323	175.44
642.528	179.44
642.733	188.44
642.939	184.44
643.144	176.44
643.349	184.44
643.554	172.44
643.759	185.44
643.964	185.44
644.169	190.44
644.374	161.44
644.579	186.44
644.784	182.44
644.989	183.44
645.194	190.44
645.399	167.44
645.604	185.44
645.809	178.44
646.014	179.44
646.219	173.44
646.423	178.44
646.628	179.44
646.833	156.44
647.038	190.44
647.243	174.44
647.447	170.44
647.652	194.44
647.857	164.44
648.062	166.44
648.266	175.44
648.471	181.44
648.676	187.44
648.88	168.44
649.085	172.44
649.289	172.44
649.494	171.44
649.698	209.44
649.903	205.44
650.107	184.44
650.312	160.44
650.516	170.44
650.721	183.44
650.925	168.44
651.13	171.44
651.334	164.44
651.539	158.44
651.743	164.44
651.947	164.44
652.152	161.44
652.356	143.44
652.56	150.44
652.764	163.44
652.969	166.44
653.173	147.44
653.377	144.44
653.581	149.44
653.785	147.44
653.99	157.44
654.194	134.44
654.398	145.44
654.602	137.44
654.806	160.44
655.01	145.44
655.214	137.44
655.418	152.44
655.622	155.44
655.826	135.44
656.03	141.44
656.234	145.44
656.438	136.44
656.642	166.44
656.846	143.44
657.049	139.44
657.253	129.44
657.457	120.44
657.661	123.44
657.865	131.44
658.068	129.44
658.272	110.44
658.476	117.44
658.68	125.44
658.883	104.44
659.087	107.44
659.291	103.44
659.494	108.44
659.698	113.44
659.901	115.44
660.105	95.44
660.309	93.44
660.512	104.44
660.716	102.44
660.919	83.44
661.123	90.44
661.326	87.44
661.53	91.44
661.733	87.44
661.936	89.44
662.14	102.44
662.343	84.44
662.546	76.44
662.75	101.44
662.953	90.44
663.156	84.44
663.36	94.44
663.563	92.44
663.766	88.44
663.969	90.44
664.173	73.44
664.376	93.44
664.579	87.44
664.782	101.44
664.985	88.44
665.188	90.44
665.391	93.44
665.594	88.44
665.797	77.44
666	76.44
666.203	86.44
666.406	80.44
666.609	90.44
666.812	94.44
667.015	90.44
667.218	76.44
667.421	87.44
667.624	82.44
667.827	91.44
668.03	88.44
668.232	93.44
668.435	69.44
668.638	84.44
668.841	94.44
669.043	86.44
669.246	86.44
669.449	96.44
669.651	94.44
669.854	87.44
670.057	91.44
670.259	74.44
670.462	86.44
670.665	88.44
670.867	87.44
671.07	89.44
671.272	87.44
671.475	104.44
671.677	87.44
671.88	89.44
672.082	87.44
672.284	91.44
672.487	80.44
672.689	73.44
672.892	74.44
