Data from 1975.PennyLincolnUp.Lamp.En5.5.200Scan.071719.P1.Changed Mount._HRD10591_15-55-36-858.txt Node
Date: Thu Jul 18 15:55:36 EDT 2019
User: cochatt
Spectrometer: HR+D1059
Trigger mode: 1
Integration Time (sec): 1.000000E-1
Scans to average: 1
Electric dark correction enabled: true
Nonlinearity correction enabled: false
Boxcar width: 0
XAxis mode: Wavelengths
Number of Pixels in Spectrum: 2048
>>>>>Begin Spectral Data<<<<<
223.165	-16.31
223.4	-16.31
223.635	-16.31
223.869	-20.31
224.104	-19.31
224.338	-23.31
224.573	-12.31
224.808	-9.31
225.042	-1.31
225.277	-4.31
225.511	6.69
225.746	-8.31
225.98	-0.31
226.215	16.69
226.449	21.69
226.683	12.69
226.918	22.69
227.152	34.69
227.387	44.69
227.621	17.69
227.856	42.69
228.09	46.69
228.324	52.69
228.559	64.69
228.793	62.69
229.027	80.69
229.262	103.69
229.496	103.69
229.73	118.69
229.964	134.69
230.199	110.69
230.433	108.69
230.667	110.69
230.901	124.69
231.136	107.69
231.37	121.69
231.604	114.69
231.838	110.69
232.072	110.69
232.306	110.69
232.541	110.69
232.775	115.69
233.009	110.69
233.243	122.69
233.477	103.69
233.711	116.69
233.945	120.69
234.179	120.69
234.413	122.69
234.647	126.69
234.881	125.69
235.115	109.69
235.349	114.69
235.583	111.69
235.817	128.69
236.051	130.69
236.285	115.69
236.519	134.69
236.753	127.69
236.987	131.69
237.221	153.69
237.455	194.69
237.689	174.69
237.922	131.69
238.156	126.69
238.39	127.69
238.624	117.69
238.858	125.69
239.091	112.69
239.325	125.69
239.559	115.69
239.793	120.69
240.027	134.69
240.26	135.69
240.494	149.69
240.728	138.69
240.961	154.69
241.195	143.69
241.429	130.69
241.662	126.69
241.896	137.69
242.13	144.69
242.363	122.69
242.597	122.69
242.83	120.69
243.064	129.69
243.298	132.69
243.531	134.69
243.765	127.69
243.998	136.69
244.232	127.69
244.465	135.69
244.699	149.69
244.932	142.69
245.166	141.69
245.399	154.69
245.633	156.69
245.866	133.69
246.099	172.69
246.333	140.69
246.566	152.69
246.8	139.69
247.033	139.69
247.266	165.69
247.5	167.69
247.733	164.69
247.966	159.69
248.2	158.69
248.433	160.69
248.666	155.69
248.899	166.69
249.133	192.69
249.366	201.69
249.599	176.69
249.832	164.69
250.066	170.69
250.299	167.69
250.532	173.69
250.765	188.69
250.998	210.69
251.231	203.69
251.465	198.69
251.698	192.69
251.931	192.69
252.164	182.69
252.397	181.69
252.63	189.69
252.863	195.69
253.096	200.69
253.329	207.69
253.562	219.69
253.795	182.69
254.028	207.69
254.261	190.69
254.494	205.69
254.727	216.69
254.96	262.69
255.193	235.69
255.426	217.69
255.659	222.69
255.892	187.69
256.124	220.69
256.357	208.69
256.59	212.69
256.823	204.69
257.056	204.69
257.289	202.69
257.521	204.69
257.754	192.69
257.987	195.69
258.22	209.69
258.452	212.69
258.685	194.69
258.918	195.69
259.151	201.69
259.383	208.69
259.616	211.69
259.849	203.69
260.081	229.69
260.314	222.69
260.547	223.69
260.779	228.69
261.012	207.69
261.244	202.69
261.477	214.69
261.71	191.69
261.942	213.69
262.175	210.69
262.407	210.69
262.64	202.69
262.872	194.69
263.105	204.69
263.337	190.69
263.57	208.69
263.802	196.69
264.035	201.69
264.267	224.69
264.499	203.69
264.732	216.69
264.964	203.69
265.197	216.69
265.429	192.69
265.661	212.69
265.894	206.69
266.126	207.69
266.358	218.69
266.591	203.69
266.823	202.69
267.055	212.69
267.287	214.69
267.52	227.69
267.752	205.69
267.984	210.69
268.216	213.69
268.448	220.69
268.681	224.69
268.913	230.69
269.145	231.69
269.377	254.69
269.609	262.69
269.841	261.69
270.073	246.69
270.306	271.69
270.538	272.69
270.77	275.69
271.002	262.69
271.234	260.69
271.466	267.69
271.698	260.69
271.93	276.69
272.162	290.69
272.394	290.69
272.626	277.69
272.858	282.69
273.09	245.69
273.322	247.69
273.553	239.69
273.785	252.69
274.017	268.69
274.249	263.69
274.481	236.69
274.713	262.69
274.945	258.69
275.176	256.69
275.408	253.69
275.64	250.69
275.872	237.69
276.104	249.69
276.335	242.69
276.567	258.69
276.799	283.69
277.031	272.69
277.262	293.69
277.494	295.69
277.726	279.69
277.957	272.69
278.189	268.69
278.421	284.69
278.652	265.69
278.884	268.69
279.115	263.69
279.347	265.69
279.579	268.69
279.81	255.69
280.042	259.69
280.273	259.69
280.505	268.69
280.736	262.69
280.968	252.69
281.199	243.69
281.431	262.69
281.662	275.69
281.894	280.69
282.125	259.69
282.356	271.69
282.588	269.69
282.819	287.69
283.051	252.69
283.282	263.69
283.513	266.69
283.745	273.69
283.976	259.69
284.207	263.69
284.439	285.69
284.67	275.69
284.901	280.69
285.132	276.69
285.364	273.69
285.595	267.69
285.826	280.69
286.057	291.69
286.288	279.69
286.52	263.69
286.751	284.69
286.982	279.69
287.213	284.69
287.444	276.69
287.675	286.69
287.906	282.69
288.138	288.69
288.369	278.69
288.6	297.69
288.831	290.69
289.062	292.69
289.293	278.69
289.524	293.69
289.755	297.69
289.986	292.69
290.217	293.69
290.448	284.69
290.679	300.69
290.91	280.69
291.141	275.69
291.371	283.69
291.602	295.69
291.833	271.69
292.064	272.69
292.295	280.69
292.526	266.69
292.757	294.69
292.987	272.69
293.218	279.69
293.449	291.69
293.68	294.69
293.91	286.69
294.141	295.69
294.372	298.69
294.603	292.69
294.833	294.69
295.064	285.69
295.295	284.69
295.525	288.69
295.756	294.69
295.987	282.69
296.217	307.69
296.448	308.69
296.679	294.69
296.909	288.69
297.14	294.69
297.37	307.69
297.601	280.69
297.831	298.69
298.062	295.69
298.292	290.69
298.523	302.69
298.753	306.69
298.984	293.69
299.214	301.69
299.445	300.69
299.675	299.69
299.905	311.69
300.136	308.69
300.366	318.69
300.597	300.69
300.827	292.69
301.057	315.69
301.288	324.69
301.518	313.69
301.748	325.69
301.979	317.69
302.209	324.69
302.439	302.69
302.669	320.69
302.9	316.69
303.13	316.69
303.36	319.69
303.59	315.69
303.82	320.69
304.051	302.69
304.281	335.69
304.511	322.69
304.741	311.69
304.971	321.69
305.201	310.69
305.431	299.69
305.661	328.69
305.891	324.69
306.121	310.69
306.352	312.69
306.582	321.69
306.812	302.69
307.042	309.69
307.272	317.69
307.502	329.69
307.731	326.69
307.961	310.69
308.191	334.69
308.421	328.69
308.651	319.69
308.881	324.69
309.111	346.69
309.341	317.69
309.571	326.69
309.8	360.69
310.03	337.69
310.26	346.69
310.49	328.69
310.72	339.69
310.949	346.69
311.179	343.69
311.409	356.69
311.639	324.69
311.868	339.69
312.098	352.69
312.328	345.69
312.557	357.69
312.787	355.69
313.017	366.69
313.246	362.69
313.476	340.69
313.706	363.69
313.935	371.69
314.165	380.69
314.394	379.69
314.624	380.69
314.853	359.69
315.083	368.69
315.312	359.69
315.542	344.69
315.771	331.69
316.001	341.69
316.23	344.69
316.46	365.69
316.689	357.69
316.919	367.69
317.148	376.69
317.377	359.69
317.607	356.69
317.836	349.69
318.065	351.69
318.295	354.69
318.524	352.69
318.753	364.69
318.983	359.69
319.212	348.69
319.441	352.69
319.67	345.69
319.9	331.69
320.129	355.69
320.358	359.69
320.587	358.69
320.816	343.69
321.046	366.69
321.275	352.69
321.504	364.69
321.733	386.69
321.962	370.69
322.191	372.69
322.42	387.69
322.649	375.69
322.878	392.69
323.108	393.69
323.337	413.69
323.566	397.69
323.795	429.69
324.024	446.69
324.253	501.69
324.482	690.69
324.71	1017.69
324.939	1516.69
325.168	1302.69
325.397	664.69
325.626	475.69
325.855	446.69
326.084	420.69
326.313	398.69
326.542	405.69
326.77	431.69
326.999	504.69
327.228	642.69
327.457	942.69
327.686	1166.69
327.914	758.69
328.143	533.69
328.372	479.69
328.6	458.69
328.829	464.69
329.058	460.69
329.287	464.69
329.515	452.69
329.744	419.69
329.972	398.69
330.201	433.69
330.43	445.69
330.658	498.69
330.887	490.69
331.115	499.69
331.344	450.69
331.572	438.69
331.801	445.69
332.03	423.69
332.258	410.69
332.486	421.69
332.715	417.69
332.943	424.69
333.172	420.69
333.4	448.69
333.629	444.69
333.857	444.69
334.085	445.69
334.314	477.69
334.542	463.69
334.771	471.69
334.999	455.69
335.227	460.69
335.455	437.69
335.684	461.69
335.912	442.69
336.14	428.69
336.369	438.69
336.597	445.69
336.825	438.69
337.053	422.69
337.281	427.69
337.51	420.69
337.738	432.69
337.966	415.69
338.194	423.69
338.422	394.69
338.65	407.69
338.878	407.69
339.106	411.69
339.334	408.69
339.562	390.69
339.79	426.69
340.018	408.69
340.246	422.69
340.474	370.69
340.702	400.69
340.93	414.69
341.158	402.69
341.386	416.69
341.614	403.69
341.842	385.69
342.07	400.69
342.298	398.69
342.526	394.69
342.754	400.69
342.981	390.69
343.209	414.69
343.437	421.69
343.665	403.69
343.893	435.69
344.12	420.69
344.348	424.69
344.576	432.69
344.804	430.69
345.031	424.69
345.259	407.69
345.487	437.69
345.714	406.69
345.942	393.69
346.17	399.69
346.397	402.69
346.625	410.69
346.853	390.69
347.08	380.69
347.308	387.69
347.535	397.69
347.763	389.69
347.99	396.69
348.218	374.69
348.445	383.69
348.673	391.69
348.9	381.69
349.128	399.69
349.355	390.69
349.583	367.69
349.81	381.69
350.037	380.69
350.265	382.69
350.492	397.69
350.72	395.69
350.947	383.69
351.174	396.69
351.402	386.69
351.629	403.69
351.856	394.69
352.083	402.69
352.311	393.69
352.538	410.69
352.765	410.69
352.992	378.69
353.22	395.69
353.447	400.69
353.674	391.69
353.901	381.69
354.128	377.69
354.355	373.69
354.583	374.69
354.81	378.69
355.037	373.69
355.264	402.69
355.491	371.69
355.718	376.69
355.945	367.69
356.172	371.69
356.399	362.69
356.626	374.69
356.853	374.69
357.08	376.69
357.307	364.69
357.534	378.69
357.761	378.69
357.988	383.69
358.215	389.69
358.441	390.69
358.668	383.69
358.895	395.69
359.122	394.69
359.349	392.69
359.576	412.69
359.802	405.69
360.029	425.69
360.256	419.69
360.483	396.69
360.709	388.69
360.936	399.69
361.163	396.69
361.39	384.69
361.616	393.69
361.843	393.69
362.07	372.69
362.296	397.69
362.523	383.69
362.749	373.69
362.976	385.69
363.203	380.69
363.429	369.69
363.656	390.69
363.882	376.69
364.109	382.69
364.335	371.69
364.562	382.69
364.788	378.69
365.015	360.69
365.241	394.69
365.468	400.69
365.694	373.69
365.92	372.69
366.147	365.69
366.373	378.69
366.599	394.69
366.826	370.69
367.052	386.69
367.278	365.69
367.505	388.69
367.731	400.69
367.957	409.69
368.184	409.69
368.41	395.69
368.636	400.69
368.862	407.69
369.089	395.69
369.315	381.69
369.541	398.69
369.767	380.69
369.993	377.69
370.219	407.69
370.445	401.69
370.672	408.69
370.898	409.69
371.124	389.69
371.35	388.69
371.576	407.69
371.802	384.69
372.028	392.69
372.254	414.69
372.48	384.69
372.706	393.69
372.932	384.69
373.158	418.69
373.384	404.69
373.61	414.69
373.835	426.69
374.061	397.69
374.287	394.69
374.513	407.69
374.739	404.69
374.965	422.69
375.191	417.69
375.416	428.69
375.642	409.69
375.868	411.69
376.094	388.69
376.319	422.69
376.545	390.69
376.771	404.69
376.997	395.69
377.222	404.69
377.448	396.69
377.674	408.69
377.899	409.69
378.125	395.69
378.35	399.69
378.576	410.69
378.802	394.69
379.027	396.69
379.253	420.69
379.478	397.69
379.704	402.69
379.929	386.69
380.155	402.69
380.38	407.69
380.606	408.69
380.831	408.69
381.057	408.69
381.282	392.69
381.507	409.69
381.733	412.69
381.958	401.69
382.184	414.69
382.409	415.69
382.634	422.69
382.86	413.69
383.085	434.69
383.31	444.69
383.535	426.69
383.761	425.69
383.986	435.69
384.211	450.69
384.436	424.69
384.662	431.69
384.887	445.69
385.112	455.69
385.337	464.69
385.562	452.69
385.787	456.69
386.013	470.69
386.238	479.69
386.463	471.69
386.688	461.69
386.913	457.69
387.138	470.69
387.363	460.69
387.588	447.69
387.813	444.69
388.038	440.69
388.263	484.69
388.488	447.69
388.713	474.69
388.938	466.69
389.163	474.69
389.387	461.69
389.612	426.69
389.837	460.69
390.062	439.69
390.287	452.69
390.512	437.69
390.736	449.69
390.961	442.69
391.186	456.69
391.411	480.69
391.636	470.69
391.86	469.69
392.085	475.69
392.31	491.69
392.534	453.69
392.759	460.69
392.984	460.69
393.208	439.69
393.433	481.69
393.658	453.69
393.882	473.69
394.107	462.69
394.331	464.69
394.556	476.69
394.78	471.69
395.005	480.69
395.229	454.69
395.454	450.69
395.678	481.69
395.903	502.69
396.127	491.69
396.352	484.69
396.576	484.69
396.801	472.69
397.025	487.69
397.249	481.69
397.474	495.69
397.698	474.69
397.922	518.69
398.147	518.69
398.371	514.69
398.595	502.69
398.82	505.69
399.044	548.69
399.268	552.69
399.492	595.69
399.717	619.69
399.941	634.69
400.165	654.69
400.389	674.69
400.613	596.69
400.837	550.69
401.062	538.69
401.286	523.69
401.51	554.69
401.734	518.69
401.958	544.69
402.182	547.69
402.406	517.69
402.63	511.69
402.854	534.69
403.078	532.69
403.302	542.69
403.526	566.69
403.75	538.69
403.974	560.69
404.198	534.69
404.422	546.69
404.645	565.69
404.869	579.69
405.093	583.69
405.317	616.69
405.541	638.69
405.765	610.69
405.988	586.69
406.212	588.69
406.436	587.69
406.66	582.69
406.883	580.69
407.107	621.69
407.331	654.69
407.555	734.69
407.778	736.69
408.002	663.69
408.226	614.69
408.449	600.69
408.673	603.69
408.896	619.69
409.12	652.69
409.344	619.69
409.567	566.69
409.791	553.69
410.014	557.69
410.238	527.69
410.461	549.69
410.685	540.69
410.908	574.69
411.132	604.69
411.355	617.69
411.578	600.69
411.802	530.69
412.025	554.69
412.249	535.69
412.472	584.69
412.695	604.69
412.919	582.69
413.142	556.69
413.365	548.69
413.589	545.69
413.812	518.69
414.035	522.69
414.258	539.69
414.482	527.69
414.705	505.69
414.928	522.69
415.151	521.69
415.374	513.69
415.597	524.69
415.821	522.69
416.044	513.69
416.267	505.69
416.49	518.69
416.713	512.69
416.936	511.69
417.159	502.69
417.382	532.69
417.605	524.69
417.828	550.69
418.051	518.69
418.274	543.69
418.497	518.69
418.72	522.69
418.943	517.69
419.166	559.69
419.389	545.69
419.611	567.69
419.834	536.69
420.057	562.69
420.28	523.69
420.503	555.69
420.726	548.69
420.948	545.69
421.171	576.69
421.394	599.69
421.617	560.69
421.839	538.69
422.062	548.69
422.285	539.69
422.507	602.69
422.73	682.69
422.953	630.69
423.175	574.69
423.398	558.69
423.621	542.69
423.843	574.69
424.066	566.69
424.288	557.69
424.511	580.69
424.733	625.69
424.956	701.69
425.178	653.69
425.401	671.69
425.623	663.69
425.846	597.69
426.068	556.69
426.291	547.69
426.513	536.69
426.735	555.69
426.958	591.69
427.18	651.69
427.402	786.69
427.625	836.69
427.847	700.69
428.069	648.69
428.292	591.69
428.514	518.69
428.736	518.69
428.958	501.69
429.181	488.69
429.403	503.69
429.625	542.69
429.847	554.69
430.069	617.69
430.292	600.69
430.514	520.69
430.736	516.69
430.958	501.69
431.18	505.69
431.402	524.69
431.624	498.69
431.846	487.69
432.068	482.69
432.29	496.69
432.512	506.69
432.734	525.69
432.956	513.69
433.178	510.69
433.4	518.69
433.622	495.69
433.844	485.69
434.066	488.69
434.287	523.69
434.509	528.69
434.731	529.69
434.953	529.69
435.175	556.69
435.397	564.69
435.618	541.69
435.84	572.69
436.062	672.69
436.284	732.69
436.505	597.69
436.727	551.69
436.949	524.69
437.17	511.69
437.392	514.69
437.614	533.69
437.835	539.69
438.057	602.69
438.278	712.69
438.5	706.69
438.721	810.69
438.943	754.69
439.165	610.69
439.386	556.69
439.608	554.69
439.829	541.69
440.05	581.69
440.272	615.69
440.493	575.69
440.715	534.69
440.936	544.69
441.158	515.69
441.379	519.69
441.6	533.69
441.822	563.69
442.043	593.69
442.264	655.69
442.486	684.69
442.707	592.69
442.928	560.69
443.149	568.69
443.371	588.69
443.592	608.69
443.813	706.69
444.034	751.69
444.255	648.69
444.476	567.69
444.698	578.69
444.919	579.69
445.14	714.69
445.361	621.69
445.582	595.69
445.803	655.69
446.024	719.69
446.245	726.69
446.466	666.69
446.687	585.69
446.908	526.69
447.129	532.69
447.35	527.69
447.571	515.69
447.792	509.69
448.013	516.69
448.234	532.69
448.455	550.69
448.675	673.69
448.896	793.69
449.117	635.69
449.338	622.69
449.559	708.69
449.779	814.69
450	626.69
450.221	553.69
450.442	507.69
450.662	484.69
450.883	481.69
451.104	516.69
451.324	494.69
451.545	498.69
451.766	457.69
451.986	472.69
452.207	468.69
452.428	458.69
452.648	464.69
452.869	458.69
453.089	461.69
453.31	463.69
453.53	481.69
453.751	472.69
453.971	451.69
454.192	462.69
454.412	444.69
454.633	444.69
454.853	448.69
455.073	450.69
455.294	482.69
455.514	514.69
455.734	532.69
455.955	453.69
456.175	445.69
456.395	417.69
456.616	442.69
456.836	422.69
457.056	424.69
457.276	431.69
457.497	447.69
457.717	443.69
457.937	432.69
458.157	438.69
458.377	436.69
458.598	477.69
458.818	505.69
459.038	549.69
459.258	566.69
459.478	519.69
459.698	486.69
459.918	512.69
460.138	494.69
460.358	498.69
460.578	539.69
460.798	546.69
461.018	542.69
461.238	522.69
461.458	508.69
461.678	506.69
461.898	539.69
462.118	526.69
462.338	526.69
462.558	549.69
462.777	582.69
462.997	564.69
463.217	605.69
463.437	617.69
463.657	598.69
463.876	590.69
464.096	564.69
464.316	553.69
464.536	565.69
464.755	586.69
464.975	567.69
465.195	564.69
465.414	608.69
465.634	549.69
465.854	491.69
466.073	501.69
466.293	491.69
466.512	478.69
466.732	499.69
466.951	492.69
467.171	474.69
467.391	500.69
467.61	473.69
467.829	486.69
468.049	488.69
468.268	489.69
468.488	487.69
468.707	478.69
468.927	474.69
469.146	483.69
469.365	461.69
469.585	474.69
469.804	463.69
470.023	494.69
470.243	503.69
470.462	508.69
470.681	502.69
470.901	497.69
471.12	492.69
471.339	468.69
471.558	487.69
471.777	509.69
471.997	461.69
472.216	495.69
472.435	496.69
472.654	467.69
472.873	489.69
473.092	495.69
473.311	485.69
473.53	475.69
473.749	487.69
473.968	493.69
474.187	589.69
474.406	632.69
474.625	540.69
474.844	500.69
475.063	494.69
475.282	452.69
475.501	476.69
475.72	496.69
475.939	503.69
476.158	492.69
476.377	502.69
476.596	497.69
476.814	504.69
477.033	491.69
477.252	523.69
477.471	518.69
477.69	524.69
477.908	530.69
478.127	521.69
478.346	509.69
478.564	541.69
478.783	559.69
479.002	546.69
479.22	580.69
479.439	554.69
479.658	559.69
479.876	604.69
480.095	587.69
480.313	606.69
480.532	610.69
480.751	604.69
480.969	597.69
481.188	623.69
481.406	662.69
481.624	592.69
481.843	570.69
482.061	581.69
482.28	553.69
482.498	549.69
482.717	550.69
482.935	556.69
483.153	575.69
483.372	573.69
483.59	593.69
483.808	560.69
484.027	578.69
484.245	585.69
484.463	564.69
484.681	577.69
484.9	586.69
485.118	567.69
485.336	598.69
485.554	590.69
485.772	590.69
485.99	601.69
486.209	604.69
486.427	598.69
486.645	615.69
486.863	631.69
487.081	602.69
487.299	599.69
487.517	618.69
487.735	601.69
487.953	606.69
488.171	617.69
488.389	601.69
488.607	606.69
488.825	601.69
489.043	582.69
489.261	600.69
489.479	613.69
489.696	613.69
489.914	613.69
490.132	623.69
490.35	614.69
490.568	643.69
490.786	656.69
491.003	654.69
491.221	662.69
491.439	687.69
491.657	654.69
491.874	677.69
492.092	694.69
492.31	706.69
492.527	698.69
492.745	683.69
492.963	674.69
493.18	695.69
493.398	706.69
493.615	714.69
493.833	718.69
494.05	709.69
494.268	723.69
494.485	707.69
494.703	708.69
494.92	700.69
495.138	709.69
495.355	716.69
495.573	750.69
495.79	719.69
496.008	737.69
496.225	720.69
496.442	701.69
496.66	723.69
496.877	717.69
497.094	722.69
497.312	716.69
497.529	713.69
497.746	722.69
497.963	768.69
498.181	796.69
498.398	782.69
498.615	838.69
498.832	847.69
499.049	877.69
499.267	908.69
499.484	932.69
499.701	988.69
499.918	1024.69
500.135	1091.69
500.352	1159.69
500.569	1188.69
500.786	1176.69
501.003	1167.69
501.22	1099.69
501.437	1056.69
501.654	980.69
501.871	973.69
502.088	920.69
502.305	878.69
502.522	854.69
502.739	839.69
502.956	793.69
503.172	790.69
503.389	758.69
503.606	748.69
503.823	744.69
504.04	742.69
504.256	738.69
504.473	744.69
504.69	731.69
504.907	736.69
505.123	714.69
505.34	683.69
505.557	685.69
505.773	698.69
505.99	681.69
506.207	696.69
506.423	698.69
506.64	660.69
506.856	647.69
507.073	639.69
507.289	646.69
507.506	651.69
507.722	657.69
507.939	634.69
508.155	636.69
508.372	631.69
508.588	632.69
508.805	624.69
509.021	631.69
509.238	632.69
509.454	604.69
509.67	615.69
509.887	619.69
510.103	626.69
510.319	628.69
510.536	655.69
510.752	866.69
510.968	757.69
511.184	613.69
511.401	598.69
511.617	607.69
511.833	568.69
512.049	585.69
512.265	568.69
512.481	568.69
512.698	597.69
512.914	591.69
513.13	580.69
513.346	586.69
513.562	575.69
513.778	592.69
513.994	578.69
514.21	581.69
514.426	589.69
514.642	613.69
514.858	621.69
515.074	656.69
515.29	695.69
515.506	859.69
515.721	747.69
515.937	644.69
516.153	624.69
516.369	616.69
516.585	634.69
516.801	608.69
517.016	615.69
517.232	623.69
517.448	659.69
517.664	662.69
517.879	622.69
518.095	642.69
518.311	633.69
518.527	655.69
518.742	639.69
518.958	621.69
519.173	596.69
519.389	590.69
519.605	588.69
519.82	613.69
520.036	572.69
520.251	597.69
520.467	606.69
520.682	605.69
520.898	607.69
521.113	617.69
521.329	634.69
521.544	646.69
521.76	738.69
521.975	983.69
522.19	997.69
522.406	671.69
522.621	583.69
522.836	554.69
523.052	556.69
523.267	534.69
523.482	533.69
523.698	541.69
523.913	546.69
524.128	534.69
524.343	540.69
524.559	518.69
524.774	526.69
524.989	509.69
525.204	518.69
525.419	531.69
525.634	502.69
525.849	484.69
526.064	502.69
526.28	510.69
526.495	500.69
526.71	502.69
526.925	503.69
527.14	475.69
527.355	498.69
527.57	489.69
527.785	502.69
527.999	492.69
528.214	510.69
528.429	504.69
528.644	494.69
528.859	484.69
529.074	487.69
529.289	516.69
529.503	560.69
529.718	526.69
529.933	505.69
530.148	492.69
530.363	518.69
530.577	491.69
530.792	486.69
531.007	496.69
531.221	492.69
531.436	483.69
531.651	490.69
531.865	507.69
532.08	480.69
532.295	500.69
532.509	473.69
532.724	502.69
532.938	463.69
533.153	486.69
533.367	478.69
533.582	478.69
533.796	486.69
534.011	498.69
534.225	489.69
534.44	479.69
534.654	501.69
534.868	473.69
535.083	468.69
535.297	484.69
535.511	491.69
535.726	471.69
535.94	464.69
536.154	472.69
536.369	480.69
536.583	470.69
536.797	471.69
537.011	447.69
537.225	454.69
537.44	457.69
537.654	434.69
537.868	459.69
538.082	448.69
538.296	453.69
538.51	487.69
538.724	481.69
538.938	461.69
539.153	456.69
539.367	494.69
539.581	470.69
539.795	449.69
540.009	445.69
540.222	460.69
540.436	460.69
540.65	469.69
540.864	468.69
541.078	476.69
541.292	471.69
541.506	456.69
541.72	483.69
541.934	458.69
542.147	455.69
542.361	467.69
542.575	447.69
542.789	456.69
543.002	471.69
543.216	463.69
543.43	469.69
543.644	447.69
543.857	477.69
544.071	487.69
544.285	455.69
544.498	447.69
544.712	452.69
544.925	458.69
545.139	460.69
545.352	444.69
545.566	452.69
545.779	468.69
545.993	455.69
546.206	461.69
546.42	467.69
546.633	444.69
546.847	458.69
547.06	452.69
547.274	442.69
547.487	460.69
547.7	464.69
547.914	459.69
548.127	452.69
548.34	459.69
548.554	460.69
548.767	468.69
548.98	470.69
549.193	479.69
549.407	467.69
549.62	454.69
549.833	475.69
550.046	477.69
550.259	465.69
550.473	450.69
550.686	460.69
550.899	455.69
551.112	456.69
551.325	468.69
551.538	443.69
551.751	450.69
551.964	452.69
552.177	447.69
552.39	456.69
552.603	462.69
552.816	471.69
553.029	467.69
553.242	462.69
553.455	486.69
553.667	471.69
553.88	481.69
554.093	472.69
554.306	465.69
554.519	459.69
554.732	438.69
554.944	438.69
555.157	437.69
555.37	436.69
555.583	443.69
555.795	450.69
556.008	424.69
556.221	440.69
556.433	422.69
556.646	436.69
556.859	414.69
557.071	422.69
557.284	420.69
557.496	413.69
557.709	401.69
557.921	410.69
558.134	422.69
558.346	413.69
558.559	415.69
558.771	413.69
558.984	424.69
559.196	404.69
559.409	400.69
559.621	392.69
559.833	398.69
560.046	397.69
560.258	418.69
560.47	383.69
560.683	416.69
560.895	426.69
561.107	407.69
561.32	420.69
561.532	417.69
561.744	394.69
561.956	410.69
562.168	400.69
562.381	410.69
562.593	400.69
562.805	420.69
563.017	406.69
563.229	401.69
563.441	405.69
563.653	420.69
563.865	396.69
564.077	426.69
564.289	417.69
564.501	415.69
564.713	422.69
564.925	433.69
565.137	442.69
565.349	473.69
565.561	456.69
565.773	477.69
565.985	484.69
566.197	502.69
566.408	487.69
566.62	523.69
566.832	537.69
567.044	527.69
567.255	539.69
567.467	573.69
567.679	564.69
567.891	586.69
568.102	573.69
568.314	564.69
568.526	563.69
568.737	521.69
568.949	475.69
569.161	468.69
569.372	455.69
569.584	439.69
569.795	436.69
570.007	438.69
570.218	439.69
570.43	427.69
570.641	421.69
570.853	409.69
571.064	409.69
571.276	414.69
571.487	392.69
571.698	400.69
571.91	410.69
572.121	379.69
572.333	360.69
572.544	382.69
572.755	371.69
572.966	376.69
573.178	389.69
573.389	373.69
573.6	363.69
573.811	346.69
574.023	355.69
574.234	355.69
574.445	360.69
574.656	331.69
574.867	338.69
575.078	381.69
575.289	336.69
575.501	355.69
575.712	356.69
575.923	343.69
576.134	342.69
576.345	343.69
576.556	353.69
576.767	323.69
576.978	347.69
577.188	354.69
577.399	332.69
577.61	342.69
577.821	333.69
578.032	344.69
578.243	350.69
578.454	441.69
578.665	382.69
578.875	346.69
579.086	322.69
579.297	314.69
579.508	334.69
579.718	330.69
579.929	327.69
580.14	327.69
580.35	317.69
580.561	326.69
580.772	312.69
580.982	316.69
581.193	311.69
581.403	326.69
581.614	323.69
581.825	334.69
582.035	326.69
582.246	316.69
582.456	306.69
582.667	316.69
582.877	307.69
583.087	314.69
583.298	331.69
583.508	309.69
583.719	310.69
583.929	331.69
584.139	321.69
584.35	311.69
584.56	315.69
584.77	317.69
584.981	326.69
585.191	311.69
585.401	321.69
585.611	314.69
585.821	307.69
586.032	326.69
586.242	301.69
586.452	326.69
586.662	306.69
586.872	302.69
587.082	295.69
587.292	292.69
587.502	316.69
587.713	290.69
587.923	314.69
588.133	308.69
588.343	300.69
588.553	300.69
588.762	307.69
588.972	296.69
589.182	313.69
589.392	320.69
589.602	314.69
589.812	315.69
590.022	332.69
590.232	318.69
590.441	301.69
590.651	326.69
590.861	302.69
591.071	322.69
591.281	316.69
591.49	323.69
591.7	333.69
591.91	316.69
592.119	344.69
592.329	331.69
592.539	341.69
592.748	336.69
592.958	354.69
593.167	356.69
593.377	366.69
593.587	359.69
593.796	327.69
594.006	351.69
594.215	339.69
594.424	341.69
594.634	346.69
594.843	340.69
595.053	357.69
595.262	345.69
595.472	347.69
595.681	317.69
595.89	307.69
596.1	313.69
596.309	302.69
596.518	321.69
596.727	323.69
596.937	290.69
597.146	307.69
597.355	299.69
597.564	299.69
597.774	295.69
597.983	288.69
598.192	289.69
598.401	285.69
598.61	277.69
598.819	293.69
599.028	285.69
599.237	270.69
599.446	275.69
599.655	268.69
599.864	287.69
600.073	282.69
600.282	273.69
600.491	269.69
600.7	271.69
600.909	277.69
601.118	269.69
601.327	290.69
601.536	263.69
601.745	252.69
601.953	291.69
602.162	274.69
602.371	262.69
602.58	271.69
602.789	268.69
602.997	254.69
603.206	258.69
603.415	258.69
603.623	263.69
603.832	264.69
604.041	264.69
604.249	256.69
604.458	258.69
604.666	258.69
604.875	283.69
605.084	284.69
605.292	272.69
605.501	266.69
605.709	273.69
605.918	266.69
606.126	248.69
606.334	278.69
606.543	258.69
606.751	264.69
606.96	258.69
607.168	242.69
607.376	244.69
607.585	265.69
607.793	246.69
608.001	252.69
608.21	260.69
608.418	245.69
608.626	267.69
608.834	251.69
609.043	268.69
609.251	269.69
609.459	269.69
609.667	256.69
609.875	268.69
610.083	271.69
610.291	273.69
610.499	262.69
610.707	264.69
610.916	240.69
611.124	262.69
611.332	250.69
611.54	265.69
611.748	254.69
611.955	281.69
612.163	253.69
612.371	269.69
612.579	256.69
612.787	254.69
612.995	246.69
613.203	250.69
613.411	256.69
613.618	237.69
613.826	242.69
614.034	268.69
614.242	244.69
614.449	261.69
614.657	253.69
614.865	266.69
615.072	260.69
615.28	254.69
615.488	257.69
615.695	253.69
615.903	256.69
616.111	252.69
616.318	248.69
616.526	228.69
616.733	269.69
616.941	266.69
617.148	244.69
617.356	242.69
617.563	247.69
617.771	267.69
617.978	248.69
618.185	256.69
618.393	246.69
618.6	240.69
618.807	233.69
619.015	259.69
619.222	250.69
619.429	255.69
619.637	238.69
619.844	260.69
620.051	229.69
620.258	240.69
620.466	245.69
620.673	237.69
620.88	244.69
621.087	219.69
621.294	236.69
621.501	258.69
621.708	248.69
621.915	236.69
622.122	226.69
622.329	249.69
622.536	270.69
622.743	230.69
622.95	242.69
623.157	231.69
623.364	243.69
623.571	235.69
623.778	229.69
623.985	211.69
624.192	237.69
624.399	232.69
624.606	216.69
624.812	242.69
625.019	230.69
625.226	223.69
625.433	217.69
625.639	216.69
625.846	239.69
626.053	215.69
626.259	227.69
626.466	229.69
626.673	231.69
626.879	215.69
627.086	217.69
627.293	212.69
627.499	213.69
627.706	220.69
627.912	223.69
628.119	222.69
628.325	207.69
628.532	220.69
628.738	220.69
628.945	222.69
629.151	201.69
629.357	211.69
629.564	212.69
629.77	225.69
629.976	207.69
630.183	219.69
630.389	222.69
630.595	212.69
630.802	197.69
631.008	220.69
631.214	204.69
631.42	218.69
631.627	213.69
631.833	223.69
632.039	220.69
632.245	201.69
632.451	221.69
632.657	195.69
632.863	211.69
633.069	218.69
633.275	190.69
633.481	198.69
633.688	203.69
633.893	196.69
634.099	206.69
634.305	195.69
634.511	200.69
634.717	194.69
634.923	195.69
635.129	199.69
635.335	192.69
635.541	196.69
635.747	204.69
635.952	196.69
636.158	201.69
636.364	197.69
636.57	216.69
636.775	206.69
636.981	208.69
637.187	194.69
637.392	181.69
637.598	196.69
637.804	197.69
638.009	192.69
638.215	188.69
638.421	187.69
638.626	189.69
638.832	193.69
639.037	181.69
639.243	183.69
639.448	182.69
639.654	189.69
639.859	182.69
640.065	185.69
640.27	198.69
640.475	197.69
640.681	189.69
640.886	176.69
641.091	174.69
641.297	176.69
641.502	184.69
641.707	159.69
641.913	187.69
642.118	182.69
642.323	175.69
642.528	180.69
642.733	168.69
642.939	185.69
643.144	175.69
643.349	188.69
643.554	168.69
643.759	170.69
643.964	180.69
644.169	176.69
644.374	166.69
644.579	164.69
644.784	187.69
644.989	170.69
645.194	163.69
645.399	186.69
645.604	166.69
645.809	166.69
646.014	164.69
646.219	166.69
646.423	188.69
646.628	172.69
646.833	173.69
647.038	175.69
647.243	178.69
647.447	192.69
647.652	179.69
647.857	182.69
648.062	186.69
648.266	191.69
648.471	190.69
648.676	194.69
648.88	188.69
649.085	192.69
649.289	171.69
649.494	178.69
649.698	188.69
649.903	198.69
650.107	167.69
650.312	186.69
650.516	172.69
650.721	172.69
650.925	158.69
651.13	176.69
651.334	178.69
651.539	174.69
651.743	162.69
651.947	158.69
652.152	160.69
652.356	152.69
652.56	166.69
652.764	157.69
652.969	152.69
653.173	156.69
653.377	144.69
653.581	151.69
653.785	151.69
653.99	172.69
654.194	148.69
654.398	157.69
654.602	154.69
654.806	168.69
655.01	145.69
655.214	155.69
655.418	141.69
655.622	153.69
655.826	165.69
656.03	156.69
656.234	170.69
656.438	170.69
656.642	182.69
656.846	168.69
657.049	166.69
657.253	136.69
657.457	137.69
657.661	136.69
657.865	127.69
658.068	133.69
658.272	114.69
658.476	115.69
658.68	116.69
658.883	116.69
659.087	101.69
659.291	93.69
659.494	91.69
659.698	104.69
659.901	101.69
660.105	125.69
660.309	99.69
660.512	95.69
660.716	97.69
660.919	109.69
661.123	99.69
661.326	79.69
661.53	96.69
661.733	94.69
661.936	99.69
662.14	78.69
662.343	88.69
662.546	94.69
662.75	92.69
662.953	100.69
663.156	75.69
663.36	80.69
663.563	80.69
663.766	89.69
663.969	86.69
664.173	87.69
664.376	83.69
664.579	95.69
664.782	83.69
664.985	90.69
665.188	69.69
665.391	80.69
665.594	78.69
665.797	80.69
666	86.69
666.203	91.69
666.406	79.69
666.609	77.69
666.812	82.69
667.015	77.69
667.218	88.69
667.421	91.69
667.624	71.69
667.827	83.69
668.03	82.69
668.232	74.69
668.435	77.69
668.638	83.69
668.841	84.69
669.043	85.69
669.246	89.69
669.449	87.69
669.651	77.69
669.854	76.69
670.057	93.69
670.259	79.69
670.462	89.69
670.665	74.69
670.867	86.69
671.07	89.69
671.272	88.69
671.475	87.69
671.677	86.69
671.88	73.69
672.082	67.69
672.284	92.69
672.487	83.69
672.689	77.69
672.892	82.69
