Data from 1975.PennyLincolnUp.Lamp.En5.5.200Scan.071719.P1.Changed Mount._HRD10591_15-57-18-860.txt Node
Date: Thu Jul 18 15:57:18 EDT 2019
User: cochatt
Spectrometer: HR+D1059
Trigger mode: 1
Integration Time (sec): 1.000000E-1
Scans to average: 1
Electric dark correction enabled: true
Nonlinearity correction enabled: false
Boxcar width: 0
XAxis mode: Wavelengths
Number of Pixels in Spectrum: 2048
>>>>>Begin Spectral Data<<<<<
223.165	-8.56
223.4	-8.56
223.635	-8.56
223.869	-6.56
224.104	-11.56
224.338	-14.56
224.573	-3.56
224.808	-15.56
225.042	-13.56
225.277	-15.56
225.511	-2.56
225.746	1.44
225.98	-6.56
226.215	-2.56
226.449	26.44
226.683	15.44
226.918	32.44
227.152	25.44
227.387	33.44
227.621	45.44
227.856	49.44
228.09	23.44
228.324	60.44
228.559	68.44
228.793	69.44
229.027	99.44
229.262	112.44
229.496	117.44
229.73	128.44
229.964	168.44
230.199	130.44
230.433	122.44
230.667	116.44
230.901	121.44
231.136	113.44
231.37	103.44
231.604	113.44
231.838	119.44
232.072	116.44
232.306	119.44
232.541	111.44
232.775	118.44
233.009	109.44
233.243	112.44
233.477	126.44
233.711	122.44
233.945	125.44
234.179	114.44
234.413	121.44
234.647	125.44
234.881	116.44
235.115	123.44
235.349	118.44
235.583	116.44
235.817	122.44
236.051	127.44
236.285	134.44
236.519	122.44
236.753	134.44
236.987	148.44
237.221	188.44
237.455	236.44
237.689	183.44
237.922	138.44
238.156	144.44
238.39	135.44
238.624	124.44
238.858	123.44
239.091	130.44
239.325	119.44
239.559	134.44
239.793	137.44
240.027	139.44
240.26	138.44
240.494	160.44
240.728	152.44
240.961	167.44
241.195	158.44
241.429	132.44
241.662	141.44
241.896	157.44
242.13	153.44
242.363	141.44
242.597	126.44
242.83	131.44
243.064	155.44
243.298	139.44
243.531	144.44
243.765	153.44
243.998	140.44
244.232	142.44
244.465	148.44
244.699	150.44
244.932	156.44
245.166	145.44
245.399	150.44
245.633	150.44
245.866	149.44
246.099	140.44
246.333	147.44
246.566	172.44
246.8	168.44
247.033	144.44
247.266	158.44
247.5	172.44
247.733	196.44
247.966	175.44
248.2	170.44
248.433	190.44
248.666	184.44
248.899	208.44
249.133	200.44
249.366	211.44
249.599	195.44
249.832	199.44
250.066	210.44
250.299	187.44
250.532	206.44
250.765	200.44
250.998	227.44
251.231	236.44
251.465	234.44
251.698	215.44
251.931	193.44
252.164	203.44
252.397	203.44
252.63	209.44
252.863	198.44
253.096	226.44
253.329	229.44
253.562	212.44
253.795	223.44
254.028	226.44
254.261	220.44
254.494	239.44
254.727	261.44
254.96	297.44
255.193	263.44
255.426	262.44
255.659	247.44
255.892	240.44
256.124	243.44
256.357	267.44
256.59	231.44
256.823	219.44
257.056	217.44
257.289	220.44
257.521	201.44
257.754	210.44
257.987	209.44
258.22	197.44
258.452	230.44
258.685	216.44
258.918	218.44
259.151	229.44
259.383	224.44
259.616	228.44
259.849	225.44
260.081	240.44
260.314	280.44
260.547	266.44
260.779	254.44
261.012	258.44
261.244	235.44
261.477	246.44
261.71	237.44
261.942	233.44
262.175	248.44
262.407	236.44
262.64	220.44
262.872	220.44
263.105	211.44
263.337	225.44
263.57	231.44
263.802	234.44
264.035	206.44
264.267	220.44
264.499	228.44
264.732	218.44
264.964	213.44
265.197	228.44
265.429	223.44
265.661	241.44
265.894	218.44
266.126	229.44
266.358	224.44
266.591	230.44
266.823	233.44
267.055	231.44
267.287	254.44
267.52	233.44
267.752	235.44
267.984	245.44
268.216	257.44
268.448	236.44
268.681	226.44
268.913	236.44
269.145	266.44
269.377	292.44
269.609	301.44
269.841	281.44
270.073	282.44
270.306	301.44
270.538	336.44
270.77	335.44
271.002	304.44
271.234	312.44
271.466	317.44
271.698	315.44
271.93	333.44
272.162	336.44
272.394	337.44
272.626	311.44
272.858	301.44
273.09	294.44
273.322	271.44
273.553	284.44
273.785	263.44
274.017	269.44
274.249	275.44
274.481	278.44
274.713	269.44
274.945	270.44
275.176	274.44
275.408	269.44
275.64	283.44
275.872	263.44
276.104	286.44
276.335	295.44
276.567	285.44
276.799	293.44
277.031	306.44
277.262	320.44
277.494	344.44
277.726	337.44
277.957	308.44
278.189	276.44
278.421	299.44
278.652	274.44
278.884	295.44
279.115	292.44
279.347	277.44
279.579	262.44
279.81	285.44
280.042	287.44
280.273	274.44
280.505	280.44
280.736	284.44
280.968	310.44
281.199	272.44
281.431	278.44
281.662	292.44
281.894	287.44
282.125	292.44
282.356	298.44
282.588	323.44
282.819	322.44
283.051	294.44
283.282	312.44
283.513	314.44
283.745	302.44
283.976	300.44
284.207	304.44
284.439	293.44
284.67	302.44
284.901	305.44
285.132	309.44
285.364	305.44
285.595	305.44
285.826	293.44
286.057	292.44
286.288	306.44
286.52	307.44
286.751	310.44
286.982	314.44
287.213	316.44
287.444	319.44
287.675	314.44
287.906	330.44
288.138	341.44
288.369	318.44
288.6	339.44
288.831	316.44
289.062	326.44
289.293	317.44
289.524	313.44
289.755	323.44
289.986	315.44
290.217	321.44
290.448	318.44
290.679	304.44
290.91	298.44
291.141	318.44
291.371	308.44
291.602	308.44
291.833	312.44
292.064	339.44
292.295	332.44
292.526	319.44
292.757	321.44
292.987	334.44
293.218	329.44
293.449	323.44
293.68	329.44
293.91	317.44
294.141	305.44
294.372	320.44
294.603	293.44
294.833	320.44
295.064	330.44
295.295	325.44
295.525	312.44
295.756	325.44
295.987	324.44
296.217	328.44
296.448	355.44
296.679	341.44
296.909	315.44
297.14	321.44
297.37	330.44
297.601	335.44
297.831	343.44
298.062	326.44
298.292	329.44
298.523	326.44
298.753	305.44
298.984	341.44
299.214	343.44
299.445	349.44
299.675	334.44
299.905	329.44
300.136	328.44
300.366	336.44
300.597	325.44
300.827	343.44
301.057	365.44
301.288	334.44
301.518	346.44
301.748	350.44
301.979	353.44
302.209	352.44
302.439	362.44
302.669	339.44
302.9	357.44
303.13	361.44
303.36	351.44
303.59	335.44
303.82	364.44
304.051	366.44
304.281	373.44
304.511	350.44
304.741	338.44
304.971	358.44
305.201	372.44
305.431	344.44
305.661	344.44
305.891	350.44
306.121	334.44
306.352	351.44
306.582	364.44
306.812	343.44
307.042	354.44
307.272	346.44
307.502	351.44
307.731	349.44
307.961	365.44
308.191	355.44
308.421	338.44
308.651	375.44
308.881	342.44
309.111	372.44
309.341	359.44
309.571	368.44
309.8	368.44
310.03	383.44
310.26	383.44
310.49	385.44
310.72	394.44
310.949	386.44
311.179	420.44
311.409	393.44
311.639	383.44
311.868	403.44
312.098	407.44
312.328	403.44
312.557	388.44
312.787	413.44
313.017	412.44
313.246	398.44
313.476	395.44
313.706	390.44
313.935	375.44
314.165	397.44
314.394	416.44
314.624	395.44
314.853	398.44
315.083	391.44
315.312	381.44
315.542	412.44
315.771	399.44
316.001	387.44
316.23	388.44
316.46	388.44
316.689	377.44
316.919	384.44
317.148	420.44
317.377	399.44
317.607	398.44
317.836	380.44
318.065	396.44
318.295	405.44
318.524	386.44
318.753	394.44
318.983	389.44
319.212	380.44
319.441	402.44
319.67	410.44
319.9	416.44
320.129	390.44
320.358	397.44
320.587	393.44
320.816	406.44
321.046	413.44
321.275	417.44
321.504	398.44
321.733	406.44
321.962	414.44
322.191	446.44
322.42	432.44
322.649	460.44
322.878	468.44
323.108	434.44
323.337	485.44
323.566	492.44
323.795	483.44
324.024	521.44
324.253	610.44
324.482	832.44
324.71	1281.44
324.939	1912.44
325.168	1722.44
325.397	872.44
325.626	606.44
325.855	530.44
326.084	492.44
326.313	472.44
326.542	494.44
326.77	538.44
326.999	598.44
327.228	784.44
327.457	1183.44
327.686	1467.44
327.914	989.44
328.143	651.44
328.372	568.44
328.6	544.44
328.829	525.44
329.058	538.44
329.287	570.44
329.515	545.44
329.744	506.44
329.972	495.44
330.201	527.44
330.43	585.44
330.658	600.44
330.887	596.44
331.115	586.44
331.344	531.44
331.572	490.44
331.801	496.44
332.03	493.44
332.258	471.44
332.486	469.44
332.715	478.44
332.943	478.44
333.172	489.44
333.4	471.44
333.629	508.44
333.857	512.44
334.085	525.44
334.314	544.44
334.542	567.44
334.771	600.44
334.999	518.44
335.227	496.44
335.455	489.44
335.684	493.44
335.912	489.44
336.14	474.44
336.369	484.44
336.597	486.44
336.825	471.44
337.053	458.44
337.281	485.44
337.51	453.44
337.738	454.44
337.966	466.44
338.194	493.44
338.422	491.44
338.65	453.44
338.878	456.44
339.106	473.44
339.334	459.44
339.562	456.44
339.79	459.44
340.018	464.44
340.246	450.44
340.474	469.44
340.702	462.44
340.93	440.44
341.158	436.44
341.386	422.44
341.614	439.44
341.842	462.44
342.07	440.44
342.298	430.44
342.526	449.44
342.754	444.44
342.981	442.44
343.209	443.44
343.437	474.44
343.665	470.44
343.893	491.44
344.12	479.44
344.348	484.44
344.576	484.44
344.804	473.44
345.031	461.44
345.259	492.44
345.487	474.44
345.714	488.44
345.942	454.44
346.17	431.44
346.397	436.44
346.625	440.44
346.853	437.44
347.08	420.44
347.308	436.44
347.535	429.44
347.763	427.44
347.99	440.44
348.218	446.44
348.445	448.44
348.673	440.44
348.9	437.44
349.128	424.44
349.355	441.44
349.583	414.44
349.81	421.44
350.037	420.44
350.265	440.44
350.492	424.44
350.72	416.44
350.947	413.44
351.174	431.44
351.402	452.44
351.629	446.44
351.856	441.44
352.083	441.44
352.311	458.44
352.538	442.44
352.765	440.44
352.992	452.44
353.22	431.44
353.447	442.44
353.674	429.44
353.901	425.44
354.128	408.44
354.355	426.44
354.583	425.44
354.81	423.44
355.037	418.44
355.264	415.44
355.491	410.44
355.718	417.44
355.945	422.44
356.172	424.44
356.399	426.44
356.626	425.44
356.853	414.44
357.08	404.44
357.307	405.44
357.534	419.44
357.761	415.44
357.988	414.44
358.215	414.44
358.441	401.44
358.668	395.44
358.895	432.44
359.122	427.44
359.349	433.44
359.576	450.44
359.802	446.44
360.029	482.44
360.256	471.44
360.483	442.44
360.709	444.44
360.936	436.44
361.163	437.44
361.39	432.44
361.616	452.44
361.843	434.44
362.07	434.44
362.296	438.44
362.523	454.44
362.749	427.44
362.976	431.44
363.203	429.44
363.429	447.44
363.656	410.44
363.882	448.44
364.109	413.44
364.335	408.44
364.562	424.44
364.788	424.44
365.015	432.44
365.241	431.44
365.468	436.44
365.694	448.44
365.92	431.44
366.147	431.44
366.373	413.44
366.599	406.44
366.826	422.44
367.052	430.44
367.278	424.44
367.505	414.44
367.731	442.44
367.957	440.44
368.184	430.44
368.41	440.44
368.636	435.44
368.862	447.44
369.089	433.44
369.315	438.44
369.541	436.44
369.767	440.44
369.993	455.44
370.219	431.44
370.445	438.44
370.672	422.44
370.898	436.44
371.124	431.44
371.35	427.44
371.576	439.44
371.802	418.44
372.028	434.44
372.254	441.44
372.48	432.44
372.706	422.44
372.932	432.44
373.158	416.44
373.384	432.44
373.61	429.44
373.835	434.44
374.061	433.44
374.287	429.44
374.513	446.44
374.739	433.44
374.965	454.44
375.191	454.44
375.416	463.44
375.642	439.44
375.868	417.44
376.094	449.44
376.319	455.44
376.545	417.44
376.771	438.44
376.997	438.44
377.222	428.44
377.448	426.44
377.674	444.44
377.899	416.44
378.125	433.44
378.35	425.44
378.576	425.44
378.802	435.44
379.027	442.44
379.253	429.44
379.478	422.44
379.704	437.44
379.929	421.44
380.155	443.44
380.38	446.44
380.606	452.44
380.831	444.44
381.057	447.44
381.282	441.44
381.507	426.44
381.733	462.44
381.958	437.44
382.184	442.44
382.409	434.44
382.634	418.44
382.86	458.44
383.085	448.44
383.31	442.44
383.535	459.44
383.761	465.44
383.986	469.44
384.211	462.44
384.436	473.44
384.662	498.44
384.887	473.44
385.112	467.44
385.337	472.44
385.562	484.44
385.787	487.44
386.013	520.44
386.238	482.44
386.463	498.44
386.688	487.44
386.913	480.44
387.138	476.44
387.363	486.44
387.588	476.44
387.813	464.44
388.038	473.44
388.263	480.44
388.488	496.44
388.713	494.44
388.938	482.44
389.163	490.44
389.387	497.44
389.612	489.44
389.837	502.44
390.062	493.44
390.287	484.44
390.512	486.44
390.736	468.44
390.961	472.44
391.186	482.44
391.411	491.44
391.636	492.44
391.86	489.44
392.085	496.44
392.31	513.44
392.534	495.44
392.759	500.44
392.984	502.44
393.208	500.44
393.433	490.44
393.658	477.44
393.882	469.44
394.107	486.44
394.331	497.44
394.556	494.44
394.78	503.44
395.005	497.44
395.229	510.44
395.454	500.44
395.678	500.44
395.903	513.44
396.127	544.44
396.352	542.44
396.576	526.44
396.801	505.44
397.025	485.44
397.249	510.44
397.474	505.44
397.698	538.44
397.922	533.44
398.147	570.44
398.371	570.44
398.595	559.44
398.82	547.44
399.044	568.44
399.268	605.44
399.492	644.44
399.717	685.44
399.941	689.44
400.165	730.44
400.389	725.44
400.613	650.44
400.837	607.44
401.062	592.44
401.286	584.44
401.51	575.44
401.734	573.44
401.958	586.44
402.182	567.44
402.406	589.44
402.63	592.44
402.854	593.44
403.078	603.44
403.302	597.44
403.526	615.44
403.75	607.44
403.974	597.44
404.198	603.44
404.422	599.44
404.645	619.44
404.869	619.44
405.093	636.44
405.317	681.44
405.541	694.44
405.765	642.44
405.988	608.44
406.212	607.44
406.436	637.44
406.66	644.44
406.883	646.44
407.107	668.44
407.331	709.44
407.555	780.44
407.778	773.44
408.002	740.44
408.226	666.44
408.449	656.44
408.673	643.44
408.896	670.44
409.12	738.44
409.344	678.44
409.567	622.44
409.791	614.44
410.014	609.44
410.238	602.44
410.461	603.44
410.685	616.44
410.908	618.44
411.132	639.44
411.355	668.44
411.578	633.44
411.802	614.44
412.025	598.44
412.249	630.44
412.472	625.44
412.695	678.44
412.919	648.44
413.142	603.44
413.365	564.44
413.589	577.44
413.812	564.44
414.035	578.44
414.258	556.44
414.482	586.44
414.705	554.44
414.928	559.44
415.151	558.44
415.374	578.44
415.597	546.44
415.821	560.44
416.044	565.44
416.267	541.44
416.49	582.44
416.713	556.44
416.936	565.44
417.159	568.44
417.382	558.44
417.605	548.44
417.828	552.44
418.051	578.44
418.274	572.44
418.497	564.44
418.72	576.44
418.943	560.44
419.166	587.44
419.389	623.44
419.611	609.44
419.834	600.44
420.057	622.44
420.28	599.44
420.503	578.44
420.726	594.44
420.948	596.44
421.171	640.44
421.394	663.44
421.617	612.44
421.839	623.44
422.062	588.44
422.285	595.44
422.507	664.44
422.73	720.44
422.953	695.44
423.175	625.44
423.398	600.44
423.621	607.44
423.843	629.44
424.066	633.44
424.288	613.44
424.511	638.44
424.733	694.44
424.956	794.44
425.178	735.44
425.401	734.44
425.623	782.44
425.846	688.44
426.068	625.44
426.291	612.44
426.513	619.44
426.735	598.44
426.958	648.44
427.18	736.44
427.402	885.44
427.625	948.44
427.847	805.44
428.069	704.44
428.292	667.44
428.514	599.44
428.736	560.44
428.958	558.44
429.181	552.44
429.403	575.44
429.625	575.44
429.847	601.44
430.069	676.44
430.292	675.44
430.514	564.44
430.736	583.44
430.958	552.44
431.18	543.44
431.402	553.44
431.624	544.44
431.846	532.44
432.068	543.44
432.29	558.44
432.512	526.44
432.734	573.44
432.956	540.44
433.178	545.44
433.4	553.44
433.622	577.44
433.844	542.44
434.066	538.44
434.287	547.44
434.509	554.44
434.731	553.44
434.953	585.44
435.175	598.44
435.397	615.44
435.618	624.44
435.84	658.44
436.062	769.44
436.284	817.44
436.505	680.44
436.727	604.44
436.949	587.44
437.17	592.44
437.392	557.44
437.614	607.44
437.835	601.44
438.057	703.44
438.278	800.44
438.5	801.44
438.721	903.44
438.943	848.44
439.165	680.44
439.386	638.44
439.608	625.44
439.829	608.44
440.05	628.44
440.272	687.44
440.493	641.44
440.715	609.44
440.936	580.44
441.158	559.44
441.379	596.44
441.6	611.44
441.822	617.44
442.043	667.44
442.264	749.44
442.486	796.44
442.707	695.44
442.928	634.44
443.149	635.44
443.371	634.44
443.592	716.44
443.813	791.44
444.034	872.44
444.255	737.44
444.476	656.44
444.698	659.44
444.919	658.44
445.14	760.44
445.361	700.44
445.582	666.44
445.803	719.44
446.024	824.44
446.245	811.44
446.466	772.44
446.687	653.44
446.908	619.44
447.129	577.44
447.35	557.44
447.571	577.44
447.792	544.44
448.013	551.44
448.234	552.44
448.455	629.44
448.675	756.44
448.896	854.44
449.117	715.44
449.338	685.44
449.559	802.44
449.779	916.44
450	729.44
450.221	628.44
450.442	594.44
450.662	541.44
450.883	547.44
451.104	554.44
451.324	539.44
451.545	532.44
451.766	493.44
451.986	511.44
452.207	500.44
452.428	468.44
452.648	501.44
452.869	520.44
453.089	504.44
453.31	525.44
453.53	516.44
453.751	511.44
453.971	481.44
454.192	548.44
454.412	507.44
454.633	475.44
454.853	504.44
455.073	486.44
455.294	522.44
455.514	585.44
455.734	564.44
455.955	498.44
456.175	475.44
456.395	477.44
456.616	468.44
456.836	478.44
457.056	466.44
457.276	441.44
457.497	485.44
457.717	468.44
457.937	489.44
458.157	504.44
458.377	479.44
458.598	520.44
458.818	578.44
459.038	611.44
459.258	673.44
459.478	572.44
459.698	544.44
459.918	520.44
460.138	546.44
460.358	553.44
460.578	590.44
460.798	572.44
461.018	569.44
461.238	582.44
461.458	558.44
461.678	567.44
461.898	574.44
462.118	582.44
462.338	570.44
462.558	574.44
462.777	595.44
462.997	609.44
463.217	619.44
463.437	652.44
463.657	604.44
463.876	623.44
464.096	612.44
464.316	609.44
464.536	612.44
464.755	617.44
464.975	597.44
465.195	612.44
465.414	657.44
465.634	597.44
465.854	576.44
466.073	550.44
466.293	513.44
466.512	533.44
466.732	508.44
466.951	526.44
467.171	513.44
467.391	508.44
467.61	532.44
467.829	528.44
468.049	531.44
468.268	536.44
468.488	509.44
468.707	507.44
468.927	522.44
469.146	517.44
469.365	521.44
469.585	509.44
469.804	517.44
470.023	523.44
470.243	526.44
470.462	536.44
470.681	540.44
470.901	542.44
471.12	524.44
471.339	519.44
471.558	525.44
471.777	530.44
471.997	532.44
472.216	536.44
472.435	562.44
472.654	544.44
472.873	527.44
473.092	524.44
473.311	507.44
473.53	502.44
473.749	540.44
473.968	575.44
474.187	663.44
474.406	694.44
474.625	602.44
474.844	517.44
475.063	528.44
475.282	524.44
475.501	536.44
475.72	526.44
475.939	534.44
476.158	545.44
476.377	553.44
476.596	537.44
476.814	550.44
477.033	560.44
477.252	552.44
477.471	560.44
477.69	569.44
477.908	568.44
478.127	592.44
478.346	605.44
478.564	578.44
478.783	612.44
479.002	592.44
479.22	622.44
479.439	618.44
479.658	628.44
479.876	612.44
480.095	624.44
480.313	649.44
480.532	686.44
480.751	648.44
480.969	649.44
481.188	714.44
481.406	743.44
481.624	664.44
481.843	651.44
482.061	634.44
482.28	608.44
482.498	605.44
482.717	601.44
482.935	622.44
483.153	600.44
483.372	618.44
483.59	622.44
483.808	606.44
484.027	612.44
484.245	604.44
484.463	614.44
484.681	618.44
484.9	621.44
485.118	628.44
485.336	623.44
485.554	635.44
485.772	616.44
485.99	636.44
486.209	644.44
486.427	641.44
486.645	638.44
486.863	659.44
487.081	662.44
487.299	662.44
487.517	671.44
487.735	664.44
487.953	642.44
488.171	661.44
488.389	684.44
488.607	649.44
488.825	640.44
489.043	654.44
489.261	652.44
489.479	680.44
489.696	680.44
489.914	687.44
490.132	686.44
490.35	676.44
490.568	680.44
490.786	711.44
491.003	704.44
491.221	745.44
491.439	740.44
491.657	741.44
491.874	790.44
492.092	748.44
492.31	771.44
492.527	754.44
492.745	772.44
492.963	764.44
493.18	767.44
493.398	781.44
493.615	775.44
493.833	774.44
494.05	780.44
494.268	786.44
494.485	775.44
494.703	769.44
494.92	792.44
495.138	770.44
495.355	810.44
495.573	797.44
495.79	783.44
496.008	801.44
496.225	809.44
496.442	820.44
496.66	785.44
496.877	778.44
497.094	800.44
497.312	806.44
497.529	809.44
497.746	825.44
497.963	834.44
498.181	859.44
498.398	880.44
498.615	885.44
498.832	929.44
499.049	907.44
499.267	950.44
499.484	1020.44
499.701	1058.44
499.918	1120.44
500.135	1171.44
500.352	1206.44
500.569	1279.44
500.786	1291.44
501.003	1230.44
501.22	1170.44
501.437	1136.44
501.654	1060.44
501.871	1085.44
502.088	1015.44
502.305	967.44
502.522	926.44
502.739	920.44
502.956	896.44
503.172	871.44
503.389	822.44
503.606	815.44
503.823	809.44
504.04	798.44
504.256	799.44
504.473	783.44
504.69	805.44
504.907	789.44
505.123	781.44
505.34	774.44
505.557	761.44
505.773	752.44
505.99	759.44
506.207	739.44
506.423	751.44
506.64	745.44
506.856	730.44
507.073	729.44
507.289	719.44
507.506	712.44
507.722	720.44
507.939	741.44
508.155	712.44
508.372	705.44
508.588	685.44
508.805	664.44
509.021	669.44
509.238	692.44
509.454	700.44
509.67	681.44
509.887	696.44
510.103	669.44
510.319	665.44
510.536	722.44
510.752	1095.44
510.968	938.44
511.184	664.44
511.401	660.44
511.617	660.44
511.833	636.44
512.049	635.44
512.265	644.44
512.481	648.44
512.698	660.44
512.914	662.44
513.13	643.44
513.346	637.44
513.562	617.44
513.778	640.44
513.994	640.44
514.21	655.44
514.426	671.44
514.642	711.44
514.858	691.44
515.074	732.44
515.29	824.44
515.506	1134.44
515.721	959.44
515.937	763.44
516.153	706.44
516.369	688.44
516.585	666.44
516.801	659.44
517.016	683.44
517.232	692.44
517.448	704.44
517.664	706.44
517.879	688.44
518.095	715.44
518.311	704.44
518.527	688.44
518.742	685.44
518.958	668.44
519.173	659.44
519.389	667.44
519.605	631.44
519.82	638.44
520.036	652.44
520.251	658.44
520.467	686.44
520.682	687.44
520.898	688.44
521.113	673.44
521.329	725.44
521.544	768.44
521.76	912.44
521.975	1366.44
522.19	1372.44
522.406	834.44
522.621	674.44
522.836	629.44
523.052	606.44
523.267	603.44
523.482	604.44
523.698	597.44
523.913	586.44
524.128	593.44
524.343	554.44
524.559	564.44
524.774	570.44
524.989	572.44
525.204	574.44
525.419	559.44
525.634	557.44
525.849	536.44
526.064	536.44
526.28	538.44
526.495	539.44
526.71	559.44
526.925	537.44
527.14	531.44
527.355	531.44
527.57	554.44
527.785	551.44
527.999	537.44
528.214	537.44
528.429	537.44
528.644	537.44
528.859	550.44
529.074	552.44
529.289	572.44
529.503	636.44
529.718	597.44
529.933	582.44
530.148	552.44
530.363	536.44
530.577	529.44
530.792	539.44
531.007	526.44
531.221	510.44
531.436	511.44
531.651	552.44
531.865	505.44
532.08	519.44
532.295	524.44
532.509	528.44
532.724	502.44
532.938	526.44
533.153	504.44
533.367	522.44
533.582	522.44
533.796	533.44
534.011	534.44
534.225	525.44
534.44	497.44
534.654	522.44
534.868	512.44
535.083	505.44
535.297	519.44
535.511	493.44
535.726	535.44
535.94	506.44
536.154	505.44
536.369	520.44
536.583	506.44
536.797	487.44
537.011	466.44
537.225	471.44
537.44	496.44
537.654	492.44
537.868	510.44
538.082	488.44
538.296	519.44
538.51	510.44
538.724	497.44
538.938	496.44
539.153	493.44
539.367	510.44
539.581	504.44
539.795	502.44
540.009	497.44
540.222	494.44
540.436	492.44
540.65	488.44
540.864	506.44
541.078	506.44
541.292	502.44
541.506	498.44
541.72	520.44
541.934	502.44
542.147	489.44
542.361	474.44
542.575	476.44
542.789	486.44
543.002	492.44
543.216	481.44
543.43	508.44
543.644	468.44
543.857	493.44
544.071	492.44
544.285	498.44
544.498	479.44
544.712	497.44
544.925	516.44
545.139	509.44
545.352	480.44
545.566	503.44
545.779	490.44
545.993	495.44
546.206	490.44
546.42	497.44
546.633	507.44
546.847	513.44
547.06	476.44
547.274	500.44
547.487	488.44
547.7	479.44
547.914	480.44
548.127	469.44
548.34	504.44
548.554	496.44
548.767	479.44
548.98	456.44
549.193	501.44
549.407	495.44
549.62	487.44
549.833	520.44
550.046	486.44
550.259	475.44
550.473	484.44
550.686	485.44
550.899	491.44
551.112	480.44
551.325	471.44
551.538	466.44
551.751	489.44
551.964	466.44
552.177	469.44
552.39	482.44
552.603	481.44
552.816	523.44
553.029	490.44
553.242	500.44
553.455	510.44
553.667	519.44
553.88	514.44
554.093	481.44
554.306	496.44
554.519	475.44
554.732	477.44
554.944	478.44
555.157	475.44
555.37	441.44
555.583	465.44
555.795	464.44
556.008	459.44
556.221	462.44
556.433	448.44
556.646	456.44
556.859	430.44
557.071	418.44
557.284	418.44
557.496	453.44
557.709	451.44
557.921	436.44
558.134	450.44
558.346	426.44
558.559	438.44
558.771	415.44
558.984	418.44
559.196	449.44
559.409	416.44
559.621	421.44
559.833	421.44
560.046	433.44
560.258	411.44
560.47	421.44
560.683	440.44
560.895	407.44
561.107	410.44
561.32	420.44
561.532	437.44
561.744	433.44
561.956	427.44
562.168	425.44
562.381	438.44
562.593	438.44
562.805	431.44
563.017	440.44
563.229	437.44
563.441	441.44
563.653	429.44
563.865	437.44
564.077	419.44
564.289	432.44
564.501	456.44
564.713	447.44
564.925	446.44
565.137	482.44
565.349	491.44
565.561	487.44
565.773	483.44
565.985	504.44
566.197	499.44
566.408	534.44
566.62	558.44
566.832	570.44
567.044	561.44
567.255	572.44
567.467	584.44
567.679	595.44
567.891	588.44
568.102	596.44
568.314	592.44
568.526	575.44
568.737	534.44
568.949	522.44
569.161	504.44
569.372	481.44
569.584	469.44
569.795	439.44
570.007	454.44
570.218	504.44
570.43	463.44
570.641	441.44
570.853	420.44
571.064	436.44
571.276	428.44
571.487	431.44
571.698	401.44
571.91	384.44
572.121	400.44
572.333	402.44
572.544	380.44
572.755	398.44
572.966	393.44
573.178	400.44
573.389	407.44
573.6	376.44
573.811	377.44
574.023	381.44
574.234	386.44
574.445	360.44
574.656	380.44
574.867	350.44
575.078	366.44
575.289	376.44
575.501	360.44
575.712	353.44
575.923	366.44
576.134	388.44
576.345	352.44
576.556	362.44
576.767	344.44
576.978	376.44
577.188	346.44
577.399	352.44
577.61	356.44
577.821	354.44
578.032	342.44
578.243	357.44
578.454	496.44
578.665	440.44
578.875	352.44
579.086	355.44
579.297	363.44
579.508	365.44
579.718	338.44
579.929	354.44
580.14	353.44
580.35	352.44
580.561	355.44
580.772	335.44
580.982	338.44
581.193	336.44
581.403	325.44
581.614	338.44
581.825	337.44
582.035	333.44
582.246	345.44
582.456	333.44
582.667	331.44
582.877	343.44
583.087	339.44
583.298	319.44
583.508	338.44
583.719	328.44
583.929	341.44
584.139	334.44
584.35	319.44
584.56	317.44
584.77	344.44
584.981	322.44
585.191	332.44
585.401	341.44
585.611	328.44
585.821	306.44
586.032	331.44
586.242	332.44
586.452	317.44
586.662	329.44
586.872	344.44
587.082	316.44
587.292	307.44
587.502	320.44
587.713	333.44
587.923	327.44
588.133	332.44
588.343	314.44
588.553	312.44
588.762	330.44
588.972	319.44
589.182	311.44
589.392	330.44
589.602	329.44
589.812	310.44
590.022	330.44
590.232	331.44
590.441	302.44
590.651	338.44
590.861	314.44
591.071	340.44
591.281	346.44
591.49	337.44
591.7	309.44
591.91	333.44
592.119	338.44
592.329	356.44
592.539	349.44
592.748	342.44
592.958	345.44
593.167	345.44
593.377	352.44
593.587	362.44
593.796	360.44
594.006	345.44
594.215	361.44
594.424	365.44
594.634	363.44
594.843	369.44
595.053	354.44
595.262	318.44
595.472	339.44
595.681	320.44
595.89	323.44
596.1	318.44
596.309	322.44
596.518	308.44
596.727	339.44
596.937	316.44
597.146	311.44
597.355	312.44
597.564	317.44
597.774	289.44
597.983	309.44
598.192	298.44
598.401	318.44
598.61	287.44
598.819	296.44
599.028	312.44
599.237	300.44
599.446	305.44
599.655	276.44
599.864	287.44
600.073	283.44
600.282	265.44
600.491	277.44
600.7	290.44
600.909	259.44
601.118	288.44
601.327	284.44
601.536	284.44
601.745	285.44
601.953	283.44
602.162	289.44
602.371	282.44
602.58	279.44
602.789	279.44
602.997	276.44
603.206	263.44
603.415	281.44
603.623	269.44
603.832	289.44
604.041	288.44
604.249	272.44
604.458	272.44
604.666	269.44
604.875	261.44
605.084	280.44
605.292	277.44
605.501	268.44
605.709	284.44
605.918	285.44
606.126	278.44
606.334	264.44
606.543	261.44
606.751	277.44
606.96	262.44
607.168	275.44
607.376	283.44
607.585	264.44
607.793	256.44
608.001	266.44
608.21	272.44
608.418	263.44
608.626	267.44
608.834	251.44
609.043	265.44
609.251	262.44
609.459	273.44
609.667	257.44
609.875	258.44
610.083	256.44
610.291	261.44
610.499	270.44
610.707	269.44
610.916	280.44
611.124	252.44
611.332	289.44
611.54	278.44
611.748	256.44
611.955	282.44
612.163	267.44
612.371	274.44
612.579	253.44
612.787	263.44
612.995	250.44
613.203	278.44
613.411	269.44
613.618	261.44
613.826	261.44
614.034	248.44
614.242	262.44
614.449	239.44
614.657	253.44
614.865	237.44
615.072	246.44
615.28	263.44
615.488	269.44
615.695	268.44
615.903	270.44
616.111	256.44
616.318	280.44
616.526	265.44
616.733	264.44
616.941	245.44
617.148	251.44
617.356	247.44
617.563	275.44
617.771	272.44
617.978	250.44
618.185	253.44
618.393	249.44
618.6	250.44
618.807	257.44
619.015	253.44
619.222	241.44
619.429	249.44
619.637	260.44
619.844	251.44
620.051	243.44
620.258	238.44
620.466	236.44
620.673	244.44
620.88	241.44
621.087	246.44
621.294	240.44
621.501	241.44
621.708	261.44
621.915	247.44
622.122	246.44
622.329	235.44
622.536	237.44
622.743	234.44
622.95	259.44
623.157	246.44
623.364	239.44
623.571	234.44
623.778	248.44
623.985	231.44
624.192	248.44
624.399	228.44
624.606	234.44
624.812	238.44
625.019	216.44
625.226	237.44
625.433	246.44
625.639	222.44
625.846	218.44
626.053	228.44
626.259	217.44
626.466	241.44
626.673	221.44
626.879	225.44
627.086	235.44
627.293	220.44
627.499	212.44
627.706	213.44
627.912	235.44
628.119	215.44
628.325	239.44
628.532	227.44
628.738	226.44
628.945	244.44
629.151	209.44
629.357	214.44
629.564	221.44
629.77	211.44
629.976	222.44
630.183	221.44
630.389	213.44
630.595	215.44
630.802	219.44
631.008	201.44
631.214	218.44
631.42	220.44
631.627	240.44
631.833	216.44
632.039	202.44
632.245	198.44
632.451	215.44
632.657	208.44
632.863	210.44
633.069	213.44
633.275	207.44
633.481	200.44
633.688	199.44
633.893	195.44
634.099	201.44
634.305	203.44
634.511	196.44
634.717	200.44
634.923	202.44
635.129	213.44
635.335	192.44
635.541	200.44
635.747	209.44
635.952	188.44
636.158	202.44
636.364	193.44
636.57	208.44
636.775	205.44
636.981	185.44
637.187	201.44
637.392	194.44
637.598	202.44
637.804	184.44
638.009	183.44
638.215	197.44
638.421	183.44
638.626	198.44
638.832	186.44
639.037	197.44
639.243	189.44
639.448	187.44
639.654	192.44
639.859	171.44
640.065	206.44
640.27	212.44
640.475	189.44
640.681	209.44
640.886	200.44
641.091	185.44
641.297	186.44
641.502	183.44
641.707	189.44
641.913	198.44
642.118	190.44
642.323	189.44
642.528	193.44
642.733	192.44
642.939	192.44
643.144	184.44
643.349	174.44
643.554	174.44
643.759	186.44
643.964	176.44
644.169	196.44
644.374	170.44
644.579	190.44
644.784	175.44
644.989	198.44
645.194	175.44
645.399	189.44
645.604	176.44
645.809	177.44
646.014	191.44
646.219	196.44
646.423	184.44
646.628	169.44
646.833	195.44
647.038	171.44
647.243	198.44
647.447	182.44
647.652	176.44
647.857	182.44
648.062	170.44
648.266	194.44
648.471	184.44
648.676	189.44
648.88	172.44
649.085	189.44
649.289	177.44
649.494	177.44
649.698	205.44
649.903	192.44
650.107	192.44
650.312	182.44
650.516	178.44
650.721	168.44
650.925	180.44
651.13	145.44
651.334	180.44
651.539	160.44
651.743	169.44
651.947	169.44
652.152	164.44
652.356	143.44
652.56	156.44
652.764	162.44
652.969	152.44
653.173	152.44
653.377	145.44
653.581	143.44
653.785	146.44
653.99	142.44
654.194	152.44
654.398	138.44
654.602	141.44
654.806	158.44
655.01	163.44
655.214	140.44
655.418	142.44
655.622	135.44
655.826	150.44
656.03	141.44
656.234	134.44
656.438	157.44
656.642	155.44
656.846	144.44
657.049	138.44
657.253	130.44
657.457	142.44
657.661	109.44
657.865	120.44
658.068	130.44
658.272	118.44
658.476	97.44
658.68	122.44
658.883	108.44
659.087	113.44
659.291	109.44
659.494	103.44
659.698	113.44
659.901	107.44
660.105	111.44
660.309	109.44
660.512	95.44
660.716	106.44
660.919	84.44
661.123	116.44
661.326	98.44
661.53	99.44
661.733	94.44
661.936	95.44
662.14	92.44
662.343	95.44
662.546	91.44
662.75	90.44
662.953	88.44
663.156	78.44
663.36	84.44
663.563	91.44
663.766	94.44
663.969	85.44
664.173	97.44
664.376	93.44
664.579	82.44
664.782	82.44
664.985	93.44
665.188	86.44
665.391	89.44
665.594	86.44
665.797	87.44
666	82.44
666.203	99.44
666.406	85.44
666.609	86.44
666.812	57.44
667.015	92.44
667.218	82.44
667.421	88.44
667.624	87.44
667.827	95.44
668.03	84.44
668.232	94.44
668.435	81.44
668.638	85.44
668.841	79.44
669.043	91.44
669.246	91.44
669.449	81.44
669.651	89.44
669.854	75.44
670.057	84.44
670.259	97.44
670.462	78.44
670.665	77.44
670.867	89.44
671.07	105.44
671.272	98.44
671.475	101.44
671.677	74.44
671.88	78.44
672.082	93.44
672.284	100.44
672.487	97.44
672.689	82.44
672.892	63.44
