Data from 1975.PennyLincolnUp.Lamp.En5.5.200Scan.071719.P1.Changed Mount._HRD10591_15-57-51-859.txt Node
Date: Thu Jul 18 15:57:51 EDT 2019
User: cochatt
Spectrometer: HR+D1059
Trigger mode: 1
Integration Time (sec): 1.000000E-1
Scans to average: 1
Electric dark correction enabled: true
Nonlinearity correction enabled: false
Boxcar width: 0
XAxis mode: Wavelengths
Number of Pixels in Spectrum: 2048
>>>>>Begin Spectral Data<<<<<
223.165	-14.12
223.4	-14.12
223.635	-14.12
223.869	-26.12
224.104	-8.12
224.338	-12.12
224.573	-13.12
224.808	-17.12
225.042	-12.12
225.277	-6.12
225.511	2.88
225.746	-3.12
225.98	8.88
226.215	11.88
226.449	12.88
226.683	11.88
226.918	23.88
227.152	39.88
227.387	42.88
227.621	42.88
227.856	33.88
228.09	38.88
228.324	55.88
228.559	53.88
228.793	68.88
229.027	102.88
229.262	104.88
229.496	114.88
229.73	123.88
229.964	153.88
230.199	138.88
230.433	121.88
230.667	113.88
230.901	125.88
231.136	107.88
231.37	95.88
231.604	120.88
231.838	120.88
232.072	115.88
232.306	115.88
232.541	117.88
232.775	111.88
233.009	133.88
233.243	122.88
233.477	113.88
233.711	129.88
233.945	116.88
234.179	118.88
234.413	120.88
234.647	117.88
234.881	123.88
235.115	122.88
235.349	118.88
235.583	134.88
235.817	124.88
236.051	109.88
236.285	123.88
236.519	122.88
236.753	127.88
236.987	142.88
237.221	190.88
237.455	230.88
237.689	199.88
237.922	144.88
238.156	139.88
238.39	137.88
238.624	120.88
238.858	117.88
239.091	119.88
239.325	116.88
239.559	133.88
239.793	136.88
240.027	142.88
240.26	132.88
240.494	162.88
240.728	151.88
240.961	156.88
241.195	152.88
241.429	146.88
241.662	142.88
241.896	129.88
242.13	136.88
242.363	140.88
242.597	132.88
242.83	150.88
243.064	157.88
243.298	132.88
243.531	131.88
243.765	149.88
243.998	137.88
244.232	122.88
244.465	144.88
244.699	139.88
244.932	137.88
245.166	154.88
245.399	163.88
245.633	156.88
245.866	127.88
246.099	157.88
246.333	156.88
246.566	148.88
246.8	156.88
247.033	170.88
247.266	154.88
247.5	172.88
247.733	175.88
247.966	172.88
248.2	178.88
248.433	182.88
248.666	185.88
248.899	191.88
249.133	199.88
249.366	214.88
249.599	203.88
249.832	185.88
250.066	177.88
250.299	180.88
250.532	195.88
250.765	210.88
250.998	246.88
251.231	247.88
251.465	225.88
251.698	213.88
251.931	203.88
252.164	197.88
252.397	213.88
252.63	213.88
252.863	213.88
253.096	229.88
253.329	232.88
253.562	233.88
253.795	219.88
254.028	227.88
254.261	229.88
254.494	227.88
254.727	260.88
254.96	268.88
255.193	281.88
255.426	243.88
255.659	233.88
255.892	225.88
256.124	246.88
256.357	237.88
256.59	243.88
256.823	220.88
257.056	227.88
257.289	221.88
257.521	227.88
257.754	228.88
257.987	219.88
258.22	228.88
258.452	219.88
258.685	218.88
258.918	224.88
259.151	213.88
259.383	213.88
259.616	228.88
259.849	226.88
260.081	243.88
260.314	265.88
260.547	268.88
260.779	247.88
261.012	247.88
261.244	229.88
261.477	225.88
261.71	243.88
261.942	226.88
262.175	244.88
262.407	247.88
262.64	221.88
262.872	232.88
263.105	233.88
263.337	225.88
263.57	228.88
263.802	226.88
264.035	231.88
264.267	245.88
264.499	251.88
264.732	211.88
264.964	217.88
265.197	229.88
265.429	222.88
265.661	221.88
265.894	254.88
266.126	222.88
266.358	230.88
266.591	235.88
266.823	238.88
267.055	236.88
267.287	244.88
267.52	232.88
267.752	236.88
267.984	241.88
268.216	237.88
268.448	231.88
268.681	233.88
268.913	266.88
269.145	266.88
269.377	273.88
269.609	278.88
269.841	289.88
270.073	282.88
270.306	311.88
270.538	340.88
270.77	311.88
271.002	302.88
271.234	310.88
271.466	312.88
271.698	314.88
271.93	333.88
272.162	328.88
272.394	327.88
272.626	304.88
272.858	315.88
273.09	306.88
273.322	299.88
273.553	291.88
273.785	273.88
274.017	277.88
274.249	281.88
274.481	273.88
274.713	286.88
274.945	286.88
275.176	281.88
275.408	271.88
275.64	272.88
275.872	275.88
276.104	277.88
276.335	271.88
276.567	294.88
276.799	293.88
277.031	335.88
277.262	345.88
277.494	329.88
277.726	326.88
277.957	311.88
278.189	312.88
278.421	298.88
278.652	301.88
278.884	294.88
279.115	294.88
279.347	284.88
279.579	271.88
279.81	271.88
280.042	267.88
280.273	270.88
280.505	282.88
280.736	275.88
280.968	265.88
281.199	296.88
281.431	287.88
281.662	286.88
281.894	289.88
282.125	291.88
282.356	302.88
282.588	326.88
282.819	324.88
283.051	301.88
283.282	286.88
283.513	277.88
283.745	293.88
283.976	305.88
284.207	305.88
284.439	294.88
284.67	311.88
284.901	281.88
285.132	295.88
285.364	298.88
285.595	313.88
285.826	285.88
286.057	294.88
286.288	295.88
286.52	303.88
286.751	300.88
286.982	316.88
287.213	303.88
287.444	302.88
287.675	310.88
287.906	303.88
288.138	311.88
288.369	324.88
288.6	336.88
288.831	320.88
289.062	313.88
289.293	306.88
289.524	306.88
289.755	298.88
289.986	333.88
290.217	323.88
290.448	302.88
290.679	333.88
290.91	315.88
291.141	291.88
291.371	314.88
291.602	316.88
291.833	291.88
292.064	299.88
292.295	315.88
292.526	321.88
292.757	324.88
292.987	305.88
293.218	308.88
293.449	333.88
293.68	317.88
293.91	301.88
294.141	337.88
294.372	319.88
294.603	313.88
294.833	313.88
295.064	321.88
295.295	300.88
295.525	328.88
295.756	326.88
295.987	335.88
296.217	331.88
296.448	338.88
296.679	330.88
296.909	332.88
297.14	328.88
297.37	325.88
297.601	313.88
297.831	341.88
298.062	336.88
298.292	328.88
298.523	340.88
298.753	336.88
298.984	325.88
299.214	341.88
299.445	346.88
299.675	342.88
299.905	358.88
300.136	342.88
300.366	340.88
300.597	337.88
300.827	339.88
301.057	348.88
301.288	334.88
301.518	356.88
301.748	349.88
301.979	344.88
302.209	331.88
302.439	345.88
302.669	349.88
302.9	357.88
303.13	342.88
303.36	353.88
303.59	330.88
303.82	360.88
304.051	346.88
304.281	357.88
304.511	348.88
304.741	338.88
304.971	362.88
305.201	343.88
305.431	348.88
305.661	351.88
305.891	354.88
306.121	359.88
306.352	364.88
306.582	370.88
306.812	379.88
307.042	346.88
307.272	347.88
307.502	353.88
307.731	364.88
307.961	380.88
308.191	350.88
308.421	346.88
308.651	371.88
308.881	354.88
309.111	378.88
309.341	376.88
309.571	372.88
309.8	389.88
310.03	381.88
310.26	388.88
310.49	382.88
310.72	390.88
310.949	399.88
311.179	412.88
311.409	400.88
311.639	394.88
311.868	397.88
312.098	401.88
312.328	396.88
312.557	407.88
312.787	417.88
313.017	441.88
313.246	387.88
313.476	384.88
313.706	390.88
313.935	403.88
314.165	415.88
314.394	408.88
314.624	406.88
314.853	405.88
315.083	412.88
315.312	403.88
315.542	377.88
315.771	406.88
316.001	391.88
316.23	395.88
316.46	395.88
316.689	397.88
316.919	411.88
317.148	406.88
317.377	425.88
317.607	433.88
317.836	378.88
318.065	394.88
318.295	398.88
318.524	409.88
318.753	400.88
318.983	395.88
319.212	397.88
319.441	384.88
319.67	404.88
319.9	410.88
320.129	387.88
320.358	397.88
320.587	402.88
320.816	401.88
321.046	402.88
321.275	431.88
321.504	412.88
321.733	419.88
321.962	419.88
322.191	414.88
322.42	430.88
322.649	440.88
322.878	446.88
323.108	452.88
323.337	485.88
323.566	461.88
323.795	512.88
324.024	539.88
324.253	648.88
324.482	883.88
324.71	1323.88
324.939	1953.88
325.168	1765.88
325.397	883.88
325.626	609.88
325.855	526.88
326.084	508.88
326.313	487.88
326.542	501.88
326.77	549.88
326.999	609.88
327.228	789.88
327.457	1215.88
327.686	1535.88
327.914	993.88
328.143	651.88
328.372	610.88
328.6	568.88
328.829	529.88
329.058	547.88
329.287	573.88
329.515	540.88
329.744	512.88
329.972	523.88
330.201	545.88
330.43	566.88
330.658	586.88
330.887	599.88
331.115	594.88
331.344	546.88
331.572	501.88
331.801	501.88
332.03	513.88
332.258	503.88
332.486	499.88
332.715	498.88
332.943	484.88
333.172	486.88
333.4	515.88
333.629	489.88
333.857	545.88
334.085	543.88
334.314	558.88
334.542	586.88
334.771	598.88
334.999	531.88
335.227	533.88
335.455	518.88
335.684	495.88
335.912	489.88
336.14	486.88
336.369	477.88
336.597	468.88
336.825	471.88
337.053	467.88
337.281	497.88
337.51	478.88
337.738	458.88
337.966	471.88
338.194	483.88
338.422	469.88
338.65	458.88
338.878	461.88
339.106	460.88
339.334	450.88
339.562	462.88
339.79	461.88
340.018	452.88
340.246	481.88
340.474	477.88
340.702	457.88
340.93	465.88
341.158	454.88
341.386	451.88
341.614	449.88
341.842	442.88
342.07	449.88
342.298	449.88
342.526	438.88
342.754	463.88
342.981	442.88
343.209	456.88
343.437	452.88
343.665	485.88
343.893	462.88
344.12	481.88
344.348	492.88
344.576	475.88
344.804	460.88
345.031	506.88
345.259	470.88
345.487	479.88
345.714	444.88
345.942	450.88
346.17	449.88
346.397	447.88
346.625	446.88
346.853	426.88
347.08	437.88
347.308	448.88
347.535	448.88
347.763	455.88
347.99	447.88
348.218	455.88
348.445	461.88
348.673	459.88
348.9	445.88
349.128	450.88
349.355	421.88
349.583	433.88
349.81	423.88
350.037	414.88
350.265	429.88
350.492	448.88
350.72	444.88
350.947	429.88
351.174	442.88
351.402	443.88
351.629	455.88
351.856	440.88
352.083	454.88
352.311	445.88
352.538	450.88
352.765	437.88
352.992	437.88
353.22	444.88
353.447	455.88
353.674	447.88
353.901	441.88
354.128	435.88
354.355	435.88
354.583	420.88
354.81	443.88
355.037	426.88
355.264	409.88
355.491	419.88
355.718	426.88
355.945	430.88
356.172	415.88
356.399	433.88
356.626	407.88
356.853	415.88
357.08	404.88
357.307	403.88
357.534	415.88
357.761	434.88
357.988	421.88
358.215	420.88
358.441	417.88
358.668	421.88
358.895	431.88
359.122	448.88
359.349	445.88
359.576	448.88
359.802	448.88
360.029	498.88
360.256	478.88
360.483	477.88
360.709	443.88
360.936	462.88
361.163	458.88
361.39	454.88
361.616	454.88
361.843	468.88
362.07	437.88
362.296	428.88
362.523	441.88
362.749	459.88
362.976	425.88
363.203	434.88
363.429	393.88
363.656	435.88
363.882	436.88
364.109	428.88
364.335	441.88
364.562	420.88
364.788	435.88
365.015	435.88
365.241	451.88
365.468	417.88
365.694	452.88
365.92	441.88
366.147	419.88
366.373	425.88
366.599	442.88
366.826	419.88
367.052	428.88
367.278	433.88
367.505	430.88
367.731	414.88
367.957	446.88
368.184	454.88
368.41	439.88
368.636	451.88
368.862	442.88
369.089	455.88
369.315	452.88
369.541	443.88
369.767	454.88
369.993	423.88
370.219	443.88
370.445	441.88
370.672	435.88
370.898	460.88
371.124	437.88
371.35	455.88
371.576	429.88
371.802	437.88
372.028	428.88
372.254	438.88
372.48	426.88
372.706	443.88
372.932	433.88
373.158	438.88
373.384	458.88
373.61	434.88
373.835	437.88
374.061	417.88
374.287	437.88
374.513	443.88
374.739	444.88
374.965	424.88
375.191	457.88
375.416	454.88
375.642	451.88
375.868	458.88
376.094	453.88
376.319	446.88
376.545	425.88
376.771	445.88
376.997	428.88
377.222	443.88
377.448	441.88
377.674	439.88
377.899	444.88
378.125	409.88
378.35	439.88
378.576	422.88
378.802	423.88
379.027	445.88
379.253	451.88
379.478	439.88
379.704	423.88
379.929	436.88
380.155	420.88
380.38	427.88
380.606	447.88
380.831	439.88
381.057	451.88
381.282	447.88
381.507	465.88
381.733	439.88
381.958	453.88
382.184	441.88
382.409	451.88
382.634	449.88
382.86	457.88
383.085	463.88
383.31	463.88
383.535	467.88
383.761	472.88
383.986	472.88
384.211	494.88
384.436	470.88
384.662	491.88
384.887	484.88
385.112	461.88
385.337	479.88
385.562	485.88
385.787	475.88
386.013	490.88
386.238	494.88
386.463	491.88
386.688	484.88
386.913	514.88
387.138	497.88
387.363	509.88
387.588	498.88
387.813	492.88
388.038	492.88
388.263	476.88
388.488	498.88
388.713	494.88
388.938	489.88
389.163	495.88
389.387	513.88
389.612	479.88
389.837	476.88
390.062	487.88
390.287	479.88
390.512	493.88
390.736	489.88
390.961	491.88
391.186	491.88
391.411	515.88
391.636	496.88
391.86	517.88
392.085	518.88
392.31	521.88
392.534	516.88
392.759	494.88
392.984	501.88
393.208	495.88
393.433	505.88
393.658	505.88
393.882	497.88
394.107	503.88
394.331	524.88
394.556	491.88
394.78	501.88
395.005	505.88
395.229	519.88
395.454	524.88
395.678	538.88
395.903	546.88
396.127	558.88
396.352	538.88
396.576	522.88
396.801	509.88
397.025	517.88
397.249	528.88
397.474	525.88
397.698	553.88
397.922	550.88
398.147	554.88
398.371	574.88
398.595	575.88
398.82	569.88
399.044	582.88
399.268	607.88
399.492	650.88
399.717	689.88
399.941	758.88
400.165	693.88
400.389	730.88
400.613	670.88
400.837	614.88
401.062	596.88
401.286	595.88
401.51	582.88
401.734	563.88
401.958	578.88
402.182	568.88
402.406	582.88
402.63	577.88
402.854	591.88
403.078	584.88
403.302	603.88
403.526	622.88
403.75	605.88
403.974	599.88
404.198	597.88
404.422	607.88
404.645	613.88
404.869	630.88
405.093	659.88
405.317	708.88
405.541	738.88
405.765	670.88
405.988	620.88
406.212	632.88
406.436	643.88
406.66	667.88
406.883	649.88
407.107	670.88
407.331	717.88
407.555	787.88
407.778	787.88
408.002	730.88
408.226	665.88
408.449	660.88
408.673	637.88
408.896	669.88
409.12	735.88
409.344	686.88
409.567	630.88
409.791	598.88
410.014	583.88
410.238	598.88
410.461	605.88
410.685	595.88
410.908	642.88
411.132	638.88
411.355	665.88
411.578	661.88
411.802	607.88
412.025	611.88
412.249	599.88
412.472	635.88
412.695	706.88
412.919	681.88
413.142	625.88
413.365	603.88
413.589	567.88
413.812	585.88
414.035	580.88
414.258	582.88
414.482	597.88
414.705	575.88
414.928	559.88
415.151	579.88
415.374	561.88
415.597	550.88
415.821	567.88
416.044	580.88
416.267	554.88
416.49	553.88
416.713	550.88
416.936	566.88
417.159	571.88
417.382	555.88
417.605	552.88
417.828	579.88
418.051	597.88
418.274	585.88
418.497	574.88
418.72	580.88
418.943	573.88
419.166	599.88
419.389	641.88
419.611	618.88
419.834	606.88
420.057	609.88
420.28	585.88
420.503	579.88
420.726	607.88
420.948	613.88
421.171	648.88
421.394	651.88
421.617	610.88
421.839	584.88
422.062	598.88
422.285	614.88
422.507	698.88
422.73	734.88
422.953	710.88
423.175	602.88
423.398	615.88
423.621	617.88
423.843	615.88
424.066	635.88
424.288	630.88
424.511	666.88
424.733	721.88
424.956	789.88
425.178	755.88
425.401	736.88
425.623	781.88
425.846	654.88
426.068	627.88
426.291	614.88
426.513	595.88
426.735	637.88
426.958	653.88
427.18	747.88
427.402	884.88
427.625	961.88
427.847	838.88
428.069	732.88
428.292	659.88
428.514	617.88
428.736	587.88
428.958	596.88
429.181	562.88
429.403	600.88
429.625	571.88
429.847	608.88
430.069	687.88
430.292	677.88
430.514	594.88
430.736	577.88
430.958	577.88
431.18	564.88
431.402	555.88
431.624	525.88
431.846	547.88
432.068	563.88
432.29	561.88
432.512	554.88
432.734	569.88
432.956	554.88
433.178	592.88
433.4	581.88
433.622	545.88
433.844	562.88
434.066	545.88
434.287	542.88
434.509	565.88
434.731	583.88
434.953	586.88
435.175	592.88
435.397	611.88
435.618	622.88
435.84	674.88
436.062	785.88
436.284	833.88
436.505	705.88
436.727	644.88
436.949	606.88
437.17	572.88
437.392	582.88
437.614	572.88
437.835	625.88
438.057	706.88
438.278	833.88
438.5	834.88
438.721	887.88
438.943	887.88
439.165	694.88
439.386	606.88
439.608	638.88
439.829	604.88
440.05	658.88
440.272	691.88
440.493	643.88
440.715	621.88
440.936	596.88
441.158	587.88
441.379	569.88
441.6	605.88
441.822	605.88
442.043	665.88
442.264	765.88
442.486	809.88
442.707	694.88
442.928	639.88
443.149	643.88
443.371	661.88
443.592	693.88
443.813	802.88
444.034	870.88
444.255	733.88
444.476	684.88
444.698	652.88
444.919	662.88
445.14	775.88
445.361	707.88
445.582	666.88
445.803	744.88
446.024	809.88
446.245	830.88
446.466	762.88
446.687	685.88
446.908	611.88
447.129	577.88
447.35	579.88
447.571	578.88
447.792	555.88
448.013	572.88
448.234	604.88
448.455	643.88
448.675	743.88
448.896	889.88
449.117	719.88
449.338	678.88
449.559	815.88
449.779	931.88
450	743.88
450.221	625.88
450.442	582.88
450.662	537.88
450.883	542.88
451.104	567.88
451.324	551.88
451.545	539.88
451.766	539.88
451.986	522.88
452.207	491.88
452.428	499.88
452.648	516.88
452.869	515.88
453.089	498.88
453.31	524.88
453.53	518.88
453.751	515.88
453.971	527.88
454.192	519.88
454.412	491.88
454.633	486.88
454.853	498.88
455.073	497.88
455.294	523.88
455.514	611.88
455.734	582.88
455.955	505.88
456.175	503.88
456.395	483.88
456.616	466.88
456.836	471.88
457.056	461.88
457.276	469.88
457.497	478.88
457.717	468.88
457.937	502.88
458.157	507.88
458.377	510.88
458.598	540.88
458.818	582.88
459.038	626.88
459.258	663.88
459.478	586.88
459.698	573.88
459.918	557.88
460.138	548.88
460.358	551.88
460.578	555.88
460.798	568.88
461.018	557.88
461.238	571.88
461.458	577.88
461.678	575.88
461.898	556.88
462.118	565.88
462.338	615.88
462.558	617.88
462.777	623.88
462.997	664.88
463.217	645.88
463.437	649.88
463.657	638.88
463.876	632.88
464.096	603.88
464.316	611.88
464.536	630.88
464.755	597.88
464.975	597.88
465.195	653.88
465.414	693.88
465.634	621.88
465.854	568.88
466.073	568.88
466.293	539.88
466.512	532.88
466.732	507.88
466.951	545.88
467.171	527.88
467.391	541.88
467.61	539.88
467.829	537.88
468.049	523.88
468.268	535.88
468.488	485.88
468.707	509.88
468.927	495.88
469.146	512.88
469.365	511.88
469.585	507.88
469.804	527.88
470.023	552.88
470.243	539.88
470.462	538.88
470.681	542.88
470.901	537.88
471.12	524.88
471.339	552.88
471.558	539.88
471.777	533.88
471.997	541.88
472.216	522.88
472.435	563.88
472.654	554.88
472.873	511.88
473.092	510.88
473.311	536.88
473.53	528.88
473.749	535.88
473.968	550.88
474.187	661.88
474.406	699.88
474.625	587.88
474.844	531.88
475.063	541.88
475.282	569.88
475.501	509.88
475.72	558.88
475.939	556.88
476.158	557.88
476.377	541.88
476.596	547.88
476.814	545.88
477.033	554.88
477.252	574.88
477.471	610.88
477.69	570.88
477.908	581.88
478.127	606.88
478.346	583.88
478.564	603.88
478.783	609.88
479.002	599.88
479.22	610.88
479.439	625.88
479.658	648.88
479.876	660.88
480.095	666.88
480.313	699.88
480.532	689.88
480.751	667.88
480.969	667.88
481.188	715.88
481.406	735.88
481.624	683.88
481.843	664.88
482.061	643.88
482.28	631.88
482.498	617.88
482.717	647.88
482.935	615.88
483.153	619.88
483.372	632.88
483.59	602.88
483.808	597.88
484.027	645.88
484.245	636.88
484.463	605.88
484.681	641.88
484.9	639.88
485.118	645.88
485.336	666.88
485.554	639.88
485.772	643.88
485.99	643.88
486.209	659.88
486.427	654.88
486.645	661.88
486.863	684.88
487.081	669.88
487.299	650.88
487.517	659.88
487.735	650.88
487.953	674.88
488.171	663.88
488.389	671.88
488.607	662.88
488.825	655.88
489.043	690.88
489.261	685.88
489.479	687.88
489.696	642.88
489.914	679.88
490.132	684.88
490.35	693.88
490.568	731.88
490.786	714.88
491.003	722.88
491.221	724.88
491.439	747.88
491.657	734.88
491.874	777.88
492.092	793.88
492.31	767.88
492.527	761.88
492.745	772.88
492.963	772.88
493.18	803.88
493.398	793.88
493.615	779.88
493.833	817.88
494.05	809.88
494.268	779.88
494.485	802.88
494.703	750.88
494.92	815.88
495.138	795.88
495.355	803.88
495.573	817.88
495.79	808.88
496.008	791.88
496.225	791.88
496.442	784.88
496.66	770.88
496.877	774.88
497.094	793.88
497.312	802.88
497.529	826.88
497.746	842.88
497.963	837.88
498.181	856.88
498.398	855.88
498.615	931.88
498.832	915.88
499.049	958.88
499.267	966.88
499.484	1034.88
499.701	1063.88
499.918	1107.88
500.135	1176.88
500.352	1242.88
500.569	1288.88
500.786	1315.88
501.003	1232.88
501.22	1207.88
501.437	1157.88
501.654	1130.88
501.871	1080.88
502.088	1018.88
502.305	967.88
502.522	941.88
502.739	919.88
502.956	882.88
503.172	887.88
503.389	810.88
503.606	831.88
503.823	809.88
504.04	819.88
504.256	829.88
504.473	819.88
504.69	788.88
504.907	822.88
505.123	799.88
505.34	796.88
505.557	782.88
505.773	737.88
505.99	746.88
506.207	753.88
506.423	731.88
506.64	754.88
506.856	719.88
507.073	725.88
507.289	733.88
507.506	738.88
507.722	732.88
507.939	730.88
508.155	722.88
508.372	681.88
508.588	697.88
508.805	696.88
509.021	684.88
509.238	732.88
509.454	710.88
509.67	700.88
509.887	692.88
510.103	697.88
510.319	679.88
510.536	761.88
510.752	1108.88
510.968	941.88
511.184	697.88
511.401	673.88
511.617	681.88
511.833	667.88
512.049	669.88
512.265	660.88
512.481	646.88
512.698	646.88
512.914	665.88
513.13	653.88
513.346	649.88
513.562	653.88
513.778	653.88
513.994	625.88
514.21	637.88
514.426	666.88
514.642	711.88
514.858	711.88
515.074	750.88
515.29	826.88
515.506	1138.88
515.721	982.88
515.937	766.88
516.153	689.88
516.369	682.88
516.585	693.88
516.801	677.88
517.016	702.88
517.232	699.88
517.448	717.88
517.664	713.88
517.879	700.88
518.095	717.88
518.311	733.88
518.527	738.88
518.742	714.88
518.958	684.88
519.173	667.88
519.389	640.88
519.605	638.88
519.82	653.88
520.036	651.88
520.251	660.88
520.467	690.88
520.682	700.88
520.898	692.88
521.113	698.88
521.329	738.88
521.544	759.88
521.76	918.88
521.975	1374.88
522.19	1362.88
522.406	856.88
522.621	695.88
522.836	666.88
523.052	622.88
523.267	632.88
523.482	591.88
523.698	617.88
523.913	606.88
524.128	604.88
524.343	595.88
524.559	572.88
524.774	587.88
524.989	565.88
525.204	577.88
525.419	577.88
525.634	578.88
525.849	578.88
526.064	533.88
526.28	551.88
526.495	557.88
526.71	552.88
526.925	539.88
527.14	528.88
527.355	543.88
527.57	537.88
527.785	533.88
527.999	560.88
528.214	533.88
528.429	530.88
528.644	534.88
528.859	550.88
529.074	541.88
529.289	579.88
529.503	611.88
529.718	610.88
529.933	551.88
530.148	554.88
530.363	537.88
530.577	535.88
530.792	527.88
531.007	526.88
531.221	532.88
531.436	531.88
531.651	534.88
531.865	526.88
532.08	545.88
532.295	535.88
532.509	530.88
532.724	532.88
532.938	521.88
533.153	493.88
533.367	515.88
533.582	535.88
533.796	527.88
534.011	520.88
534.225	523.88
534.44	519.88
534.654	516.88
534.868	515.88
535.083	511.88
535.297	527.88
535.511	540.88
535.726	515.88
535.94	503.88
536.154	509.88
536.369	499.88
536.583	499.88
536.797	472.88
537.011	517.88
537.225	511.88
537.44	501.88
537.654	505.88
537.868	506.88
538.082	501.88
538.296	494.88
538.51	493.88
538.724	495.88
538.938	500.88
539.153	505.88
539.367	521.88
539.581	525.88
539.795	483.88
540.009	494.88
540.222	502.88
540.436	507.88
540.65	515.88
540.864	513.88
541.078	526.88
541.292	522.88
541.506	502.88
541.72	501.88
541.934	499.88
542.147	515.88
542.361	506.88
542.575	493.88
542.789	516.88
543.002	498.88
543.216	486.88
543.43	499.88
543.644	502.88
543.857	497.88
544.071	504.88
544.285	515.88
544.498	482.88
544.712	507.88
544.925	485.88
545.139	492.88
545.352	473.88
545.566	497.88
545.779	506.88
545.993	499.88
546.206	521.88
546.42	492.88
546.633	497.88
546.847	483.88
547.06	484.88
547.274	486.88
547.487	491.88
547.7	508.88
547.914	499.88
548.127	504.88
548.34	495.88
548.554	489.88
548.767	492.88
548.98	476.88
549.193	473.88
549.407	478.88
549.62	477.88
549.833	463.88
550.046	479.88
550.259	473.88
550.473	482.88
550.686	473.88
550.899	497.88
551.112	462.88
551.325	475.88
551.538	472.88
551.751	499.88
551.964	485.88
552.177	472.88
552.39	509.88
552.603	507.88
552.816	497.88
553.029	485.88
553.242	497.88
553.455	535.88
553.667	519.88
553.88	511.88
554.093	509.88
554.306	515.88
554.519	502.88
554.732	480.88
554.944	492.88
555.157	485.88
555.37	473.88
555.583	468.88
555.795	478.88
556.008	474.88
556.221	469.88
556.433	439.88
556.646	438.88
556.859	441.88
557.071	443.88
557.284	462.88
557.496	428.88
557.709	423.88
557.921	441.88
558.134	441.88
558.346	443.88
558.559	428.88
558.771	415.88
558.984	439.88
559.196	415.88
559.409	422.88
559.621	447.88
559.833	421.88
560.046	443.88
560.258	442.88
560.47	438.88
560.683	421.88
560.895	429.88
561.107	452.88
561.32	405.88
561.532	428.88
561.744	443.88
561.956	419.88
562.168	427.88
562.381	431.88
562.593	435.88
562.805	425.88
563.017	416.88
563.229	453.88
563.441	453.88
563.653	451.88
563.865	412.88
564.077	426.88
564.289	433.88
564.501	443.88
564.713	449.88
564.925	455.88
565.137	471.88
565.349	492.88
565.561	515.88
565.773	483.88
565.985	509.88
566.197	504.88
566.408	514.88
566.62	538.88
566.832	571.88
567.044	571.88
567.255	578.88
567.467	577.88
567.679	595.88
567.891	601.88
568.102	614.88
568.314	587.88
568.526	569.88
568.737	538.88
568.949	521.88
569.161	500.88
569.372	496.88
569.584	462.88
569.795	453.88
570.007	434.88
570.218	458.88
570.43	454.88
570.641	451.88
570.853	446.88
571.064	426.88
571.276	454.88
571.487	441.88
571.698	414.88
571.91	423.88
572.121	413.88
572.333	417.88
572.544	398.88
572.755	376.88
572.966	399.88
573.178	386.88
573.389	394.88
573.6	386.88
573.811	396.88
574.023	390.88
574.234	381.88
574.445	372.88
574.656	375.88
574.867	379.88
575.078	383.88
575.289	376.88
575.501	379.88
575.712	376.88
575.923	378.88
576.134	347.88
576.345	350.88
576.556	366.88
576.767	370.88
576.978	374.88
577.188	375.88
577.399	357.88
577.61	356.88
577.821	359.88
578.032	373.88
578.243	378.88
578.454	532.88
578.665	426.88
578.875	372.88
579.086	348.88
579.297	345.88
579.508	355.88
579.718	326.88
579.929	355.88
580.14	354.88
580.35	350.88
580.561	331.88
580.772	338.88
580.982	336.88
581.193	344.88
581.403	339.88
581.614	345.88
581.825	329.88
582.035	344.88
582.246	343.88
582.456	341.88
582.667	325.88
582.877	330.88
583.087	316.88
583.298	327.88
583.508	338.88
583.719	338.88
583.929	338.88
584.139	316.88
584.35	324.88
584.56	325.88
584.77	314.88
584.981	324.88
585.191	359.88
585.401	326.88
585.611	334.88
585.821	352.88
586.032	331.88
586.242	328.88
586.452	316.88
586.662	335.88
586.872	323.88
587.082	330.88
587.292	324.88
587.502	343.88
587.713	307.88
587.923	303.88
588.133	321.88
588.343	331.88
588.553	308.88
588.762	310.88
588.972	322.88
589.182	340.88
589.392	316.88
589.602	307.88
589.812	329.88
590.022	316.88
590.232	313.88
590.441	343.88
590.651	324.88
590.861	321.88
591.071	341.88
591.281	329.88
591.49	335.88
591.7	321.88
591.91	353.88
592.119	329.88
592.329	350.88
592.539	359.88
592.748	346.88
592.958	360.88
593.167	357.88
593.377	369.88
593.587	374.88
593.796	389.88
594.006	361.88
594.215	377.88
594.424	339.88
594.634	357.88
594.843	370.88
595.053	363.88
595.262	349.88
595.472	331.88
595.681	347.88
595.89	331.88
596.1	337.88
596.309	301.88
596.518	316.88
596.727	317.88
596.937	314.88
597.146	313.88
597.355	317.88
597.564	275.88
597.774	303.88
597.983	300.88
598.192	306.88
598.401	322.88
598.61	277.88
598.819	272.88
599.028	283.88
599.237	308.88
599.446	302.88
599.655	297.88
599.864	318.88
600.073	302.88
600.282	283.88
600.491	285.88
600.7	282.88
600.909	292.88
601.118	277.88
601.327	277.88
601.536	290.88
601.745	285.88
601.953	292.88
602.162	282.88
602.371	289.88
602.58	290.88
602.789	289.88
602.997	294.88
603.206	293.88
603.415	283.88
603.623	253.88
603.832	276.88
604.041	270.88
604.249	289.88
604.458	277.88
604.666	263.88
604.875	269.88
605.084	278.88
605.292	287.88
605.501	265.88
605.709	270.88
605.918	267.88
606.126	267.88
606.334	276.88
606.543	272.88
606.751	269.88
606.96	279.88
607.168	284.88
607.376	269.88
607.585	281.88
607.793	275.88
608.001	261.88
608.21	279.88
608.418	266.88
608.626	279.88
608.834	264.88
609.043	268.88
609.251	275.88
609.459	251.88
609.667	253.88
609.875	279.88
610.083	268.88
610.291	269.88
610.499	265.88
610.707	258.88
610.916	264.88
611.124	266.88
611.332	276.88
611.54	278.88
611.748	271.88
611.955	257.88
612.163	258.88
612.371	263.88
612.579	267.88
612.787	260.88
612.995	254.88
613.203	271.88
613.411	290.88
613.618	255.88
613.826	269.88
614.034	273.88
614.242	250.88
614.449	253.88
614.657	260.88
614.865	260.88
615.072	276.88
615.28	268.88
615.488	250.88
615.695	259.88
615.903	278.88
616.111	280.88
616.318	286.88
616.526	267.88
616.733	268.88
616.941	278.88
617.148	253.88
617.356	263.88
617.563	250.88
617.771	259.88
617.978	243.88
618.185	242.88
618.393	274.88
618.6	260.88
618.807	254.88
619.015	239.88
619.222	255.88
619.429	241.88
619.637	258.88
619.844	261.88
620.051	258.88
620.258	240.88
620.466	256.88
620.673	246.88
620.88	245.88
621.087	266.88
621.294	247.88
621.501	223.88
621.708	247.88
621.915	235.88
622.122	246.88
622.329	245.88
622.536	226.88
622.743	227.88
622.95	235.88
623.157	235.88
623.364	254.88
623.571	251.88
623.778	241.88
623.985	226.88
624.192	234.88
624.399	216.88
624.606	233.88
624.812	253.88
625.019	235.88
625.226	232.88
625.433	231.88
625.639	213.88
625.846	234.88
626.053	231.88
626.259	212.88
626.466	236.88
626.673	226.88
626.879	225.88
627.086	232.88
627.293	232.88
627.499	230.88
627.706	229.88
627.912	220.88
628.119	230.88
628.325	221.88
628.532	225.88
628.738	239.88
628.945	210.88
629.151	211.88
629.357	220.88
629.564	214.88
629.77	221.88
629.976	206.88
630.183	202.88
630.389	210.88
630.595	214.88
630.802	218.88
631.008	214.88
631.214	231.88
631.42	213.88
631.627	209.88
631.833	208.88
632.039	212.88
632.245	212.88
632.451	207.88
632.657	218.88
632.863	197.88
633.069	210.88
633.275	206.88
633.481	195.88
633.688	214.88
633.893	196.88
634.099	194.88
634.305	216.88
634.511	211.88
634.717	195.88
634.923	195.88
635.129	188.88
635.335	220.88
635.541	211.88
635.747	199.88
635.952	204.88
636.158	197.88
636.364	199.88
636.57	203.88
636.775	205.88
636.981	193.88
637.187	217.88
637.392	186.88
637.598	201.88
637.804	188.88
638.009	201.88
638.215	197.88
638.421	189.88
638.626	186.88
638.832	179.88
639.037	192.88
639.243	182.88
639.448	195.88
639.654	189.88
639.859	179.88
640.065	197.88
640.27	199.88
640.475	179.88
640.681	194.88
640.886	195.88
641.091	207.88
641.297	189.88
641.502	185.88
641.707	178.88
641.913	201.88
642.118	197.88
642.323	195.88
642.528	193.88
642.733	168.88
642.939	179.88
643.144	181.88
643.349	172.88
643.554	190.88
643.759	181.88
643.964	178.88
644.169	177.88
644.374	196.88
644.579	173.88
644.784	185.88
644.989	184.88
645.194	184.88
645.399	157.88
645.604	178.88
645.809	168.88
646.014	196.88
646.219	181.88
646.423	181.88
646.628	184.88
646.833	172.88
647.038	191.88
647.243	173.88
647.447	174.88
647.652	184.88
647.857	187.88
648.062	174.88
648.266	185.88
648.471	190.88
648.676	196.88
648.88	184.88
649.085	192.88
649.289	189.88
649.494	185.88
649.698	202.88
649.903	190.88
650.107	184.88
650.312	187.88
650.516	186.88
650.721	164.88
650.925	156.88
651.13	169.88
651.334	156.88
651.539	166.88
651.743	157.88
651.947	160.88
652.152	163.88
652.356	156.88
652.56	161.88
652.764	151.88
652.969	161.88
653.173	160.88
653.377	145.88
653.581	152.88
653.785	167.88
653.99	154.88
654.194	140.88
654.398	148.88
654.602	140.88
654.806	143.88
655.01	151.88
655.214	164.88
655.418	136.88
655.622	141.88
655.826	150.88
656.03	153.88
656.234	150.88
656.438	150.88
656.642	163.88
656.846	136.88
657.049	134.88
657.253	130.88
657.457	125.88
657.661	130.88
657.865	119.88
658.068	129.88
658.272	113.88
658.476	114.88
658.68	107.88
658.883	122.88
659.087	114.88
659.291	116.88
659.494	104.88
659.698	95.88
659.901	108.88
660.105	96.88
660.309	80.88
660.512	104.88
660.716	110.88
660.919	94.88
661.123	101.88
661.326	87.88
661.53	92.88
661.733	87.88
661.936	93.88
662.14	98.88
662.343	99.88
662.546	94.88
662.75	91.88
662.953	83.88
663.156	77.88
663.36	91.88
663.563	86.88
663.766	91.88
663.969	92.88
664.173	87.88
664.376	80.88
664.579	88.88
664.782	87.88
664.985	73.88
665.188	86.88
665.391	91.88
665.594	71.88
665.797	84.88
666	76.88
666.203	67.88
666.406	75.88
666.609	81.88
666.812	77.88
667.015	77.88
667.218	78.88
667.421	91.88
667.624	77.88
667.827	91.88
668.03	86.88
668.232	90.88
668.435	68.88
668.638	81.88
668.841	88.88
669.043	70.88
669.246	73.88
669.449	85.88
669.651	79.88
669.854	72.88
670.057	83.88
670.259	92.88
670.462	85.88
670.665	86.88
670.867	85.88
671.07	90.88
671.272	84.88
671.475	93.88
671.677	79.88
671.88	83.88
672.082	74.88
672.284	80.88
672.487	83.88
672.689	78.88
672.892	89.88
