Data from 1975.PennyLincolnUp.Lamp.En5.5.200Scan.071719.P1.Changed Mount._HRD10591_15-55-31-858.txt Node
Date: Thu Jul 18 15:55:31 EDT 2019
User: cochatt
Spectrometer: HR+D1059
Trigger mode: 1
Integration Time (sec): 1.000000E-1
Scans to average: 1
Electric dark correction enabled: true
Nonlinearity correction enabled: false
Boxcar width: 0
XAxis mode: Wavelengths
Number of Pixels in Spectrum: 2048
>>>>>Begin Spectral Data<<<<<
223.165	-5.31
223.4	-5.31
223.635	-5.31
223.869	-10.31
224.104	-18.31
224.338	-26.31
224.573	-27.31
224.808	-17.31
225.042	7.69
225.277	-1.31
225.511	-6.31
225.746	14.69
225.98	5.69
226.215	5.69
226.449	13.69
226.683	16.69
226.918	20.69
227.152	27.69
227.387	39.69
227.621	32.69
227.856	35.69
228.09	39.69
228.324	51.69
228.559	65.69
228.793	60.69
229.027	86.69
229.262	83.69
229.496	104.69
229.73	121.69
229.964	141.69
230.199	115.69
230.433	102.69
230.667	106.69
230.901	103.69
231.136	110.69
231.37	97.69
231.604	116.69
231.838	104.69
232.072	103.69
232.306	99.69
232.541	105.69
232.775	104.69
233.009	111.69
233.243	115.69
233.477	106.69
233.711	127.69
233.945	111.69
234.179	121.69
234.413	108.69
234.647	115.69
234.881	108.69
235.115	115.69
235.349	106.69
235.583	114.69
235.817	105.69
236.051	117.69
236.285	116.69
236.519	128.69
236.753	124.69
236.987	129.69
237.221	167.69
237.455	195.69
237.689	157.69
237.922	139.69
238.156	124.69
238.39	125.69
238.624	115.69
238.858	126.69
239.091	121.69
239.325	119.69
239.559	115.69
239.793	126.69
240.027	135.69
240.26	133.69
240.494	140.69
240.728	133.69
240.961	133.69
241.195	136.69
241.429	121.69
241.662	129.69
241.896	119.69
242.13	129.69
242.363	122.69
242.597	137.69
242.83	118.69
243.064	133.69
243.298	127.69
243.531	122.69
243.765	119.69
243.998	131.69
244.232	125.69
244.465	129.69
244.699	134.69
244.932	137.69
245.166	121.69
245.399	143.69
245.633	147.69
245.866	138.69
246.099	136.69
246.333	141.69
246.566	136.69
246.8	148.69
247.033	136.69
247.266	149.69
247.5	154.69
247.733	162.69
247.966	159.69
248.2	175.69
248.433	168.69
248.666	156.69
248.899	161.69
249.133	172.69
249.366	186.69
249.599	158.69
249.832	159.69
250.066	163.69
250.299	173.69
250.532	163.69
250.765	182.69
250.998	166.69
251.231	195.69
251.465	191.69
251.698	183.69
251.931	183.69
252.164	168.69
252.397	169.69
252.63	193.69
252.863	187.69
253.096	187.69
253.329	201.69
253.562	197.69
253.795	196.69
254.028	184.69
254.261	167.69
254.494	207.69
254.727	224.69
254.96	259.69
255.193	223.69
255.426	224.69
255.659	216.69
255.892	216.69
256.124	205.69
256.357	214.69
256.59	201.69
256.823	184.69
257.056	188.69
257.289	189.69
257.521	197.69
257.754	196.69
257.987	184.69
258.22	193.69
258.452	194.69
258.685	198.69
258.918	200.69
259.151	197.69
259.383	190.69
259.616	203.69
259.849	211.69
260.081	207.69
260.314	226.69
260.547	230.69
260.779	207.69
261.012	181.69
261.244	217.69
261.477	210.69
261.71	211.69
261.942	202.69
262.175	223.69
262.407	193.69
262.64	196.69
262.872	214.69
263.105	195.69
263.337	185.69
263.57	193.69
263.802	172.69
264.035	201.69
264.267	200.69
264.499	192.69
264.732	189.69
264.964	202.69
265.197	196.69
265.429	210.69
265.661	192.69
265.894	209.69
266.126	204.69
266.358	200.69
266.591	193.69
266.823	195.69
267.055	200.69
267.287	204.69
267.52	199.69
267.752	209.69
267.984	212.69
268.216	209.69
268.448	206.69
268.681	223.69
268.913	217.69
269.145	232.69
269.377	226.69
269.609	238.69
269.841	230.69
270.073	231.69
270.306	244.69
270.538	261.69
270.77	267.69
271.002	264.69
271.234	257.69
271.466	258.69
271.698	279.69
271.93	247.69
272.162	276.69
272.394	279.69
272.626	256.69
272.858	239.69
273.09	244.69
273.322	241.69
273.553	236.69
273.785	229.69
274.017	224.69
274.249	250.69
274.481	243.69
274.713	232.69
274.945	231.69
275.176	233.69
275.408	251.69
275.64	237.69
275.872	230.69
276.104	236.69
276.335	243.69
276.567	247.69
276.799	257.69
277.031	247.69
277.262	276.69
277.494	276.69
277.726	274.69
277.957	267.69
278.189	257.69
278.421	236.69
278.652	252.69
278.884	258.69
279.115	241.69
279.347	268.69
279.579	260.69
279.81	240.69
280.042	230.69
280.273	250.69
280.505	263.69
280.736	241.69
280.968	246.69
281.199	268.69
281.431	253.69
281.662	254.69
281.894	256.69
282.125	244.69
282.356	260.69
282.588	274.69
282.819	294.69
283.051	261.69
283.282	249.69
283.513	269.69
283.745	259.69
283.976	254.69
284.207	269.69
284.439	266.69
284.67	266.69
284.901	261.69
285.132	260.69
285.364	271.69
285.595	263.69
285.826	256.69
286.057	250.69
286.288	254.69
286.52	281.69
286.751	244.69
286.982	283.69
287.213	263.69
287.444	269.69
287.675	279.69
287.906	279.69
288.138	291.69
288.369	281.69
288.6	281.69
288.831	266.69
289.062	255.69
289.293	278.69
289.524	265.69
289.755	281.69
289.986	279.69
290.217	263.69
290.448	277.69
290.679	275.69
290.91	300.69
291.141	295.69
291.371	290.69
291.602	270.69
291.833	272.69
292.064	287.69
292.295	272.69
292.526	281.69
292.757	269.69
292.987	271.69
293.218	290.69
293.449	279.69
293.68	281.69
293.91	268.69
294.141	287.69
294.372	275.69
294.603	279.69
294.833	281.69
295.064	266.69
295.295	277.69
295.525	270.69
295.756	282.69
295.987	276.69
296.217	292.69
296.448	304.69
296.679	287.69
296.909	277.69
297.14	267.69
297.37	277.69
297.601	277.69
297.831	295.69
298.062	289.69
298.292	277.69
298.523	312.69
298.753	282.69
298.984	300.69
299.214	311.69
299.445	296.69
299.675	298.69
299.905	295.69
300.136	281.69
300.366	283.69
300.597	283.69
300.827	286.69
301.057	290.69
301.288	291.69
301.518	290.69
301.748	296.69
301.979	300.69
302.209	309.69
302.439	305.69
302.669	316.69
302.9	301.69
303.13	287.69
303.36	313.69
303.59	317.69
303.82	300.69
304.051	317.69
304.281	323.69
304.511	307.69
304.741	283.69
304.971	315.69
305.201	311.69
305.431	308.69
305.661	312.69
305.891	317.69
306.121	304.69
306.352	314.69
306.582	300.69
306.812	303.69
307.042	322.69
307.272	287.69
307.502	304.69
307.731	315.69
307.961	296.69
308.191	307.69
308.421	321.69
308.651	325.69
308.881	309.69
309.111	321.69
309.341	311.69
309.571	304.69
309.8	339.69
310.03	311.69
310.26	335.69
310.49	341.69
310.72	315.69
310.949	359.69
311.179	348.69
311.409	337.69
311.639	335.69
311.868	329.69
312.098	329.69
312.328	342.69
312.557	340.69
312.787	342.69
313.017	350.69
313.246	345.69
313.476	332.69
313.706	323.69
313.935	328.69
314.165	337.69
314.394	352.69
314.624	347.69
314.853	367.69
315.083	344.69
315.312	325.69
315.542	340.69
315.771	360.69
316.001	332.69
316.23	332.69
316.46	344.69
316.689	341.69
316.919	335.69
317.148	349.69
317.377	352.69
317.607	341.69
317.836	337.69
318.065	334.69
318.295	335.69
318.524	338.69
318.753	328.69
318.983	341.69
319.212	359.69
319.441	345.69
319.67	339.69
319.9	353.69
320.129	333.69
320.358	341.69
320.587	333.69
320.816	343.69
321.046	337.69
321.275	344.69
321.504	383.69
321.733	362.69
321.962	356.69
322.191	378.69
322.42	368.69
322.649	358.69
322.878	361.69
323.108	369.69
323.337	380.69
323.566	405.69
323.795	429.69
324.024	448.69
324.253	471.69
324.482	655.69
324.71	985.69
324.939	1478.69
325.168	1305.69
325.397	649.69
325.626	473.69
325.855	420.69
326.084	383.69
326.313	393.69
326.542	416.69
326.77	443.69
326.999	475.69
327.228	599.69
327.457	921.69
327.686	1138.69
327.914	748.69
328.143	513.69
328.372	480.69
328.6	444.69
328.829	448.69
329.058	447.69
329.287	479.69
329.515	436.69
329.744	414.69
329.972	434.69
330.201	425.69
330.43	423.69
330.658	443.69
330.887	463.69
331.115	492.69
331.344	437.69
331.572	433.69
331.801	437.69
332.03	427.69
332.258	413.69
332.486	397.69
332.715	403.69
332.943	412.69
333.172	413.69
333.4	435.69
333.629	448.69
333.857	446.69
334.085	432.69
334.314	448.69
334.542	457.69
334.771	482.69
334.999	478.69
335.227	454.69
335.455	418.69
335.684	417.69
335.912	410.69
336.14	412.69
336.369	414.69
336.597	409.69
336.825	411.69
337.053	418.69
337.281	397.69
337.51	403.69
337.738	406.69
337.966	411.69
338.194	388.69
338.422	404.69
338.65	408.69
338.878	415.69
339.106	391.69
339.334	380.69
339.562	395.69
339.79	391.69
340.018	399.69
340.246	373.69
340.474	379.69
340.702	378.69
340.93	388.69
341.158	401.69
341.386	394.69
341.614	391.69
341.842	386.69
342.07	392.69
342.298	380.69
342.526	379.69
342.754	391.69
342.981	411.69
343.209	371.69
343.437	410.69
343.665	409.69
343.893	412.69
344.12	418.69
344.348	419.69
344.576	421.69
344.804	413.69
345.031	399.69
345.259	404.69
345.487	387.69
345.714	394.69
345.942	379.69
346.17	374.69
346.397	381.69
346.625	380.69
346.853	377.69
347.08	370.69
347.308	406.69
347.535	352.69
347.763	384.69
347.99	369.69
348.218	370.69
348.445	387.69
348.673	372.69
348.9	375.69
349.128	369.69
349.355	376.69
349.583	379.69
349.81	377.69
350.037	362.69
350.265	371.69
350.492	383.69
350.72	386.69
350.947	372.69
351.174	374.69
351.402	375.69
351.629	395.69
351.856	368.69
352.083	370.69
352.311	377.69
352.538	378.69
352.765	395.69
352.992	383.69
353.22	380.69
353.447	396.69
353.674	355.69
353.901	367.69
354.128	372.69
354.355	355.69
354.583	346.69
354.81	363.69
355.037	359.69
355.264	375.69
355.491	371.69
355.718	371.69
355.945	358.69
356.172	344.69
356.399	378.69
356.626	346.69
356.853	360.69
357.08	369.69
357.307	370.69
357.534	360.69
357.761	363.69
357.988	376.69
358.215	375.69
358.441	359.69
358.668	377.69
358.895	385.69
359.122	371.69
359.349	364.69
359.576	387.69
359.802	375.69
360.029	397.69
360.256	406.69
360.483	384.69
360.709	391.69
360.936	373.69
361.163	374.69
361.39	394.69
361.616	385.69
361.843	378.69
362.07	385.69
362.296	380.69
362.523	367.69
362.749	393.69
362.976	384.69
363.203	386.69
363.429	374.69
363.656	379.69
363.882	367.69
364.109	348.69
364.335	381.69
364.562	369.69
364.788	364.69
365.015	367.69
365.241	378.69
365.468	371.69
365.694	382.69
365.92	384.69
366.147	379.69
366.373	353.69
366.599	393.69
366.826	377.69
367.052	373.69
367.278	369.69
367.505	357.69
367.731	371.69
367.957	373.69
368.184	371.69
368.41	384.69
368.636	375.69
368.862	367.69
369.089	377.69
369.315	377.69
369.541	389.69
369.767	399.69
369.993	404.69
370.219	375.69
370.445	385.69
370.672	378.69
370.898	395.69
371.124	368.69
371.35	389.69
371.576	388.69
371.802	379.69
372.028	388.69
372.254	377.69
372.48	359.69
372.706	373.69
372.932	403.69
373.158	406.69
373.384	387.69
373.61	380.69
373.835	412.69
374.061	410.69
374.287	380.69
374.513	392.69
374.739	422.69
374.965	408.69
375.191	417.69
375.416	411.69
375.642	409.69
375.868	405.69
376.094	390.69
376.319	381.69
376.545	407.69
376.771	393.69
376.997	387.69
377.222	407.69
377.448	397.69
377.674	382.69
377.899	357.69
378.125	389.69
378.35	397.69
378.576	391.69
378.802	373.69
379.027	397.69
379.253	415.69
379.478	408.69
379.704	390.69
379.929	382.69
380.155	398.69
380.38	404.69
380.606	386.69
380.831	400.69
381.057	406.69
381.282	406.69
381.507	416.69
381.733	422.69
381.958	403.69
382.184	405.69
382.409	413.69
382.634	433.69
382.86	433.69
383.085	420.69
383.31	404.69
383.535	428.69
383.761	422.69
383.986	419.69
384.211	432.69
384.436	441.69
384.662	445.69
384.887	445.69
385.112	463.69
385.337	455.69
385.562	478.69
385.787	449.69
386.013	465.69
386.238	475.69
386.463	488.69
386.688	462.69
386.913	449.69
387.138	475.69
387.363	474.69
387.588	445.69
387.813	484.69
388.038	439.69
388.263	461.69
388.488	477.69
388.713	455.69
388.938	440.69
389.163	437.69
389.387	453.69
389.612	421.69
389.837	423.69
390.062	416.69
390.287	438.69
390.512	417.69
390.736	439.69
390.961	455.69
391.186	448.69
391.411	460.69
391.636	436.69
391.86	480.69
392.085	482.69
392.31	457.69
392.534	463.69
392.759	450.69
392.984	458.69
393.208	458.69
393.433	498.69
393.658	500.69
393.882	452.69
394.107	455.69
394.331	435.69
394.556	446.69
394.78	441.69
395.005	466.69
395.229	449.69
395.454	468.69
395.678	458.69
395.903	471.69
396.127	495.69
396.352	488.69
396.576	478.69
396.801	504.69
397.025	504.69
397.249	497.69
397.474	459.69
397.698	485.69
397.922	485.69
398.147	499.69
398.371	490.69
398.595	527.69
398.82	517.69
399.044	540.69
399.268	555.69
399.492	551.69
399.717	624.69
399.941	604.69
400.165	651.69
400.389	629.69
400.613	582.69
400.837	545.69
401.062	537.69
401.286	499.69
401.51	510.69
401.734	498.69
401.958	514.69
402.182	527.69
402.406	514.69
402.63	515.69
402.854	523.69
403.078	530.69
403.302	531.69
403.526	519.69
403.75	513.69
403.974	525.69
404.198	540.69
404.422	541.69
404.645	536.69
404.869	581.69
405.093	576.69
405.317	569.69
405.541	626.69
405.765	581.69
405.988	571.69
406.212	564.69
406.436	571.69
406.66	555.69
406.883	571.69
407.107	599.69
407.331	617.69
407.555	673.69
407.778	674.69
408.002	658.69
408.226	595.69
408.449	585.69
408.673	575.69
408.896	601.69
409.12	637.69
409.344	608.69
409.567	559.69
409.791	541.69
410.014	525.69
410.238	530.69
410.461	530.69
410.685	534.69
410.908	550.69
411.132	561.69
411.355	602.69
411.578	567.69
411.802	552.69
412.025	564.69
412.249	545.69
412.472	539.69
412.695	604.69
412.919	561.69
413.142	526.69
413.365	524.69
413.589	525.69
413.812	492.69
414.035	519.69
414.258	533.69
414.482	513.69
414.705	520.69
414.928	515.69
415.151	509.69
415.374	505.69
415.597	508.69
415.821	518.69
416.044	540.69
416.267	496.69
416.49	480.69
416.713	474.69
416.936	481.69
417.159	481.69
417.382	486.69
417.605	511.69
417.828	530.69
418.051	504.69
418.274	477.69
418.497	504.69
418.72	513.69
418.943	491.69
419.166	538.69
419.389	569.69
419.611	563.69
419.834	535.69
420.057	542.69
420.28	537.69
420.503	531.69
420.726	518.69
420.948	492.69
421.171	538.69
421.394	583.69
421.617	539.69
421.839	519.69
422.062	501.69
422.285	535.69
422.507	572.69
422.73	658.69
422.953	622.69
423.175	585.69
423.398	567.69
423.621	536.69
423.843	561.69
424.066	561.69
424.288	570.69
424.511	571.69
424.733	578.69
424.956	669.69
425.178	645.69
425.401	643.69
425.623	666.69
425.846	596.69
426.068	527.69
426.291	545.69
426.513	545.69
426.735	531.69
426.958	589.69
427.18	617.69
427.402	762.69
427.625	823.69
427.847	699.69
428.069	629.69
428.292	560.69
428.514	530.69
428.736	514.69
428.958	500.69
429.181	522.69
429.403	499.69
429.625	504.69
429.847	506.69
430.069	579.69
430.292	576.69
430.514	495.69
430.736	507.69
430.958	519.69
431.18	498.69
431.402	472.69
431.624	482.69
431.846	470.69
432.068	471.69
432.29	483.69
432.512	490.69
432.734	506.69
432.956	493.69
433.178	477.69
433.4	517.69
433.622	513.69
433.844	488.69
434.066	483.69
434.287	483.69
434.509	516.69
434.731	501.69
434.953	523.69
435.175	511.69
435.397	533.69
435.618	548.69
435.84	574.69
436.062	646.69
436.284	705.69
436.505	596.69
436.727	535.69
436.949	526.69
437.17	506.69
437.392	519.69
437.614	517.69
437.835	533.69
438.057	604.69
438.278	673.69
438.5	678.69
438.721	753.69
438.943	751.69
439.165	576.69
439.386	540.69
439.608	523.69
439.829	516.69
440.05	533.69
440.272	577.69
440.493	539.69
440.715	534.69
440.936	521.69
441.158	499.69
441.379	504.69
441.6	546.69
441.822	543.69
442.043	555.69
442.264	636.69
442.486	652.69
442.707	575.69
442.928	561.69
443.149	555.69
443.371	571.69
443.592	603.69
443.813	696.69
444.034	738.69
444.255	620.69
444.476	571.69
444.698	556.69
444.919	549.69
445.14	677.69
445.361	617.69
445.582	589.69
445.803	619.69
446.024	700.69
446.245	692.69
446.466	612.69
446.687	567.69
446.908	562.69
447.129	517.69
447.35	505.69
447.571	496.69
447.792	497.69
448.013	459.69
448.234	506.69
448.455	553.69
448.675	632.69
448.896	741.69
449.117	636.69
449.338	591.69
449.559	676.69
449.779	783.69
450	625.69
450.221	518.69
450.442	514.69
450.662	439.69
450.883	510.69
451.104	493.69
451.324	484.69
451.545	485.69
451.766	473.69
451.986	443.69
452.207	423.69
452.428	462.69
452.648	467.69
452.869	435.69
453.089	459.69
453.31	470.69
453.53	459.69
453.751	434.69
453.971	440.69
454.192	458.69
454.412	447.69
454.633	444.69
454.853	426.69
455.073	435.69
455.294	459.69
455.514	499.69
455.734	496.69
455.955	445.69
456.175	419.69
456.395	417.69
456.616	417.69
456.836	421.69
457.056	412.69
457.276	434.69
457.497	441.69
457.717	433.69
457.937	416.69
458.157	437.69
458.377	446.69
458.598	447.69
458.818	500.69
459.038	543.69
459.258	566.69
459.478	505.69
459.698	505.69
459.918	480.69
460.138	456.69
460.358	525.69
460.578	500.69
460.798	525.69
461.018	548.69
461.238	509.69
461.458	523.69
461.678	527.69
461.898	535.69
462.118	497.69
462.338	535.69
462.558	540.69
462.777	561.69
462.997	563.69
463.217	591.69
463.437	569.69
463.657	582.69
463.876	562.69
464.096	576.69
464.316	563.69
464.536	559.69
464.755	559.69
464.975	547.69
465.195	555.69
465.414	596.69
465.634	518.69
465.854	501.69
466.073	490.69
466.293	500.69
466.512	482.69
466.732	478.69
466.951	454.69
467.171	485.69
467.391	476.69
467.61	468.69
467.829	488.69
468.049	472.69
468.268	479.69
468.488	481.69
468.707	444.69
468.927	471.69
469.146	449.69
469.365	464.69
469.585	454.69
469.804	484.69
470.023	476.69
470.243	461.69
470.462	465.69
470.681	479.69
470.901	493.69
471.12	468.69
471.339	465.69
471.558	483.69
471.777	456.69
471.997	476.69
472.216	468.69
472.435	473.69
472.654	486.69
472.873	481.69
473.092	479.69
473.311	459.69
473.53	480.69
473.749	466.69
473.968	500.69
474.187	582.69
474.406	589.69
474.625	515.69
474.844	518.69
475.063	464.69
475.282	474.69
475.501	495.69
475.72	485.69
475.939	500.69
476.158	476.69
476.377	503.69
476.596	484.69
476.814	495.69
477.033	502.69
477.252	497.69
477.471	508.69
477.69	514.69
477.908	520.69
478.127	531.69
478.346	525.69
478.564	533.69
478.783	534.69
479.002	531.69
479.22	552.69
479.439	567.69
479.658	575.69
479.876	569.69
480.095	567.69
480.313	608.69
480.532	600.69
480.751	592.69
480.969	592.69
481.188	620.69
481.406	636.69
481.624	605.69
481.843	565.69
482.061	570.69
482.28	556.69
482.498	547.69
482.717	567.69
482.935	587.69
483.153	580.69
483.372	572.69
483.59	561.69
483.808	577.69
484.027	569.69
484.245	567.69
484.463	567.69
484.681	581.69
484.9	561.69
485.118	577.69
485.336	590.69
485.554	595.69
485.772	576.69
485.99	587.69
486.209	581.69
486.427	572.69
486.645	594.69
486.863	608.69
487.081	607.69
487.299	617.69
487.517	584.69
487.735	604.69
487.953	615.69
488.171	592.69
488.389	607.69
488.607	602.69
488.825	580.69
489.043	581.69
489.261	576.69
489.479	574.69
489.696	600.69
489.914	606.69
490.132	615.69
490.35	621.69
490.568	626.69
490.786	633.69
491.003	635.69
491.221	654.69
491.439	675.69
491.657	664.69
491.874	675.69
492.092	669.69
492.31	654.69
492.527	671.69
492.745	681.69
492.963	669.69
493.18	660.69
493.398	666.69
493.615	697.69
493.833	683.69
494.05	682.69
494.268	698.69
494.485	704.69
494.703	689.69
494.92	681.69
495.138	674.69
495.355	684.69
495.573	693.69
495.79	692.69
496.008	714.69
496.225	713.69
496.442	689.69
496.66	681.69
496.877	714.69
497.094	729.69
497.312	698.69
497.529	734.69
497.746	734.69
497.963	752.69
498.181	781.69
498.398	779.69
498.615	835.69
498.832	827.69
499.049	837.69
499.267	873.69
499.484	905.69
499.701	944.69
499.918	1007.69
500.135	1045.69
500.352	1137.69
500.569	1135.69
500.786	1146.69
501.003	1142.69
501.22	1097.69
501.437	1037.69
501.654	980.69
501.871	916.69
502.088	881.69
502.305	866.69
502.522	833.69
502.739	830.69
502.956	786.69
503.172	798.69
503.389	739.69
503.606	739.69
503.823	751.69
504.04	710.69
504.256	719.69
504.473	721.69
504.69	733.69
504.907	706.69
505.123	697.69
505.34	661.69
505.557	678.69
505.773	665.69
505.99	660.69
506.207	649.69
506.423	655.69
506.64	647.69
506.856	639.69
507.073	637.69
507.289	620.69
507.506	625.69
507.722	604.69
507.939	620.69
508.155	622.69
508.372	620.69
508.588	607.69
508.805	613.69
509.021	597.69
509.238	613.69
509.454	611.69
509.67	627.69
509.887	596.69
510.103	583.69
510.319	609.69
510.536	639.69
510.752	861.69
510.968	758.69
511.184	597.69
511.401	595.69
511.617	561.69
511.833	569.69
512.049	583.69
512.265	588.69
512.481	563.69
512.698	568.69
512.914	564.69
513.13	589.69
513.346	574.69
513.562	580.69
513.778	560.69
513.994	585.69
514.21	590.69
514.426	593.69
514.642	591.69
514.858	609.69
515.074	618.69
515.29	684.69
515.506	872.69
515.721	763.69
515.937	641.69
516.153	617.69
516.369	602.69
516.585	605.69
516.801	631.69
517.016	612.69
517.232	633.69
517.448	637.69
517.664	630.69
517.879	632.69
518.095	649.69
518.311	634.69
518.527	614.69
518.742	583.69
518.958	597.69
519.173	602.69
519.389	587.69
519.605	586.69
519.82	561.69
520.036	587.69
520.251	568.69
520.467	602.69
520.682	581.69
520.898	592.69
521.113	614.69
521.329	617.69
521.544	655.69
521.76	708.69
521.975	1051.69
522.19	1023.69
522.406	661.69
522.621	591.69
522.836	563.69
523.052	553.69
523.267	532.69
523.482	523.69
523.698	523.69
523.913	506.69
524.128	520.69
524.343	514.69
524.559	507.69
524.774	503.69
524.989	511.69
525.204	504.69
525.419	485.69
525.634	505.69
525.849	480.69
526.064	503.69
526.28	484.69
526.495	480.69
526.71	479.69
526.925	476.69
527.14	491.69
527.355	482.69
527.57	501.69
527.785	484.69
527.999	476.69
528.214	462.69
528.429	484.69
528.644	489.69
528.859	460.69
529.074	475.69
529.289	486.69
529.503	529.69
529.718	529.69
529.933	507.69
530.148	485.69
530.363	499.69
530.577	473.69
530.792	485.69
531.007	488.69
531.221	479.69
531.436	481.69
531.651	458.69
531.865	462.69
532.08	486.69
532.295	487.69
532.509	455.69
532.724	476.69
532.938	469.69
533.153	471.69
533.367	461.69
533.582	460.69
533.796	458.69
534.011	478.69
534.225	465.69
534.44	463.69
534.654	485.69
534.868	472.69
535.083	467.69
535.297	482.69
535.511	454.69
535.726	479.69
535.94	489.69
536.154	464.69
536.369	452.69
536.583	487.69
536.797	455.69
537.011	436.69
537.225	448.69
537.44	448.69
537.654	445.69
537.868	433.69
538.082	452.69
538.296	471.69
538.51	461.69
538.724	425.69
538.938	443.69
539.153	440.69
539.367	472.69
539.581	442.69
539.795	447.69
540.009	447.69
540.222	449.69
540.436	449.69
540.65	435.69
540.864	448.69
541.078	453.69
541.292	467.69
541.506	475.69
541.72	442.69
541.934	456.69
542.147	450.69
542.361	465.69
542.575	445.69
542.789	462.69
543.002	429.69
543.216	451.69
543.43	437.69
543.644	440.69
543.857	430.69
544.071	458.69
544.285	464.69
544.498	439.69
544.712	459.69
544.925	447.69
545.139	458.69
545.352	445.69
545.566	456.69
545.779	455.69
545.993	454.69
546.206	453.69
546.42	458.69
546.633	459.69
546.847	456.69
547.06	451.69
547.274	428.69
547.487	449.69
547.7	460.69
547.914	440.69
548.127	459.69
548.34	450.69
548.554	455.69
548.767	443.69
548.98	463.69
549.193	444.69
549.407	453.69
549.62	454.69
549.833	475.69
550.046	449.69
550.259	450.69
550.473	451.69
550.686	454.69
550.899	435.69
551.112	437.69
551.325	433.69
551.538	444.69
551.751	455.69
551.964	437.69
552.177	452.69
552.39	444.69
552.603	470.69
552.816	465.69
553.029	441.69
553.242	455.69
553.455	463.69
553.667	497.69
553.88	465.69
554.093	465.69
554.306	446.69
554.519	449.69
554.732	460.69
554.944	446.69
555.157	441.69
555.37	416.69
555.583	412.69
555.795	443.69
556.008	413.69
556.221	407.69
556.433	415.69
556.646	414.69
556.859	394.69
557.071	414.69
557.284	409.69
557.496	408.69
557.709	412.69
557.921	411.69
558.134	391.69
558.346	413.69
558.559	410.69
558.771	395.69
558.984	393.69
559.196	409.69
559.409	402.69
559.621	398.69
559.833	392.69
560.046	386.69
560.258	389.69
560.47	409.69
560.683	407.69
560.895	400.69
561.107	405.69
561.32	403.69
561.532	387.69
561.744	398.69
561.956	394.69
562.168	394.69
562.381	419.69
562.593	398.69
562.805	398.69
563.017	415.69
563.229	389.69
563.441	397.69
563.653	428.69
563.865	385.69
564.077	424.69
564.289	424.69
564.501	411.69
564.713	433.69
564.925	421.69
565.137	418.69
565.349	455.69
565.561	449.69
565.773	440.69
565.985	445.69
566.197	474.69
566.408	488.69
566.62	499.69
566.832	525.69
567.044	536.69
567.255	555.69
567.467	552.69
567.679	560.69
567.891	580.69
568.102	576.69
568.314	567.69
568.526	507.69
568.737	524.69
568.949	501.69
569.161	473.69
569.372	447.69
569.584	440.69
569.795	426.69
570.007	433.69
570.218	434.69
570.43	407.69
570.641	418.69
570.853	417.69
571.064	409.69
571.276	419.69
571.487	388.69
571.698	387.69
571.91	369.69
572.121	383.69
572.333	386.69
572.544	360.69
572.755	369.69
572.966	355.69
573.178	355.69
573.389	345.69
573.6	353.69
573.811	334.69
574.023	331.69
574.234	352.69
574.445	359.69
574.656	331.69
574.867	330.69
575.078	357.69
575.289	351.69
575.501	357.69
575.712	344.69
575.923	329.69
576.134	339.69
576.345	311.69
576.556	324.69
576.767	344.69
576.978	341.69
577.188	330.69
577.399	316.69
577.61	327.69
577.821	345.69
578.032	331.69
578.243	346.69
578.454	427.69
578.665	379.69
578.875	336.69
579.086	344.69
579.297	326.69
579.508	347.69
579.718	316.69
579.929	324.69
580.14	307.69
580.35	316.69
580.561	326.69
580.772	310.69
580.982	311.69
581.193	316.69
581.403	308.69
581.614	329.69
581.825	326.69
582.035	317.69
582.246	309.69
582.456	316.69
582.667	295.69
582.877	315.69
583.087	299.69
583.298	306.69
583.508	307.69
583.719	307.69
583.929	316.69
584.139	320.69
584.35	309.69
584.56	300.69
584.77	316.69
584.981	289.69
585.191	320.69
585.401	301.69
585.611	319.69
585.821	317.69
586.032	290.69
586.242	319.69
586.452	323.69
586.662	309.69
586.872	310.69
587.082	322.69
587.292	308.69
587.502	301.69
587.713	299.69
587.923	304.69
588.133	318.69
588.343	326.69
588.553	309.69
588.762	322.69
588.972	316.69
589.182	331.69
589.392	316.69
589.602	300.69
589.812	298.69
590.022	323.69
590.232	300.69
590.441	312.69
590.651	317.69
590.861	299.69
591.071	313.69
591.281	315.69
591.49	298.69
591.7	312.69
591.91	312.69
592.119	305.69
592.329	316.69
592.539	313.69
592.748	334.69
592.958	329.69
593.167	338.69
593.377	344.69
593.587	362.69
593.796	355.69
594.006	359.69
594.215	334.69
594.424	332.69
594.634	344.69
594.843	323.69
595.053	325.69
595.262	338.69
595.472	307.69
595.681	313.69
595.89	304.69
596.1	312.69
596.309	299.69
596.518	310.69
596.727	295.69
596.937	305.69
597.146	295.69
597.355	286.69
597.564	288.69
597.774	290.69
597.983	283.69
598.192	271.69
598.401	290.69
598.61	282.69
598.819	290.69
599.028	294.69
599.237	263.69
599.446	277.69
599.655	280.69
599.864	268.69
600.073	279.69
600.282	275.69
600.491	266.69
600.7	295.69
600.909	279.69
601.118	265.69
601.327	280.69
601.536	276.69
601.745	265.69
601.953	282.69
602.162	268.69
602.371	256.69
602.58	265.69
602.789	279.69
602.997	284.69
603.206	264.69
603.415	258.69
603.623	273.69
603.832	278.69
604.041	269.69
604.249	270.69
604.458	263.69
604.666	260.69
604.875	267.69
605.084	260.69
605.292	247.69
605.501	255.69
605.709	279.69
605.918	269.69
606.126	247.69
606.334	240.69
606.543	245.69
606.751	265.69
606.96	272.69
607.168	265.69
607.376	245.69
607.585	259.69
607.793	260.69
608.001	244.69
608.21	267.69
608.418	245.69
608.626	244.69
608.834	232.69
609.043	255.69
609.251	257.69
609.459	246.69
609.667	249.69
609.875	241.69
610.083	238.69
610.291	250.69
610.499	260.69
610.707	263.69
610.916	246.69
611.124	259.69
611.332	262.69
611.54	264.69
611.748	261.69
611.955	248.69
612.163	246.69
612.371	261.69
612.579	244.69
612.787	256.69
612.995	266.69
613.203	246.69
613.411	242.69
613.618	245.69
613.826	252.69
614.034	262.69
614.242	246.69
614.449	243.69
614.657	229.69
614.865	237.69
615.072	246.69
615.28	244.69
615.488	248.69
615.695	243.69
615.903	244.69
616.111	249.69
616.318	256.69
616.526	243.69
616.733	245.69
616.941	245.69
617.148	240.69
617.356	246.69
617.563	240.69
617.771	244.69
617.978	241.69
618.185	247.69
618.393	261.69
618.6	242.69
618.807	244.69
619.015	246.69
619.222	232.69
619.429	234.69
619.637	242.69
619.844	232.69
620.051	234.69
620.258	244.69
620.466	245.69
620.673	246.69
620.88	234.69
621.087	244.69
621.294	227.69
621.501	233.69
621.708	236.69
621.915	227.69
622.122	234.69
622.329	242.69
622.536	227.69
622.743	225.69
622.95	228.69
623.157	214.69
623.364	218.69
623.571	240.69
623.778	215.69
623.985	230.69
624.192	223.69
624.399	212.69
624.606	223.69
624.812	240.69
625.019	232.69
625.226	241.69
625.433	226.69
625.639	231.69
625.846	213.69
626.053	218.69
626.259	224.69
626.466	223.69
626.673	225.69
626.879	205.69
627.086	219.69
627.293	212.69
627.499	224.69
627.706	234.69
627.912	203.69
628.119	223.69
628.325	220.69
628.532	217.69
628.738	219.69
628.945	216.69
629.151	193.69
629.357	199.69
629.564	193.69
629.77	223.69
629.976	218.69
630.183	214.69
630.389	217.69
630.595	216.69
630.802	201.69
631.008	221.69
631.214	207.69
631.42	203.69
631.627	200.69
631.833	189.69
632.039	215.69
632.245	210.69
632.451	208.69
632.657	193.69
632.863	216.69
633.069	197.69
633.275	200.69
633.481	207.69
633.688	185.69
633.893	195.69
634.099	188.69
634.305	203.69
634.511	185.69
634.717	196.69
634.923	172.69
635.129	204.69
635.335	203.69
635.541	191.69
635.747	181.69
635.952	188.69
636.158	180.69
636.364	196.69
636.57	186.69
636.775	197.69
636.981	196.69
637.187	180.69
637.392	202.69
637.598	201.69
637.804	189.69
638.009	178.69
638.215	203.69
638.421	179.69
638.626	178.69
638.832	179.69
639.037	184.69
639.243	163.69
639.448	190.69
639.654	188.69
639.859	161.69
640.065	182.69
640.27	173.69
640.475	185.69
640.681	191.69
640.886	191.69
641.091	198.69
641.297	185.69
641.502	188.69
641.707	168.69
641.913	177.69
642.118	175.69
642.323	157.69
642.528	181.69
642.733	180.69
642.939	167.69
643.144	179.69
643.349	176.69
643.554	190.69
643.759	148.69
643.964	166.69
644.169	184.69
644.374	173.69
644.579	179.69
644.784	169.69
644.989	195.69
645.194	177.69
645.399	191.69
645.604	179.69
645.809	180.69
646.014	183.69
646.219	180.69
646.423	175.69
646.628	171.69
646.833	180.69
647.038	171.69
647.243	195.69
647.447	171.69
647.652	177.69
647.857	187.69
648.062	185.69
648.266	178.69
648.471	155.69
648.676	187.69
648.88	182.69
649.085	175.69
649.289	163.69
649.494	187.69
649.698	188.69
649.903	204.69
650.107	168.69
650.312	163.69
650.516	167.69
650.721	178.69
650.925	164.69
651.13	165.69
651.334	172.69
651.539	162.69
651.743	164.69
651.947	149.69
652.152	161.69
652.356	157.69
652.56	144.69
652.764	147.69
652.969	158.69
653.173	156.69
653.377	163.69
653.581	147.69
653.785	163.69
653.99	157.69
654.194	154.69
654.398	156.69
654.602	151.69
654.806	156.69
655.01	153.69
655.214	160.69
655.418	149.69
655.622	157.69
655.826	154.69
656.03	165.69
656.234	178.69
656.438	164.69
656.642	183.69
656.846	162.69
657.049	163.69
657.253	133.69
657.457	142.69
657.661	122.69
657.865	123.69
658.068	114.69
658.272	121.69
658.476	105.69
658.68	119.69
658.883	115.69
659.087	111.69
659.291	97.69
659.494	93.69
659.698	101.69
659.901	100.69
660.105	107.69
660.309	100.69
660.512	99.69
660.716	93.69
660.919	106.69
661.123	99.69
661.326	89.69
661.53	76.69
661.733	92.69
661.936	87.69
662.14	91.69
662.343	90.69
662.546	85.69
662.75	91.69
662.953	82.69
663.156	77.69
663.36	70.69
663.563	87.69
663.766	80.69
663.969	83.69
664.173	79.69
664.376	83.69
664.579	85.69
664.782	90.69
664.985	79.69
665.188	82.69
665.391	72.69
665.594	95.69
665.797	83.69
666	77.69
666.203	91.69
666.406	90.69
666.609	85.69
666.812	71.69
667.015	79.69
667.218	78.69
667.421	81.69
667.624	81.69
667.827	91.69
668.03	91.69
668.232	81.69
668.435	90.69
668.638	88.69
668.841	82.69
669.043	78.69
669.246	84.69
669.449	90.69
669.651	93.69
669.854	67.69
670.057	84.69
670.259	98.69
670.462	95.69
670.665	82.69
670.867	80.69
671.07	88.69
671.272	95.69
671.475	101.69
671.677	83.69
671.88	76.69
672.082	82.69
672.284	81.69
672.487	81.69
672.689	91.69
672.892	84.69
