Data from 1975.PennyLincolnUp.Lamp.En5.5.200Scan.071719.P1.Changed Mount._HRD10591_15-55-53-858.txt Node
Date: Thu Jul 18 15:55:53 EDT 2019
User: cochatt
Spectrometer: HR+D1059
Trigger mode: 1
Integration Time (sec): 1.000000E-1
Scans to average: 1
Electric dark correction enabled: true
Nonlinearity correction enabled: false
Boxcar width: 0
XAxis mode: Wavelengths
Number of Pixels in Spectrum: 2048
>>>>>Begin Spectral Data<<<<<
223.165	-14.12
223.4	-14.12
223.635	-14.12
223.869	-4.12
224.104	-25.12
224.338	-14.12
224.573	-0.12
224.808	-3.12
225.042	-2.12
225.277	-7.12
225.511	-12.12
225.746	10.88
225.98	-1.12
226.215	3.88
226.449	4.88
226.683	12.88
226.918	22.88
227.152	27.88
227.387	27.88
227.621	27.88
227.856	50.88
228.09	39.88
228.324	37.88
228.559	55.88
228.793	74.88
229.027	101.88
229.262	83.88
229.496	99.88
229.73	107.88
229.964	131.88
230.199	103.88
230.433	103.88
230.667	91.88
230.901	105.88
231.136	99.88
231.37	96.88
231.604	110.88
231.838	100.88
232.072	98.88
232.306	103.88
232.541	111.88
232.775	106.88
233.009	103.88
233.243	100.88
233.477	103.88
233.711	106.88
233.945	96.88
234.179	101.88
234.413	119.88
234.647	118.88
234.881	120.88
235.115	107.88
235.349	116.88
235.583	105.88
235.817	101.88
236.051	123.88
236.285	117.88
236.519	116.88
236.753	106.88
236.987	138.88
237.221	164.88
237.455	221.88
237.689	171.88
237.922	124.88
238.156	124.88
238.39	124.88
238.624	118.88
238.858	103.88
239.091	103.88
239.325	122.88
239.559	120.88
239.793	120.88
240.027	140.88
240.26	124.88
240.494	125.88
240.728	152.88
240.961	151.88
241.195	128.88
241.429	140.88
241.662	131.88
241.896	136.88
242.13	138.88
242.363	121.88
242.597	134.88
242.83	134.88
243.064	128.88
243.298	125.88
243.531	134.88
243.765	124.88
243.998	127.88
244.232	139.88
244.465	126.88
244.699	136.88
244.932	144.88
245.166	142.88
245.399	134.88
245.633	139.88
245.866	128.88
246.099	134.88
246.333	128.88
246.566	135.88
246.8	150.88
247.033	151.88
247.266	158.88
247.5	153.88
247.733	144.88
247.966	174.88
248.2	167.88
248.433	160.88
248.666	171.88
248.899	163.88
249.133	188.88
249.366	174.88
249.599	169.88
249.832	164.88
250.066	166.88
250.299	168.88
250.532	178.88
250.765	204.88
250.998	209.88
251.231	219.88
251.465	179.88
251.698	175.88
251.931	170.88
252.164	187.88
252.397	163.88
252.63	177.88
252.863	174.88
253.096	202.88
253.329	218.88
253.562	199.88
253.795	202.88
254.028	208.88
254.261	218.88
254.494	216.88
254.727	217.88
254.96	257.88
255.193	228.88
255.426	240.88
255.659	190.88
255.892	193.88
256.124	214.88
256.357	213.88
256.59	197.88
256.823	199.88
257.056	180.88
257.289	204.88
257.521	193.88
257.754	172.88
257.987	184.88
258.22	196.88
258.452	187.88
258.685	194.88
258.918	190.88
259.151	203.88
259.383	206.88
259.616	213.88
259.849	194.88
260.081	211.88
260.314	215.88
260.547	238.88
260.779	233.88
261.012	233.88
261.244	219.88
261.477	208.88
261.71	195.88
261.942	206.88
262.175	216.88
262.407	202.88
262.64	202.88
262.872	188.88
263.105	195.88
263.337	194.88
263.57	190.88
263.802	201.88
264.035	208.88
264.267	202.88
264.499	182.88
264.732	198.88
264.964	215.88
265.197	213.88
265.429	195.88
265.661	198.88
265.894	198.88
266.126	199.88
266.358	202.88
266.591	199.88
266.823	232.88
267.055	218.88
267.287	213.88
267.52	204.88
267.752	221.88
267.984	203.88
268.216	218.88
268.448	212.88
268.681	223.88
268.913	230.88
269.145	234.88
269.377	254.88
269.609	256.88
269.841	243.88
270.073	256.88
270.306	276.88
270.538	285.88
270.77	275.88
271.002	266.88
271.234	262.88
271.466	262.88
271.698	273.88
271.93	292.88
272.162	286.88
272.394	287.88
272.626	281.88
272.858	260.88
273.09	266.88
273.322	258.88
273.553	263.88
273.785	258.88
274.017	246.88
274.249	249.88
274.481	253.88
274.713	246.88
274.945	248.88
275.176	252.88
275.408	254.88
275.64	238.88
275.872	234.88
276.104	250.88
276.335	266.88
276.567	269.88
276.799	246.88
277.031	277.88
277.262	296.88
277.494	300.88
277.726	257.88
277.957	268.88
278.189	254.88
278.421	261.88
278.652	253.88
278.884	242.88
279.115	244.88
279.347	255.88
279.579	278.88
279.81	281.88
280.042	279.88
280.273	251.88
280.505	261.88
280.736	246.88
280.968	254.88
281.199	272.88
281.431	265.88
281.662	243.88
281.894	265.88
282.125	245.88
282.356	267.88
282.588	294.88
282.819	295.88
283.051	283.88
283.282	265.88
283.513	250.88
283.745	267.88
283.976	242.88
284.207	265.88
284.439	268.88
284.67	274.88
284.901	245.88
285.132	260.88
285.364	270.88
285.595	272.88
285.826	264.88
286.057	243.88
286.288	272.88
286.52	262.88
286.751	270.88
286.982	267.88
287.213	280.88
287.444	281.88
287.675	288.88
287.906	280.88
288.138	302.88
288.369	276.88
288.6	272.88
288.831	292.88
289.062	282.88
289.293	280.88
289.524	276.88
289.755	276.88
289.986	274.88
290.217	282.88
290.448	273.88
290.679	281.88
290.91	268.88
291.141	272.88
291.371	272.88
291.602	268.88
291.833	283.88
292.064	282.88
292.295	260.88
292.526	292.88
292.757	281.88
292.987	292.88
293.218	290.88
293.449	295.88
293.68	284.88
293.91	274.88
294.141	292.88
294.372	300.88
294.603	275.88
294.833	282.88
295.064	290.88
295.295	284.88
295.525	283.88
295.756	291.88
295.987	303.88
296.217	302.88
296.448	313.88
296.679	311.88
296.909	287.88
297.14	303.88
297.37	279.88
297.601	282.88
297.831	286.88
298.062	287.88
298.292	292.88
298.523	305.88
298.753	308.88
298.984	292.88
299.214	313.88
299.445	298.88
299.675	295.88
299.905	310.88
300.136	290.88
300.366	297.88
300.597	310.88
300.827	306.88
301.057	316.88
301.288	316.88
301.518	310.88
301.748	306.88
301.979	320.88
302.209	318.88
302.439	315.88
302.669	332.88
302.9	327.88
303.13	306.88
303.36	300.88
303.59	314.88
303.82	326.88
304.051	321.88
304.281	306.88
304.511	310.88
304.741	306.88
304.971	309.88
305.201	319.88
305.431	318.88
305.661	299.88
305.891	298.88
306.121	316.88
306.352	303.88
306.582	315.88
306.812	326.88
307.042	299.88
307.272	297.88
307.502	325.88
307.731	324.88
307.961	328.88
308.191	315.88
308.421	295.88
308.651	306.88
308.881	305.88
309.111	324.88
309.341	319.88
309.571	351.88
309.8	348.88
310.03	344.88
310.26	333.88
310.49	344.88
310.72	332.88
310.949	360.88
311.179	363.88
311.409	324.88
311.639	334.88
311.868	347.88
312.098	350.88
312.328	333.88
312.557	357.88
312.787	370.88
313.017	334.88
313.246	355.88
313.476	368.88
313.706	354.88
313.935	358.88
314.165	359.88
314.394	361.88
314.624	363.88
314.853	363.88
315.083	347.88
315.312	363.88
315.542	353.88
315.771	351.88
316.001	359.88
316.23	345.88
316.46	358.88
316.689	350.88
316.919	344.88
317.148	353.88
317.377	335.88
317.607	357.88
317.836	372.88
318.065	354.88
318.295	356.88
318.524	345.88
318.753	343.88
318.983	353.88
319.212	338.88
319.441	362.88
319.67	346.88
319.9	367.88
320.129	347.88
320.358	358.88
320.587	369.88
320.816	361.88
321.046	354.88
321.275	353.88
321.504	371.88
321.733	370.88
321.962	363.88
322.191	390.88
322.42	390.88
322.649	375.88
322.878	390.88
323.108	394.88
323.337	414.88
323.566	409.88
323.795	432.88
324.024	455.88
324.253	525.88
324.482	702.88
324.71	1073.88
324.939	1540.88
325.168	1396.88
325.397	701.88
325.626	526.88
325.855	453.88
326.084	422.88
326.313	430.88
326.542	415.88
326.77	448.88
326.999	512.88
327.228	663.88
327.457	993.88
327.686	1187.88
327.914	811.88
328.143	561.88
328.372	505.88
328.6	482.88
328.829	448.88
329.058	456.88
329.287	458.88
329.515	466.88
329.744	440.88
329.972	456.88
330.201	481.88
330.43	480.88
330.658	499.88
330.887	480.88
331.115	481.88
331.344	437.88
331.572	456.88
331.801	445.88
332.03	432.88
332.258	447.88
332.486	426.88
332.715	424.88
332.943	424.88
333.172	406.88
333.4	423.88
333.629	442.88
333.857	439.88
334.085	472.88
334.314	490.88
334.542	480.88
334.771	498.88
334.999	474.88
335.227	451.88
335.455	430.88
335.684	430.88
335.912	436.88
336.14	409.88
336.369	438.88
336.597	433.88
336.825	414.88
337.053	433.88
337.281	413.88
337.51	412.88
337.738	414.88
337.966	419.88
338.194	416.88
338.422	415.88
338.65	408.88
338.878	411.88
339.106	396.88
339.334	420.88
339.562	416.88
339.79	397.88
340.018	410.88
340.246	385.88
340.474	397.88
340.702	405.88
340.93	384.88
341.158	397.88
341.386	406.88
341.614	416.88
341.842	386.88
342.07	380.88
342.298	387.88
342.526	386.88
342.754	378.88
342.981	385.88
343.209	393.88
343.437	407.88
343.665	415.88
343.893	414.88
344.12	420.88
344.348	442.88
344.576	417.88
344.804	414.88
345.031	417.88
345.259	401.88
345.487	402.88
345.714	408.88
345.942	387.88
346.17	380.88
346.397	395.88
346.625	408.88
346.853	400.88
347.08	400.88
347.308	402.88
347.535	382.88
347.763	380.88
347.99	406.88
348.218	401.88
348.445	408.88
348.673	383.88
348.9	369.88
349.128	394.88
349.355	377.88
349.583	374.88
349.81	386.88
350.037	361.88
350.265	358.88
350.492	379.88
350.72	379.88
350.947	388.88
351.174	386.88
351.402	387.88
351.629	390.88
351.856	384.88
352.083	392.88
352.311	408.88
352.538	400.88
352.765	378.88
352.992	393.88
353.22	393.88
353.447	376.88
353.674	391.88
353.901	378.88
354.128	376.88
354.355	369.88
354.583	384.88
354.81	379.88
355.037	391.88
355.264	391.88
355.491	375.88
355.718	366.88
355.945	391.88
356.172	379.88
356.399	373.88
356.626	377.88
356.853	375.88
357.08	380.88
357.307	377.88
357.534	347.88
357.761	376.88
357.988	362.88
358.215	364.88
358.441	358.88
358.668	368.88
358.895	396.88
359.122	386.88
359.349	405.88
359.576	392.88
359.802	386.88
360.029	393.88
360.256	405.88
360.483	410.88
360.709	396.88
360.936	389.88
361.163	390.88
361.39	392.88
361.616	414.88
361.843	389.88
362.07	386.88
362.296	414.88
362.523	394.88
362.749	381.88
362.976	389.88
363.203	405.88
363.429	382.88
363.656	383.88
363.882	391.88
364.109	385.88
364.335	380.88
364.562	397.88
364.788	374.88
365.015	386.88
365.241	386.88
365.468	380.88
365.694	394.88
365.92	399.88
366.147	359.88
366.373	365.88
366.599	382.88
366.826	386.88
367.052	378.88
367.278	384.88
367.505	383.88
367.731	400.88
367.957	390.88
368.184	386.88
368.41	374.88
368.636	390.88
368.862	407.88
369.089	391.88
369.315	377.88
369.541	390.88
369.767	391.88
369.993	406.88
370.219	380.88
370.445	377.88
370.672	395.88
370.898	385.88
371.124	367.88
371.35	372.88
371.576	394.88
371.802	394.88
372.028	379.88
372.254	394.88
372.48	388.88
372.706	425.88
372.932	384.88
373.158	396.88
373.384	378.88
373.61	398.88
373.835	390.88
374.061	377.88
374.287	397.88
374.513	404.88
374.739	393.88
374.965	390.88
375.191	411.88
375.416	409.88
375.642	404.88
375.868	382.88
376.094	383.88
376.319	408.88
376.545	393.88
376.771	400.88
376.997	407.88
377.222	390.88
377.448	402.88
377.674	388.88
377.899	401.88
378.125	392.88
378.35	388.88
378.576	389.88
378.802	402.88
379.027	402.88
379.253	400.88
379.478	394.88
379.704	383.88
379.929	400.88
380.155	378.88
380.38	387.88
380.606	412.88
380.831	398.88
381.057	415.88
381.282	398.88
381.507	408.88
381.733	421.88
381.958	396.88
382.184	410.88
382.409	417.88
382.634	411.88
382.86	420.88
383.085	412.88
383.31	412.88
383.535	418.88
383.761	417.88
383.986	409.88
384.211	431.88
384.436	435.88
384.662	429.88
384.887	425.88
385.112	436.88
385.337	441.88
385.562	422.88
385.787	431.88
386.013	467.88
386.238	454.88
386.463	426.88
386.688	441.88
386.913	448.88
387.138	419.88
387.363	434.88
387.588	442.88
387.813	447.88
388.038	425.88
388.263	470.88
388.488	452.88
388.713	438.88
388.938	436.88
389.163	435.88
389.387	452.88
389.612	439.88
389.837	454.88
390.062	446.88
390.287	431.88
390.512	444.88
390.736	452.88
390.961	429.88
391.186	446.88
391.411	459.88
391.636	435.88
391.86	444.88
392.085	458.88
392.31	460.88
392.534	469.88
392.759	480.88
392.984	453.88
393.208	452.88
393.433	457.88
393.658	445.88
393.882	448.88
394.107	452.88
394.331	440.88
394.556	450.88
394.78	447.88
395.005	453.88
395.229	467.88
395.454	466.88
395.678	477.88
395.903	472.88
396.127	472.88
396.352	486.88
396.576	491.88
396.801	479.88
397.025	474.88
397.249	469.88
397.474	444.88
397.698	494.88
397.922	480.88
398.147	487.88
398.371	526.88
398.595	500.88
398.82	512.88
399.044	520.88
399.268	554.88
399.492	580.88
399.717	612.88
399.941	643.88
400.165	672.88
400.389	640.88
400.613	575.88
400.837	542.88
401.062	552.88
401.286	532.88
401.51	517.88
401.734	516.88
401.958	523.88
402.182	528.88
402.406	528.88
402.63	505.88
402.854	523.88
403.078	537.88
403.302	527.88
403.526	527.88
403.75	540.88
403.974	554.88
404.198	538.88
404.422	542.88
404.645	544.88
404.869	552.88
405.093	561.88
405.317	610.88
405.541	644.88
405.765	584.88
405.988	554.88
406.212	553.88
406.436	566.88
406.66	588.88
406.883	583.88
407.107	600.88
407.331	645.88
407.555	701.88
407.778	698.88
408.002	659.88
408.226	582.88
408.449	578.88
408.673	585.88
408.896	608.88
409.12	645.88
409.344	630.88
409.567	560.88
409.791	543.88
410.014	527.88
410.238	535.88
410.461	538.88
410.685	543.88
410.908	575.88
411.132	580.88
411.355	595.88
411.578	578.88
411.802	548.88
412.025	550.88
412.249	551.88
412.472	561.88
412.695	612.88
412.919	586.88
413.142	562.88
413.365	512.88
413.589	548.88
413.812	522.88
414.035	487.88
414.258	510.88
414.482	519.88
414.705	523.88
414.928	514.88
415.151	521.88
415.374	507.88
415.597	496.88
415.821	494.88
416.044	502.88
416.267	522.88
416.49	498.88
416.713	503.88
416.936	501.88
417.159	497.88
417.382	496.88
417.605	496.88
417.828	523.88
418.051	528.88
418.274	518.88
418.497	509.88
418.72	520.88
418.943	530.88
419.166	523.88
419.389	563.88
419.611	561.88
419.834	543.88
420.057	538.88
420.28	550.88
420.503	546.88
420.726	548.88
420.948	539.88
421.171	577.88
421.394	586.88
421.617	545.88
421.839	536.88
422.062	542.88
422.285	536.88
422.507	596.88
422.73	650.88
422.953	607.88
423.175	574.88
423.398	534.88
423.621	548.88
423.843	570.88
424.066	570.88
424.288	583.88
424.511	613.88
424.733	625.88
424.956	706.88
425.178	658.88
425.401	644.88
425.623	694.88
425.846	608.88
426.068	560.88
426.291	527.88
426.513	551.88
426.735	543.88
426.958	565.88
427.18	635.88
427.402	774.88
427.625	855.88
427.847	725.88
428.069	639.88
428.292	594.88
428.514	549.88
428.736	522.88
428.958	508.88
429.181	495.88
429.403	495.88
429.625	514.88
429.847	554.88
430.069	613.88
430.292	600.88
430.514	521.88
430.736	508.88
430.958	515.88
431.18	488.88
431.402	487.88
431.624	472.88
431.846	488.88
432.068	473.88
432.29	500.88
432.512	471.88
432.734	508.88
432.956	508.88
433.178	510.88
433.4	488.88
433.622	513.88
433.844	478.88
434.066	490.88
434.287	507.88
434.509	506.88
434.731	522.88
434.953	524.88
435.175	536.88
435.397	544.88
435.618	577.88
435.84	578.88
436.062	658.88
436.284	720.88
436.505	599.88
436.727	551.88
436.949	530.88
437.17	513.88
437.392	498.88
437.614	527.88
437.835	519.88
438.057	618.88
438.278	707.88
438.5	726.88
438.721	805.88
438.943	754.88
439.165	602.88
439.386	548.88
439.608	537.88
439.829	584.88
440.05	576.88
440.272	588.88
440.493	575.88
440.715	537.88
440.936	520.88
441.158	495.88
441.379	521.88
441.6	547.88
441.822	529.88
442.043	581.88
442.264	672.88
442.486	722.88
442.707	624.88
442.928	571.88
443.149	572.88
443.371	597.88
443.592	628.88
443.813	714.88
444.034	784.88
444.255	644.88
444.476	586.88
444.698	576.88
444.919	577.88
445.14	662.88
445.361	598.88
445.582	613.88
445.803	644.88
446.024	726.88
446.245	726.88
446.466	682.88
446.687	575.88
446.908	543.88
447.129	531.88
447.35	478.88
447.571	504.88
447.792	495.88
448.013	511.88
448.234	516.88
448.455	556.88
448.675	677.88
448.896	768.88
449.117	651.88
449.338	601.88
449.559	725.88
449.779	834.88
450	638.88
450.221	538.88
450.442	489.88
450.662	491.88
450.883	475.88
451.104	506.88
451.324	497.88
451.545	487.88
451.766	487.88
451.986	466.88
452.207	454.88
452.428	430.88
452.648	452.88
452.869	449.88
453.089	436.88
453.31	472.88
453.53	454.88
453.751	434.88
453.971	443.88
454.192	454.88
454.412	455.88
454.633	452.88
454.853	431.88
455.073	449.88
455.294	467.88
455.514	515.88
455.734	516.88
455.955	441.88
456.175	442.88
456.395	448.88
456.616	450.88
456.836	420.88
457.056	424.88
457.276	416.88
457.497	426.88
457.717	441.88
457.937	459.88
458.157	450.88
458.377	439.88
458.598	456.88
458.818	516.88
459.038	558.88
459.258	587.88
459.478	507.88
459.698	493.88
459.918	500.88
460.138	477.88
460.358	525.88
460.578	483.88
460.798	514.88
461.018	541.88
461.238	522.88
461.458	530.88
461.678	514.88
461.898	508.88
462.118	503.88
462.338	521.88
462.558	534.88
462.777	535.88
462.997	545.88
463.217	597.88
463.437	592.88
463.657	589.88
463.876	547.88
464.096	561.88
464.316	550.88
464.536	553.88
464.755	545.88
464.975	553.88
465.195	561.88
465.414	611.88
465.634	516.88
465.854	515.88
466.073	491.88
466.293	489.88
466.512	465.88
466.732	479.88
466.951	474.88
467.171	486.88
467.391	468.88
467.61	478.88
467.829	479.88
468.049	474.88
468.268	489.88
468.488	475.88
468.707	467.88
468.927	461.88
469.146	466.88
469.365	467.88
469.585	452.88
469.804	455.88
470.023	503.88
470.243	487.88
470.462	467.88
470.681	456.88
470.901	484.88
471.12	478.88
471.339	470.88
471.558	469.88
471.777	479.88
471.997	478.88
472.216	469.88
472.435	508.88
472.654	500.88
472.873	451.88
473.092	473.88
473.311	448.88
473.53	462.88
473.749	467.88
473.968	525.88
474.187	584.88
474.406	613.88
474.625	486.88
474.844	492.88
475.063	481.88
475.282	480.88
475.501	482.88
475.72	475.88
475.939	467.88
476.158	473.88
476.377	494.88
476.596	468.88
476.814	481.88
477.033	499.88
477.252	486.88
477.471	506.88
477.69	498.88
477.908	507.88
478.127	532.88
478.346	530.88
478.564	543.88
478.783	546.88
479.002	552.88
479.22	560.88
479.439	554.88
479.658	596.88
479.876	563.88
480.095	583.88
480.313	614.88
480.532	603.88
480.751	588.88
480.969	604.88
481.188	627.88
481.406	638.88
481.624	608.88
481.843	550.88
482.061	554.88
482.28	573.88
482.498	562.88
482.717	543.88
482.935	538.88
483.153	558.88
483.372	567.88
483.59	539.88
483.808	553.88
484.027	568.88
484.245	574.88
484.463	562.88
484.681	575.88
484.9	565.88
485.118	545.88
485.336	573.88
485.554	584.88
485.772	584.88
485.99	580.88
486.209	594.88
486.427	570.88
486.645	598.88
486.863	580.88
487.081	594.88
487.299	602.88
487.517	617.88
487.735	608.88
487.953	619.88
488.171	590.88
488.389	592.88
488.607	594.88
488.825	601.88
489.043	598.88
489.261	603.88
489.479	596.88
489.696	603.88
489.914	616.88
490.132	593.88
490.35	626.88
490.568	640.88
490.786	648.88
491.003	637.88
491.221	666.88
491.439	668.88
491.657	676.88
491.874	662.88
492.092	696.88
492.31	708.88
492.527	708.88
492.745	682.88
492.963	704.88
493.18	686.88
493.398	732.88
493.615	707.88
493.833	724.88
494.05	737.88
494.268	691.88
494.485	705.88
494.703	715.88
494.92	691.88
495.138	690.88
495.355	686.88
495.573	703.88
495.79	704.88
496.008	716.88
496.225	705.88
496.442	700.88
496.66	698.88
496.877	716.88
497.094	706.88
497.312	706.88
497.529	745.88
497.746	735.88
497.963	745.88
498.181	779.88
498.398	814.88
498.615	830.88
498.832	833.88
499.049	826.88
499.267	881.88
499.484	904.88
499.701	950.88
499.918	975.88
500.135	1058.88
500.352	1136.88
500.569	1140.88
500.786	1135.88
501.003	1152.88
501.22	1079.88
501.437	996.88
501.654	998.88
501.871	934.88
502.088	883.88
502.305	866.88
502.522	836.88
502.739	834.88
502.956	767.88
503.172	779.88
503.389	729.88
503.606	722.88
503.823	742.88
504.04	728.88
504.256	722.88
504.473	713.88
504.69	700.88
504.907	687.88
505.123	692.88
505.34	684.88
505.557	670.88
505.773	668.88
505.99	664.88
506.207	667.88
506.423	668.88
506.64	656.88
506.856	640.88
507.073	650.88
507.289	650.88
507.506	622.88
507.722	644.88
507.939	656.88
508.155	637.88
508.372	635.88
508.588	613.88
508.805	626.88
509.021	625.88
509.238	613.88
509.454	638.88
509.67	614.88
509.887	604.88
510.103	613.88
510.319	616.88
510.536	648.88
510.752	918.88
510.968	784.88
511.184	599.88
511.401	579.88
511.617	595.88
511.833	571.88
512.049	558.88
512.265	579.88
512.481	584.88
512.698	569.88
512.914	582.88
513.13	572.88
513.346	564.88
513.562	573.88
513.778	584.88
513.994	570.88
514.21	554.88
514.426	583.88
514.642	630.88
514.858	631.88
515.074	655.88
515.29	711.88
515.506	895.88
515.721	831.88
515.937	664.88
516.153	626.88
516.369	632.88
516.585	612.88
516.801	583.88
517.016	615.88
517.232	616.88
517.448	626.88
517.664	616.88
517.879	622.88
518.095	654.88
518.311	630.88
518.527	613.88
518.742	618.88
518.958	613.88
519.173	598.88
519.389	605.88
519.605	591.88
519.82	613.88
520.036	586.88
520.251	596.88
520.467	587.88
520.682	580.88
520.898	591.88
521.113	603.88
521.329	634.88
521.544	668.88
521.76	775.88
521.975	1052.88
522.19	1076.88
522.406	704.88
522.621	602.88
522.836	555.88
523.052	543.88
523.267	548.88
523.482	542.88
523.698	529.88
523.913	538.88
524.128	538.88
524.343	501.88
524.559	534.88
524.774	500.88
524.989	508.88
525.204	532.88
525.419	516.88
525.634	495.88
525.849	511.88
526.064	514.88
526.28	499.88
526.495	494.88
526.71	484.88
526.925	471.88
527.14	474.88
527.355	507.88
527.57	495.88
527.785	472.88
527.999	514.88
528.214	484.88
528.429	493.88
528.644	483.88
528.859	494.88
529.074	473.88
529.289	487.88
529.503	528.88
529.718	535.88
529.933	484.88
530.148	510.88
530.363	487.88
530.577	480.88
530.792	480.88
531.007	462.88
531.221	481.88
531.436	452.88
531.651	463.88
531.865	461.88
532.08	480.88
532.295	490.88
532.509	474.88
532.724	484.88
532.938	464.88
533.153	470.88
533.367	467.88
533.582	479.88
533.796	458.88
534.011	462.88
534.225	457.88
534.44	448.88
534.654	483.88
534.868	460.88
535.083	458.88
535.297	470.88
535.511	471.88
535.726	451.88
535.94	467.88
536.154	458.88
536.369	462.88
536.583	440.88
536.797	446.88
537.011	455.88
537.225	436.88
537.44	445.88
537.654	446.88
537.868	439.88
538.082	445.88
538.296	445.88
538.51	446.88
538.724	475.88
538.938	435.88
539.153	433.88
539.367	464.88
539.581	445.88
539.795	449.88
540.009	433.88
540.222	451.88
540.436	455.88
540.65	455.88
540.864	451.88
541.078	457.88
541.292	454.88
541.506	467.88
541.72	451.88
541.934	457.88
542.147	461.88
542.361	452.88
542.575	454.88
542.789	442.88
543.002	431.88
543.216	444.88
543.43	464.88
543.644	448.88
543.857	444.88
544.071	458.88
544.285	452.88
544.498	474.88
544.712	463.88
544.925	457.88
545.139	439.88
545.352	459.88
545.566	463.88
545.779	449.88
545.993	434.88
546.206	441.88
546.42	454.88
546.633	473.88
546.847	422.88
547.06	450.88
547.274	463.88
547.487	438.88
547.7	446.88
547.914	426.88
548.127	446.88
548.34	453.88
548.554	455.88
548.767	463.88
548.98	469.88
549.193	459.88
549.407	442.88
549.62	453.88
549.833	455.88
550.046	435.88
550.259	431.88
550.473	426.88
550.686	448.88
550.899	427.88
551.112	445.88
551.325	430.88
551.538	438.88
551.751	435.88
551.964	430.88
552.177	471.88
552.39	423.88
552.603	457.88
552.816	432.88
553.029	459.88
553.242	457.88
553.455	452.88
553.667	459.88
553.88	471.88
554.093	458.88
554.306	456.88
554.519	459.88
554.732	441.88
554.944	423.88
555.157	415.88
555.37	427.88
555.583	424.88
555.795	428.88
556.008	420.88
556.221	398.88
556.433	412.88
556.646	412.88
556.859	394.88
557.071	408.88
557.284	407.88
557.496	396.88
557.709	403.88
557.921	405.88
558.134	400.88
558.346	392.88
558.559	400.88
558.771	414.88
558.984	399.88
559.196	413.88
559.409	407.88
559.621	396.88
559.833	390.88
560.046	391.88
560.258	379.88
560.47	382.88
560.683	404.88
560.895	393.88
561.107	402.88
561.32	382.88
561.532	391.88
561.744	390.88
561.956	387.88
562.168	400.88
562.381	392.88
562.593	418.88
562.805	409.88
563.017	425.88
563.229	418.88
563.441	412.88
563.653	396.88
563.865	380.88
564.077	421.88
564.289	407.88
564.501	404.88
564.713	413.88
564.925	426.88
565.137	405.88
565.349	436.88
565.561	432.88
565.773	427.88
565.985	430.88
566.197	478.88
566.408	482.88
566.62	508.88
566.832	522.88
567.044	520.88
567.255	524.88
567.467	531.88
567.679	556.88
567.891	550.88
568.102	556.88
568.314	532.88
568.526	505.88
568.737	479.88
568.949	457.88
569.161	458.88
569.372	449.88
569.584	427.88
569.795	428.88
570.007	423.88
570.218	432.88
570.43	425.88
570.641	422.88
570.853	374.88
571.064	388.88
571.276	377.88
571.487	394.88
571.698	367.88
571.91	369.88
572.121	366.88
572.333	364.88
572.544	384.88
572.755	372.88
572.966	351.88
573.178	338.88
573.389	345.88
573.6	366.88
573.811	344.88
574.023	360.88
574.234	346.88
574.445	335.88
574.656	339.88
574.867	333.88
575.078	355.88
575.289	355.88
575.501	361.88
575.712	329.88
575.923	347.88
576.134	324.88
576.345	327.88
576.556	330.88
576.767	334.88
576.978	347.88
577.188	346.88
577.399	332.88
577.61	329.88
577.821	337.88
578.032	336.88
578.243	366.88
578.454	445.88
578.665	361.88
578.875	326.88
579.086	333.88
579.297	310.88
579.508	330.88
579.718	310.88
579.929	331.88
580.14	323.88
580.35	320.88
580.561	312.88
580.772	327.88
580.982	322.88
581.193	323.88
581.403	314.88
581.614	304.88
581.825	300.88
582.035	294.88
582.246	323.88
582.456	304.88
582.667	320.88
582.877	291.88
583.087	306.88
583.298	296.88
583.508	326.88
583.719	311.88
583.929	320.88
584.139	320.88
584.35	315.88
584.56	297.88
584.77	287.88
584.981	304.88
585.191	311.88
585.401	316.88
585.611	312.88
585.821	308.88
586.032	305.88
586.242	299.88
586.452	297.88
586.662	299.88
586.872	312.88
587.082	298.88
587.292	304.88
587.502	302.88
587.713	287.88
587.923	319.88
588.133	305.88
588.343	291.88
588.553	294.88
588.762	306.88
588.972	290.88
589.182	308.88
589.392	295.88
589.602	298.88
589.812	302.88
590.022	309.88
590.232	290.88
590.441	301.88
590.651	318.88
590.861	278.88
591.071	299.88
591.281	302.88
591.49	297.88
591.7	298.88
591.91	306.88
592.119	302.88
592.329	323.88
592.539	322.88
592.748	332.88
592.958	325.88
593.167	335.88
593.377	341.88
593.587	340.88
593.796	353.88
594.006	347.88
594.215	322.88
594.424	313.88
594.634	334.88
594.843	314.88
595.053	311.88
595.262	285.88
595.472	297.88
595.681	304.88
595.89	322.88
596.1	295.88
596.309	286.88
596.518	293.88
596.727	299.88
596.937	283.88
597.146	296.88
597.355	283.88
597.564	277.88
597.774	276.88
597.983	270.88
598.192	273.88
598.401	273.88
598.61	272.88
598.819	271.88
599.028	263.88
599.237	279.88
599.446	270.88
599.655	283.88
599.864	267.88
600.073	256.88
600.282	264.88
600.491	276.88
600.7	261.88
600.909	278.88
601.118	272.88
601.327	248.88
601.536	268.88
601.745	254.88
601.953	247.88
602.162	267.88
602.371	263.88
602.58	229.88
602.789	254.88
602.997	250.88
603.206	259.88
603.415	271.88
603.623	252.88
603.832	262.88
604.041	256.88
604.249	246.88
604.458	247.88
604.666	228.88
604.875	235.88
605.084	245.88
605.292	242.88
605.501	247.88
605.709	270.88
605.918	249.88
606.126	250.88
606.334	256.88
606.543	255.88
606.751	232.88
606.96	246.88
607.168	253.88
607.376	243.88
607.585	242.88
607.793	223.88
608.001	256.88
608.21	242.88
608.418	234.88
608.626	251.88
608.834	253.88
609.043	248.88
609.251	235.88
609.459	247.88
609.667	235.88
609.875	247.88
610.083	246.88
610.291	248.88
610.499	246.88
610.707	255.88
610.916	258.88
611.124	248.88
611.332	264.88
611.54	257.88
611.748	242.88
611.955	250.88
612.163	217.88
612.371	230.88
612.579	244.88
612.787	225.88
612.995	253.88
613.203	247.88
613.411	258.88
613.618	245.88
613.826	241.88
614.034	250.88
614.242	225.88
614.449	241.88
614.657	238.88
614.865	231.88
615.072	256.88
615.28	256.88
615.488	257.88
615.695	243.88
615.903	227.88
616.111	228.88
616.318	248.88
616.526	231.88
616.733	260.88
616.941	253.88
617.148	235.88
617.356	244.88
617.563	246.88
617.771	226.88
617.978	232.88
618.185	243.88
618.393	233.88
618.6	252.88
618.807	238.88
619.015	235.88
619.222	244.88
619.429	240.88
619.637	241.88
619.844	234.88
620.051	219.88
620.258	219.88
620.466	209.88
620.673	214.88
620.88	219.88
621.087	227.88
621.294	242.88
621.501	239.88
621.708	210.88
621.915	230.88
622.122	230.88
622.329	236.88
622.536	231.88
622.743	235.88
622.95	219.88
623.157	227.88
623.364	218.88
623.571	233.88
623.778	223.88
623.985	231.88
624.192	228.88
624.399	222.88
624.606	210.88
624.812	218.88
625.019	207.88
625.226	201.88
625.433	228.88
625.639	215.88
625.846	207.88
626.053	199.88
626.259	217.88
626.466	221.88
626.673	219.88
626.879	214.88
627.086	215.88
627.293	203.88
627.499	215.88
627.706	215.88
627.912	215.88
628.119	200.88
628.325	214.88
628.532	215.88
628.738	224.88
628.945	214.88
629.151	218.88
629.357	194.88
629.564	188.88
629.77	209.88
629.976	202.88
630.183	204.88
630.389	213.88
630.595	190.88
630.802	179.88
631.008	197.88
631.214	198.88
631.42	214.88
631.627	203.88
631.833	208.88
632.039	185.88
632.245	190.88
632.451	187.88
632.657	190.88
632.863	198.88
633.069	185.88
633.275	188.88
633.481	166.88
633.688	201.88
633.893	185.88
634.099	203.88
634.305	189.88
634.511	207.88
634.717	200.88
634.923	187.88
635.129	178.88
635.335	171.88
635.541	184.88
635.747	201.88
635.952	182.88
636.158	194.88
636.364	183.88
636.57	188.88
636.775	176.88
636.981	183.88
637.187	178.88
637.392	171.88
637.598	194.88
637.804	177.88
638.009	166.88
638.215	201.88
638.421	171.88
638.626	172.88
638.832	178.88
639.037	170.88
639.243	169.88
639.448	181.88
639.654	178.88
639.859	162.88
640.065	174.88
640.27	178.88
640.475	174.88
640.681	173.88
640.886	182.88
641.091	169.88
641.297	185.88
641.502	191.88
641.707	164.88
641.913	170.88
642.118	149.88
642.323	164.88
642.528	169.88
642.733	182.88
642.939	184.88
643.144	160.88
643.349	163.88
643.554	170.88
643.759	189.88
643.964	174.88
644.169	175.88
644.374	171.88
644.579	163.88
644.784	185.88
644.989	178.88
645.194	177.88
645.399	168.88
645.604	167.88
645.809	185.88
646.014	174.88
646.219	178.88
646.423	168.88
646.628	170.88
646.833	178.88
647.038	168.88
647.243	163.88
647.447	163.88
647.652	184.88
647.857	163.88
648.062	176.88
648.266	166.88
648.471	167.88
648.676	183.88
648.88	175.88
649.085	178.88
649.289	170.88
649.494	177.88
649.698	196.88
649.903	193.88
650.107	153.88
650.312	185.88
650.516	177.88
650.721	142.88
650.925	156.88
651.13	148.88
651.334	161.88
651.539	143.88
651.743	141.88
651.947	166.88
652.152	156.88
652.356	141.88
652.56	150.88
652.764	145.88
652.969	145.88
653.173	158.88
653.377	135.88
653.581	131.88
653.785	136.88
653.99	145.88
654.194	137.88
654.398	134.88
654.602	144.88
654.806	130.88
655.01	152.88
655.214	134.88
655.418	145.88
655.622	136.88
655.826	148.88
656.03	142.88
656.234	141.88
656.438	149.88
656.642	129.88
656.846	140.88
657.049	143.88
657.253	147.88
657.457	132.88
657.661	104.88
657.865	118.88
658.068	110.88
658.272	117.88
658.476	118.88
658.68	114.88
658.883	112.88
659.087	104.88
659.291	111.88
659.494	110.88
659.698	86.88
659.901	94.88
660.105	87.88
660.309	115.88
660.512	84.88
660.716	86.88
660.919	96.88
661.123	91.88
661.326	82.88
661.53	101.88
661.733	82.88
661.936	100.88
662.14	88.88
662.343	82.88
662.546	76.88
662.75	87.88
662.953	69.88
663.156	82.88
663.36	81.88
663.563	59.88
663.766	97.88
663.969	70.88
664.173	75.88
664.376	91.88
664.579	94.88
664.782	81.88
664.985	85.88
665.188	78.88
665.391	91.88
665.594	85.88
665.797	80.88
666	75.88
666.203	83.88
666.406	72.88
666.609	78.88
666.812	72.88
667.015	87.88
667.218	77.88
667.421	72.88
667.624	65.88
667.827	78.88
668.03	79.88
668.232	65.88
668.435	81.88
668.638	75.88
668.841	74.88
669.043	78.88
669.246	77.88
669.449	70.88
669.651	87.88
669.854	80.88
670.057	82.88
670.259	80.88
670.462	76.88
670.665	73.88
670.867	82.88
671.07	84.88
671.272	81.88
671.475	92.88
671.677	82.88
671.88	83.88
672.082	73.88
672.284	84.88
672.487	98.88
672.689	74.88
672.892	70.88
