Data from 1975.PennyLincolnUp.Lamp.En5.5.200Scan.071719.P1.Changed Mount._HRD10591_15-56-49-859.txt Node
Date: Thu Jul 18 15:56:49 EDT 2019
User: cochatt
Spectrometer: HR+D1059
Trigger mode: 1
Integration Time (sec): 1.000000E-1
Scans to average: 1
Electric dark correction enabled: true
Nonlinearity correction enabled: false
Boxcar width: 0
XAxis mode: Wavelengths
Number of Pixels in Spectrum: 2048
>>>>>Begin Spectral Data<<<<<
223.165	-23.75
223.4	-23.75
223.635	-23.75
223.869	-27.75
224.104	-12.75
224.338	-21.75
224.573	-3.75
224.808	1.25
225.042	-7.75
225.277	-18.75
225.511	5.25
225.746	-9.75
225.98	9.25
226.215	11.25
226.449	11.25
226.683	21.25
226.918	38.25
227.152	28.25
227.387	36.25
227.621	38.25
227.856	50.25
228.09	39.25
228.324	54.25
228.559	50.25
228.793	71.25
229.027	94.25
229.262	111.25
229.496	120.25
229.73	123.25
229.964	141.25
230.199	117.25
230.433	123.25
230.667	113.25
230.901	109.25
231.136	94.25
231.37	109.25
231.604	126.25
231.838	116.25
232.072	109.25
232.306	108.25
232.541	106.25
232.775	112.25
233.009	111.25
233.243	122.25
233.477	120.25
233.711	113.25
233.945	125.25
234.179	124.25
234.413	113.25
234.647	133.25
234.881	128.25
235.115	108.25
235.349	116.25
235.583	138.25
235.817	135.25
236.051	133.25
236.285	136.25
236.519	132.25
236.753	130.25
236.987	140.25
237.221	182.25
237.455	219.25
237.689	184.25
237.922	134.25
238.156	137.25
238.39	138.25
238.624	127.25
238.858	138.25
239.091	139.25
239.325	131.25
239.559	118.25
239.793	122.25
240.027	123.25
240.26	149.25
240.494	171.25
240.728	164.25
240.961	149.25
241.195	145.25
241.429	127.25
241.662	125.25
241.896	127.25
242.13	139.25
242.363	142.25
242.597	151.25
242.83	150.25
243.064	153.25
243.298	137.25
243.531	147.25
243.765	134.25
243.998	144.25
244.232	136.25
244.465	151.25
244.699	152.25
244.932	150.25
245.166	145.25
245.399	154.25
245.633	144.25
245.866	153.25
246.099	176.25
246.333	154.25
246.566	143.25
246.8	141.25
247.033	163.25
247.266	158.25
247.5	156.25
247.733	157.25
247.966	161.25
248.2	190.25
248.433	198.25
248.666	181.25
248.899	203.25
249.133	206.25
249.366	212.25
249.599	220.25
249.832	194.25
250.066	193.25
250.299	178.25
250.532	197.25
250.765	212.25
250.998	236.25
251.231	239.25
251.465	216.25
251.698	205.25
251.931	220.25
252.164	197.25
252.397	219.25
252.63	204.25
252.863	203.25
253.096	223.25
253.329	237.25
253.562	223.25
253.795	219.25
254.028	225.25
254.261	198.25
254.494	231.25
254.727	246.25
254.96	300.25
255.193	268.25
255.426	268.25
255.659	239.25
255.892	244.25
256.124	242.25
256.357	235.25
256.59	229.25
256.823	232.25
257.056	210.25
257.289	228.25
257.521	220.25
257.754	219.25
257.987	212.25
258.22	219.25
258.452	222.25
258.685	204.25
258.918	225.25
259.151	245.25
259.383	223.25
259.616	209.25
259.849	239.25
260.081	246.25
260.314	265.25
260.547	264.25
260.779	238.25
261.012	213.25
261.244	237.25
261.477	233.25
261.71	226.25
261.942	239.25
262.175	238.25
262.407	245.25
262.64	218.25
262.872	207.25
263.105	207.25
263.337	217.25
263.57	216.25
263.802	210.25
264.035	216.25
264.267	222.25
264.499	231.25
264.732	221.25
264.964	237.25
265.197	241.25
265.429	216.25
265.661	198.25
265.894	228.25
266.126	233.25
266.358	245.25
266.591	236.25
266.823	230.25
267.055	227.25
267.287	238.25
267.52	244.25
267.752	239.25
267.984	234.25
268.216	234.25
268.448	230.25
268.681	263.25
268.913	264.25
269.145	253.25
269.377	295.25
269.609	242.25
269.841	260.25
270.073	290.25
270.306	299.25
270.538	315.25
270.77	316.25
271.002	316.25
271.234	287.25
271.466	306.25
271.698	319.25
271.93	323.25
272.162	320.25
272.394	313.25
272.626	321.25
272.858	286.25
273.09	275.25
273.322	278.25
273.553	294.25
273.785	276.25
274.017	293.25
274.249	279.25
274.481	269.25
274.713	272.25
274.945	290.25
275.176	282.25
275.408	273.25
275.64	284.25
275.872	261.25
276.104	287.25
276.335	290.25
276.567	294.25
276.799	297.25
277.031	306.25
277.262	320.25
277.494	335.25
277.726	317.25
277.957	292.25
278.189	291.25
278.421	274.25
278.652	291.25
278.884	282.25
279.115	266.25
279.347	265.25
279.579	284.25
279.81	284.25
280.042	276.25
280.273	284.25
280.505	286.25
280.736	280.25
280.968	296.25
281.199	275.25
281.431	271.25
281.662	292.25
281.894	286.25
282.125	287.25
282.356	282.25
282.588	307.25
282.819	301.25
283.051	310.25
283.282	295.25
283.513	313.25
283.745	291.25
283.976	294.25
284.207	288.25
284.439	310.25
284.67	285.25
284.901	283.25
285.132	300.25
285.364	307.25
285.595	293.25
285.826	301.25
286.057	281.25
286.288	299.25
286.52	295.25
286.751	309.25
286.982	298.25
287.213	314.25
287.444	283.25
287.675	307.25
287.906	333.25
288.138	305.25
288.369	326.25
288.6	313.25
288.831	334.25
289.062	301.25
289.293	298.25
289.524	316.25
289.755	331.25
289.986	305.25
290.217	311.25
290.448	303.25
290.679	306.25
290.91	298.25
291.141	295.25
291.371	306.25
291.602	303.25
291.833	316.25
292.064	315.25
292.295	321.25
292.526	302.25
292.757	299.25
292.987	309.25
293.218	307.25
293.449	314.25
293.68	307.25
293.91	317.25
294.141	320.25
294.372	319.25
294.603	300.25
294.833	319.25
295.064	314.25
295.295	308.25
295.525	299.25
295.756	318.25
295.987	330.25
296.217	324.25
296.448	338.25
296.679	329.25
296.909	318.25
297.14	317.25
297.37	319.25
297.601	330.25
297.831	330.25
298.062	312.25
298.292	340.25
298.523	314.25
298.753	329.25
298.984	332.25
299.214	304.25
299.445	337.25
299.675	330.25
299.905	330.25
300.136	331.25
300.366	332.25
300.597	329.25
300.827	357.25
301.057	341.25
301.288	343.25
301.518	347.25
301.748	345.25
301.979	340.25
302.209	340.25
302.439	333.25
302.669	362.25
302.9	363.25
303.13	349.25
303.36	350.25
303.59	343.25
303.82	349.25
304.051	350.25
304.281	348.25
304.511	339.25
304.741	343.25
304.971	335.25
305.201	340.25
305.431	339.25
305.661	334.25
305.891	353.25
306.121	356.25
306.352	349.25
306.582	349.25
306.812	347.25
307.042	359.25
307.272	345.25
307.502	346.25
307.731	377.25
307.961	341.25
308.191	338.25
308.421	350.25
308.651	359.25
308.881	352.25
309.111	345.25
309.341	355.25
309.571	355.25
309.8	364.25
310.03	394.25
310.26	378.25
310.49	380.25
310.72	377.25
310.949	380.25
311.179	384.25
311.409	377.25
311.639	363.25
311.868	380.25
312.098	384.25
312.328	382.25
312.557	405.25
312.787	396.25
313.017	386.25
313.246	408.25
313.476	381.25
313.706	389.25
313.935	395.25
314.165	382.25
314.394	396.25
314.624	397.25
314.853	384.25
315.083	383.25
315.312	390.25
315.542	379.25
315.771	369.25
316.001	383.25
316.23	371.25
316.46	376.25
316.689	377.25
316.919	388.25
317.148	396.25
317.377	411.25
317.607	378.25
317.836	397.25
318.065	394.25
318.295	385.25
318.524	396.25
318.753	379.25
318.983	389.25
319.212	390.25
319.441	389.25
319.67	393.25
319.9	381.25
320.129	376.25
320.358	388.25
320.587	408.25
320.816	389.25
321.046	400.25
321.275	404.25
321.504	392.25
321.733	393.25
321.962	420.25
322.191	422.25
322.42	424.25
322.649	416.25
322.878	431.25
323.108	458.25
323.337	444.25
323.566	490.25
323.795	489.25
324.024	522.25
324.253	601.25
324.482	806.25
324.71	1192.25
324.939	1819.25
325.168	1579.25
325.397	819.25
325.626	568.25
325.855	496.25
326.084	490.25
326.313	480.25
326.542	460.25
326.77	505.25
326.999	560.25
327.228	776.25
327.457	1116.25
327.686	1372.25
327.914	942.25
328.143	646.25
328.372	563.25
328.6	537.25
328.829	522.25
329.058	528.25
329.287	534.25
329.515	500.25
329.744	503.25
329.972	485.25
330.201	521.25
330.43	539.25
330.658	573.25
330.887	550.25
331.115	534.25
331.344	514.25
331.572	478.25
331.801	468.25
332.03	486.25
332.258	455.25
332.486	464.25
332.715	489.25
332.943	462.25
333.172	484.25
333.4	468.25
333.629	491.25
333.857	522.25
334.085	495.25
334.314	523.25
334.542	552.25
334.771	579.25
334.999	533.25
335.227	504.25
335.455	489.25
335.684	502.25
335.912	482.25
336.14	462.25
336.369	469.25
336.597	476.25
336.825	470.25
337.053	480.25
337.281	445.25
337.51	447.25
337.738	466.25
337.966	450.25
338.194	469.25
338.422	460.25
338.65	451.25
338.878	451.25
339.106	432.25
339.334	448.25
339.562	470.25
339.79	450.25
340.018	435.25
340.246	425.25
340.474	446.25
340.702	443.25
340.93	455.25
341.158	439.25
341.386	439.25
341.614	469.25
341.842	434.25
342.07	444.25
342.298	458.25
342.526	427.25
342.754	438.25
342.981	452.25
343.209	452.25
343.437	454.25
343.665	475.25
343.893	478.25
344.12	487.25
344.348	474.25
344.576	461.25
344.804	449.25
345.031	448.25
345.259	457.25
345.487	442.25
345.714	458.25
345.942	429.25
346.17	437.25
346.397	420.25
346.625	438.25
346.853	428.25
347.08	404.25
347.308	428.25
347.535	432.25
347.763	428.25
347.99	414.25
348.218	443.25
348.445	428.25
348.673	434.25
348.9	434.25
349.128	431.25
349.355	418.25
349.583	420.25
349.81	428.25
350.037	446.25
350.265	422.25
350.492	420.25
350.72	415.25
350.947	432.25
351.174	443.25
351.402	445.25
351.629	423.25
351.856	412.25
352.083	438.25
352.311	452.25
352.538	453.25
352.765	450.25
352.992	433.25
353.22	407.25
353.447	408.25
353.674	417.25
353.901	424.25
354.128	407.25
354.355	401.25
354.583	417.25
354.81	395.25
355.037	401.25
355.264	393.25
355.491	410.25
355.718	424.25
355.945	423.25
356.172	404.25
356.399	418.25
356.626	418.25
356.853	429.25
357.08	408.25
357.307	427.25
357.534	410.25
357.761	408.25
357.988	439.25
358.215	402.25
358.441	407.25
358.668	410.25
358.895	406.25
359.122	418.25
359.349	422.25
359.576	424.25
359.802	428.25
360.029	460.25
360.256	458.25
360.483	441.25
360.709	445.25
360.936	431.25
361.163	431.25
361.39	431.25
361.616	417.25
361.843	425.25
362.07	449.25
362.296	431.25
362.523	436.25
362.749	415.25
362.976	420.25
363.203	432.25
363.429	431.25
363.656	420.25
363.882	385.25
364.109	417.25
364.335	429.25
364.562	423.25
364.788	426.25
365.015	410.25
365.241	411.25
365.468	418.25
365.694	414.25
365.92	420.25
366.147	422.25
366.373	413.25
366.599	431.25
366.826	421.25
367.052	415.25
367.278	418.25
367.505	425.25
367.731	422.25
367.957	425.25
368.184	411.25
368.41	410.25
368.636	426.25
368.862	430.25
369.089	420.25
369.315	415.25
369.541	437.25
369.767	426.25
369.993	419.25
370.219	422.25
370.445	429.25
370.672	423.25
370.898	418.25
371.124	406.25
371.35	415.25
371.576	423.25
371.802	437.25
372.028	422.25
372.254	443.25
372.48	434.25
372.706	439.25
372.932	437.25
373.158	432.25
373.384	440.25
373.61	430.25
373.835	411.25
374.061	431.25
374.287	419.25
374.513	439.25
374.739	399.25
374.965	420.25
375.191	444.25
375.416	420.25
375.642	440.25
375.868	444.25
376.094	431.25
376.319	436.25
376.545	422.25
376.771	427.25
376.997	435.25
377.222	447.25
377.448	421.25
377.674	439.25
377.899	425.25
378.125	415.25
378.35	429.25
378.576	426.25
378.802	427.25
379.027	422.25
379.253	416.25
379.478	422.25
379.704	435.25
379.929	443.25
380.155	445.25
380.38	420.25
380.606	412.25
380.831	441.25
381.057	431.25
381.282	438.25
381.507	457.25
381.733	437.25
381.958	420.25
382.184	436.25
382.409	448.25
382.634	444.25
382.86	442.25
383.085	439.25
383.31	436.25
383.535	438.25
383.761	466.25
383.986	457.25
384.211	476.25
384.436	485.25
384.662	452.25
384.887	473.25
385.112	468.25
385.337	474.25
385.562	472.25
385.787	475.25
386.013	498.25
386.238	517.25
386.463	483.25
386.688	467.25
386.913	464.25
387.138	486.25
387.363	480.25
387.588	486.25
387.813	471.25
388.038	471.25
388.263	483.25
388.488	488.25
388.713	468.25
388.938	475.25
389.163	509.25
389.387	489.25
389.612	471.25
389.837	474.25
390.062	499.25
390.287	469.25
390.512	463.25
390.736	464.25
390.961	478.25
391.186	496.25
391.411	478.25
391.636	499.25
391.86	493.25
392.085	506.25
392.31	518.25
392.534	492.25
392.759	502.25
392.984	497.25
393.208	505.25
393.433	486.25
393.658	490.25
393.882	493.25
394.107	484.25
394.331	478.25
394.556	471.25
394.78	479.25
395.005	506.25
395.229	514.25
395.454	503.25
395.678	506.25
395.903	519.25
396.127	537.25
396.352	522.25
396.576	521.25
396.801	509.25
397.025	501.25
397.249	498.25
397.474	518.25
397.698	520.25
397.922	547.25
398.147	539.25
398.371	553.25
398.595	545.25
398.82	540.25
399.044	549.25
399.268	599.25
399.492	644.25
399.717	666.25
399.941	709.25
400.165	721.25
400.389	692.25
400.613	627.25
400.837	590.25
401.062	570.25
401.286	579.25
401.51	563.25
401.734	551.25
401.958	578.25
402.182	567.25
402.406	578.25
402.63	547.25
402.854	574.25
403.078	572.25
403.302	607.25
403.526	568.25
403.75	592.25
403.974	616.25
404.198	615.25
404.422	578.25
404.645	605.25
404.869	588.25
405.093	653.25
405.317	670.25
405.541	718.25
405.765	629.25
405.988	614.25
406.212	616.25
406.436	637.25
406.66	607.25
406.883	598.25
407.107	645.25
407.331	712.25
407.555	787.25
407.778	747.25
408.002	702.25
408.226	667.25
408.449	649.25
408.673	612.25
408.896	666.25
409.12	706.25
409.344	657.25
409.567	632.25
409.791	615.25
410.014	579.25
410.238	613.25
410.461	592.25
410.685	593.25
410.908	592.25
411.132	626.25
411.355	646.25
411.578	639.25
411.802	588.25
412.025	591.25
412.249	603.25
412.472	620.25
412.695	649.25
412.919	632.25
413.142	596.25
413.365	581.25
413.589	574.25
413.812	569.25
414.035	573.25
414.258	565.25
414.482	547.25
414.705	538.25
414.928	573.25
415.151	552.25
415.374	550.25
415.597	561.25
415.821	544.25
416.044	538.25
416.267	562.25
416.49	552.25
416.713	559.25
416.936	558.25
417.159	569.25
417.382	554.25
417.605	582.25
417.828	567.25
418.051	577.25
418.274	575.25
418.497	570.25
418.72	574.25
418.943	567.25
419.166	588.25
419.389	603.25
419.611	626.25
419.834	595.25
420.057	601.25
420.28	582.25
420.503	588.25
420.726	570.25
420.948	584.25
421.171	652.25
421.394	665.25
421.617	604.25
421.839	558.25
422.062	589.25
422.285	582.25
422.507	650.25
422.73	730.25
422.953	702.25
423.175	601.25
423.398	594.25
423.621	619.25
423.843	629.25
424.066	609.25
424.288	616.25
424.511	650.25
424.733	690.25
424.956	798.25
425.178	728.25
425.401	725.25
425.623	759.25
425.846	644.25
426.068	600.25
426.291	616.25
426.513	601.25
426.735	597.25
426.958	651.25
427.18	727.25
427.402	892.25
427.625	947.25
427.847	795.25
428.069	718.25
428.292	638.25
428.514	592.25
428.736	598.25
428.958	579.25
429.181	571.25
429.403	558.25
429.625	555.25
429.847	604.25
430.069	663.25
430.292	676.25
430.514	583.25
430.736	553.25
430.958	544.25
431.18	541.25
431.402	522.25
431.624	523.25
431.846	515.25
432.068	517.25
432.29	535.25
432.512	527.25
432.734	546.25
432.956	540.25
433.178	564.25
433.4	542.25
433.622	522.25
433.844	514.25
434.066	528.25
434.287	515.25
434.509	534.25
434.731	572.25
434.953	567.25
435.175	581.25
435.397	631.25
435.618	619.25
435.84	631.25
436.062	714.25
436.284	802.25
436.505	650.25
436.727	591.25
436.949	578.25
437.17	558.25
437.392	563.25
437.614	554.25
437.835	580.25
438.057	674.25
438.278	798.25
438.5	780.25
438.721	848.25
438.943	816.25
439.165	666.25
439.386	593.25
439.608	596.25
439.829	588.25
440.05	621.25
440.272	651.25
440.493	640.25
440.715	559.25
440.936	572.25
441.158	572.25
441.379	574.25
441.6	604.25
441.822	605.25
442.043	638.25
442.264	722.25
442.486	782.25
442.707	676.25
442.928	628.25
443.149	633.25
443.371	660.25
443.592	684.25
443.813	812.25
444.034	845.25
444.255	711.25
444.476	647.25
444.698	642.25
444.919	635.25
445.14	741.25
445.361	684.25
445.582	672.25
445.803	717.25
446.024	784.25
446.245	806.25
446.466	754.25
446.687	640.25
446.908	599.25
447.129	568.25
447.35	569.25
447.571	548.25
447.792	542.25
448.013	551.25
448.234	554.25
448.455	601.25
448.675	733.25
448.896	830.25
449.117	717.25
449.338	685.25
449.559	761.25
449.779	891.25
450	736.25
450.221	597.25
450.442	559.25
450.662	550.25
450.883	547.25
451.104	549.25
451.324	525.25
451.545	518.25
451.766	523.25
451.986	490.25
452.207	481.25
452.428	482.25
452.648	500.25
452.869	487.25
453.089	512.25
453.31	494.25
453.53	516.25
453.751	491.25
453.971	481.25
454.192	495.25
454.412	478.25
454.633	485.25
454.853	490.25
455.073	482.25
455.294	517.25
455.514	591.25
455.734	566.25
455.955	494.25
456.175	487.25
456.395	444.25
456.616	454.25
456.836	461.25
457.056	462.25
457.276	433.25
457.497	463.25
457.717	448.25
457.937	465.25
458.157	504.25
458.377	491.25
458.598	526.25
458.818	550.25
459.038	623.25
459.258	630.25
459.478	548.25
459.698	526.25
459.918	544.25
460.138	536.25
460.358	527.25
460.578	541.25
460.798	571.25
461.018	571.25
461.238	558.25
461.458	563.25
461.678	536.25
461.898	573.25
462.118	567.25
462.338	572.25
462.558	587.25
462.777	586.25
462.997	614.25
463.217	632.25
463.437	654.25
463.657	620.25
463.876	607.25
464.096	597.25
464.316	600.25
464.536	600.25
464.755	578.25
464.975	610.25
465.195	618.25
465.414	651.25
465.634	591.25
465.854	545.25
466.073	524.25
466.293	536.25
466.512	512.25
466.732	526.25
466.951	522.25
467.171	495.25
467.391	510.25
467.61	529.25
467.829	517.25
468.049	515.25
468.268	505.25
468.488	496.25
468.707	493.25
468.927	504.25
469.146	507.25
469.365	515.25
469.585	518.25
469.804	492.25
470.023	522.25
470.243	530.25
470.462	546.25
470.681	542.25
470.901	533.25
471.12	525.25
471.339	491.25
471.558	527.25
471.777	506.25
471.997	506.25
472.216	526.25
472.435	549.25
472.654	524.25
472.873	518.25
473.092	527.25
473.311	511.25
473.53	484.25
473.749	497.25
473.968	538.25
474.187	649.25
474.406	677.25
474.625	582.25
474.844	518.25
475.063	538.25
475.282	532.25
475.501	520.25
475.72	538.25
475.939	550.25
476.158	541.25
476.377	544.25
476.596	524.25
476.814	542.25
477.033	547.25
477.252	542.25
477.471	528.25
477.69	568.25
477.908	578.25
478.127	568.25
478.346	571.25
478.564	583.25
478.783	583.25
479.002	599.25
479.22	612.25
479.439	599.25
479.658	611.25
479.876	608.25
480.095	642.25
480.313	666.25
480.532	642.25
480.751	646.25
480.969	655.25
481.188	697.25
481.406	704.25
481.624	664.25
481.843	626.25
482.061	637.25
482.28	628.25
482.498	606.25
482.717	610.25
482.935	598.25
483.153	595.25
483.372	607.25
483.59	624.25
483.808	649.25
484.027	621.25
484.245	589.25
484.463	627.25
484.681	622.25
484.9	600.25
485.118	603.25
485.336	612.25
485.554	627.25
485.772	642.25
485.99	613.25
486.209	650.25
486.427	614.25
486.645	607.25
486.863	638.25
487.081	664.25
487.299	642.25
487.517	656.25
487.735	651.25
487.953	658.25
488.171	646.25
488.389	647.25
488.607	659.25
488.825	647.25
489.043	660.25
489.261	663.25
489.479	662.25
489.696	666.25
489.914	684.25
490.132	678.25
490.35	675.25
490.568	719.25
490.786	702.25
491.003	728.25
491.221	717.25
491.439	687.25
491.657	746.25
491.874	761.25
492.092	770.25
492.31	770.25
492.527	765.25
492.745	760.25
492.963	747.25
493.18	778.25
493.398	766.25
493.615	783.25
493.833	737.25
494.05	746.25
494.268	791.25
494.485	792.25
494.703	782.25
494.92	785.25
495.138	775.25
495.355	762.25
495.573	801.25
495.79	746.25
496.008	748.25
496.225	753.25
496.442	764.25
496.66	800.25
496.877	766.25
497.094	807.25
497.312	788.25
497.529	815.25
497.746	840.25
497.963	831.25
498.181	853.25
498.398	869.25
498.615	867.25
498.832	899.25
499.049	928.25
499.267	955.25
499.484	1023.25
499.701	1074.25
499.918	1080.25
500.135	1144.25
500.352	1216.25
500.569	1240.25
500.786	1223.25
501.003	1199.25
501.22	1176.25
501.437	1093.25
501.654	1070.25
501.871	1015.25
502.088	991.25
502.305	957.25
502.522	915.25
502.739	885.25
502.956	865.25
503.172	818.25
503.389	824.25
503.606	823.25
503.823	805.25
504.04	799.25
504.256	812.25
504.473	782.25
504.69	786.25
504.907	774.25
505.123	792.25
505.34	751.25
505.557	740.25
505.773	749.25
505.99	742.25
506.207	738.25
506.423	727.25
506.64	729.25
506.856	709.25
507.073	705.25
507.289	698.25
507.506	694.25
507.722	709.25
507.939	704.25
508.155	714.25
508.372	686.25
508.588	678.25
508.805	697.25
509.021	680.25
509.238	708.25
509.454	705.25
509.67	682.25
509.887	660.25
510.103	672.25
510.319	642.25
510.536	758.25
510.752	1060.25
510.968	912.25
511.184	675.25
511.401	634.25
511.617	648.25
511.833	660.25
512.049	644.25
512.265	635.25
512.481	622.25
512.698	639.25
512.914	638.25
513.13	627.25
513.346	620.25
513.562	638.25
513.778	665.25
513.994	656.25
514.21	662.25
514.426	644.25
514.642	681.25
514.858	700.25
515.074	714.25
515.29	803.25
515.506	1059.25
515.721	941.25
515.937	717.25
516.153	670.25
516.369	704.25
516.585	671.25
516.801	675.25
517.016	673.25
517.232	691.25
517.448	699.25
517.664	692.25
517.879	688.25
518.095	692.25
518.311	696.25
518.527	649.25
518.742	666.25
518.958	666.25
519.173	650.25
519.389	639.25
519.605	655.25
519.82	652.25
520.036	652.25
520.251	643.25
520.467	671.25
520.682	670.25
520.898	647.25
521.113	670.25
521.329	665.25
521.544	792.25
521.76	896.25
521.975	1325.25
522.19	1280.25
522.406	795.25
522.621	648.25
522.836	638.25
523.052	617.25
523.267	602.25
523.482	591.25
523.698	567.25
523.913	558.25
524.128	608.25
524.343	579.25
524.559	535.25
524.774	548.25
524.989	556.25
525.204	569.25
525.419	558.25
525.634	540.25
525.849	565.25
526.064	533.25
526.28	553.25
526.495	534.25
526.71	545.25
526.925	550.25
527.14	543.25
527.355	528.25
527.57	559.25
527.785	528.25
527.999	542.25
528.214	517.25
528.429	539.25
528.644	503.25
528.859	536.25
529.074	504.25
529.289	565.25
529.503	565.25
529.718	618.25
529.933	559.25
530.148	560.25
530.363	542.25
530.577	517.25
530.792	509.25
531.007	527.25
531.221	533.25
531.436	526.25
531.651	532.25
531.865	528.25
532.08	498.25
532.295	517.25
532.509	516.25
532.724	501.25
532.938	538.25
533.153	516.25
533.367	514.25
533.582	527.25
533.796	524.25
534.011	520.25
534.225	511.25
534.44	494.25
534.654	494.25
534.868	501.25
535.083	495.25
535.297	504.25
535.511	511.25
535.726	511.25
535.94	524.25
536.154	506.25
536.369	508.25
536.583	511.25
536.797	508.25
537.011	499.25
537.225	490.25
537.44	495.25
537.654	489.25
537.868	492.25
538.082	490.25
538.296	495.25
538.51	502.25
538.724	493.25
538.938	502.25
539.153	508.25
539.367	498.25
539.581	506.25
539.795	483.25
540.009	479.25
540.222	506.25
540.436	501.25
540.65	503.25
540.864	481.25
541.078	491.25
541.292	460.25
541.506	508.25
541.72	461.25
541.934	490.25
542.147	498.25
542.361	475.25
542.575	503.25
542.789	476.25
543.002	468.25
543.216	492.25
543.43	501.25
543.644	494.25
543.857	502.25
544.071	514.25
544.285	519.25
544.498	480.25
544.712	498.25
544.925	491.25
545.139	496.25
545.352	489.25
545.566	481.25
545.779	501.25
545.993	485.25
546.206	493.25
546.42	483.25
546.633	478.25
546.847	482.25
547.06	496.25
547.274	468.25
547.487	495.25
547.7	504.25
547.914	472.25
548.127	472.25
548.34	487.25
548.554	477.25
548.767	483.25
548.98	477.25
549.193	479.25
549.407	478.25
549.62	476.25
549.833	485.25
550.046	490.25
550.259	477.25
550.473	492.25
550.686	486.25
550.899	480.25
551.112	465.25
551.325	475.25
551.538	487.25
551.751	455.25
551.964	464.25
552.177	478.25
552.39	474.25
552.603	489.25
552.816	502.25
553.029	489.25
553.242	501.25
553.455	505.25
553.667	510.25
553.88	510.25
554.093	487.25
554.306	492.25
554.519	476.25
554.732	493.25
554.944	493.25
555.157	473.25
555.37	475.25
555.583	453.25
555.795	453.25
556.008	438.25
556.221	447.25
556.433	439.25
556.646	442.25
556.859	439.25
557.071	466.25
557.284	437.25
557.496	426.25
557.709	426.25
557.921	423.25
558.134	427.25
558.346	421.25
558.559	438.25
558.771	419.25
558.984	430.25
559.196	421.25
559.409	422.25
559.621	420.25
559.833	417.25
560.046	396.25
560.258	409.25
560.47	419.25
560.683	426.25
560.895	408.25
561.107	415.25
561.32	418.25
561.532	434.25
561.744	425.25
561.956	429.25
562.168	419.25
562.381	428.25
562.593	436.25
562.805	441.25
563.017	436.25
563.229	438.25
563.441	423.25
563.653	470.25
563.865	430.25
564.077	419.25
564.289	415.25
564.501	467.25
564.713	436.25
564.925	456.25
565.137	479.25
565.349	471.25
565.561	475.25
565.773	464.25
565.985	493.25
566.197	483.25
566.408	521.25
566.62	558.25
566.832	545.25
567.044	568.25
567.255	552.25
567.467	562.25
567.679	580.25
567.891	566.25
568.102	595.25
568.314	594.25
568.526	553.25
568.737	524.25
568.949	487.25
569.161	491.25
569.372	479.25
569.584	472.25
569.795	462.25
570.007	465.25
570.218	454.25
570.43	442.25
570.641	438.25
570.853	418.25
571.064	417.25
571.276	429.25
571.487	425.25
571.698	406.25
571.91	380.25
572.121	389.25
572.333	398.25
572.544	383.25
572.755	392.25
572.966	383.25
573.178	372.25
573.389	381.25
573.6	357.25
573.811	381.25
574.023	366.25
574.234	374.25
574.445	368.25
574.656	365.25
574.867	373.25
575.078	380.25
575.289	352.25
575.501	365.25
575.712	363.25
575.923	355.25
576.134	360.25
576.345	351.25
576.556	359.25
576.767	353.25
576.978	369.25
577.188	350.25
577.399	340.25
577.61	338.25
577.821	359.25
578.032	355.25
578.243	363.25
578.454	489.25
578.665	419.25
578.875	348.25
579.086	357.25
579.297	344.25
579.508	359.25
579.718	329.25
579.929	345.25
580.14	327.25
580.35	346.25
580.561	342.25
580.772	335.25
580.982	327.25
581.193	346.25
581.403	339.25
581.614	342.25
581.825	339.25
582.035	327.25
582.246	306.25
582.456	333.25
582.667	322.25
582.877	301.25
583.087	325.25
583.298	334.25
583.508	309.25
583.719	319.25
583.929	329.25
584.139	319.25
584.35	326.25
584.56	332.25
584.77	334.25
584.981	325.25
585.191	329.25
585.401	329.25
585.611	314.25
585.821	327.25
586.032	306.25
586.242	316.25
586.452	324.25
586.662	323.25
586.872	331.25
587.082	348.25
587.292	317.25
587.502	333.25
587.713	326.25
587.923	312.25
588.133	317.25
588.343	339.25
588.553	305.25
588.762	324.25
588.972	294.25
589.182	319.25
589.392	325.25
589.602	335.25
589.812	318.25
590.022	320.25
590.232	334.25
590.441	319.25
590.651	319.25
590.861	320.25
591.071	313.25
591.281	317.25
591.49	338.25
591.7	328.25
591.91	325.25
592.119	314.25
592.329	331.25
592.539	345.25
592.748	336.25
592.958	339.25
593.167	364.25
593.377	368.25
593.587	378.25
593.796	342.25
594.006	358.25
594.215	340.25
594.424	359.25
594.634	334.25
594.843	348.25
595.053	346.25
595.262	317.25
595.472	339.25
595.681	323.25
595.89	316.25
596.1	322.25
596.309	316.25
596.518	306.25
596.727	331.25
596.937	306.25
597.146	301.25
597.355	295.25
597.564	313.25
597.774	310.25
597.983	313.25
598.192	310.25
598.401	320.25
598.61	294.25
598.819	314.25
599.028	303.25
599.237	308.25
599.446	294.25
599.655	271.25
599.864	282.25
600.073	280.25
600.282	289.25
600.491	286.25
600.7	279.25
600.909	267.25
601.118	291.25
601.327	281.25
601.536	271.25
601.745	272.25
601.953	277.25
602.162	290.25
602.371	280.25
602.58	275.25
602.789	291.25
602.997	280.25
603.206	281.25
603.415	269.25
603.623	296.25
603.832	282.25
604.041	288.25
604.249	273.25
604.458	280.25
604.666	272.25
604.875	272.25
605.084	267.25
605.292	276.25
605.501	271.25
605.709	268.25
605.918	266.25
606.126	272.25
606.334	268.25
606.543	291.25
606.751	267.25
606.96	266.25
607.168	261.25
607.376	266.25
607.585	269.25
607.793	261.25
608.001	277.25
608.21	280.25
608.418	266.25
608.626	276.25
608.834	260.25
609.043	261.25
609.251	270.25
609.459	262.25
609.667	266.25
609.875	252.25
610.083	284.25
610.291	267.25
610.499	269.25
610.707	245.25
610.916	250.25
611.124	269.25
611.332	278.25
611.54	258.25
611.748	264.25
611.955	256.25
612.163	249.25
612.371	254.25
612.579	244.25
612.787	255.25
612.995	255.25
613.203	260.25
613.411	264.25
613.618	249.25
613.826	258.25
614.034	263.25
614.242	233.25
614.449	258.25
614.657	254.25
614.865	261.25
615.072	255.25
615.28	259.25
615.488	256.25
615.695	265.25
615.903	262.25
616.111	268.25
616.318	273.25
616.526	263.25
616.733	281.25
616.941	246.25
617.148	253.25
617.356	249.25
617.563	261.25
617.771	258.25
617.978	240.25
618.185	263.25
618.393	245.25
618.6	252.25
618.807	226.25
619.015	263.25
619.222	234.25
619.429	246.25
619.637	245.25
619.844	246.25
620.051	259.25
620.258	256.25
620.466	248.25
620.673	254.25
620.88	233.25
621.087	226.25
621.294	234.25
621.501	226.25
621.708	238.25
621.915	249.25
622.122	252.25
622.329	228.25
622.536	256.25
622.743	218.25
622.95	233.25
623.157	246.25
623.364	237.25
623.571	238.25
623.778	237.25
623.985	243.25
624.192	223.25
624.399	223.25
624.606	215.25
624.812	247.25
625.019	232.25
625.226	229.25
625.433	226.25
625.639	202.25
625.846	217.25
626.053	224.25
626.259	218.25
626.466	217.25
626.673	214.25
626.879	235.25
627.086	233.25
627.293	225.25
627.499	224.25
627.706	205.25
627.912	220.25
628.119	220.25
628.325	216.25
628.532	218.25
628.738	221.25
628.945	211.25
629.151	224.25
629.357	205.25
629.564	221.25
629.77	218.25
629.976	202.25
630.183	203.25
630.389	214.25
630.595	220.25
630.802	202.25
631.008	212.25
631.214	209.25
631.42	201.25
631.627	196.25
631.833	207.25
632.039	208.25
632.245	219.25
632.451	189.25
632.657	203.25
632.863	202.25
633.069	185.25
633.275	188.25
633.481	205.25
633.688	201.25
633.893	212.25
634.099	188.25
634.305	203.25
634.511	208.25
634.717	188.25
634.923	207.25
635.129	204.25
635.335	191.25
635.541	195.25
635.747	194.25
635.952	184.25
636.158	202.25
636.364	193.25
636.57	207.25
636.775	191.25
636.981	188.25
637.187	193.25
637.392	173.25
637.598	195.25
637.804	181.25
638.009	209.25
638.215	186.25
638.421	203.25
638.626	193.25
638.832	179.25
639.037	190.25
639.243	193.25
639.448	196.25
639.654	199.25
639.859	183.25
640.065	207.25
640.27	205.25
640.475	175.25
640.681	188.25
640.886	198.25
641.091	178.25
641.297	184.25
641.502	179.25
641.707	184.25
641.913	187.25
642.118	189.25
642.323	180.25
642.528	178.25
642.733	186.25
642.939	167.25
643.144	180.25
643.349	187.25
643.554	179.25
643.759	184.25
643.964	166.25
644.169	180.25
644.374	166.25
644.579	188.25
644.784	187.25
644.989	175.25
645.194	170.25
645.399	195.25
645.604	169.25
645.809	194.25
646.014	191.25
646.219	180.25
646.423	170.25
646.628	186.25
646.833	189.25
647.038	189.25
647.243	178.25
647.447	179.25
647.652	183.25
647.857	189.25
648.062	188.25
648.266	180.25
648.471	193.25
648.676	184.25
648.88	189.25
649.085	179.25
649.289	171.25
649.494	181.25
649.698	193.25
649.903	178.25
650.107	188.25
650.312	184.25
650.516	181.25
650.721	159.25
650.925	162.25
651.13	168.25
651.334	157.25
651.539	156.25
651.743	155.25
651.947	169.25
652.152	164.25
652.356	157.25
652.56	167.25
652.764	156.25
652.969	153.25
653.173	150.25
653.377	153.25
653.581	137.25
653.785	143.25
653.99	151.25
654.194	149.25
654.398	145.25
654.602	130.25
654.806	131.25
655.01	156.25
655.214	150.25
655.418	136.25
655.622	144.25
655.826	153.25
656.03	144.25
656.234	156.25
656.438	151.25
656.642	154.25
656.846	143.25
657.049	130.25
657.253	130.25
657.457	124.25
657.661	134.25
657.865	134.25
658.068	123.25
658.272	109.25
658.476	112.25
658.68	108.25
658.883	88.25
659.087	98.25
659.291	111.25
659.494	102.25
659.698	99.25
659.901	94.25
660.105	96.25
660.309	91.25
660.512	96.25
660.716	101.25
660.919	108.25
661.123	96.25
661.326	110.25
661.53	105.25
661.733	79.25
661.936	86.25
662.14	75.25
662.343	86.25
662.546	79.25
662.75	73.25
662.953	83.25
663.156	78.25
663.36	82.25
663.563	79.25
663.766	78.25
663.969	78.25
664.173	76.25
664.376	82.25
664.579	87.25
664.782	95.25
664.985	92.25
665.188	74.25
665.391	86.25
665.594	93.25
665.797	89.25
666	88.25
666.203	78.25
666.406	64.25
666.609	85.25
666.812	94.25
667.015	90.25
667.218	90.25
667.421	84.25
667.624	79.25
667.827	100.25
668.03	86.25
668.232	88.25
668.435	92.25
668.638	96.25
668.841	75.25
669.043	79.25
669.246	85.25
669.449	86.25
669.651	87.25
669.854	84.25
670.057	84.25
670.259	84.25
670.462	91.25
670.665	100.25
670.867	79.25
671.07	87.25
671.272	100.25
671.475	83.25
671.677	65.25
671.88	88.25
672.082	79.25
672.284	88.25
672.487	90.25
672.689	70.25
672.892	88.25
