Data from 1975.PennyLincolnUp.Lamp.En5.5.200Scan.071719.P1.Changed Mount._HRD10591_15-58-46-860.txt Node
Date: Thu Jul 18 15:58:46 EDT 2019
User: cochatt
Spectrometer: HR+D1059
Trigger mode: 1
Integration Time (sec): 1.000000E-1
Scans to average: 1
Electric dark correction enabled: true
Nonlinearity correction enabled: false
Boxcar width: 0
XAxis mode: Wavelengths
Number of Pixels in Spectrum: 2048
>>>>>Begin Spectral Data<<<<<
223.165	-1.12
223.4	-1.12
223.635	-1.12
223.869	-32.12
224.104	-14.12
224.338	-19.12
224.573	-4.12
224.808	6.88
225.042	-13.12
225.277	-22.12
225.511	-4.12
225.746	4.88
225.98	14.88
226.215	12.88
226.449	16.88
226.683	10.88
226.918	31.88
227.152	10.88
227.387	25.88
227.621	43.88
227.856	41.88
228.09	48.88
228.324	32.88
228.559	39.88
228.793	62.88
229.027	95.88
229.262	104.88
229.496	120.88
229.73	147.88
229.964	134.88
230.199	125.88
230.433	114.88
230.667	108.88
230.901	126.88
231.136	111.88
231.37	122.88
231.604	103.88
231.838	111.88
232.072	115.88
232.306	122.88
232.541	112.88
232.775	105.88
233.009	111.88
233.243	114.88
233.477	114.88
233.711	111.88
233.945	124.88
234.179	119.88
234.413	126.88
234.647	122.88
234.881	124.88
235.115	124.88
235.349	122.88
235.583	125.88
235.817	110.88
236.051	120.88
236.285	120.88
236.519	116.88
236.753	122.88
236.987	144.88
237.221	189.88
237.455	211.88
237.689	198.88
237.922	139.88
238.156	124.88
238.39	138.88
238.624	136.88
238.858	115.88
239.091	122.88
239.325	121.88
239.559	133.88
239.793	138.88
240.027	146.88
240.26	129.88
240.494	141.88
240.728	146.88
240.961	146.88
241.195	151.88
241.429	126.88
241.662	150.88
241.896	137.88
242.13	139.88
242.363	146.88
242.597	142.88
242.83	147.88
243.064	141.88
243.298	132.88
243.531	146.88
243.765	154.88
243.998	152.88
244.232	141.88
244.465	139.88
244.699	154.88
244.932	149.88
245.166	153.88
245.399	151.88
245.633	150.88
245.866	150.88
246.099	132.88
246.333	158.88
246.566	169.88
246.8	139.88
247.033	158.88
247.266	150.88
247.5	148.88
247.733	191.88
247.966	176.88
248.2	188.88
248.433	170.88
248.666	192.88
248.899	197.88
249.133	206.88
249.366	203.88
249.599	183.88
249.832	176.88
250.066	191.88
250.299	178.88
250.532	203.88
250.765	221.88
250.998	225.88
251.231	225.88
251.465	220.88
251.698	207.88
251.931	197.88
252.164	200.88
252.397	202.88
252.63	206.88
252.863	216.88
253.096	211.88
253.329	219.88
253.562	226.88
253.795	239.88
254.028	234.88
254.261	223.88
254.494	227.88
254.727	256.88
254.96	269.88
255.193	278.88
255.426	258.88
255.659	245.88
255.892	240.88
256.124	235.88
256.357	256.88
256.59	226.88
256.823	218.88
257.056	210.88
257.289	219.88
257.521	212.88
257.754	221.88
257.987	219.88
258.22	211.88
258.452	216.88
258.685	198.88
258.918	218.88
259.151	231.88
259.383	210.88
259.616	224.88
259.849	228.88
260.081	247.88
260.314	258.88
260.547	279.88
260.779	254.88
261.012	231.88
261.244	233.88
261.477	229.88
261.71	222.88
261.942	226.88
262.175	231.88
262.407	239.88
262.64	217.88
262.872	221.88
263.105	225.88
263.337	225.88
263.57	212.88
263.802	216.88
264.035	209.88
264.267	215.88
264.499	211.88
264.732	234.88
264.964	242.88
265.197	218.88
265.429	226.88
265.661	208.88
265.894	230.88
266.126	232.88
266.358	222.88
266.591	237.88
266.823	239.88
267.055	248.88
267.287	260.88
267.52	230.88
267.752	225.88
267.984	234.88
268.216	236.88
268.448	234.88
268.681	233.88
268.913	258.88
269.145	279.88
269.377	291.88
269.609	281.88
269.841	263.88
270.073	282.88
270.306	302.88
270.538	332.88
270.77	317.88
271.002	314.88
271.234	312.88
271.466	291.88
271.698	318.88
271.93	329.88
272.162	340.88
272.394	320.88
272.626	307.88
272.858	288.88
273.09	268.88
273.322	291.88
273.553	259.88
273.785	267.88
274.017	283.88
274.249	262.88
274.481	281.88
274.713	276.88
274.945	252.88
275.176	277.88
275.408	278.88
275.64	290.88
275.872	276.88
276.104	278.88
276.335	274.88
276.567	295.88
276.799	287.88
277.031	314.88
277.262	306.88
277.494	322.88
277.726	331.88
277.957	296.88
278.189	281.88
278.421	291.88
278.652	287.88
278.884	268.88
279.115	284.88
279.347	285.88
279.579	280.88
279.81	277.88
280.042	268.88
280.273	272.88
280.505	295.88
280.736	269.88
280.968	280.88
281.199	276.88
281.431	293.88
281.662	293.88
281.894	303.88
282.125	300.88
282.356	308.88
282.588	311.88
282.819	325.88
283.051	291.88
283.282	264.88
283.513	296.88
283.745	291.88
283.976	282.88
284.207	298.88
284.439	283.88
284.67	307.88
284.901	298.88
285.132	295.88
285.364	296.88
285.595	304.88
285.826	312.88
286.057	283.88
286.288	274.88
286.52	299.88
286.751	286.88
286.982	290.88
287.213	303.88
287.444	292.88
287.675	316.88
287.906	339.88
288.138	326.88
288.369	306.88
288.6	318.88
288.831	339.88
289.062	316.88
289.293	318.88
289.524	319.88
289.755	292.88
289.986	310.88
290.217	315.88
290.448	302.88
290.679	298.88
290.91	315.88
291.141	323.88
291.371	319.88
291.602	315.88
291.833	292.88
292.064	300.88
292.295	309.88
292.526	313.88
292.757	314.88
292.987	329.88
293.218	311.88
293.449	313.88
293.68	328.88
293.91	310.88
294.141	316.88
294.372	325.88
294.603	322.88
294.833	292.88
295.064	333.88
295.295	309.88
295.525	311.88
295.756	326.88
295.987	324.88
296.217	344.88
296.448	348.88
296.679	336.88
296.909	314.88
297.14	300.88
297.37	338.88
297.601	333.88
297.831	321.88
298.062	313.88
298.292	344.88
298.523	320.88
298.753	332.88
298.984	314.88
299.214	329.88
299.445	355.88
299.675	333.88
299.905	323.88
300.136	331.88
300.366	327.88
300.597	318.88
300.827	342.88
301.057	357.88
301.288	337.88
301.518	338.88
301.748	350.88
301.979	332.88
302.209	342.88
302.439	348.88
302.669	348.88
302.9	356.88
303.13	350.88
303.36	348.88
303.59	369.88
303.82	348.88
304.051	369.88
304.281	355.88
304.511	356.88
304.741	353.88
304.971	359.88
305.201	356.88
305.431	373.88
305.661	342.88
305.891	340.88
306.121	348.88
306.352	371.88
306.582	357.88
306.812	344.88
307.042	357.88
307.272	357.88
307.502	342.88
307.731	344.88
307.961	350.88
308.191	366.88
308.421	334.88
308.651	362.88
308.881	354.88
309.111	366.88
309.341	384.88
309.571	369.88
309.8	350.88
310.03	368.88
310.26	370.88
310.49	368.88
310.72	380.88
310.949	386.88
311.179	397.88
311.409	386.88
311.639	388.88
311.868	365.88
312.098	374.88
312.328	392.88
312.557	418.88
312.787	407.88
313.017	414.88
313.246	388.88
313.476	384.88
313.706	396.88
313.935	411.88
314.165	407.88
314.394	425.88
314.624	406.88
314.853	410.88
315.083	385.88
315.312	399.88
315.542	382.88
315.771	376.88
316.001	380.88
316.23	392.88
316.46	403.88
316.689	405.88
316.919	407.88
317.148	384.88
317.377	400.88
317.607	421.88
317.836	396.88
318.065	407.88
318.295	382.88
318.524	383.88
318.753	399.88
318.983	384.88
319.212	398.88
319.441	395.88
319.67	396.88
319.9	396.88
320.129	386.88
320.358	402.88
320.587	395.88
320.816	395.88
321.046	397.88
321.275	432.88
321.504	393.88
321.733	426.88
321.962	423.88
322.191	434.88
322.42	434.88
322.649	450.88
322.878	435.88
323.108	448.88
323.337	478.88
323.566	505.88
323.795	514.88
324.024	567.88
324.253	620.88
324.482	875.88
324.71	1343.88
324.939	1986.88
325.168	1710.88
325.397	893.88
325.626	584.88
325.855	512.88
326.084	509.88
326.313	467.88
326.542	489.88
326.77	547.88
326.999	584.88
327.228	803.88
327.457	1203.88
327.686	1529.88
327.914	1010.88
328.143	682.88
328.372	610.88
328.6	555.88
328.829	566.88
329.058	578.88
329.287	574.88
329.515	542.88
329.744	520.88
329.972	506.88
330.201	530.88
330.43	586.88
330.658	578.88
330.887	589.88
331.115	588.88
331.344	543.88
331.572	526.88
331.801	507.88
332.03	502.88
332.258	488.88
332.486	498.88
332.715	478.88
332.943	456.88
333.172	499.88
333.4	477.88
333.629	504.88
333.857	526.88
334.085	529.88
334.314	555.88
334.542	565.88
334.771	578.88
334.999	537.88
335.227	510.88
335.455	482.88
335.684	498.88
335.912	480.88
336.14	479.88
336.369	480.88
336.597	478.88
336.825	479.88
337.053	472.88
337.281	468.88
337.51	488.88
337.738	445.88
337.966	449.88
338.194	457.88
338.422	477.88
338.65	485.88
338.878	450.88
339.106	452.88
339.334	464.88
339.562	451.88
339.79	439.88
340.018	453.88
340.246	447.88
340.474	476.88
340.702	463.88
340.93	460.88
341.158	457.88
341.386	444.88
341.614	445.88
341.842	458.88
342.07	447.88
342.298	433.88
342.526	440.88
342.754	441.88
342.981	443.88
343.209	441.88
343.437	457.88
343.665	462.88
343.893	467.88
344.12	480.88
344.348	499.88
344.576	499.88
344.804	475.88
345.031	494.88
345.259	472.88
345.487	482.88
345.714	465.88
345.942	448.88
346.17	442.88
346.397	452.88
346.625	440.88
346.853	440.88
347.08	438.88
347.308	432.88
347.535	467.88
347.763	439.88
347.99	465.88
348.218	436.88
348.445	453.88
348.673	451.88
348.9	440.88
349.128	441.88
349.355	427.88
349.583	415.88
349.81	420.88
350.037	446.88
350.265	439.88
350.492	442.88
350.72	444.88
350.947	418.88
351.174	438.88
351.402	445.88
351.629	452.88
351.856	455.88
352.083	442.88
352.311	436.88
352.538	444.88
352.765	485.88
352.992	444.88
353.22	438.88
353.447	434.88
353.674	412.88
353.901	436.88
354.128	412.88
354.355	430.88
354.583	414.88
354.81	411.88
355.037	412.88
355.264	421.88
355.491	422.88
355.718	421.88
355.945	415.88
356.172	416.88
356.399	406.88
356.626	416.88
356.853	408.88
357.08	418.88
357.307	432.88
357.534	405.88
357.761	436.88
357.988	411.88
358.215	403.88
358.441	414.88
358.668	440.88
358.895	408.88
359.122	428.88
359.349	438.88
359.576	436.88
359.802	466.88
360.029	459.88
360.256	490.88
360.483	459.88
360.709	442.88
360.936	452.88
361.163	435.88
361.39	429.88
361.616	434.88
361.843	418.88
362.07	433.88
362.296	432.88
362.523	441.88
362.749	425.88
362.976	441.88
363.203	434.88
363.429	421.88
363.656	424.88
363.882	427.88
364.109	440.88
364.335	452.88
364.562	437.88
364.788	439.88
365.015	439.88
365.241	422.88
365.468	450.88
365.694	428.88
365.92	443.88
366.147	408.88
366.373	432.88
366.599	432.88
366.826	427.88
367.052	422.88
367.278	418.88
367.505	430.88
367.731	409.88
367.957	411.88
368.184	418.88
368.41	452.88
368.636	442.88
368.862	447.88
369.089	423.88
369.315	427.88
369.541	442.88
369.767	419.88
369.993	446.88
370.219	437.88
370.445	411.88
370.672	425.88
370.898	433.88
371.124	423.88
371.35	418.88
371.576	437.88
371.802	438.88
372.028	447.88
372.254	437.88
372.48	444.88
372.706	450.88
372.932	438.88
373.158	442.88
373.384	467.88
373.61	433.88
373.835	448.88
374.061	432.88
374.287	433.88
374.513	452.88
374.739	447.88
374.965	456.88
375.191	455.88
375.416	453.88
375.642	443.88
375.868	460.88
376.094	419.88
376.319	432.88
376.545	448.88
376.771	434.88
376.997	430.88
377.222	411.88
377.448	453.88
377.674	427.88
377.899	432.88
378.125	424.88
378.35	426.88
378.576	445.88
378.802	434.88
379.027	443.88
379.253	432.88
379.478	447.88
379.704	419.88
379.929	426.88
380.155	438.88
380.38	437.88
380.606	435.88
380.831	442.88
381.057	438.88
381.282	427.88
381.507	451.88
381.733	436.88
381.958	450.88
382.184	430.88
382.409	444.88
382.634	451.88
382.86	459.88
383.085	454.88
383.31	458.88
383.535	449.88
383.761	463.88
383.986	466.88
384.211	442.88
384.436	466.88
384.662	471.88
384.887	471.88
385.112	475.88
385.337	478.88
385.562	476.88
385.787	474.88
386.013	494.88
386.238	507.88
386.463	473.88
386.688	496.88
386.913	503.88
387.138	481.88
387.363	475.88
387.588	474.88
387.813	475.88
388.038	485.88
388.263	485.88
388.488	487.88
388.713	502.88
388.938	489.88
389.163	479.88
389.387	484.88
389.612	477.88
389.837	517.88
390.062	475.88
390.287	464.88
390.512	488.88
390.736	479.88
390.961	501.88
391.186	481.88
391.411	480.88
391.636	496.88
391.86	521.88
392.085	521.88
392.31	521.88
392.534	517.88
392.759	478.88
392.984	511.88
393.208	491.88
393.433	512.88
393.658	489.88
393.882	505.88
394.107	504.88
394.331	497.88
394.556	487.88
394.78	498.88
395.005	495.88
395.229	495.88
395.454	525.88
395.678	535.88
395.903	523.88
396.127	540.88
396.352	552.88
396.576	531.88
396.801	513.88
397.025	532.88
397.249	532.88
397.474	526.88
397.698	516.88
397.922	522.88
398.147	552.88
398.371	536.88
398.595	564.88
398.82	568.88
399.044	578.88
399.268	609.88
399.492	657.88
399.717	685.88
399.941	715.88
400.165	719.88
400.389	713.88
400.613	660.88
400.837	607.88
401.062	592.88
401.286	569.88
401.51	593.88
401.734	556.88
401.958	582.88
402.182	567.88
402.406	598.88
402.63	586.88
402.854	581.88
403.078	573.88
403.302	619.88
403.526	600.88
403.75	596.88
403.974	632.88
404.198	582.88
404.422	609.88
404.645	610.88
404.869	627.88
405.093	638.88
405.317	668.88
405.541	734.88
405.765	668.88
405.988	631.88
406.212	614.88
406.436	649.88
406.66	646.88
406.883	636.88
407.107	667.88
407.331	714.88
407.555	794.88
407.778	793.88
408.002	711.88
408.226	646.88
408.449	675.88
408.673	673.88
408.896	688.88
409.12	727.88
409.344	681.88
409.567	604.88
409.791	606.88
410.014	607.88
410.238	593.88
410.461	628.88
410.685	604.88
410.908	615.88
411.132	647.88
411.355	684.88
411.578	671.88
411.802	595.88
412.025	589.88
412.249	626.88
412.472	623.88
412.695	669.88
412.919	679.88
413.142	607.88
413.365	574.88
413.589	585.88
413.812	589.88
414.035	558.88
414.258	560.88
414.482	551.88
414.705	557.88
414.928	553.88
415.151	556.88
415.374	536.88
415.597	572.88
415.821	564.88
416.044	574.88
416.267	566.88
416.49	564.88
416.713	541.88
416.936	555.88
417.159	531.88
417.382	593.88
417.605	590.88
417.828	597.88
418.051	602.88
418.274	589.88
418.497	582.88
418.72	582.88
418.943	568.88
419.166	600.88
419.389	607.88
419.611	596.88
419.834	610.88
420.057	622.88
420.28	612.88
420.503	595.88
420.726	588.88
420.948	612.88
421.171	641.88
421.394	651.88
421.617	624.88
421.839	580.88
422.062	587.88
422.285	581.88
422.507	656.88
422.73	732.88
422.953	704.88
423.175	647.88
423.398	603.88
423.621	599.88
423.843	641.88
424.066	625.88
424.288	630.88
424.511	658.88
424.733	690.88
424.956	779.88
425.178	728.88
425.401	740.88
425.623	780.88
425.846	659.88
426.068	608.88
426.291	626.88
426.513	641.88
426.735	610.88
426.958	683.88
427.18	755.88
427.402	874.88
427.625	985.88
427.847	834.88
428.069	750.88
428.292	675.88
428.514	620.88
428.736	579.88
428.958	585.88
429.181	571.88
429.403	577.88
429.625	577.88
429.847	592.88
430.069	700.88
430.292	686.88
430.514	596.88
430.736	568.88
430.958	593.88
431.18	567.88
431.402	552.88
431.624	544.88
431.846	571.88
432.068	547.88
432.29	535.88
432.512	551.88
432.734	545.88
432.956	536.88
433.178	556.88
433.4	532.88
433.622	553.88
433.844	578.88
434.066	575.88
434.287	546.88
434.509	544.88
434.731	562.88
434.953	585.88
435.175	600.88
435.397	613.88
435.618	624.88
435.84	686.88
436.062	744.88
436.284	851.88
436.505	702.88
436.727	630.88
436.949	572.88
437.17	574.88
437.392	558.88
437.614	552.88
437.835	601.88
438.057	690.88
438.278	800.88
438.5	810.88
438.721	886.88
438.943	860.88
439.165	678.88
439.386	629.88
439.608	619.88
439.829	592.88
440.05	653.88
440.272	695.88
440.493	636.88
440.715	622.88
440.936	595.88
441.158	615.88
441.379	564.88
441.6	592.88
441.822	623.88
442.043	669.88
442.264	748.88
442.486	805.88
442.707	671.88
442.928	634.88
443.149	638.88
443.371	654.88
443.592	682.88
443.813	803.88
444.034	892.88
444.255	741.88
444.476	664.88
444.698	664.88
444.919	638.88
445.14	776.88
445.361	704.88
445.582	673.88
445.803	747.88
446.024	844.88
446.245	842.88
446.466	760.88
446.687	663.88
446.908	631.88
447.129	579.88
447.35	547.88
447.571	562.88
447.792	562.88
448.013	552.88
448.234	579.88
448.455	653.88
448.675	742.88
448.896	869.88
449.117	726.88
449.338	688.88
449.559	815.88
449.779	923.88
450	730.88
450.221	598.88
450.442	561.88
450.662	542.88
450.883	553.88
451.104	558.88
451.324	551.88
451.545	534.88
451.766	529.88
451.986	494.88
452.207	489.88
452.428	500.88
452.648	490.88
452.869	508.88
453.089	514.88
453.31	534.88
453.53	509.88
453.751	514.88
453.971	494.88
454.192	526.88
454.412	505.88
454.633	471.88
454.853	502.88
455.073	498.88
455.294	519.88
455.514	600.88
455.734	569.88
455.955	494.88
456.175	500.88
456.395	488.88
456.616	466.88
456.836	489.88
457.056	478.88
457.276	447.88
457.497	475.88
457.717	494.88
457.937	501.88
458.157	493.88
458.377	498.88
458.598	506.88
458.818	548.88
459.038	655.88
459.258	668.88
459.478	591.88
459.698	531.88
459.918	528.88
460.138	551.88
460.358	552.88
460.578	541.88
460.798	567.88
461.018	568.88
461.238	566.88
461.458	576.88
461.678	565.88
461.898	561.88
462.118	562.88
462.338	592.88
462.558	583.88
462.777	609.88
462.997	615.88
463.217	662.88
463.437	632.88
463.657	634.88
463.876	598.88
464.096	603.88
464.316	609.88
464.536	622.88
464.755	615.88
464.975	593.88
465.195	641.88
465.414	656.88
465.634	619.88
465.854	577.88
466.073	540.88
466.293	531.88
466.512	522.88
466.732	518.88
466.951	532.88
467.171	521.88
467.391	516.88
467.61	530.88
467.829	520.88
468.049	522.88
468.268	544.88
468.488	544.88
468.707	516.88
468.927	517.88
469.146	491.88
469.365	514.88
469.585	522.88
469.804	523.88
470.023	532.88
470.243	530.88
470.462	532.88
470.681	566.88
470.901	551.88
471.12	526.88
471.339	512.88
471.558	539.88
471.777	552.88
471.997	530.88
472.216	536.88
472.435	556.88
472.654	555.88
472.873	529.88
473.092	556.88
473.311	515.88
473.53	537.88
473.749	521.88
473.968	560.88
474.187	675.88
474.406	710.88
474.625	578.88
474.844	538.88
475.063	537.88
475.282	547.88
475.501	512.88
475.72	500.88
475.939	516.88
476.158	543.88
476.377	550.88
476.596	559.88
476.814	538.88
477.033	558.88
477.252	576.88
477.471	570.88
477.69	539.88
477.908	579.88
478.127	574.88
478.346	599.88
478.564	590.88
478.783	583.88
479.002	611.88
479.22	616.88
479.439	607.88
479.658	640.88
479.876	618.88
480.095	646.88
480.313	681.88
480.532	670.88
480.751	674.88
480.969	668.88
481.188	704.88
481.406	728.88
481.624	679.88
481.843	635.88
482.061	650.88
482.28	618.88
482.498	629.88
482.717	631.88
482.935	617.88
483.153	618.88
483.372	616.88
483.59	619.88
483.808	605.88
484.027	604.88
484.245	624.88
484.463	628.88
484.681	609.88
484.9	626.88
485.118	650.88
485.336	631.88
485.554	638.88
485.772	635.88
485.99	662.88
486.209	651.88
486.427	644.88
486.645	653.88
486.863	692.88
487.081	684.88
487.299	669.88
487.517	642.88
487.735	663.88
487.953	678.88
488.171	657.88
488.389	656.88
488.607	668.88
488.825	675.88
489.043	659.88
489.261	664.88
489.479	650.88
489.696	650.88
489.914	671.88
490.132	677.88
490.35	713.88
490.568	699.88
490.786	721.88
491.003	707.88
491.221	738.88
491.439	723.88
491.657	737.88
491.874	755.88
492.092	747.88
492.31	772.88
492.527	754.88
492.745	759.88
492.963	770.88
493.18	768.88
493.398	769.88
493.615	815.88
493.833	774.88
494.05	788.88
494.268	772.88
494.485	783.88
494.703	793.88
494.92	784.88
495.138	787.88
495.355	769.88
495.573	773.88
495.79	780.88
496.008	789.88
496.225	774.88
496.442	788.88
496.66	782.88
496.877	803.88
497.094	805.88
497.312	814.88
497.529	804.88
497.746	827.88
497.963	824.88
498.181	861.88
498.398	871.88
498.615	894.88
498.832	938.88
499.049	951.88
499.267	988.88
499.484	1023.88
499.701	1064.88
499.918	1120.88
500.135	1173.88
500.352	1252.88
500.569	1258.88
500.786	1295.88
501.003	1278.88
501.22	1216.88
501.437	1134.88
501.654	1078.88
501.871	1063.88
502.088	1024.88
502.305	970.88
502.522	944.88
502.739	919.88
502.956	883.88
503.172	838.88
503.389	845.88
503.606	825.88
503.823	835.88
504.04	830.88
504.256	812.88
504.473	828.88
504.69	788.88
504.907	800.88
505.123	791.88
505.34	770.88
505.557	747.88
505.773	750.88
505.99	770.88
506.207	739.88
506.423	758.88
506.64	728.88
506.856	731.88
507.073	735.88
507.289	703.88
507.506	714.88
507.722	731.88
507.939	757.88
508.155	686.88
508.372	700.88
508.588	681.88
508.805	696.88
509.021	690.88
509.238	700.88
509.454	703.88
509.67	692.88
509.887	706.88
510.103	691.88
510.319	684.88
510.536	768.88
510.752	1173.88
510.968	942.88
511.184	692.88
511.401	690.88
511.617	645.88
511.833	633.88
512.049	640.88
512.265	647.88
512.481	668.88
512.698	640.88
512.914	644.88
513.13	642.88
513.346	657.88
513.562	654.88
513.778	661.88
513.994	648.88
514.21	664.88
514.426	684.88
514.642	678.88
514.858	701.88
515.074	747.88
515.29	819.88
515.506	1113.88
515.721	972.88
515.937	742.88
516.153	694.88
516.369	722.88
516.585	673.88
516.801	662.88
517.016	707.88
517.232	706.88
517.448	721.88
517.664	699.88
517.879	721.88
518.095	723.88
518.311	695.88
518.527	692.88
518.742	688.88
518.958	671.88
519.173	671.88
519.389	692.88
519.605	657.88
519.82	626.88
520.036	654.88
520.251	671.88
520.467	701.88
520.682	672.88
520.898	690.88
521.113	698.88
521.329	705.88
521.544	773.88
521.76	920.88
521.975	1351.88
522.19	1375.88
522.406	849.88
522.621	692.88
522.836	624.88
523.052	631.88
523.267	590.88
523.482	598.88
523.698	600.88
523.913	589.88
524.128	582.88
524.343	573.88
524.559	570.88
524.774	555.88
524.989	593.88
525.204	579.88
525.419	586.88
525.634	549.88
525.849	560.88
526.064	552.88
526.28	548.88
526.495	540.88
526.71	535.88
526.925	548.88
527.14	542.88
527.355	548.88
527.57	537.88
527.785	519.88
527.999	531.88
528.214	549.88
528.429	542.88
528.644	542.88
528.859	534.88
529.074	544.88
529.289	575.88
529.503	609.88
529.718	606.88
529.933	583.88
530.148	567.88
530.363	556.88
530.577	530.88
530.792	528.88
531.007	524.88
531.221	537.88
531.436	520.88
531.651	500.88
531.865	516.88
532.08	502.88
532.295	506.88
532.509	515.88
532.724	528.88
532.938	520.88
533.153	521.88
533.367	524.88
533.582	508.88
533.796	499.88
534.011	521.88
534.225	514.88
534.44	502.88
534.654	497.88
534.868	530.88
535.083	529.88
535.297	493.88
535.511	519.88
535.726	528.88
535.94	512.88
536.154	491.88
536.369	494.88
536.583	511.88
536.797	487.88
537.011	494.88
537.225	512.88
537.44	511.88
537.654	478.88
537.868	488.88
538.082	502.88
538.296	497.88
538.51	497.88
538.724	513.88
538.938	497.88
539.153	492.88
539.367	516.88
539.581	492.88
539.795	510.88
540.009	487.88
540.222	485.88
540.436	519.88
540.65	498.88
540.864	503.88
541.078	508.88
541.292	515.88
541.506	494.88
541.72	508.88
541.934	481.88
542.147	498.88
542.361	495.88
542.575	483.88
542.789	496.88
543.002	474.88
543.216	476.88
543.43	503.88
543.644	489.88
543.857	502.88
544.071	506.88
544.285	497.88
544.498	487.88
544.712	491.88
544.925	489.88
545.139	482.88
545.352	503.88
545.566	481.88
545.779	484.88
545.993	494.88
546.206	494.88
546.42	504.88
546.633	473.88
546.847	495.88
547.06	512.88
547.274	495.88
547.487	497.88
547.7	486.88
547.914	498.88
548.127	498.88
548.34	471.88
548.554	491.88
548.767	495.88
548.98	478.88
549.193	480.88
549.407	511.88
549.62	507.88
549.833	488.88
550.046	494.88
550.259	502.88
550.473	466.88
550.686	453.88
550.899	480.88
551.112	474.88
551.325	480.88
551.538	480.88
551.751	475.88
551.964	472.88
552.177	499.88
552.39	479.88
552.603	470.88
552.816	505.88
553.029	516.88
553.242	503.88
553.455	508.88
553.667	532.88
553.88	511.88
554.093	498.88
554.306	506.88
554.519	486.88
554.732	501.88
554.944	489.88
555.157	477.88
555.37	455.88
555.583	463.88
555.795	472.88
556.008	447.88
556.221	444.88
556.433	454.88
556.646	420.88
556.859	456.88
557.071	428.88
557.284	428.88
557.496	442.88
557.709	444.88
557.921	446.88
558.134	438.88
558.346	447.88
558.559	444.88
558.771	436.88
558.984	430.88
559.196	421.88
559.409	444.88
559.621	421.88
559.833	426.88
560.046	427.88
560.258	428.88
560.47	418.88
560.683	437.88
560.895	418.88
561.107	417.88
561.32	425.88
561.532	438.88
561.744	428.88
561.956	411.88
562.168	435.88
562.381	442.88
562.593	456.88
562.805	434.88
563.017	434.88
563.229	409.88
563.441	451.88
563.653	438.88
563.865	436.88
564.077	440.88
564.289	423.88
564.501	439.88
564.713	431.88
564.925	468.88
565.137	472.88
565.349	472.88
565.561	475.88
565.773	485.88
565.985	489.88
566.197	512.88
566.408	532.88
566.62	560.88
566.832	567.88
567.044	563.88
567.255	566.88
567.467	564.88
567.679	565.88
567.891	600.88
568.102	579.88
568.314	567.88
568.526	568.88
568.737	554.88
568.949	503.88
569.161	496.88
569.372	471.88
569.584	465.88
569.795	440.88
570.007	434.88
570.218	467.88
570.43	465.88
570.641	440.88
570.853	465.88
571.064	452.88
571.276	424.88
571.487	436.88
571.698	406.88
571.91	405.88
572.121	401.88
572.333	396.88
572.544	380.88
572.755	388.88
572.966	388.88
573.178	376.88
573.389	372.88
573.6	382.88
573.811	375.88
574.023	371.88
574.234	367.88
574.445	378.88
574.656	372.88
574.867	375.88
575.078	379.88
575.289	374.88
575.501	368.88
575.712	349.88
575.923	363.88
576.134	368.88
576.345	359.88
576.556	352.88
576.767	365.88
576.978	354.88
577.188	370.88
577.399	361.88
577.61	372.88
577.821	350.88
578.032	354.88
578.243	374.88
578.454	512.88
578.665	415.88
578.875	347.88
579.086	350.88
579.297	354.88
579.508	346.88
579.718	346.88
579.929	345.88
580.14	352.88
580.35	343.88
580.561	325.88
580.772	329.88
580.982	342.88
581.193	330.88
581.403	330.88
581.614	331.88
581.825	335.88
582.035	309.88
582.246	331.88
582.456	316.88
582.667	327.88
582.877	318.88
583.087	323.88
583.298	330.88
583.508	318.88
583.719	322.88
583.929	326.88
584.139	326.88
584.35	323.88
584.56	320.88
584.77	320.88
584.981	334.88
585.191	330.88
585.401	346.88
585.611	338.88
585.821	327.88
586.032	313.88
586.242	312.88
586.452	322.88
586.662	318.88
586.872	316.88
587.082	319.88
587.292	315.88
587.502	307.88
587.713	315.88
587.923	311.88
588.133	314.88
588.343	328.88
588.553	306.88
588.762	296.88
588.972	324.88
589.182	321.88
589.392	318.88
589.602	316.88
589.812	323.88
590.022	308.88
590.232	328.88
590.441	328.88
590.651	322.88
590.861	309.88
591.071	318.88
591.281	308.88
591.49	296.88
591.7	326.88
591.91	328.88
592.119	335.88
592.329	345.88
592.539	350.88
592.748	358.88
592.958	339.88
593.167	343.88
593.377	374.88
593.587	354.88
593.796	368.88
594.006	360.88
594.215	359.88
594.424	356.88
594.634	349.88
594.843	329.88
595.053	350.88
595.262	332.88
595.472	339.88
595.681	333.88
595.89	318.88
596.1	316.88
596.309	322.88
596.518	320.88
596.727	306.88
596.937	303.88
597.146	295.88
597.355	323.88
597.564	283.88
597.774	297.88
597.983	293.88
598.192	283.88
598.401	287.88
598.61	304.88
598.819	292.88
599.028	294.88
599.237	279.88
599.446	304.88
599.655	288.88
599.864	282.88
600.073	294.88
600.282	280.88
600.491	268.88
600.7	290.88
600.909	288.88
601.118	265.88
601.327	290.88
601.536	272.88
601.745	285.88
601.953	278.88
602.162	281.88
602.371	281.88
602.58	270.88
602.789	272.88
602.997	280.88
603.206	271.88
603.415	262.88
603.623	272.88
603.832	286.88
604.041	286.88
604.249	252.88
604.458	268.88
604.666	251.88
604.875	259.88
605.084	261.88
605.292	264.88
605.501	254.88
605.709	269.88
605.918	271.88
606.126	279.88
606.334	264.88
606.543	262.88
606.751	261.88
606.96	265.88
607.168	248.88
607.376	255.88
607.585	255.88
607.793	272.88
608.001	248.88
608.21	262.88
608.418	278.88
608.626	256.88
608.834	259.88
609.043	255.88
609.251	256.88
609.459	260.88
609.667	260.88
609.875	268.88
610.083	273.88
610.291	286.88
610.499	250.88
610.707	268.88
610.916	281.88
611.124	267.88
611.332	261.88
611.54	276.88
611.748	272.88
611.955	254.88
612.163	270.88
612.371	260.88
612.579	266.88
612.787	264.88
612.995	268.88
613.203	241.88
613.411	269.88
613.618	245.88
613.826	258.88
614.034	267.88
614.242	267.88
614.449	256.88
614.657	257.88
614.865	258.88
615.072	260.88
615.28	257.88
615.488	251.88
615.695	238.88
615.903	258.88
616.111	250.88
616.318	267.88
616.526	258.88
616.733	252.88
616.941	255.88
617.148	258.88
617.356	241.88
617.563	267.88
617.771	246.88
617.978	238.88
618.185	249.88
618.393	240.88
618.6	238.88
618.807	246.88
619.015	254.88
619.222	245.88
619.429	239.88
619.637	224.88
619.844	243.88
620.051	238.88
620.258	244.88
620.466	263.88
620.673	224.88
620.88	232.88
621.087	239.88
621.294	220.88
621.501	222.88
621.708	242.88
621.915	227.88
622.122	242.88
622.329	234.88
622.536	244.88
622.743	233.88
622.95	231.88
623.157	228.88
623.364	231.88
623.571	226.88
623.778	232.88
623.985	216.88
624.192	235.88
624.399	232.88
624.606	215.88
624.812	231.88
625.019	222.88
625.226	213.88
625.433	217.88
625.639	213.88
625.846	212.88
626.053	225.88
626.259	200.88
626.466	223.88
626.673	225.88
626.879	229.88
627.086	214.88
627.293	218.88
627.499	209.88
627.706	230.88
627.912	212.88
628.119	217.88
628.325	213.88
628.532	227.88
628.738	218.88
628.945	204.88
629.151	212.88
629.357	198.88
629.564	200.88
629.77	215.88
629.976	231.88
630.183	218.88
630.389	212.88
630.595	213.88
630.802	210.88
631.008	210.88
631.214	214.88
631.42	218.88
631.627	215.88
631.833	201.88
632.039	203.88
632.245	190.88
632.451	198.88
632.657	211.88
632.863	211.88
633.069	204.88
633.275	196.88
633.481	190.88
633.688	182.88
633.893	213.88
634.099	200.88
634.305	190.88
634.511	182.88
634.717	195.88
634.923	184.88
635.129	204.88
635.335	203.88
635.541	194.88
635.747	204.88
635.952	195.88
636.158	210.88
636.364	196.88
636.57	202.88
636.775	195.88
636.981	194.88
637.187	202.88
637.392	194.88
637.598	175.88
637.804	183.88
638.009	198.88
638.215	173.88
638.421	194.88
638.626	187.88
638.832	196.88
639.037	192.88
639.243	175.88
639.448	190.88
639.654	190.88
639.859	181.88
640.065	182.88
640.27	192.88
640.475	184.88
640.681	188.88
640.886	195.88
641.091	175.88
641.297	197.88
641.502	171.88
641.707	170.88
641.913	186.88
642.118	180.88
642.323	180.88
642.528	167.88
642.733	174.88
642.939	179.88
643.144	190.88
643.349	201.88
643.554	185.88
643.759	179.88
643.964	172.88
644.169	167.88
644.374	163.88
644.579	190.88
644.784	167.88
644.989	184.88
645.194	181.88
645.399	166.88
645.604	183.88
645.809	162.88
646.014	184.88
646.219	170.88
646.423	170.88
646.628	165.88
646.833	154.88
647.038	170.88
647.243	170.88
647.447	168.88
647.652	207.88
647.857	202.88
648.062	194.88
648.266	179.88
648.471	181.88
648.676	186.88
648.88	174.88
649.085	166.88
649.289	171.88
649.494	177.88
649.698	203.88
649.903	195.88
650.107	177.88
650.312	171.88
650.516	158.88
650.721	169.88
650.925	164.88
651.13	155.88
651.334	170.88
651.539	152.88
651.743	150.88
651.947	158.88
652.152	151.88
652.356	139.88
652.56	144.88
652.764	142.88
652.969	145.88
653.173	151.88
653.377	154.88
653.581	136.88
653.785	149.88
653.99	152.88
654.194	123.88
654.398	143.88
654.602	150.88
654.806	148.88
655.01	154.88
655.214	147.88
655.418	130.88
655.622	132.88
655.826	139.88
656.03	139.88
656.234	146.88
656.438	148.88
656.642	122.88
656.846	135.88
657.049	121.88
657.253	139.88
657.457	129.88
657.661	124.88
657.865	124.88
658.068	112.88
658.272	100.88
658.476	126.88
658.68	117.88
658.883	108.88
659.087	90.88
659.291	115.88
659.494	103.88
659.698	101.88
659.901	107.88
660.105	87.88
660.309	101.88
660.512	89.88
660.716	81.88
660.919	101.88
661.123	89.88
661.326	86.88
661.53	89.88
661.733	88.88
661.936	92.88
662.14	77.88
662.343	83.88
662.546	69.88
662.75	72.88
662.953	72.88
663.156	75.88
663.36	82.88
663.563	93.88
663.766	81.88
663.969	73.88
664.173	82.88
664.376	80.88
664.579	57.88
664.782	78.88
664.985	78.88
665.188	81.88
665.391	83.88
665.594	95.88
665.797	88.88
666	70.88
666.203	87.88
666.406	86.88
666.609	79.88
666.812	71.88
667.015	66.88
667.218	64.88
667.421	73.88
667.624	62.88
667.827	73.88
668.03	88.88
668.232	71.88
668.435	87.88
668.638	80.88
668.841	84.88
669.043	78.88
669.246	81.88
669.449	71.88
669.651	95.88
669.854	83.88
670.057	79.88
670.259	87.88
670.462	83.88
670.665	74.88
670.867	86.88
671.07	79.88
671.272	81.88
671.475	80.88
671.677	79.88
671.88	82.88
672.082	81.88
672.284	70.88
672.487	66.88
672.689	74.88
672.892	80.88
