Data from 1975.PennyLincolnUp.Lamp.En5.5.200Scan.071719.P1.Changed Mount._HRD10591_15-57-36-859.txt Node
Date: Thu Jul 18 15:57:36 EDT 2019
User: cochatt
Spectrometer: HR+D1059
Trigger mode: 1
Integration Time (sec): 1.000000E-1
Scans to average: 1
Electric dark correction enabled: true
Nonlinearity correction enabled: false
Boxcar width: 0
XAxis mode: Wavelengths
Number of Pixels in Spectrum: 2048
>>>>>Begin Spectral Data<<<<<
223.165	-21.25
223.4	-21.25
223.635	-21.25
223.869	-9.25
224.104	-21.25
224.338	-19.25
224.573	-25.25
224.808	-12.25
225.042	0.75
225.277	-11.25
225.511	-5.25
225.746	5.75
225.98	4.75
226.215	16.75
226.449	16.75
226.683	20.75
226.918	28.75
227.152	30.75
227.387	42.75
227.621	42.75
227.856	65.75
228.09	51.75
228.324	38.75
228.559	63.75
228.793	62.75
229.027	90.75
229.262	96.75
229.496	122.75
229.73	128.75
229.964	153.75
230.199	142.75
230.433	115.75
230.667	111.75
230.901	108.75
231.136	105.75
231.37	113.75
231.604	115.75
231.838	119.75
232.072	109.75
232.306	111.75
232.541	118.75
232.775	120.75
233.009	127.75
233.243	109.75
233.477	118.75
233.711	130.75
233.945	118.75
234.179	126.75
234.413	121.75
234.647	109.75
234.881	126.75
235.115	124.75
235.349	114.75
235.583	117.75
235.817	115.75
236.051	130.75
236.285	122.75
236.519	137.75
236.753	126.75
236.987	134.75
237.221	188.75
237.455	219.75
237.689	191.75
237.922	142.75
238.156	128.75
238.39	143.75
238.624	126.75
238.858	118.75
239.091	130.75
239.325	123.75
239.559	141.75
239.793	135.75
240.027	125.75
240.26	147.75
240.494	141.75
240.728	148.75
240.961	142.75
241.195	140.75
241.429	143.75
241.662	138.75
241.896	136.75
242.13	142.75
242.363	154.75
242.597	133.75
242.83	142.75
243.064	141.75
243.298	139.75
243.531	134.75
243.765	156.75
243.998	130.75
244.232	150.75
244.465	159.75
244.699	158.75
244.932	144.75
245.166	140.75
245.399	153.75
245.633	169.75
245.866	146.75
246.099	158.75
246.333	152.75
246.566	151.75
246.8	152.75
247.033	150.75
247.266	159.75
247.5	167.75
247.733	165.75
247.966	190.75
248.2	180.75
248.433	179.75
248.666	182.75
248.899	198.75
249.133	195.75
249.366	204.75
249.599	190.75
249.832	192.75
250.066	190.75
250.299	171.75
250.532	202.75
250.765	190.75
250.998	231.75
251.231	245.75
251.465	218.75
251.698	228.75
251.931	209.75
252.164	205.75
252.397	207.75
252.63	210.75
252.863	214.75
253.096	228.75
253.329	231.75
253.562	217.75
253.795	220.75
254.028	205.75
254.261	220.75
254.494	226.75
254.727	258.75
254.96	273.75
255.193	272.75
255.426	236.75
255.659	236.75
255.892	239.75
256.124	235.75
256.357	257.75
256.59	231.75
256.823	211.75
257.056	226.75
257.289	214.75
257.521	224.75
257.754	221.75
257.987	242.75
258.22	234.75
258.452	215.75
258.685	213.75
258.918	215.75
259.151	225.75
259.383	241.75
259.616	236.75
259.849	231.75
260.081	223.75
260.314	258.75
260.547	264.75
260.779	272.75
261.012	243.75
261.244	236.75
261.477	214.75
261.71	240.75
261.942	242.75
262.175	246.75
262.407	215.75
262.64	212.75
262.872	222.75
263.105	229.75
263.337	224.75
263.57	221.75
263.802	221.75
264.035	226.75
264.267	228.75
264.499	232.75
264.732	238.75
264.964	216.75
265.197	221.75
265.429	214.75
265.661	216.75
265.894	210.75
266.126	217.75
266.358	222.75
266.591	229.75
266.823	224.75
267.055	223.75
267.287	240.75
267.52	216.75
267.752	229.75
267.984	229.75
268.216	243.75
268.448	240.75
268.681	238.75
268.913	265.75
269.145	267.75
269.377	294.75
269.609	263.75
269.841	268.75
270.073	271.75
270.306	299.75
270.538	310.75
270.77	319.75
271.002	301.75
271.234	298.75
271.466	296.75
271.698	332.75
271.93	318.75
272.162	310.75
272.394	336.75
272.626	323.75
272.858	306.75
273.09	281.75
273.322	277.75
273.553	267.75
273.785	260.75
274.017	275.75
274.249	260.75
274.481	286.75
274.713	279.75
274.945	298.75
275.176	273.75
275.408	278.75
275.64	282.75
275.872	272.75
276.104	303.75
276.335	275.75
276.567	282.75
276.799	282.75
277.031	324.75
277.262	320.75
277.494	333.75
277.726	336.75
277.957	336.75
278.189	299.75
278.421	306.75
278.652	262.75
278.884	299.75
279.115	299.75
279.347	288.75
279.579	286.75
279.81	268.75
280.042	280.75
280.273	281.75
280.505	282.75
280.736	289.75
280.968	283.75
281.199	280.75
281.431	297.75
281.662	284.75
281.894	288.75
282.125	296.75
282.356	299.75
282.588	302.75
282.819	332.75
283.051	305.75
283.282	295.75
283.513	288.75
283.745	296.75
283.976	293.75
284.207	298.75
284.439	300.75
284.67	306.75
284.901	285.75
285.132	295.75
285.364	292.75
285.595	293.75
285.826	302.75
286.057	299.75
286.288	301.75
286.52	307.75
286.751	294.75
286.982	310.75
287.213	317.75
287.444	318.75
287.675	308.75
287.906	313.75
288.138	318.75
288.369	303.75
288.6	317.75
288.831	302.75
289.062	316.75
289.293	329.75
289.524	304.75
289.755	310.75
289.986	326.75
290.217	303.75
290.448	319.75
290.679	300.75
290.91	301.75
291.141	296.75
291.371	326.75
291.602	309.75
291.833	309.75
292.064	310.75
292.295	311.75
292.526	296.75
292.757	312.75
292.987	304.75
293.218	297.75
293.449	292.75
293.68	303.75
293.91	332.75
294.141	326.75
294.372	306.75
294.603	309.75
294.833	297.75
295.064	308.75
295.295	317.75
295.525	317.75
295.756	323.75
295.987	326.75
296.217	341.75
296.448	362.75
296.679	334.75
296.909	319.75
297.14	302.75
297.37	330.75
297.601	343.75
297.831	315.75
298.062	309.75
298.292	318.75
298.523	333.75
298.753	331.75
298.984	335.75
299.214	331.75
299.445	317.75
299.675	318.75
299.905	327.75
300.136	329.75
300.366	326.75
300.597	342.75
300.827	339.75
301.057	357.75
301.288	335.75
301.518	344.75
301.748	354.75
301.979	346.75
302.209	363.75
302.439	346.75
302.669	354.75
302.9	356.75
303.13	343.75
303.36	348.75
303.59	335.75
303.82	343.75
304.051	364.75
304.281	354.75
304.511	348.75
304.741	349.75
304.971	325.75
305.201	349.75
305.431	349.75
305.661	344.75
305.891	353.75
306.121	341.75
306.352	336.75
306.582	352.75
306.812	348.75
307.042	348.75
307.272	372.75
307.502	361.75
307.731	334.75
307.961	358.75
308.191	362.75
308.421	343.75
308.651	353.75
308.881	347.75
309.111	355.75
309.341	351.75
309.571	376.75
309.8	371.75
310.03	372.75
310.26	378.75
310.49	368.75
310.72	374.75
310.949	392.75
311.179	403.75
311.409	382.75
311.639	392.75
311.868	364.75
312.098	382.75
312.328	388.75
312.557	400.75
312.787	407.75
313.017	430.75
313.246	406.75
313.476	384.75
313.706	395.75
313.935	388.75
314.165	395.75
314.394	398.75
314.624	381.75
314.853	398.75
315.083	400.75
315.312	391.75
315.542	384.75
315.771	402.75
316.001	370.75
316.23	382.75
316.46	383.75
316.689	406.75
316.919	380.75
317.148	406.75
317.377	399.75
317.607	386.75
317.836	378.75
318.065	382.75
318.295	400.75
318.524	381.75
318.753	377.75
318.983	386.75
319.212	384.75
319.441	404.75
319.67	382.75
319.9	394.75
320.129	401.75
320.358	382.75
320.587	382.75
320.816	405.75
321.046	419.75
321.275	406.75
321.504	413.75
321.733	408.75
321.962	426.75
322.191	415.75
322.42	429.75
322.649	439.75
322.878	438.75
323.108	438.75
323.337	466.75
323.566	453.75
323.795	472.75
324.024	530.75
324.253	616.75
324.482	829.75
324.71	1246.75
324.939	1849.75
325.168	1634.75
325.397	840.75
325.626	599.75
325.855	541.75
326.084	490.75
326.313	472.75
326.542	490.75
326.77	534.75
326.999	592.75
327.228	774.75
327.457	1147.75
327.686	1406.75
327.914	950.75
328.143	640.75
328.372	593.75
328.6	562.75
328.829	538.75
329.058	540.75
329.287	535.75
329.515	527.75
329.744	506.75
329.972	495.75
330.201	546.75
330.43	534.75
330.658	569.75
330.887	581.75
331.115	568.75
331.344	538.75
331.572	486.75
331.801	487.75
332.03	467.75
332.258	473.75
332.486	473.75
332.715	478.75
332.943	484.75
333.172	483.75
333.4	494.75
333.629	476.75
333.857	490.75
334.085	500.75
334.314	532.75
334.542	572.75
334.771	567.75
334.999	525.75
335.227	513.75
335.455	502.75
335.684	490.75
335.912	474.75
336.14	470.75
336.369	483.75
336.597	459.75
336.825	488.75
337.053	480.75
337.281	484.75
337.51	464.75
337.738	483.75
337.966	468.75
338.194	463.75
338.422	439.75
338.65	465.75
338.878	450.75
339.106	459.75
339.334	443.75
339.562	431.75
339.79	462.75
340.018	462.75
340.246	455.75
340.474	463.75
340.702	445.75
340.93	442.75
341.158	476.75
341.386	450.75
341.614	456.75
341.842	454.75
342.07	442.75
342.298	451.75
342.526	446.75
342.754	424.75
342.981	440.75
343.209	430.75
343.437	443.75
343.665	460.75
343.893	474.75
344.12	470.75
344.348	475.75
344.576	450.75
344.804	459.75
345.031	460.75
345.259	459.75
345.487	440.75
345.714	436.75
345.942	429.75
346.17	426.75
346.397	432.75
346.625	438.75
346.853	428.75
347.08	433.75
347.308	443.75
347.535	446.75
347.763	436.75
347.99	428.75
348.218	448.75
348.445	457.75
348.673	436.75
348.9	424.75
349.128	418.75
349.355	426.75
349.583	394.75
349.81	426.75
350.037	419.75
350.265	406.75
350.492	426.75
350.72	421.75
350.947	427.75
351.174	432.75
351.402	461.75
351.629	463.75
351.856	443.75
352.083	438.75
352.311	456.75
352.538	448.75
352.765	454.75
352.992	459.75
353.22	447.75
353.447	434.75
353.674	427.75
353.901	423.75
354.128	419.75
354.355	394.75
354.583	404.75
354.81	400.75
355.037	424.75
355.264	404.75
355.491	413.75
355.718	423.75
355.945	410.75
356.172	425.75
356.399	400.75
356.626	396.75
356.853	430.75
357.08	430.75
357.307	396.75
357.534	418.75
357.761	398.75
357.988	418.75
358.215	414.75
358.441	434.75
358.668	436.75
358.895	420.75
359.122	423.75
359.349	422.75
359.576	430.75
359.802	476.75
360.029	454.75
360.256	459.75
360.483	457.75
360.709	447.75
360.936	458.75
361.163	416.75
361.39	422.75
361.616	435.75
361.843	442.75
362.07	440.75
362.296	453.75
362.523	417.75
362.749	434.75
362.976	428.75
363.203	407.75
363.429	412.75
363.656	422.75
363.882	430.75
364.109	408.75
364.335	428.75
364.562	436.75
364.788	434.75
365.015	425.75
365.241	420.75
365.468	406.75
365.694	420.75
365.92	438.75
366.147	416.75
366.373	431.75
366.599	426.75
366.826	435.75
367.052	423.75
367.278	418.75
367.505	414.75
367.731	443.75
367.957	419.75
368.184	415.75
368.41	424.75
368.636	437.75
368.862	432.75
369.089	445.75
369.315	424.75
369.541	425.75
369.767	431.75
369.993	394.75
370.219	431.75
370.445	446.75
370.672	442.75
370.898	418.75
371.124	424.75
371.35	440.75
371.576	419.75
371.802	404.75
372.028	432.75
372.254	412.75
372.48	439.75
372.706	436.75
372.932	423.75
373.158	401.75
373.384	446.75
373.61	432.75
373.835	431.75
374.061	446.75
374.287	453.75
374.513	421.75
374.739	426.75
374.965	431.75
375.191	437.75
375.416	471.75
375.642	436.75
375.868	439.75
376.094	445.75
376.319	447.75
376.545	428.75
376.771	426.75
376.997	417.75
377.222	447.75
377.448	436.75
377.674	452.75
377.899	425.75
378.125	447.75
378.35	431.75
378.576	436.75
378.802	420.75
379.027	431.75
379.253	420.75
379.478	426.75
379.704	427.75
379.929	424.75
380.155	447.75
380.38	431.75
380.606	452.75
380.831	424.75
381.057	446.75
381.282	447.75
381.507	419.75
381.733	429.75
381.958	443.75
382.184	434.75
382.409	458.75
382.634	431.75
382.86	467.75
383.085	438.75
383.31	442.75
383.535	475.75
383.761	468.75
383.986	455.75
384.211	473.75
384.436	473.75
384.662	478.75
384.887	464.75
385.112	482.75
385.337	492.75
385.562	496.75
385.787	486.75
386.013	498.75
386.238	489.75
386.463	499.75
386.688	487.75
386.913	470.75
387.138	472.75
387.363	467.75
387.588	479.75
387.813	479.75
388.038	463.75
388.263	491.75
388.488	485.75
388.713	480.75
388.938	489.75
389.163	489.75
389.387	504.75
389.612	463.75
389.837	478.75
390.062	484.75
390.287	508.75
390.512	506.75
390.736	471.75
390.961	502.75
391.186	471.75
391.411	515.75
391.636	492.75
391.86	495.75
392.085	486.75
392.31	505.75
392.534	513.75
392.759	480.75
392.984	499.75
393.208	493.75
393.433	508.75
393.658	490.75
393.882	488.75
394.107	498.75
394.331	500.75
394.556	489.75
394.78	478.75
395.005	532.75
395.229	500.75
395.454	502.75
395.678	495.75
395.903	520.75
396.127	540.75
396.352	533.75
396.576	529.75
396.801	494.75
397.025	513.75
397.249	502.75
397.474	541.75
397.698	524.75
397.922	541.75
398.147	558.75
398.371	544.75
398.595	552.75
398.82	563.75
399.044	556.75
399.268	610.75
399.492	631.75
399.717	674.75
399.941	724.75
400.165	718.75
400.389	718.75
400.613	644.75
400.837	615.75
401.062	583.75
401.286	596.75
401.51	575.75
401.734	587.75
401.958	578.75
402.182	592.75
402.406	608.75
402.63	588.75
402.854	562.75
403.078	574.75
403.302	601.75
403.526	579.75
403.75	582.75
403.974	606.75
404.198	587.75
404.422	618.75
404.645	606.75
404.869	624.75
405.093	648.75
405.317	692.75
405.541	708.75
405.765	647.75
405.988	619.75
406.212	615.75
406.436	628.75
406.66	644.75
406.883	645.75
407.107	664.75
407.331	703.75
407.555	752.75
407.778	790.75
408.002	714.75
408.226	662.75
408.449	652.75
408.673	654.75
408.896	648.75
409.12	739.75
409.344	679.75
409.567	648.75
409.791	622.75
410.014	590.75
410.238	579.75
410.461	628.75
410.685	621.75
410.908	605.75
411.132	641.75
411.355	666.75
411.578	653.75
411.802	594.75
412.025	586.75
412.249	591.75
412.472	608.75
412.695	652.75
412.919	639.75
413.142	628.75
413.365	590.75
413.589	599.75
413.812	559.75
414.035	576.75
414.258	578.75
414.482	546.75
414.705	573.75
414.928	580.75
415.151	549.75
415.374	555.75
415.597	567.75
415.821	558.75
416.044	562.75
416.267	548.75
416.49	567.75
416.713	541.75
416.936	562.75
417.159	562.75
417.382	571.75
417.605	560.75
417.828	566.75
418.051	580.75
418.274	578.75
418.497	556.75
418.72	580.75
418.943	569.75
419.166	578.75
419.389	618.75
419.611	595.75
419.834	589.75
420.057	600.75
420.28	598.75
420.503	585.75
420.726	570.75
420.948	607.75
421.171	614.75
421.394	663.75
421.617	610.75
421.839	566.75
422.062	575.75
422.285	595.75
422.507	637.75
422.73	708.75
422.953	702.75
423.175	636.75
423.398	602.75
423.621	610.75
423.843	620.75
424.066	633.75
424.288	614.75
424.511	640.75
424.733	662.75
424.956	750.75
425.178	732.75
425.401	747.75
425.623	752.75
425.846	653.75
426.068	607.75
426.291	606.75
426.513	618.75
426.735	614.75
426.958	662.75
427.18	722.75
427.402	880.75
427.625	935.75
427.847	810.75
428.069	726.75
428.292	650.75
428.514	617.75
428.736	590.75
428.958	580.75
429.181	554.75
429.403	572.75
429.625	581.75
429.847	591.75
430.069	678.75
430.292	676.75
430.514	582.75
430.736	559.75
430.958	558.75
431.18	570.75
431.402	542.75
431.624	532.75
431.846	526.75
432.068	544.75
432.29	545.75
432.512	554.75
432.734	566.75
432.956	558.75
433.178	573.75
433.4	548.75
433.622	549.75
433.844	542.75
434.066	565.75
434.287	531.75
434.509	559.75
434.731	570.75
434.953	570.75
435.175	585.75
435.397	615.75
435.618	620.75
435.84	655.75
436.062	732.75
436.284	822.75
436.505	669.75
436.727	593.75
436.949	580.75
437.17	580.75
437.392	562.75
437.614	544.75
437.835	605.75
438.057	665.75
438.278	798.75
438.5	831.75
438.721	848.75
438.943	806.75
439.165	672.75
439.386	633.75
439.608	598.75
439.829	605.75
440.05	613.75
440.272	691.75
440.493	632.75
440.715	596.75
440.936	582.75
441.158	568.75
441.379	550.75
441.6	600.75
441.822	614.75
442.043	649.75
442.264	730.75
442.486	764.75
442.707	668.75
442.928	638.75
443.149	630.75
443.371	647.75
443.592	696.75
443.813	778.75
444.034	862.75
444.255	717.75
444.476	652.75
444.698	653.75
444.919	643.75
445.14	790.75
445.361	702.75
445.582	657.75
445.803	713.75
446.024	788.75
446.245	820.75
446.466	761.75
446.687	648.75
446.908	617.75
447.129	568.75
447.35	568.75
447.571	528.75
447.792	538.75
448.013	574.75
448.234	560.75
448.455	610.75
448.675	710.75
448.896	863.75
449.117	712.75
449.338	633.75
449.559	766.75
449.779	912.75
450	732.75
450.221	605.75
450.442	544.75
450.662	522.75
450.883	518.75
451.104	543.75
451.324	544.75
451.545	544.75
451.766	515.75
451.986	495.75
452.207	492.75
452.428	510.75
452.648	498.75
452.869	467.75
453.089	502.75
453.31	528.75
453.53	516.75
453.751	501.75
453.971	486.75
454.192	492.75
454.412	500.75
454.633	488.75
454.853	503.75
455.073	492.75
455.294	522.75
455.514	564.75
455.734	586.75
455.955	491.75
456.175	490.75
456.395	454.75
456.616	464.75
456.836	474.75
457.056	468.75
457.276	460.75
457.497	462.75
457.717	463.75
457.937	470.75
458.157	468.75
458.377	475.75
458.598	510.75
458.818	576.75
459.038	618.75
459.258	653.75
459.478	585.75
459.698	550.75
459.918	541.75
460.138	555.75
460.358	557.75
460.578	570.75
460.798	576.75
461.018	578.75
461.238	564.75
461.458	550.75
461.678	558.75
461.898	560.75
462.118	571.75
462.338	556.75
462.558	578.75
462.777	592.75
462.997	612.75
463.217	639.75
463.437	642.75
463.657	607.75
463.876	598.75
464.096	615.75
464.316	620.75
464.536	622.75
464.755	588.75
464.975	604.75
465.195	640.75
465.414	653.75
465.634	598.75
465.854	584.75
466.073	556.75
466.293	538.75
466.512	537.75
466.732	518.75
466.951	538.75
467.171	526.75
467.391	508.75
467.61	528.75
467.829	523.75
468.049	550.75
468.268	553.75
468.488	504.75
468.707	498.75
468.927	506.75
469.146	490.75
469.365	503.75
469.585	498.75
469.804	509.75
470.023	512.75
470.243	518.75
470.462	517.75
470.681	552.75
470.901	558.75
471.12	531.75
471.339	530.75
471.558	531.75
471.777	540.75
471.997	500.75
472.216	500.75
472.435	560.75
472.654	549.75
472.873	498.75
473.092	538.75
473.311	525.75
473.53	532.75
473.749	518.75
473.968	538.75
474.187	654.75
474.406	682.75
474.625	572.75
474.844	522.75
475.063	532.75
475.282	523.75
475.501	528.75
475.72	558.75
475.939	542.75
476.158	536.75
476.377	537.75
476.596	526.75
476.814	551.75
477.033	543.75
477.252	526.75
477.471	571.75
477.69	567.75
477.908	586.75
478.127	571.75
478.346	572.75
478.564	590.75
478.783	614.75
479.002	591.75
479.22	607.75
479.439	612.75
479.658	630.75
479.876	640.75
480.095	630.75
480.313	659.75
480.532	652.75
480.751	658.75
480.969	640.75
481.188	704.75
481.406	744.75
481.624	662.75
481.843	622.75
482.061	629.75
482.28	626.75
482.498	630.75
482.717	614.75
482.935	604.75
483.153	623.75
483.372	607.75
483.59	609.75
483.808	605.75
484.027	586.75
484.245	609.75
484.463	611.75
484.681	602.75
484.9	610.75
485.118	624.75
485.336	634.75
485.554	634.75
485.772	621.75
485.99	639.75
486.209	653.75
486.427	637.75
486.645	646.75
486.863	666.75
487.081	637.75
487.299	638.75
487.517	657.75
487.735	648.75
487.953	657.75
488.171	664.75
488.389	645.75
488.607	646.75
488.825	656.75
489.043	639.75
489.261	677.75
489.479	650.75
489.696	682.75
489.914	664.75
490.132	671.75
490.35	674.75
490.568	698.75
490.786	715.75
491.003	712.75
491.221	720.75
491.439	749.75
491.657	738.75
491.874	742.75
492.092	764.75
492.31	778.75
492.527	739.75
492.745	759.75
492.963	760.75
493.18	770.75
493.398	748.75
493.615	780.75
493.833	766.75
494.05	771.75
494.268	776.75
494.485	789.75
494.703	778.75
494.92	782.75
495.138	776.75
495.355	779.75
495.573	808.75
495.79	776.75
496.008	777.75
496.225	774.75
496.442	779.75
496.66	792.75
496.877	774.75
497.094	786.75
497.312	820.75
497.529	811.75
497.746	815.75
497.963	823.75
498.181	854.75
498.398	852.75
498.615	886.75
498.832	928.75
499.049	934.75
499.267	962.75
499.484	988.75
499.701	1052.75
499.918	1072.75
500.135	1167.75
500.352	1259.75
500.569	1255.75
500.786	1258.75
501.003	1220.75
501.22	1189.75
501.437	1107.75
501.654	1084.75
501.871	1048.75
502.088	1003.75
502.305	943.75
502.522	928.75
502.739	879.75
502.956	871.75
503.172	835.75
503.389	824.75
503.606	847.75
503.823	808.75
504.04	819.75
504.256	803.75
504.473	799.75
504.69	810.75
504.907	796.75
505.123	777.75
505.34	757.75
505.557	739.75
505.773	751.75
505.99	751.75
506.207	727.75
506.423	744.75
506.64	722.75
506.856	719.75
507.073	692.75
507.289	741.75
507.506	683.75
507.722	717.75
507.939	724.75
508.155	708.75
508.372	695.75
508.588	683.75
508.805	681.75
509.021	680.75
509.238	705.75
509.454	704.75
509.67	686.75
509.887	657.75
510.103	655.75
510.319	683.75
510.536	736.75
510.752	1088.75
510.968	919.75
511.184	697.75
511.401	655.75
511.617	662.75
511.833	656.75
512.049	638.75
512.265	635.75
512.481	647.75
512.698	620.75
512.914	626.75
513.13	654.75
513.346	653.75
513.562	634.75
513.778	642.75
513.994	646.75
514.21	656.75
514.426	680.75
514.642	691.75
514.858	704.75
515.074	736.75
515.29	802.75
515.506	1108.75
515.721	991.75
515.937	724.75
516.153	697.75
516.369	698.75
516.585	681.75
516.801	670.75
517.016	684.75
517.232	711.75
517.448	709.75
517.664	708.75
517.879	694.75
518.095	698.75
518.311	692.75
518.527	685.75
518.742	696.75
518.958	647.75
519.173	642.75
519.389	655.75
519.605	622.75
519.82	638.75
520.036	652.75
520.251	656.75
520.467	692.75
520.682	670.75
520.898	676.75
521.113	687.75
521.329	711.75
521.544	765.75
521.76	906.75
521.975	1312.75
522.19	1322.75
522.406	833.75
522.621	688.75
522.836	636.75
523.052	622.75
523.267	597.75
523.482	599.75
523.698	586.75
523.913	598.75
524.128	575.75
524.343	579.75
524.559	572.75
524.774	576.75
524.989	539.75
525.204	570.75
525.419	576.75
525.634	564.75
525.849	558.75
526.064	554.75
526.28	560.75
526.495	528.75
526.71	555.75
526.925	554.75
527.14	527.75
527.355	543.75
527.57	540.75
527.785	523.75
527.999	519.75
528.214	533.75
528.429	531.75
528.644	533.75
528.859	527.75
529.074	542.75
529.289	557.75
529.503	586.75
529.718	591.75
529.933	560.75
530.148	527.75
530.363	534.75
530.577	523.75
530.792	532.75
531.007	547.75
531.221	515.75
531.436	525.75
531.651	526.75
531.865	529.75
532.08	534.75
532.295	522.75
532.509	516.75
532.724	538.75
532.938	514.75
533.153	506.75
533.367	523.75
533.582	534.75
533.796	499.75
534.011	515.75
534.225	518.75
534.44	518.75
534.654	514.75
534.868	527.75
535.083	510.75
535.297	491.75
535.511	505.75
535.726	519.75
535.94	498.75
536.154	517.75
536.369	530.75
536.583	494.75
536.797	503.75
537.011	481.75
537.225	502.75
537.44	501.75
537.654	494.75
537.868	486.75
538.082	480.75
538.296	489.75
538.51	495.75
538.724	500.75
538.938	500.75
539.153	477.75
539.367	509.75
539.581	498.75
539.795	489.75
540.009	522.75
540.222	528.75
540.436	477.75
540.65	487.75
540.864	509.75
541.078	519.75
541.292	500.75
541.506	485.75
541.72	472.75
541.934	480.75
542.147	487.75
542.361	483.75
542.575	500.75
542.789	484.75
543.002	496.75
543.216	502.75
543.43	486.75
543.644	486.75
543.857	493.75
544.071	495.75
544.285	499.75
544.498	504.75
544.712	510.75
544.925	492.75
545.139	502.75
545.352	479.75
545.566	484.75
545.779	488.75
545.993	494.75
546.206	510.75
546.42	479.75
546.633	477.75
546.847	481.75
547.06	471.75
547.274	473.75
547.487	483.75
547.7	482.75
547.914	469.75
548.127	495.75
548.34	487.75
548.554	481.75
548.767	471.75
548.98	479.75
549.193	464.75
549.407	473.75
549.62	482.75
549.833	492.75
550.046	488.75
550.259	480.75
550.473	490.75
550.686	472.75
550.899	462.75
551.112	477.75
551.325	476.75
551.538	471.75
551.751	471.75
551.964	487.75
552.177	473.75
552.39	468.75
552.603	489.75
552.816	502.75
553.029	504.75
553.242	502.75
553.455	518.75
553.667	523.75
553.88	494.75
554.093	508.75
554.306	485.75
554.519	502.75
554.732	510.75
554.944	470.75
555.157	482.75
555.37	476.75
555.583	447.75
555.795	469.75
556.008	439.75
556.221	424.75
556.433	442.75
556.646	439.75
556.859	451.75
557.071	441.75
557.284	447.75
557.496	451.75
557.709	425.75
557.921	446.75
558.134	424.75
558.346	418.75
558.559	424.75
558.771	404.75
558.984	443.75
559.196	426.75
559.409	430.75
559.621	419.75
559.833	420.75
560.046	432.75
560.258	422.75
560.47	421.75
560.683	417.75
560.895	415.75
561.107	406.75
561.32	414.75
561.532	414.75
561.744	431.75
561.956	422.75
562.168	413.75
562.381	419.75
562.593	419.75
562.805	434.75
563.017	412.75
563.229	443.75
563.441	434.75
563.653	441.75
563.865	454.75
564.077	429.75
564.289	430.75
564.501	442.75
564.713	456.75
564.925	443.75
565.137	464.75
565.349	478.75
565.561	462.75
565.773	483.75
565.985	494.75
566.197	490.75
566.408	515.75
566.62	534.75
566.832	564.75
567.044	578.75
567.255	582.75
567.467	586.75
567.679	559.75
567.891	596.75
568.102	598.75
568.314	591.75
568.526	545.75
568.737	544.75
568.949	503.75
569.161	489.75
569.372	487.75
569.584	461.75
569.795	453.75
570.007	443.75
570.218	496.75
570.43	453.75
570.641	431.75
570.853	439.75
571.064	436.75
571.276	428.75
571.487	415.75
571.698	429.75
571.91	389.75
572.121	403.75
572.333	395.75
572.544	394.75
572.755	395.75
572.966	395.75
573.178	403.75
573.389	378.75
573.6	361.75
573.811	374.75
574.023	374.75
574.234	364.75
574.445	364.75
574.656	359.75
574.867	362.75
575.078	377.75
575.289	358.75
575.501	359.75
575.712	359.75
575.923	365.75
576.134	355.75
576.345	352.75
576.556	368.75
576.767	371.75
576.978	377.75
577.188	363.75
577.399	360.75
577.61	355.75
577.821	358.75
578.032	362.75
578.243	380.75
578.454	504.75
578.665	412.75
578.875	337.75
579.086	351.75
579.297	349.75
579.508	347.75
579.718	315.75
579.929	348.75
580.14	346.75
580.35	340.75
580.561	324.75
580.772	335.75
580.982	322.75
581.193	336.75
581.403	331.75
581.614	342.75
581.825	331.75
582.035	336.75
582.246	342.75
582.456	308.75
582.667	328.75
582.877	324.75
583.087	333.75
583.298	310.75
583.508	314.75
583.719	320.75
583.929	337.75
584.139	322.75
584.35	333.75
584.56	324.75
584.77	320.75
584.981	343.75
585.191	333.75
585.401	325.75
585.611	326.75
585.821	314.75
586.032	316.75
586.242	320.75
586.452	340.75
586.662	314.75
586.872	317.75
587.082	319.75
587.292	307.75
587.502	325.75
587.713	318.75
587.923	307.75
588.133	323.75
588.343	323.75
588.553	323.75
588.762	302.75
588.972	315.75
589.182	319.75
589.392	335.75
589.602	309.75
589.812	326.75
590.022	320.75
590.232	327.75
590.441	321.75
590.651	313.75
590.861	330.75
591.071	324.75
591.281	326.75
591.49	320.75
591.7	335.75
591.91	350.75
592.119	333.75
592.329	320.75
592.539	340.75
592.748	354.75
592.958	360.75
593.167	352.75
593.377	362.75
593.587	359.75
593.796	365.75
594.006	379.75
594.215	366.75
594.424	360.75
594.634	348.75
594.843	342.75
595.053	333.75
595.262	344.75
595.472	325.75
595.681	330.75
595.89	310.75
596.1	302.75
596.309	319.75
596.518	306.75
596.727	310.75
596.937	319.75
597.146	294.75
597.355	300.75
597.564	322.75
597.774	281.75
597.983	296.75
598.192	284.75
598.401	312.75
598.61	301.75
598.819	284.75
599.028	271.75
599.237	300.75
599.446	274.75
599.655	293.75
599.864	288.75
600.073	284.75
600.282	286.75
600.491	288.75
600.7	279.75
600.909	281.75
601.118	278.75
601.327	282.75
601.536	276.75
601.745	293.75
601.953	269.75
602.162	294.75
602.371	278.75
602.58	282.75
602.789	279.75
602.997	278.75
603.206	271.75
603.415	267.75
603.623	267.75
603.832	287.75
604.041	271.75
604.249	259.75
604.458	244.75
604.666	279.75
604.875	278.75
605.084	275.75
605.292	275.75
605.501	270.75
605.709	268.75
605.918	284.75
606.126	271.75
606.334	268.75
606.543	249.75
606.751	253.75
606.96	262.75
607.168	278.75
607.376	261.75
607.585	263.75
607.793	268.75
608.001	255.75
608.21	258.75
608.418	251.75
608.626	273.75
608.834	275.75
609.043	245.75
609.251	262.75
609.459	258.75
609.667	264.75
609.875	251.75
610.083	260.75
610.291	246.75
610.499	261.75
610.707	259.75
610.916	264.75
611.124	264.75
611.332	285.75
611.54	262.75
611.748	264.75
611.955	262.75
612.163	278.75
612.371	266.75
612.579	252.75
612.787	259.75
612.995	259.75
613.203	270.75
613.411	264.75
613.618	275.75
613.826	278.75
614.034	267.75
614.242	254.75
614.449	253.75
614.657	239.75
614.865	267.75
615.072	249.75
615.28	271.75
615.488	274.75
615.695	261.75
615.903	271.75
616.111	261.75
616.318	258.75
616.526	267.75
616.733	282.75
616.941	247.75
617.148	261.75
617.356	254.75
617.563	276.75
617.771	253.75
617.978	258.75
618.185	248.75
618.393	233.75
618.6	248.75
618.807	246.75
619.015	247.75
619.222	270.75
619.429	268.75
619.637	242.75
619.844	257.75
620.051	246.75
620.258	268.75
620.466	258.75
620.673	235.75
620.88	248.75
621.087	234.75
621.294	222.75
621.501	236.75
621.708	230.75
621.915	226.75
622.122	245.75
622.329	248.75
622.536	231.75
622.743	233.75
622.95	233.75
623.157	245.75
623.364	233.75
623.571	232.75
623.778	242.75
623.985	251.75
624.192	215.75
624.399	238.75
624.606	221.75
624.812	253.75
625.019	251.75
625.226	235.75
625.433	236.75
625.639	207.75
625.846	231.75
626.053	222.75
626.259	218.75
626.466	213.75
626.673	223.75
626.879	223.75
627.086	230.75
627.293	215.75
627.499	215.75
627.706	217.75
627.912	221.75
628.119	227.75
628.325	215.75
628.532	227.75
628.738	223.75
628.945	213.75
629.151	215.75
629.357	202.75
629.564	219.75
629.77	204.75
629.976	215.75
630.183	202.75
630.389	200.75
630.595	209.75
630.802	204.75
631.008	225.75
631.214	207.75
631.42	221.75
631.627	188.75
631.833	219.75
632.039	210.75
632.245	206.75
632.451	208.75
632.657	192.75
632.863	206.75
633.069	226.75
633.275	196.75
633.481	193.75
633.688	197.75
633.893	201.75
634.099	203.75
634.305	201.75
634.511	196.75
634.717	196.75
634.923	192.75
635.129	196.75
635.335	188.75
635.541	193.75
635.747	204.75
635.952	196.75
636.158	203.75
636.364	203.75
636.57	199.75
636.775	222.75
636.981	192.75
637.187	203.75
637.392	194.75
637.598	161.75
637.804	190.75
638.009	194.75
638.215	196.75
638.421	200.75
638.626	180.75
638.832	197.75
639.037	196.75
639.243	194.75
639.448	198.75
639.654	192.75
639.859	182.75
640.065	178.75
640.27	179.75
640.475	201.75
640.681	193.75
640.886	182.75
641.091	190.75
641.297	190.75
641.502	192.75
641.707	188.75
641.913	183.75
642.118	189.75
642.323	167.75
642.528	182.75
642.733	182.75
642.939	188.75
643.144	180.75
643.349	177.75
643.554	193.75
643.759	165.75
643.964	194.75
644.169	198.75
644.374	183.75
644.579	197.75
644.784	189.75
644.989	182.75
645.194	188.75
645.399	187.75
645.604	181.75
645.809	194.75
646.014	176.75
646.219	174.75
646.423	184.75
646.628	201.75
646.833	173.75
647.038	174.75
647.243	178.75
647.447	191.75
647.652	170.75
647.857	169.75
648.062	180.75
648.266	188.75
648.471	176.75
648.676	174.75
648.88	181.75
649.085	172.75
649.289	171.75
649.494	184.75
649.698	206.75
649.903	183.75
650.107	185.75
650.312	188.75
650.516	158.75
650.721	188.75
650.925	163.75
651.13	174.75
651.334	169.75
651.539	153.75
651.743	147.75
651.947	170.75
652.152	150.75
652.356	165.75
652.56	156.75
652.764	174.75
652.969	162.75
653.173	136.75
653.377	153.75
653.581	158.75
653.785	139.75
653.99	142.75
654.194	159.75
654.398	151.75
654.602	143.75
654.806	148.75
655.01	152.75
655.214	144.75
655.418	156.75
655.622	142.75
655.826	146.75
656.03	149.75
656.234	140.75
656.438	140.75
656.642	153.75
656.846	145.75
657.049	124.75
657.253	134.75
657.457	120.75
657.661	125.75
657.865	123.75
658.068	121.75
658.272	124.75
658.476	105.75
658.68	116.75
658.883	116.75
659.087	102.75
659.291	87.75
659.494	111.75
659.698	101.75
659.901	96.75
660.105	95.75
660.309	91.75
660.512	107.75
660.716	98.75
660.919	95.75
661.123	91.75
661.326	104.75
661.53	86.75
661.733	87.75
661.936	90.75
662.14	91.75
662.343	88.75
662.546	96.75
662.75	89.75
662.953	97.75
663.156	90.75
663.36	92.75
663.563	80.75
663.766	76.75
663.969	79.75
664.173	89.75
664.376	83.75
664.579	75.75
664.782	73.75
664.985	87.75
665.188	89.75
665.391	90.75
665.594	93.75
665.797	79.75
666	94.75
666.203	77.75
666.406	77.75
666.609	102.75
666.812	80.75
667.015	85.75
667.218	87.75
667.421	96.75
667.624	87.75
667.827	67.75
668.03	63.75
668.232	74.75
668.435	81.75
668.638	83.75
668.841	83.75
669.043	82.75
669.246	77.75
669.449	86.75
669.651	70.75
669.854	84.75
670.057	79.75
670.259	75.75
670.462	84.75
670.665	90.75
670.867	80.75
671.07	85.75
671.272	82.75
671.475	69.75
671.677	74.75
671.88	87.75
672.082	99.75
672.284	88.75
672.487	74.75
672.689	80.75
672.892	70.75
