Data from 1975.PennyLincolnUp.Lamp.En5.5.200Scan.071719.P1.Changed Mount._HRD10591_15-57-08-859.txt Node
Date: Thu Jul 18 15:57:08 EDT 2019
User: cochatt
Spectrometer: HR+D1059
Trigger mode: 1
Integration Time (sec): 1.000000E-1
Scans to average: 1
Electric dark correction enabled: true
Nonlinearity correction enabled: false
Boxcar width: 0
XAxis mode: Wavelengths
Number of Pixels in Spectrum: 2048
>>>>>Begin Spectral Data<<<<<
223.165	-13.25
223.4	-13.25
223.635	-13.25
223.869	-9.25
224.104	-21.25
224.338	0.75
224.573	-20.25
224.808	-5.25
225.042	-17.25
225.277	-18.25
225.511	-22.25
225.746	2.75
225.98	13.75
226.215	8.75
226.449	15.75
226.683	15.75
226.918	31.75
227.152	37.75
227.387	34.75
227.621	24.75
227.856	40.75
228.09	42.75
228.324	55.75
228.559	46.75
228.793	76.75
229.027	89.75
229.262	116.75
229.496	124.75
229.73	123.75
229.964	159.75
230.199	132.75
230.433	115.75
230.667	116.75
230.901	112.75
231.136	116.75
231.37	112.75
231.604	109.75
231.838	88.75
232.072	115.75
232.306	121.75
232.541	108.75
232.775	108.75
233.009	112.75
233.243	115.75
233.477	119.75
233.711	131.75
233.945	110.75
234.179	127.75
234.413	111.75
234.647	114.75
234.881	122.75
235.115	137.75
235.349	118.75
235.583	129.75
235.817	134.75
236.051	130.75
236.285	126.75
236.519	143.75
236.753	134.75
236.987	134.75
237.221	182.75
237.455	242.75
237.689	178.75
237.922	154.75
238.156	131.75
238.39	138.75
238.624	137.75
238.858	136.75
239.091	135.75
239.325	125.75
239.559	126.75
239.793	147.75
240.027	133.75
240.26	133.75
240.494	150.75
240.728	167.75
240.961	159.75
241.195	158.75
241.429	136.75
241.662	160.75
241.896	134.75
242.13	142.75
242.363	142.75
242.597	137.75
242.83	140.75
243.064	143.75
243.298	135.75
243.531	134.75
243.765	139.75
243.998	140.75
244.232	162.75
244.465	166.75
244.699	141.75
244.932	163.75
245.166	154.75
245.399	150.75
245.633	144.75
245.866	140.75
246.099	154.75
246.333	155.75
246.566	143.75
246.8	162.75
247.033	150.75
247.266	166.75
247.5	168.75
247.733	167.75
247.966	170.75
248.2	167.75
248.433	170.75
248.666	177.75
248.899	190.75
249.133	194.75
249.366	221.75
249.599	199.75
249.832	196.75
250.066	191.75
250.299	178.75
250.532	200.75
250.765	207.75
250.998	216.75
251.231	245.75
251.465	201.75
251.698	218.75
251.931	191.75
252.164	192.75
252.397	200.75
252.63	201.75
252.863	212.75
253.096	211.75
253.329	202.75
253.562	214.75
253.795	222.75
254.028	213.75
254.261	206.75
254.494	224.75
254.727	261.75
254.96	290.75
255.193	281.75
255.426	243.75
255.659	240.75
255.892	237.75
256.124	229.75
256.357	242.75
256.59	246.75
256.823	217.75
257.056	216.75
257.289	207.75
257.521	209.75
257.754	226.75
257.987	223.75
258.22	233.75
258.452	231.75
258.685	206.75
258.918	210.75
259.151	220.75
259.383	227.75
259.616	210.75
259.849	243.75
260.081	238.75
260.314	243.75
260.547	260.75
260.779	260.75
261.012	249.75
261.244	226.75
261.477	234.75
261.71	249.75
261.942	222.75
262.175	239.75
262.407	243.75
262.64	223.75
262.872	223.75
263.105	218.75
263.337	221.75
263.57	235.75
263.802	222.75
264.035	223.75
264.267	213.75
264.499	213.75
264.732	220.75
264.964	218.75
265.197	210.75
265.429	220.75
265.661	224.75
265.894	226.75
266.126	211.75
266.358	222.75
266.591	231.75
266.823	225.75
267.055	235.75
267.287	251.75
267.52	238.75
267.752	235.75
267.984	243.75
268.216	239.75
268.448	248.75
268.681	249.75
268.913	256.75
269.145	265.75
269.377	272.75
269.609	267.75
269.841	281.75
270.073	290.75
270.306	277.75
270.538	314.75
270.77	317.75
271.002	316.75
271.234	296.75
271.466	296.75
271.698	319.75
271.93	330.75
272.162	339.75
272.394	312.75
272.626	319.75
272.858	284.75
273.09	290.75
273.322	283.75
273.553	270.75
273.785	271.75
274.017	268.75
274.249	258.75
274.481	264.75
274.713	264.75
274.945	291.75
275.176	299.75
275.408	283.75
275.64	264.75
275.872	271.75
276.104	271.75
276.335	278.75
276.567	289.75
276.799	300.75
277.031	308.75
277.262	339.75
277.494	329.75
277.726	302.75
277.957	292.75
278.189	292.75
278.421	264.75
278.652	302.75
278.884	288.75
279.115	297.75
279.347	276.75
279.579	284.75
279.81	273.75
280.042	270.75
280.273	291.75
280.505	280.75
280.736	282.75
280.968	294.75
281.199	289.75
281.431	279.75
281.662	294.75
281.894	283.75
282.125	294.75
282.356	298.75
282.588	290.75
282.819	310.75
283.051	298.75
283.282	297.75
283.513	290.75
283.745	283.75
283.976	300.75
284.207	324.75
284.439	284.75
284.67	295.75
284.901	282.75
285.132	297.75
285.364	278.75
285.595	298.75
285.826	298.75
286.057	309.75
286.288	297.75
286.52	316.75
286.751	293.75
286.982	294.75
287.213	313.75
287.444	306.75
287.675	310.75
287.906	298.75
288.138	311.75
288.369	311.75
288.6	321.75
288.831	316.75
289.062	323.75
289.293	303.75
289.524	308.75
289.755	315.75
289.986	331.75
290.217	318.75
290.448	333.75
290.679	322.75
290.91	297.75
291.141	308.75
291.371	319.75
291.602	302.75
291.833	305.75
292.064	324.75
292.295	330.75
292.526	309.75
292.757	322.75
292.987	317.75
293.218	306.75
293.449	312.75
293.68	305.75
293.91	297.75
294.141	308.75
294.372	318.75
294.603	324.75
294.833	309.75
295.064	308.75
295.295	320.75
295.525	307.75
295.756	322.75
295.987	315.75
296.217	337.75
296.448	331.75
296.679	340.75
296.909	327.75
297.14	308.75
297.37	335.75
297.601	321.75
297.831	295.75
298.062	321.75
298.292	329.75
298.523	335.75
298.753	334.75
298.984	338.75
299.214	312.75
299.445	315.75
299.675	324.75
299.905	340.75
300.136	341.75
300.366	335.75
300.597	336.75
300.827	367.75
301.057	323.75
301.288	346.75
301.518	331.75
301.748	350.75
301.979	338.75
302.209	355.75
302.439	336.75
302.669	353.75
302.9	339.75
303.13	341.75
303.36	356.75
303.59	351.75
303.82	350.75
304.051	352.75
304.281	341.75
304.511	339.75
304.741	341.75
304.971	352.75
305.201	338.75
305.431	351.75
305.661	358.75
305.891	337.75
306.121	348.75
306.352	343.75
306.582	364.75
306.812	344.75
307.042	345.75
307.272	330.75
307.502	353.75
307.731	367.75
307.961	347.75
308.191	327.75
308.421	346.75
308.651	359.75
308.881	351.75
309.111	354.75
309.341	356.75
309.571	361.75
309.8	344.75
310.03	364.75
310.26	383.75
310.49	385.75
310.72	362.75
310.949	407.75
311.179	382.75
311.409	394.75
311.639	369.75
311.868	381.75
312.098	388.75
312.328	378.75
312.557	406.75
312.787	409.75
313.017	401.75
313.246	412.75
313.476	390.75
313.706	370.75
313.935	404.75
314.165	391.75
314.394	412.75
314.624	420.75
314.853	400.75
315.083	390.75
315.312	393.75
315.542	371.75
315.771	372.75
316.001	391.75
316.23	371.75
316.46	359.75
316.689	375.75
316.919	367.75
317.148	396.75
317.377	404.75
317.607	396.75
317.836	376.75
318.065	380.75
318.295	375.75
318.524	376.75
318.753	378.75
318.983	395.75
319.212	386.75
319.441	406.75
319.67	386.75
319.9	372.75
320.129	399.75
320.358	388.75
320.587	385.75
320.816	386.75
321.046	420.75
321.275	394.75
321.504	412.75
321.733	397.75
321.962	403.75
322.191	434.75
322.42	444.75
322.649	416.75
322.878	450.75
323.108	454.75
323.337	452.75
323.566	472.75
323.795	476.75
324.024	524.75
324.253	618.75
324.482	817.75
324.71	1224.75
324.939	1917.75
325.168	1646.75
325.397	836.75
325.626	598.75
325.855	523.75
326.084	476.75
326.313	470.75
326.542	489.75
326.77	505.75
326.999	575.75
327.228	757.75
327.457	1138.75
327.686	1474.75
327.914	976.75
328.143	669.75
328.372	578.75
328.6	521.75
328.829	525.75
329.058	534.75
329.287	554.75
329.515	555.75
329.744	489.75
329.972	485.75
330.201	510.75
330.43	552.75
330.658	570.75
330.887	576.75
331.115	578.75
331.344	517.75
331.572	477.75
331.801	478.75
332.03	512.75
332.258	475.75
332.486	480.75
332.715	474.75
332.943	468.75
333.172	480.75
333.4	486.75
333.629	494.75
333.857	508.75
334.085	519.75
334.314	523.75
334.542	551.75
334.771	580.75
334.999	523.75
335.227	508.75
335.455	473.75
335.684	463.75
335.912	460.75
336.14	471.75
336.369	482.75
336.597	458.75
336.825	487.75
337.053	483.75
337.281	444.75
337.51	446.75
337.738	455.75
337.966	477.75
338.194	452.75
338.422	460.75
338.65	440.75
338.878	452.75
339.106	428.75
339.334	450.75
339.562	434.75
339.79	452.75
340.018	448.75
340.246	453.75
340.474	461.75
340.702	458.75
340.93	458.75
341.158	455.75
341.386	443.75
341.614	452.75
341.842	441.75
342.07	442.75
342.298	441.75
342.526	439.75
342.754	430.75
342.981	446.75
343.209	452.75
343.437	458.75
343.665	461.75
343.893	452.75
344.12	474.75
344.348	473.75
344.576	457.75
344.804	469.75
345.031	465.75
345.259	477.75
345.487	459.75
345.714	440.75
345.942	441.75
346.17	438.75
346.397	436.75
346.625	435.75
346.853	421.75
347.08	442.75
347.308	422.75
347.535	428.75
347.763	424.75
347.99	428.75
348.218	440.75
348.445	436.75
348.673	423.75
348.9	437.75
349.128	422.75
349.355	411.75
349.583	415.75
349.81	432.75
350.037	436.75
350.265	433.75
350.492	437.75
350.72	438.75
350.947	430.75
351.174	434.75
351.402	446.75
351.629	431.75
351.856	438.75
352.083	424.75
352.311	439.75
352.538	436.75
352.765	443.75
352.992	448.75
353.22	434.75
353.447	431.75
353.674	426.75
353.901	429.75
354.128	405.75
354.355	404.75
354.583	391.75
354.81	399.75
355.037	399.75
355.264	416.75
355.491	407.75
355.718	430.75
355.945	424.75
356.172	396.75
356.399	416.75
356.626	433.75
356.853	408.75
357.08	387.75
357.307	407.75
357.534	385.75
357.761	419.75
357.988	417.75
358.215	404.75
358.441	407.75
358.668	454.75
358.895	398.75
359.122	419.75
359.349	422.75
359.576	421.75
359.802	442.75
360.029	470.75
360.256	470.75
360.483	472.75
360.709	472.75
360.936	441.75
361.163	429.75
361.39	421.75
361.616	461.75
361.843	422.75
362.07	436.75
362.296	446.75
362.523	461.75
362.749	452.75
362.976	449.75
363.203	430.75
363.429	406.75
363.656	442.75
363.882	417.75
364.109	429.75
364.335	439.75
364.562	404.75
364.788	416.75
365.015	434.75
365.241	414.75
365.468	422.75
365.694	446.75
365.92	425.75
366.147	418.75
366.373	422.75
366.599	410.75
366.826	409.75
367.052	420.75
367.278	414.75
367.505	410.75
367.731	430.75
367.957	410.75
368.184	423.75
368.41	439.75
368.636	451.75
368.862	454.75
369.089	433.75
369.315	416.75
369.541	416.75
369.767	410.75
369.993	435.75
370.219	418.75
370.445	410.75
370.672	429.75
370.898	436.75
371.124	441.75
371.35	431.75
371.576	426.75
371.802	419.75
372.028	435.75
372.254	431.75
372.48	443.75
372.706	428.75
372.932	435.75
373.158	439.75
373.384	426.75
373.61	431.75
373.835	434.75
374.061	430.75
374.287	459.75
374.513	432.75
374.739	440.75
374.965	431.75
375.191	453.75
375.416	439.75
375.642	444.75
375.868	439.75
376.094	439.75
376.319	447.75
376.545	425.75
376.771	442.75
376.997	435.75
377.222	407.75
377.448	432.75
377.674	429.75
377.899	434.75
378.125	438.75
378.35	429.75
378.576	437.75
378.802	421.75
379.027	428.75
379.253	434.75
379.478	428.75
379.704	418.75
379.929	434.75
380.155	415.75
380.38	427.75
380.606	426.75
380.831	447.75
381.057	437.75
381.282	424.75
381.507	452.75
381.733	427.75
381.958	441.75
382.184	424.75
382.409	436.75
382.634	454.75
382.86	442.75
383.085	428.75
383.31	446.75
383.535	461.75
383.761	455.75
383.986	446.75
384.211	462.75
384.436	488.75
384.662	472.75
384.887	488.75
385.112	478.75
385.337	463.75
385.562	479.75
385.787	485.75
386.013	503.75
386.238	509.75
386.463	484.75
386.688	484.75
386.913	479.75
387.138	479.75
387.363	487.75
387.588	474.75
387.813	484.75
388.038	469.75
388.263	481.75
388.488	477.75
388.713	474.75
388.938	467.75
389.163	491.75
389.387	500.75
389.612	476.75
389.837	476.75
390.062	486.75
390.287	475.75
390.512	469.75
390.736	447.75
390.961	486.75
391.186	465.75
391.411	475.75
391.636	492.75
391.86	512.75
392.085	501.75
392.31	521.75
392.534	512.75
392.759	508.75
392.984	484.75
393.208	493.75
393.433	489.75
393.658	491.75
393.882	506.75
394.107	509.75
394.331	486.75
394.556	507.75
394.78	471.75
395.005	502.75
395.229	490.75
395.454	487.75
395.678	510.75
395.903	532.75
396.127	526.75
396.352	541.75
396.576	530.75
396.801	509.75
397.025	514.75
397.249	495.75
397.474	522.75
397.698	522.75
397.922	522.75
398.147	548.75
398.371	565.75
398.595	559.75
398.82	564.75
399.044	580.75
399.268	580.75
399.492	649.75
399.717	667.75
399.941	667.75
400.165	726.75
400.389	694.75
400.613	664.75
400.837	599.75
401.062	572.75
401.286	556.75
401.51	580.75
401.734	568.75
401.958	579.75
402.182	580.75
402.406	596.75
402.63	570.75
402.854	579.75
403.078	575.75
403.302	578.75
403.526	575.75
403.75	583.75
403.974	591.75
404.198	592.75
404.422	615.75
404.645	584.75
404.869	609.75
405.093	619.75
405.317	695.75
405.541	727.75
405.765	643.75
405.988	622.75
406.212	618.75
406.436	638.75
406.66	630.75
406.883	630.75
407.107	668.75
407.331	705.75
407.555	777.75
407.778	777.75
408.002	721.75
408.226	672.75
408.449	627.75
408.673	635.75
408.896	649.75
409.12	698.75
409.344	659.75
409.567	605.75
409.791	598.75
410.014	587.75
410.238	586.75
410.461	598.75
410.685	614.75
410.908	590.75
411.132	634.75
411.355	654.75
411.578	652.75
411.802	604.75
412.025	595.75
412.249	602.75
412.472	629.75
412.695	654.75
412.919	650.75
413.142	618.75
413.365	579.75
413.589	568.75
413.812	564.75
414.035	545.75
414.258	544.75
414.482	557.75
414.705	586.75
414.928	551.75
415.151	560.75
415.374	547.75
415.597	564.75
415.821	540.75
416.044	543.75
416.267	555.75
416.49	566.75
416.713	553.75
416.936	546.75
417.159	548.75
417.382	549.75
417.605	548.75
417.828	544.75
418.051	578.75
418.274	582.75
418.497	541.75
418.72	566.75
418.943	556.75
419.166	596.75
419.389	629.75
419.611	601.75
419.834	582.75
420.057	610.75
420.28	581.75
420.503	579.75
420.726	590.75
420.948	608.75
421.171	609.75
421.394	667.75
421.617	604.75
421.839	573.75
422.062	576.75
422.285	598.75
422.507	653.75
422.73	704.75
422.953	702.75
423.175	615.75
423.398	596.75
423.621	592.75
423.843	610.75
424.066	628.75
424.288	626.75
424.511	617.75
424.733	693.75
424.956	766.75
425.178	734.75
425.401	718.75
425.623	775.75
425.846	664.75
426.068	618.75
426.291	603.75
426.513	584.75
426.735	645.75
426.958	644.75
427.18	733.75
427.402	886.75
427.625	943.75
427.847	806.75
428.069	725.75
428.292	654.75
428.514	582.75
428.736	575.75
428.958	571.75
429.181	584.75
429.403	554.75
429.625	586.75
429.847	584.75
430.069	655.75
430.292	650.75
430.514	584.75
430.736	556.75
430.958	543.75
431.18	531.75
431.402	539.75
431.624	522.75
431.846	534.75
432.068	544.75
432.29	544.75
432.512	559.75
432.734	548.75
432.956	535.75
433.178	549.75
433.4	535.75
433.622	527.75
433.844	541.75
434.066	530.75
434.287	531.75
434.509	543.75
434.731	551.75
434.953	574.75
435.175	624.75
435.397	613.75
435.618	625.75
435.84	650.75
436.062	778.75
436.284	825.75
436.505	674.75
436.727	615.75
436.949	578.75
437.17	579.75
437.392	554.75
437.614	596.75
437.835	614.75
438.057	682.75
438.278	792.75
438.5	799.75
438.721	869.75
438.943	812.75
439.165	702.75
439.386	618.75
439.608	611.75
439.829	601.75
440.05	612.75
440.272	666.75
440.493	653.75
440.715	587.75
440.936	580.75
441.158	575.75
441.379	577.75
441.6	594.75
441.822	607.75
442.043	627.75
442.264	707.75
442.486	779.75
442.707	678.75
442.928	623.75
443.149	604.75
443.371	651.75
443.592	690.75
443.813	788.75
444.034	876.75
444.255	714.75
444.476	646.75
444.698	631.75
444.919	635.75
445.14	755.75
445.361	691.75
445.582	644.75
445.803	718.75
446.024	823.75
446.245	823.75
446.466	734.75
446.687	642.75
446.908	604.75
447.129	578.75
447.35	556.75
447.571	545.75
447.792	570.75
448.013	548.75
448.234	562.75
448.455	603.75
448.675	740.75
448.896	873.75
449.117	719.75
449.338	686.75
449.559	794.75
449.779	920.75
450	734.75
450.221	622.75
450.442	558.75
450.662	524.75
450.883	539.75
451.104	540.75
451.324	537.75
451.545	528.75
451.766	501.75
451.986	500.75
452.207	479.75
452.428	487.75
452.648	480.75
452.869	524.75
453.089	507.75
453.31	524.75
453.53	486.75
453.751	510.75
453.971	490.75
454.192	500.75
454.412	494.75
454.633	483.75
454.853	485.75
455.073	496.75
455.294	512.75
455.514	585.75
455.734	578.75
455.955	491.75
456.175	467.75
456.395	458.75
456.616	463.75
456.836	466.75
457.056	454.75
457.276	462.75
457.497	473.75
457.717	476.75
457.937	478.75
458.157	475.75
458.377	486.75
458.598	528.75
458.818	560.75
459.038	622.75
459.258	651.75
459.478	600.75
459.698	538.75
459.918	548.75
460.138	541.75
460.358	562.75
460.578	582.75
460.798	566.75
461.018	572.75
461.238	555.75
461.458	546.75
461.678	563.75
461.898	566.75
462.118	566.75
462.338	597.75
462.558	598.75
462.777	599.75
462.997	615.75
463.217	659.75
463.437	626.75
463.657	616.75
463.876	592.75
464.096	611.75
464.316	592.75
464.536	626.75
464.755	582.75
464.975	599.75
465.195	612.75
465.414	643.75
465.634	600.75
465.854	539.75
466.073	564.75
466.293	519.75
466.512	528.75
466.732	515.75
466.951	514.75
467.171	529.75
467.391	507.75
467.61	525.75
467.829	512.75
468.049	522.75
468.268	524.75
468.488	490.75
468.707	520.75
468.927	494.75
469.146	506.75
469.365	512.75
469.585	493.75
469.804	516.75
470.023	520.75
470.243	535.75
470.462	523.75
470.681	530.75
470.901	527.75
471.12	511.75
471.339	515.75
471.558	523.75
471.777	528.75
471.997	521.75
472.216	513.75
472.435	575.75
472.654	532.75
472.873	509.75
473.092	509.75
473.311	491.75
473.53	495.75
473.749	531.75
473.968	575.75
474.187	657.75
474.406	663.75
474.625	570.75
474.844	534.75
475.063	523.75
475.282	514.75
475.501	523.75
475.72	531.75
475.939	531.75
476.158	528.75
476.377	534.75
476.596	543.75
476.814	538.75
477.033	549.75
477.252	557.75
477.471	535.75
477.69	548.75
477.908	566.75
478.127	564.75
478.346	576.75
478.564	576.75
478.783	590.75
479.002	603.75
479.22	588.75
479.439	618.75
479.658	642.75
479.876	649.75
480.095	647.75
480.313	650.75
480.532	651.75
480.751	655.75
480.969	648.75
481.188	693.75
481.406	726.75
481.624	671.75
481.843	638.75
482.061	632.75
482.28	632.75
482.498	619.75
482.717	629.75
482.935	628.75
483.153	609.75
483.372	599.75
483.59	610.75
483.808	619.75
484.027	615.75
484.245	623.75
484.463	636.75
484.681	630.75
484.9	628.75
485.118	620.75
485.336	644.75
485.554	641.75
485.772	635.75
485.99	613.75
486.209	657.75
486.427	650.75
486.645	630.75
486.863	649.75
487.081	654.75
487.299	639.75
487.517	642.75
487.735	644.75
487.953	656.75
488.171	664.75
488.389	640.75
488.607	645.75
488.825	646.75
489.043	652.75
489.261	687.75
489.479	666.75
489.696	686.75
489.914	668.75
490.132	683.75
490.35	671.75
490.568	708.75
490.786	723.75
491.003	673.75
491.221	720.75
491.439	756.75
491.657	720.75
491.874	750.75
492.092	743.75
492.31	750.75
492.527	770.75
492.745	747.75
492.963	762.75
493.18	768.75
493.398	776.75
493.615	785.75
493.833	778.75
494.05	762.75
494.268	775.75
494.485	748.75
494.703	770.75
494.92	744.75
495.138	770.75
495.355	780.75
495.573	784.75
495.79	775.75
496.008	754.75
496.225	762.75
496.442	766.75
496.66	776.75
496.877	771.75
497.094	772.75
497.312	806.75
497.529	780.75
497.746	805.75
497.963	859.75
498.181	849.75
498.398	860.75
498.615	895.75
498.832	893.75
499.049	905.75
499.267	950.75
499.484	985.75
499.701	1044.75
499.918	1093.75
500.135	1167.75
500.352	1225.75
500.569	1222.75
500.786	1275.75
501.003	1258.75
501.22	1186.75
501.437	1128.75
501.654	1043.75
501.871	1044.75
502.088	967.75
502.305	936.75
502.522	900.75
502.739	887.75
502.956	848.75
503.172	826.75
503.389	830.75
503.606	838.75
503.823	761.75
504.04	780.75
504.256	814.75
504.473	789.75
504.69	786.75
504.907	787.75
505.123	765.75
505.34	748.75
505.557	728.75
505.773	756.75
505.99	755.75
506.207	751.75
506.423	733.75
506.64	719.75
506.856	710.75
507.073	744.75
507.289	724.75
507.506	708.75
507.722	711.75
507.939	753.75
508.155	719.75
508.372	705.75
508.588	694.75
508.805	676.75
509.021	671.75
509.238	680.75
509.454	696.75
509.67	688.75
509.887	697.75
510.103	700.75
510.319	670.75
510.536	727.75
510.752	1067.75
510.968	930.75
511.184	666.75
511.401	660.75
511.617	646.75
511.833	671.75
512.049	652.75
512.265	653.75
512.481	644.75
512.698	617.75
512.914	630.75
513.13	632.75
513.346	620.75
513.562	656.75
513.778	639.75
513.994	639.75
514.21	652.75
514.426	656.75
514.642	672.75
514.858	714.75
515.074	746.75
515.29	807.75
515.506	1078.75
515.721	993.75
515.937	743.75
516.153	692.75
516.369	666.75
516.585	681.75
516.801	670.75
517.016	652.75
517.232	709.75
517.448	703.75
517.664	708.75
517.879	666.75
518.095	707.75
518.311	707.75
518.527	655.75
518.742	664.75
518.958	666.75
519.173	660.75
519.389	651.75
519.605	637.75
519.82	641.75
520.036	658.75
520.251	663.75
520.467	680.75
520.682	664.75
520.898	677.75
521.113	660.75
521.329	717.75
521.544	762.75
521.76	886.75
521.975	1325.75
522.19	1324.75
522.406	794.75
522.621	670.75
522.836	620.75
523.052	603.75
523.267	597.75
523.482	568.75
523.698	594.75
523.913	589.75
524.128	604.75
524.343	575.75
524.559	552.75
524.774	544.75
524.989	586.75
525.204	566.75
525.419	556.75
525.634	559.75
525.849	563.75
526.064	526.75
526.28	540.75
526.495	543.75
526.71	538.75
526.925	528.75
527.14	533.75
527.355	552.75
527.57	544.75
527.785	524.75
527.999	509.75
528.214	543.75
528.429	542.75
528.644	528.75
528.859	544.75
529.074	547.75
529.289	549.75
529.503	589.75
529.718	609.75
529.933	564.75
530.148	548.75
530.363	519.75
530.577	540.75
530.792	519.75
531.007	526.75
531.221	526.75
531.436	513.75
531.651	526.75
531.865	523.75
532.08	521.75
532.295	527.75
532.509	508.75
532.724	520.75
532.938	532.75
533.153	501.75
533.367	494.75
533.582	522.75
533.796	526.75
534.011	529.75
534.225	512.75
534.44	484.75
534.654	516.75
534.868	490.75
535.083	512.75
535.297	527.75
535.511	524.75
535.726	525.75
535.94	524.75
536.154	511.75
536.369	519.75
536.583	496.75
536.797	506.75
537.011	484.75
537.225	474.75
537.44	492.75
537.654	488.75
537.868	488.75
538.082	483.75
538.296	489.75
538.51	500.75
538.724	492.75
538.938	512.75
539.153	492.75
539.367	502.75
539.581	485.75
539.795	491.75
540.009	476.75
540.222	502.75
540.436	486.75
540.65	473.75
540.864	499.75
541.078	494.75
541.292	492.75
541.506	484.75
541.72	510.75
541.934	495.75
542.147	506.75
542.361	489.75
542.575	492.75
542.789	501.75
543.002	480.75
543.216	500.75
543.43	491.75
543.644	469.75
543.857	476.75
544.071	528.75
544.285	504.75
544.498	481.75
544.712	506.75
544.925	511.75
545.139	485.75
545.352	502.75
545.566	474.75
545.779	518.75
545.993	475.75
546.206	492.75
546.42	475.75
546.633	488.75
546.847	479.75
547.06	470.75
547.274	486.75
547.487	474.75
547.7	472.75
547.914	478.75
548.127	479.75
548.34	467.75
548.554	445.75
548.767	487.75
548.98	472.75
549.193	490.75
549.407	488.75
549.62	474.75
549.833	485.75
550.046	493.75
550.259	468.75
550.473	468.75
550.686	469.75
550.899	480.75
551.112	467.75
551.325	474.75
551.538	483.75
551.751	474.75
551.964	454.75
552.177	459.75
552.39	491.75
552.603	488.75
552.816	474.75
553.029	494.75
553.242	510.75
553.455	511.75
553.667	511.75
553.88	504.75
554.093	491.75
554.306	503.75
554.519	480.75
554.732	468.75
554.944	487.75
555.157	453.75
555.37	460.75
555.583	476.75
555.795	476.75
556.008	451.75
556.221	451.75
556.433	452.75
556.646	443.75
556.859	448.75
557.071	424.75
557.284	443.75
557.496	451.75
557.709	416.75
557.921	424.75
558.134	426.75
558.346	435.75
558.559	440.75
558.771	416.75
558.984	421.75
559.196	426.75
559.409	424.75
559.621	424.75
559.833	436.75
560.046	424.75
560.258	435.75
560.47	422.75
560.683	434.75
560.895	426.75
561.107	411.75
561.32	426.75
561.532	430.75
561.744	410.75
561.956	399.75
562.168	416.75
562.381	429.75
562.593	429.75
562.805	412.75
563.017	414.75
563.229	418.75
563.441	417.75
563.653	437.75
563.865	438.75
564.077	434.75
564.289	442.75
564.501	439.75
564.713	447.75
564.925	435.75
565.137	445.75
565.349	464.75
565.561	472.75
565.773	480.75
565.985	521.75
566.197	514.75
566.408	508.75
566.62	533.75
566.832	546.75
567.044	569.75
567.255	571.75
567.467	570.75
567.679	582.75
567.891	589.75
568.102	590.75
568.314	583.75
568.526	582.75
568.737	551.75
568.949	509.75
569.161	489.75
569.372	471.75
569.584	468.75
569.795	445.75
570.007	430.75
570.218	461.75
570.43	463.75
570.641	437.75
570.853	414.75
571.064	422.75
571.276	416.75
571.487	409.75
571.698	406.75
571.91	406.75
572.121	403.75
572.333	395.75
572.544	386.75
572.755	385.75
572.966	384.75
573.178	380.75
573.389	381.75
573.6	365.75
573.811	375.75
574.023	370.75
574.234	364.75
574.445	376.75
574.656	365.75
574.867	356.75
575.078	372.75
575.289	356.75
575.501	374.75
575.712	361.75
575.923	344.75
576.134	356.75
576.345	383.75
576.556	354.75
576.767	359.75
576.978	372.75
577.188	374.75
577.399	345.75
577.61	358.75
577.821	342.75
578.032	347.75
578.243	376.75
578.454	507.75
578.665	414.75
578.875	368.75
579.086	356.75
579.297	317.75
579.508	346.75
579.718	334.75
579.929	346.75
580.14	327.75
580.35	324.75
580.561	347.75
580.772	320.75
580.982	334.75
581.193	334.75
581.403	325.75
581.614	349.75
581.825	335.75
582.035	331.75
582.246	335.75
582.456	336.75
582.667	340.75
582.877	312.75
583.087	329.75
583.298	336.75
583.508	331.75
583.719	333.75
583.929	342.75
584.139	346.75
584.35	312.75
584.56	325.75
584.77	330.75
584.981	315.75
585.191	333.75
585.401	340.75
585.611	322.75
585.821	320.75
586.032	308.75
586.242	319.75
586.452	309.75
586.662	329.75
586.872	335.75
587.082	326.75
587.292	326.75
587.502	302.75
587.713	320.75
587.923	293.75
588.133	325.75
588.343	318.75
588.553	325.75
588.762	316.75
588.972	323.75
589.182	335.75
589.392	312.75
589.602	341.75
589.812	318.75
590.022	331.75
590.232	328.75
590.441	330.75
590.651	315.75
590.861	313.75
591.071	314.75
591.281	323.75
591.49	320.75
591.7	325.75
591.91	347.75
592.119	335.75
592.329	330.75
592.539	326.75
592.748	344.75
592.958	334.75
593.167	347.75
593.377	356.75
593.587	358.75
593.796	358.75
594.006	368.75
594.215	363.75
594.424	343.75
594.634	357.75
594.843	338.75
595.053	319.75
595.262	308.75
595.472	320.75
595.681	311.75
595.89	308.75
596.1	310.75
596.309	297.75
596.518	314.75
596.727	301.75
596.937	314.75
597.146	322.75
597.355	302.75
597.564	298.75
597.774	290.75
597.983	301.75
598.192	298.75
598.401	295.75
598.61	287.75
598.819	281.75
599.028	299.75
599.237	283.75
599.446	264.75
599.655	295.75
599.864	268.75
600.073	270.75
600.282	301.75
600.491	283.75
600.7	272.75
600.909	293.75
601.118	279.75
601.327	275.75
601.536	284.75
601.745	280.75
601.953	279.75
602.162	289.75
602.371	283.75
602.58	266.75
602.789	269.75
602.997	265.75
603.206	263.75
603.415	252.75
603.623	259.75
603.832	268.75
604.041	268.75
604.249	272.75
604.458	285.75
604.666	281.75
604.875	271.75
605.084	270.75
605.292	262.75
605.501	258.75
605.709	256.75
605.918	264.75
606.126	265.75
606.334	269.75
606.543	263.75
606.751	259.75
606.96	274.75
607.168	272.75
607.376	241.75
607.585	266.75
607.793	272.75
608.001	279.75
608.21	242.75
608.418	262.75
608.626	258.75
608.834	269.75
609.043	265.75
609.251	257.75
609.459	276.75
609.667	271.75
609.875	260.75
610.083	265.75
610.291	269.75
610.499	248.75
610.707	248.75
610.916	263.75
611.124	255.75
611.332	282.75
611.54	255.75
611.748	268.75
611.955	270.75
612.163	238.75
612.371	245.75
612.579	258.75
612.787	269.75
612.995	250.75
613.203	248.75
613.411	243.75
613.618	261.75
613.826	252.75
614.034	268.75
614.242	255.75
614.449	256.75
614.657	266.75
614.865	250.75
615.072	259.75
615.28	258.75
615.488	248.75
615.695	252.75
615.903	257.75
616.111	247.75
616.318	250.75
616.526	258.75
616.733	264.75
616.941	242.75
617.148	262.75
617.356	245.75
617.563	230.75
617.771	246.75
617.978	255.75
618.185	242.75
618.393	243.75
618.6	234.75
618.807	260.75
619.015	247.75
619.222	254.75
619.429	242.75
619.637	258.75
619.844	256.75
620.051	254.75
620.258	248.75
620.466	262.75
620.673	238.75
620.88	232.75
621.087	238.75
621.294	252.75
621.501	221.75
621.708	239.75
621.915	230.75
622.122	232.75
622.329	245.75
622.536	228.75
622.743	236.75
622.95	240.75
623.157	241.75
623.364	233.75
623.571	230.75
623.778	244.75
623.985	246.75
624.192	247.75
624.399	232.75
624.606	222.75
624.812	224.75
625.019	243.75
625.226	231.75
625.433	236.75
625.639	227.75
625.846	229.75
626.053	217.75
626.259	200.75
626.466	219.75
626.673	223.75
626.879	208.75
627.086	234.75
627.293	219.75
627.499	203.75
627.706	221.75
627.912	219.75
628.119	234.75
628.325	214.75
628.532	212.75
628.738	219.75
628.945	218.75
629.151	213.75
629.357	214.75
629.564	216.75
629.77	224.75
629.976	215.75
630.183	224.75
630.389	210.75
630.595	207.75
630.802	198.75
631.008	210.75
631.214	213.75
631.42	207.75
631.627	206.75
631.833	211.75
632.039	191.75
632.245	194.75
632.451	200.75
632.657	191.75
632.863	189.75
633.069	194.75
633.275	199.75
633.481	198.75
633.688	188.75
633.893	201.75
634.099	196.75
634.305	201.75
634.511	205.75
634.717	203.75
634.923	207.75
635.129	201.75
635.335	201.75
635.541	206.75
635.747	197.75
635.952	202.75
636.158	205.75
636.364	197.75
636.57	213.75
636.775	199.75
636.981	204.75
637.187	210.75
637.392	192.75
637.598	188.75
637.804	196.75
638.009	194.75
638.215	186.75
638.421	166.75
638.626	187.75
638.832	181.75
639.037	171.75
639.243	184.75
639.448	196.75
639.654	188.75
639.859	199.75
640.065	186.75
640.27	195.75
640.475	174.75
640.681	171.75
640.886	184.75
641.091	196.75
641.297	187.75
641.502	174.75
641.707	171.75
641.913	170.75
642.118	183.75
642.323	167.75
642.528	172.75
642.733	182.75
642.939	183.75
643.144	178.75
643.349	186.75
643.554	170.75
643.759	186.75
643.964	172.75
644.169	174.75
644.374	168.75
644.579	169.75
644.784	188.75
644.989	186.75
645.194	176.75
645.399	178.75
645.604	166.75
645.809	176.75
646.014	198.75
646.219	176.75
646.423	162.75
646.628	186.75
646.833	180.75
647.038	183.75
647.243	175.75
647.447	182.75
647.652	164.75
647.857	174.75
648.062	189.75
648.266	158.75
648.471	172.75
648.676	188.75
648.88	166.75
649.085	171.75
649.289	171.75
649.494	195.75
649.698	207.75
649.903	194.75
650.107	174.75
650.312	145.75
650.516	165.75
650.721	161.75
650.925	158.75
651.13	152.75
651.334	164.75
651.539	142.75
651.743	163.75
651.947	169.75
652.152	157.75
652.356	150.75
652.56	166.75
652.764	150.75
652.969	153.75
653.173	152.75
653.377	162.75
653.581	148.75
653.785	143.75
653.99	143.75
654.194	142.75
654.398	144.75
654.602	152.75
654.806	155.75
655.01	154.75
655.214	151.75
655.418	143.75
655.622	136.75
655.826	139.75
656.03	151.75
656.234	144.75
656.438	138.75
656.642	151.75
656.846	150.75
657.049	142.75
657.253	153.75
657.457	136.75
657.661	137.75
657.865	116.75
658.068	118.75
658.272	112.75
658.476	130.75
658.68	97.75
658.883	116.75
659.087	119.75
659.291	102.75
659.494	105.75
659.698	106.75
659.901	94.75
660.105	108.75
660.309	90.75
660.512	92.75
660.716	88.75
660.919	99.75
661.123	105.75
661.326	90.75
661.53	87.75
661.733	88.75
661.936	86.75
662.14	91.75
662.343	91.75
662.546	87.75
662.75	90.75
662.953	96.75
663.156	87.75
663.36	78.75
663.563	86.75
663.766	81.75
663.969	85.75
664.173	97.75
664.376	77.75
664.579	79.75
664.782	80.75
664.985	101.75
665.188	99.75
665.391	79.75
665.594	90.75
665.797	99.75
666	80.75
666.203	85.75
666.406	77.75
666.609	82.75
666.812	78.75
667.015	73.75
667.218	85.75
667.421	91.75
667.624	80.75
667.827	84.75
668.03	84.75
668.232	80.75
668.435	87.75
668.638	80.75
668.841	84.75
669.043	90.75
669.246	86.75
669.449	80.75
669.651	90.75
669.854	76.75
670.057	88.75
670.259	85.75
670.462	82.75
670.665	74.75
670.867	92.75
671.07	73.75
671.272	77.75
671.475	84.75
671.677	100.75
671.88	100.75
672.082	83.75
672.284	86.75
672.487	82.75
672.689	92.75
672.892	67.75
