Data from 1975.PennyLincolnUp.Lamp.En5.5.200Scan.071719.P1.Changed Mount._HRD10591_15-55-52-858.txt Node
Date: Thu Jul 18 15:55:52 EDT 2019
User: cochatt
Spectrometer: HR+D1059
Trigger mode: 1
Integration Time (sec): 1.000000E-1
Scans to average: 1
Electric dark correction enabled: true
Nonlinearity correction enabled: false
Boxcar width: 0
XAxis mode: Wavelengths
Number of Pixels in Spectrum: 2048
>>>>>Begin Spectral Data<<<<<
223.165	-11.25
223.4	-11.25
223.635	-11.25
223.869	-20.25
224.104	-23.25
224.338	-6.25
224.573	-21.25
224.808	-9.25
225.042	-13.25
225.277	-32.25
225.511	4.75
225.746	9.75
225.98	13.75
226.215	11.75
226.449	21.75
226.683	6.75
226.918	36.75
227.152	31.75
227.387	36.75
227.621	31.75
227.856	48.75
228.09	46.75
228.324	55.75
228.559	58.75
228.793	68.75
229.027	86.75
229.262	105.75
229.496	88.75
229.73	121.75
229.964	138.75
230.199	120.75
230.433	120.75
230.667	96.75
230.901	111.75
231.136	116.75
231.37	99.75
231.604	112.75
231.838	133.75
232.072	108.75
232.306	123.75
232.541	112.75
232.775	105.75
233.009	107.75
233.243	115.75
233.477	110.75
233.711	116.75
233.945	114.75
234.179	121.75
234.413	114.75
234.647	105.75
234.881	112.75
235.115	118.75
235.349	110.75
235.583	122.75
235.817	126.75
236.051	124.75
236.285	119.75
236.519	126.75
236.753	125.75
236.987	151.75
237.221	160.75
237.455	191.75
237.689	154.75
237.922	142.75
238.156	123.75
238.39	128.75
238.624	128.75
238.858	115.75
239.091	114.75
239.325	126.75
239.559	119.75
239.793	111.75
240.027	138.75
240.26	124.75
240.494	143.75
240.728	132.75
240.961	142.75
241.195	134.75
241.429	142.75
241.662	126.75
241.896	133.75
242.13	121.75
242.363	134.75
242.597	136.75
242.83	130.75
243.064	129.75
243.298	144.75
243.531	134.75
243.765	141.75
243.998	142.75
244.232	131.75
244.465	149.75
244.699	136.75
244.932	134.75
245.166	150.75
245.399	130.75
245.633	141.75
245.866	135.75
246.099	135.75
246.333	139.75
246.566	142.75
246.8	160.75
247.033	142.75
247.266	151.75
247.5	156.75
247.733	159.75
247.966	167.75
248.2	169.75
248.433	155.75
248.666	162.75
248.899	159.75
249.133	174.75
249.366	182.75
249.599	176.75
249.832	169.75
250.066	174.75
250.299	170.75
250.532	185.75
250.765	190.75
250.998	216.75
251.231	218.75
251.465	193.75
251.698	192.75
251.931	176.75
252.164	196.75
252.397	172.75
252.63	197.75
252.863	198.75
253.096	224.75
253.329	194.75
253.562	218.75
253.795	187.75
254.028	194.75
254.261	201.75
254.494	210.75
254.727	213.75
254.96	234.75
255.193	230.75
255.426	229.75
255.659	213.75
255.892	206.75
256.124	226.75
256.357	221.75
256.59	210.75
256.823	203.75
257.056	195.75
257.289	196.75
257.521	209.75
257.754	204.75
257.987	171.75
258.22	193.75
258.452	193.75
258.685	187.75
258.918	192.75
259.151	204.75
259.383	187.75
259.616	202.75
259.849	206.75
260.081	216.75
260.314	219.75
260.547	236.75
260.779	227.75
261.012	219.75
261.244	211.75
261.477	223.75
261.71	194.75
261.942	204.75
262.175	207.75
262.407	214.75
262.64	192.75
262.872	202.75
263.105	220.75
263.337	204.75
263.57	199.75
263.802	195.75
264.035	194.75
264.267	194.75
264.499	203.75
264.732	206.75
264.964	196.75
265.197	206.75
265.429	199.75
265.661	192.75
265.894	208.75
266.126	212.75
266.358	195.75
266.591	204.75
266.823	207.75
267.055	230.75
267.287	225.75
267.52	222.75
267.752	216.75
267.984	208.75
268.216	218.75
268.448	215.75
268.681	230.75
268.913	223.75
269.145	233.75
269.377	245.75
269.609	257.75
269.841	247.75
270.073	242.75
270.306	273.75
270.538	294.75
270.77	301.75
271.002	256.75
271.234	257.75
271.466	261.75
271.698	271.75
271.93	271.75
272.162	291.75
272.394	270.75
272.626	284.75
272.858	253.75
273.09	253.75
273.322	264.75
273.553	253.75
273.785	236.75
274.017	240.75
274.249	242.75
274.481	256.75
274.713	246.75
274.945	249.75
275.176	234.75
275.408	249.75
275.64	249.75
275.872	232.75
276.104	243.75
276.335	234.75
276.567	241.75
276.799	260.75
277.031	275.75
277.262	283.75
277.494	302.75
277.726	276.75
277.957	259.75
278.189	260.75
278.421	259.75
278.652	253.75
278.884	249.75
279.115	252.75
279.347	253.75
279.579	236.75
279.81	235.75
280.042	263.75
280.273	238.75
280.505	244.75
280.736	262.75
280.968	261.75
281.199	263.75
281.431	254.75
281.662	250.75
281.894	264.75
282.125	236.75
282.356	273.75
282.588	286.75
282.819	285.75
283.051	257.75
283.282	276.75
283.513	267.75
283.745	274.75
283.976	260.75
284.207	275.75
284.439	276.75
284.67	261.75
284.901	256.75
285.132	265.75
285.364	273.75
285.595	269.75
285.826	267.75
286.057	262.75
286.288	274.75
286.52	277.75
286.751	265.75
286.982	269.75
287.213	261.75
287.444	258.75
287.675	266.75
287.906	271.75
288.138	270.75
288.369	292.75
288.6	295.75
288.831	273.75
289.062	273.75
289.293	284.75
289.524	278.75
289.755	279.75
289.986	275.75
290.217	283.75
290.448	279.75
290.679	293.75
290.91	281.75
291.141	288.75
291.371	290.75
291.602	266.75
291.833	274.75
292.064	268.75
292.295	258.75
292.526	279.75
292.757	277.75
292.987	256.75
293.218	277.75
293.449	273.75
293.68	288.75
293.91	274.75
294.141	266.75
294.372	291.75
294.603	270.75
294.833	286.75
295.064	272.75
295.295	286.75
295.525	294.75
295.756	282.75
295.987	286.75
296.217	294.75
296.448	310.75
296.679	294.75
296.909	290.75
297.14	288.75
297.37	300.75
297.601	291.75
297.831	286.75
298.062	273.75
298.292	293.75
298.523	282.75
298.753	301.75
298.984	284.75
299.214	291.75
299.445	280.75
299.675	299.75
299.905	307.75
300.136	292.75
300.366	286.75
300.597	291.75
300.827	322.75
301.057	322.75
301.288	318.75
301.518	300.75
301.748	309.75
301.979	315.75
302.209	322.75
302.439	309.75
302.669	312.75
302.9	315.75
303.13	310.75
303.36	312.75
303.59	312.75
303.82	319.75
304.051	316.75
304.281	310.75
304.511	292.75
304.741	308.75
304.971	311.75
305.201	316.75
305.431	298.75
305.661	301.75
305.891	314.75
306.121	323.75
306.352	312.75
306.582	326.75
306.812	296.75
307.042	331.75
307.272	323.75
307.502	324.75
307.731	308.75
307.961	320.75
308.191	318.75
308.421	315.75
308.651	324.75
308.881	313.75
309.111	319.75
309.341	324.75
309.571	347.75
309.8	330.75
310.03	320.75
310.26	344.75
310.49	336.75
310.72	349.75
310.949	362.75
311.179	345.75
311.409	343.75
311.639	339.75
311.868	354.75
312.098	340.75
312.328	350.75
312.557	363.75
312.787	357.75
313.017	348.75
313.246	359.75
313.476	367.75
313.706	352.75
313.935	347.75
314.165	349.75
314.394	371.75
314.624	353.75
314.853	360.75
315.083	359.75
315.312	344.75
315.542	350.75
315.771	345.75
316.001	324.75
316.23	347.75
316.46	340.75
316.689	343.75
316.919	347.75
317.148	364.75
317.377	369.75
317.607	354.75
317.836	342.75
318.065	358.75
318.295	335.75
318.524	340.75
318.753	325.75
318.983	350.75
319.212	350.75
319.441	354.75
319.67	324.75
319.9	346.75
320.129	342.75
320.358	346.75
320.587	352.75
320.816	357.75
321.046	353.75
321.275	353.75
321.504	354.75
321.733	363.75
321.962	366.75
322.191	363.75
322.42	366.75
322.649	379.75
322.878	383.75
323.108	377.75
323.337	406.75
323.566	391.75
323.795	420.75
324.024	468.75
324.253	515.75
324.482	680.75
324.71	1050.75
324.939	1566.75
325.168	1376.75
325.397	695.75
325.626	492.75
325.855	418.75
326.084	436.75
326.313	428.75
326.542	418.75
326.77	434.75
326.999	519.75
327.228	663.75
327.457	967.75
327.686	1226.75
327.914	798.75
328.143	560.75
328.372	494.75
328.6	494.75
328.829	451.75
329.058	463.75
329.287	484.75
329.515	440.75
329.744	433.75
329.972	434.75
330.201	445.75
330.43	473.75
330.658	467.75
330.887	470.75
331.115	474.75
331.344	436.75
331.572	425.75
331.801	430.75
332.03	434.75
332.258	432.75
332.486	426.75
332.715	413.75
332.943	428.75
333.172	406.75
333.4	436.75
333.629	439.75
333.857	448.75
334.085	445.75
334.314	462.75
334.542	499.75
334.771	502.75
334.999	473.75
335.227	454.75
335.455	439.75
335.684	412.75
335.912	424.75
336.14	408.75
336.369	421.75
336.597	421.75
336.825	431.75
337.053	423.75
337.281	419.75
337.51	416.75
337.738	417.75
337.966	405.75
338.194	408.75
338.422	413.75
338.65	396.75
338.878	398.75
339.106	400.75
339.334	384.75
339.562	382.75
339.79	421.75
340.018	424.75
340.246	394.75
340.474	393.75
340.702	407.75
340.93	415.75
341.158	391.75
341.386	394.75
341.614	395.75
341.842	421.75
342.07	405.75
342.298	395.75
342.526	382.75
342.754	368.75
342.981	384.75
343.209	390.75
343.437	382.75
343.665	409.75
343.893	401.75
344.12	409.75
344.348	440.75
344.576	425.75
344.804	421.75
345.031	407.75
345.259	422.75
345.487	410.75
345.714	412.75
345.942	413.75
346.17	390.75
346.397	374.75
346.625	381.75
346.853	377.75
347.08	371.75
347.308	389.75
347.535	391.75
347.763	388.75
347.99	388.75
348.218	406.75
348.445	386.75
348.673	390.75
348.9	387.75
349.128	388.75
349.355	403.75
349.583	378.75
349.81	383.75
350.037	358.75
350.265	374.75
350.492	382.75
350.72	373.75
350.947	383.75
351.174	372.75
351.402	388.75
351.629	397.75
351.856	386.75
352.083	391.75
352.311	389.75
352.538	382.75
352.765	407.75
352.992	380.75
353.22	384.75
353.447	380.75
353.674	379.75
353.901	381.75
354.128	374.75
354.355	360.75
354.583	370.75
354.81	381.75
355.037	388.75
355.264	369.75
355.491	382.75
355.718	372.75
355.945	372.75
356.172	359.75
356.399	365.75
356.626	374.75
356.853	378.75
357.08	377.75
357.307	360.75
357.534	384.75
357.761	367.75
357.988	360.75
358.215	365.75
358.441	360.75
358.668	358.75
358.895	381.75
359.122	362.75
359.349	372.75
359.576	402.75
359.802	396.75
360.029	427.75
360.256	420.75
360.483	404.75
360.709	376.75
360.936	378.75
361.163	387.75
361.39	380.75
361.616	402.75
361.843	403.75
362.07	381.75
362.296	398.75
362.523	380.75
362.749	383.75
362.976	367.75
363.203	369.75
363.429	386.75
363.656	386.75
363.882	384.75
364.109	388.75
364.335	360.75
364.562	367.75
364.788	376.75
365.015	358.75
365.241	380.75
365.468	380.75
365.694	388.75
365.92	376.75
366.147	386.75
366.373	379.75
366.599	372.75
366.826	366.75
367.052	370.75
367.278	378.75
367.505	391.75
367.731	380.75
367.957	385.75
368.184	384.75
368.41	386.75
368.636	390.75
368.862	375.75
369.089	386.75
369.315	378.75
369.541	376.75
369.767	369.75
369.993	389.75
370.219	383.75
370.445	372.75
370.672	396.75
370.898	363.75
371.124	394.75
371.35	388.75
371.576	396.75
371.802	397.75
372.028	388.75
372.254	374.75
372.48	380.75
372.706	384.75
372.932	373.75
373.158	380.75
373.384	386.75
373.61	382.75
373.835	407.75
374.061	383.75
374.287	380.75
374.513	384.75
374.739	421.75
374.965	422.75
375.191	416.75
375.416	386.75
375.642	402.75
375.868	400.75
376.094	410.75
376.319	406.75
376.545	396.75
376.771	374.75
376.997	385.75
377.222	385.75
377.448	396.75
377.674	380.75
377.899	389.75
378.125	385.75
378.35	396.75
378.576	394.75
378.802	381.75
379.027	396.75
379.253	398.75
379.478	395.75
379.704	378.75
379.929	384.75
380.155	373.75
380.38	390.75
380.606	389.75
380.831	390.75
381.057	385.75
381.282	378.75
381.507	409.75
381.733	388.75
381.958	379.75
382.184	396.75
382.409	397.75
382.634	399.75
382.86	393.75
383.085	405.75
383.31	423.75
383.535	415.75
383.761	415.75
383.986	420.75
384.211	413.75
384.436	421.75
384.662	423.75
384.887	447.75
385.112	444.75
385.337	446.75
385.562	450.75
385.787	438.75
386.013	440.75
386.238	452.75
386.463	450.75
386.688	444.75
386.913	436.75
387.138	434.75
387.363	446.75
387.588	446.75
387.813	454.75
388.038	444.75
388.263	442.75
388.488	432.75
388.713	463.75
388.938	451.75
389.163	454.75
389.387	437.75
389.612	436.75
389.837	449.75
390.062	436.75
390.287	441.75
390.512	423.75
390.736	437.75
390.961	439.75
391.186	440.75
391.411	451.75
391.636	436.75
391.86	460.75
392.085	450.75
392.31	449.75
392.534	447.75
392.759	425.75
392.984	441.75
393.208	466.75
393.433	447.75
393.658	454.75
393.882	429.75
394.107	438.75
394.331	447.75
394.556	438.75
394.78	442.75
395.005	440.75
395.229	438.75
395.454	439.75
395.678	448.75
395.903	484.75
396.127	487.75
396.352	477.75
396.576	463.75
396.801	463.75
397.025	466.75
397.249	463.75
397.474	456.75
397.698	456.75
397.922	486.75
398.147	484.75
398.371	494.75
398.595	519.75
398.82	500.75
399.044	514.75
399.268	527.75
399.492	585.75
399.717	617.75
399.941	615.75
400.165	630.75
400.389	642.75
400.613	578.75
400.837	534.75
401.062	516.75
401.286	503.75
401.51	509.75
401.734	510.75
401.958	498.75
402.182	513.75
402.406	490.75
402.63	516.75
402.854	528.75
403.078	519.75
403.302	533.75
403.526	526.75
403.75	551.75
403.974	530.75
404.198	534.75
404.422	529.75
404.645	556.75
404.869	554.75
405.093	556.75
405.317	591.75
405.541	646.75
405.765	588.75
405.988	534.75
406.212	553.75
406.436	568.75
406.66	561.75
406.883	572.75
407.107	616.75
407.331	628.75
407.555	681.75
407.778	692.75
408.002	629.75
408.226	585.75
408.449	593.75
408.673	574.75
408.896	606.75
409.12	639.75
409.344	607.75
409.567	552.75
409.791	527.75
410.014	538.75
410.238	514.75
410.461	525.75
410.685	526.75
410.908	537.75
411.132	575.75
411.355	603.75
411.578	574.75
411.802	547.75
412.025	526.75
412.249	544.75
412.472	553.75
412.695	588.75
412.919	573.75
413.142	554.75
413.365	534.75
413.589	524.75
413.812	503.75
414.035	512.75
414.258	494.75
414.482	527.75
414.705	514.75
414.928	475.75
415.151	489.75
415.374	495.75
415.597	490.75
415.821	489.75
416.044	515.75
416.267	495.75
416.49	517.75
416.713	494.75
416.936	501.75
417.159	487.75
417.382	495.75
417.605	518.75
417.828	516.75
418.051	514.75
418.274	528.75
418.497	518.75
418.72	479.75
418.943	499.75
419.166	526.75
419.389	560.75
419.611	551.75
419.834	536.75
420.057	528.75
420.28	523.75
420.503	528.75
420.726	518.75
420.948	526.75
421.171	565.75
421.394	610.75
421.617	549.75
421.839	522.75
422.062	514.75
422.285	541.75
422.507	576.75
422.73	642.75
422.953	622.75
423.175	551.75
423.398	549.75
423.621	532.75
423.843	553.75
424.066	566.75
424.288	562.75
424.511	556.75
424.733	619.75
424.956	690.75
425.178	656.75
425.401	640.75
425.623	685.75
425.846	595.75
426.068	551.75
426.291	552.75
426.513	529.75
426.735	546.75
426.958	585.75
427.18	664.75
427.402	759.75
427.625	858.75
427.847	704.75
428.069	663.75
428.292	602.75
428.514	534.75
428.736	516.75
428.958	500.75
429.181	480.75
429.403	473.75
429.625	501.75
429.847	529.75
430.069	572.75
430.292	621.75
430.514	528.75
430.736	485.75
430.958	500.75
431.18	471.75
431.402	477.75
431.624	482.75
431.846	459.75
432.068	486.75
432.29	484.75
432.512	474.75
432.734	491.75
432.956	483.75
433.178	490.75
433.4	496.75
433.622	500.75
433.844	488.75
434.066	467.75
434.287	479.75
434.509	509.75
434.731	495.75
434.953	533.75
435.175	516.75
435.397	542.75
435.618	569.75
435.84	571.75
436.062	640.75
436.284	722.75
436.505	620.75
436.727	546.75
436.949	515.75
437.17	494.75
437.392	510.75
437.614	504.75
437.835	518.75
438.057	627.75
438.278	686.75
438.5	692.75
438.721	772.75
438.943	754.75
439.165	596.75
439.386	565.75
439.608	529.75
439.829	544.75
440.05	579.75
440.272	599.75
440.493	586.75
440.715	526.75
440.936	540.75
441.158	514.75
441.379	526.75
441.6	527.75
441.822	556.75
442.043	554.75
442.264	667.75
442.486	722.75
442.707	604.75
442.928	559.75
443.149	534.75
443.371	563.75
443.592	625.75
443.813	700.75
444.034	764.75
444.255	639.75
444.476	592.75
444.698	552.75
444.919	570.75
445.14	666.75
445.361	581.75
445.582	584.75
445.803	628.75
446.024	716.75
446.245	718.75
446.466	644.75
446.687	562.75
446.908	544.75
447.129	525.75
447.35	489.75
447.571	487.75
447.792	511.75
448.013	491.75
448.234	505.75
448.455	542.75
448.675	650.75
448.896	796.75
449.117	633.75
449.338	613.75
449.559	703.75
449.779	815.75
450	640.75
450.221	542.75
450.442	479.75
450.662	468.75
450.883	485.75
451.104	482.75
451.324	476.75
451.545	475.75
451.766	455.75
451.986	422.75
452.207	442.75
452.428	452.75
452.648	439.75
452.869	457.75
453.089	444.75
453.31	470.75
453.53	454.75
453.751	442.75
453.971	459.75
454.192	453.75
454.412	439.75
454.633	452.75
454.853	442.75
455.073	436.75
455.294	442.75
455.514	507.75
455.734	500.75
455.955	456.75
456.175	420.75
456.395	430.75
456.616	411.75
456.836	421.75
457.056	420.75
457.276	426.75
457.497	427.75
457.717	423.75
457.937	407.75
458.157	427.75
458.377	450.75
458.598	444.75
458.818	494.75
459.038	564.75
459.258	562.75
459.478	518.75
459.698	467.75
459.918	453.75
460.138	489.75
460.358	489.75
460.578	476.75
460.798	500.75
461.018	498.75
461.238	506.75
461.458	507.75
461.678	499.75
461.898	492.75
462.118	508.75
462.338	538.75
462.558	538.75
462.777	536.75
462.997	604.75
463.217	559.75
463.437	590.75
463.657	544.75
463.876	531.75
464.096	545.75
464.316	539.75
464.536	549.75
464.755	524.75
464.975	532.75
465.195	540.75
465.414	582.75
465.634	532.75
465.854	500.75
466.073	481.75
466.293	470.75
466.512	467.75
466.732	483.75
466.951	463.75
467.171	459.75
467.391	477.75
467.61	457.75
467.829	454.75
468.049	461.75
468.268	468.75
468.488	448.75
468.707	449.75
468.927	458.75
469.146	452.75
469.365	470.75
469.585	461.75
469.804	473.75
470.023	472.75
470.243	498.75
470.462	489.75
470.681	474.75
470.901	503.75
471.12	469.75
471.339	452.75
471.558	473.75
471.777	472.75
471.997	488.75
472.216	469.75
472.435	502.75
472.654	484.75
472.873	456.75
473.092	470.75
473.311	470.75
473.53	472.75
473.749	493.75
473.968	480.75
474.187	565.75
474.406	588.75
474.625	494.75
474.844	452.75
475.063	466.75
475.282	469.75
475.501	473.75
475.72	490.75
475.939	456.75
476.158	463.75
476.377	478.75
476.596	481.75
476.814	484.75
477.033	495.75
477.252	527.75
477.471	491.75
477.69	499.75
477.908	504.75
478.127	507.75
478.346	509.75
478.564	503.75
478.783	520.75
479.002	528.75
479.22	532.75
479.439	546.75
479.658	544.75
479.876	552.75
480.095	568.75
480.313	569.75
480.532	605.75
480.751	596.75
480.969	589.75
481.188	602.75
481.406	613.75
481.624	575.75
481.843	573.75
482.061	563.75
482.28	534.75
482.498	556.75
482.717	530.75
482.935	535.75
483.153	543.75
483.372	543.75
483.59	541.75
483.808	545.75
484.027	564.75
484.245	574.75
484.463	563.75
484.681	578.75
484.9	549.75
485.118	571.75
485.336	560.75
485.554	575.75
485.772	562.75
485.99	569.75
486.209	570.75
486.427	591.75
486.645	565.75
486.863	574.75
487.081	581.75
487.299	585.75
487.517	571.75
487.735	568.75
487.953	590.75
488.171	571.75
488.389	589.75
488.607	583.75
488.825	575.75
489.043	587.75
489.261	605.75
489.479	594.75
489.696	587.75
489.914	592.75
490.132	605.75
490.35	611.75
490.568	618.75
490.786	627.75
491.003	644.75
491.221	659.75
491.439	652.75
491.657	652.75
491.874	653.75
492.092	681.75
492.31	669.75
492.527	693.75
492.745	681.75
492.963	694.75
493.18	662.75
493.398	694.75
493.615	695.75
493.833	664.75
494.05	696.75
494.268	717.75
494.485	684.75
494.703	687.75
494.92	701.75
495.138	693.75
495.355	698.75
495.573	684.75
495.79	720.75
496.008	706.75
496.225	672.75
496.442	677.75
496.66	685.75
496.877	701.75
497.094	692.75
497.312	719.75
497.529	716.75
497.746	727.75
497.963	738.75
498.181	762.75
498.398	766.75
498.615	760.75
498.832	806.75
499.049	831.75
499.267	842.75
499.484	859.75
499.701	969.75
499.918	970.75
500.135	1060.75
500.352	1078.75
500.569	1137.75
500.786	1131.75
501.003	1092.75
501.22	1043.75
501.437	1014.75
501.654	966.75
501.871	919.75
502.088	860.75
502.305	830.75
502.522	805.75
502.739	790.75
502.956	764.75
503.172	733.75
503.389	736.75
503.606	712.75
503.823	722.75
504.04	700.75
504.256	712.75
504.473	698.75
504.69	710.75
504.907	683.75
505.123	679.75
505.34	684.75
505.557	655.75
505.773	656.75
505.99	660.75
506.207	666.75
506.423	647.75
506.64	645.75
506.856	643.75
507.073	633.75
507.289	638.75
507.506	633.75
507.722	610.75
507.939	630.75
508.155	618.75
508.372	605.75
508.588	578.75
508.805	595.75
509.021	602.75
509.238	616.75
509.454	620.75
509.67	601.75
509.887	591.75
510.103	626.75
510.319	596.75
510.536	657.75
510.752	895.75
510.968	794.75
511.184	600.75
511.401	583.75
511.617	570.75
511.833	559.75
512.049	574.75
512.265	580.75
512.481	570.75
512.698	564.75
512.914	568.75
513.13	557.75
513.346	560.75
513.562	557.75
513.778	564.75
513.994	580.75
514.21	576.75
514.426	566.75
514.642	602.75
514.858	608.75
515.074	622.75
515.29	712.75
515.506	906.75
515.721	818.75
515.937	658.75
516.153	607.75
516.369	608.75
516.585	618.75
516.801	616.75
517.016	600.75
517.232	613.75
517.448	642.75
517.664	626.75
517.879	614.75
518.095	644.75
518.311	622.75
518.527	606.75
518.742	582.75
518.958	565.75
519.173	605.75
519.389	590.75
519.605	555.75
519.82	562.75
520.036	572.75
520.251	593.75
520.467	606.75
520.682	589.75
520.898	597.75
521.113	616.75
521.329	596.75
521.544	641.75
521.76	732.75
521.975	1054.75
522.19	1053.75
522.406	695.75
522.621	608.75
522.836	568.75
523.052	522.75
523.267	530.75
523.482	518.75
523.698	515.75
523.913	532.75
524.128	498.75
524.343	516.75
524.559	500.75
524.774	505.75
524.989	519.75
525.204	517.75
525.419	491.75
525.634	488.75
525.849	515.75
526.064	469.75
526.28	490.75
526.495	486.75
526.71	474.75
526.925	487.75
527.14	463.75
527.355	486.75
527.57	488.75
527.785	494.75
527.999	479.75
528.214	474.75
528.429	466.75
528.644	487.75
528.859	491.75
529.074	463.75
529.289	482.75
529.503	549.75
529.718	516.75
529.933	498.75
530.148	498.75
530.363	492.75
530.577	477.75
530.792	476.75
531.007	463.75
531.221	449.75
531.436	466.75
531.651	458.75
531.865	470.75
532.08	459.75
532.295	475.75
532.509	470.75
532.724	459.75
532.938	470.75
533.153	466.75
533.367	473.75
533.582	484.75
533.796	491.75
534.011	459.75
534.225	456.75
534.44	459.75
534.654	440.75
534.868	442.75
535.083	463.75
535.297	455.75
535.511	458.75
535.726	457.75
535.94	455.75
536.154	464.75
536.369	444.75
536.583	445.75
536.797	428.75
537.011	454.75
537.225	444.75
537.44	460.75
537.654	454.75
537.868	434.75
538.082	444.75
538.296	443.75
538.51	461.75
538.724	432.75
538.938	442.75
539.153	452.75
539.367	460.75
539.581	424.75
539.795	426.75
540.009	434.75
540.222	442.75
540.436	451.75
540.65	452.75
540.864	443.75
541.078	450.75
541.292	452.75
541.506	441.75
541.72	444.75
541.934	441.75
542.147	453.75
542.361	446.75
542.575	436.75
542.789	434.75
543.002	461.75
543.216	456.75
543.43	448.75
543.644	440.75
543.857	442.75
544.071	446.75
544.285	439.75
544.498	456.75
544.712	442.75
544.925	438.75
545.139	438.75
545.352	452.75
545.566	450.75
545.779	446.75
545.993	439.75
546.206	430.75
546.42	448.75
546.633	445.75
546.847	420.75
547.06	446.75
547.274	453.75
547.487	439.75
547.7	430.75
547.914	445.75
548.127	431.75
548.34	441.75
548.554	431.75
548.767	416.75
548.98	432.75
549.193	425.75
549.407	442.75
549.62	436.75
549.833	442.75
550.046	434.75
550.259	452.75
550.473	423.75
550.686	450.75
550.899	438.75
551.112	418.75
551.325	414.75
551.538	427.75
551.751	427.75
551.964	428.75
552.177	426.75
552.39	440.75
552.603	449.75
552.816	434.75
553.029	465.75
553.242	448.75
553.455	451.75
553.667	463.75
553.88	463.75
554.093	460.75
554.306	444.75
554.519	445.75
554.732	447.75
554.944	437.75
555.157	410.75
555.37	440.75
555.583	394.75
555.795	414.75
556.008	421.75
556.221	421.75
556.433	399.75
556.646	390.75
556.859	404.75
557.071	406.75
557.284	395.75
557.496	390.75
557.709	405.75
557.921	384.75
558.134	396.75
558.346	371.75
558.559	392.75
558.771	384.75
558.984	384.75
559.196	406.75
559.409	393.75
559.621	380.75
559.833	371.75
560.046	387.75
560.258	372.75
560.47	383.75
560.683	381.75
560.895	396.75
561.107	372.75
561.32	382.75
561.532	393.75
561.744	392.75
561.956	386.75
562.168	384.75
562.381	384.75
562.593	403.75
562.805	393.75
563.017	413.75
563.229	396.75
563.441	396.75
563.653	397.75
563.865	411.75
564.077	407.75
564.289	407.75
564.501	414.75
564.713	400.75
564.925	418.75
565.137	423.75
565.349	426.75
565.561	446.75
565.773	430.75
565.985	427.75
566.197	454.75
566.408	457.75
566.62	498.75
566.832	523.75
567.044	507.75
567.255	498.75
567.467	515.75
567.679	528.75
567.891	549.75
568.102	537.75
568.314	530.75
568.526	508.75
568.737	493.75
568.949	471.75
569.161	420.75
569.372	443.75
569.584	437.75
569.795	406.75
570.007	400.75
570.218	412.75
570.43	413.75
570.641	393.75
570.853	395.75
571.064	392.75
571.276	380.75
571.487	388.75
571.698	394.75
571.91	372.75
572.121	360.75
572.333	352.75
572.544	341.75
572.755	376.75
572.966	344.75
573.178	346.75
573.389	356.75
573.6	355.75
573.811	326.75
574.023	345.75
574.234	342.75
574.445	340.75
574.656	338.75
574.867	342.75
575.078	355.75
575.289	330.75
575.501	346.75
575.712	334.75
575.923	320.75
576.134	337.75
576.345	342.75
576.556	342.75
576.767	319.75
576.978	322.75
577.188	334.75
577.399	311.75
577.61	308.75
577.821	334.75
578.032	316.75
578.243	342.75
578.454	423.75
578.665	388.75
578.875	336.75
579.086	327.75
579.297	296.75
579.508	319.75
579.718	310.75
579.929	313.75
580.14	316.75
580.35	311.75
580.561	313.75
580.772	316.75
580.982	299.75
581.193	322.75
581.403	318.75
581.614	316.75
581.825	318.75
582.035	309.75
582.246	306.75
582.456	320.75
582.667	318.75
582.877	312.75
583.087	311.75
583.298	284.75
583.508	311.75
583.719	303.75
583.929	301.75
584.139	298.75
584.35	303.75
584.56	303.75
584.77	308.75
584.981	303.75
585.191	295.75
585.401	303.75
585.611	290.75
585.821	323.75
586.032	312.75
586.242	292.75
586.452	298.75
586.662	288.75
586.872	306.75
587.082	282.75
587.292	316.75
587.502	293.75
587.713	317.75
587.923	315.75
588.133	299.75
588.343	300.75
588.553	289.75
588.762	278.75
588.972	318.75
589.182	306.75
589.392	296.75
589.602	287.75
589.812	285.75
590.022	294.75
590.232	306.75
590.441	298.75
590.651	317.75
590.861	300.75
591.071	304.75
591.281	306.75
591.49	282.75
591.7	295.75
591.91	326.75
592.119	324.75
592.329	320.75
592.539	331.75
592.748	330.75
592.958	322.75
593.167	315.75
593.377	324.75
593.587	346.75
593.796	351.75
594.006	328.75
594.215	326.75
594.424	339.75
594.634	342.75
594.843	326.75
595.053	316.75
595.262	310.75
595.472	306.75
595.681	306.75
595.89	306.75
596.1	290.75
596.309	299.75
596.518	287.75
596.727	285.75
596.937	275.75
597.146	301.75
597.355	283.75
597.564	283.75
597.774	279.75
597.983	286.75
598.192	255.75
598.401	284.75
598.61	284.75
598.819	293.75
599.028	260.75
599.237	261.75
599.446	267.75
599.655	273.75
599.864	264.75
600.073	257.75
600.282	269.75
600.491	278.75
600.7	270.75
600.909	268.75
601.118	249.75
601.327	269.75
601.536	264.75
601.745	280.75
601.953	252.75
602.162	273.75
602.371	264.75
602.58	266.75
602.789	270.75
602.997	281.75
603.206	259.75
603.415	267.75
603.623	234.75
603.832	234.75
604.041	235.75
604.249	243.75
604.458	253.75
604.666	244.75
604.875	250.75
605.084	261.75
605.292	264.75
605.501	270.75
605.709	230.75
605.918	233.75
606.126	242.75
606.334	254.75
606.543	255.75
606.751	245.75
606.96	239.75
607.168	265.75
607.376	250.75
607.585	237.75
607.793	266.75
608.001	241.75
608.21	259.75
608.418	260.75
608.626	237.75
608.834	244.75
609.043	233.75
609.251	259.75
609.459	250.75
609.667	238.75
609.875	253.75
610.083	244.75
610.291	248.75
610.499	233.75
610.707	256.75
610.916	242.75
611.124	245.75
611.332	247.75
611.54	251.75
611.748	246.75
611.955	239.75
612.163	250.75
612.371	231.75
612.579	253.75
612.787	237.75
612.995	221.75
613.203	247.75
613.411	231.75
613.618	231.75
613.826	233.75
614.034	236.75
614.242	245.75
614.449	258.75
614.657	231.75
614.865	230.75
615.072	260.75
615.28	234.75
615.488	223.75
615.695	234.75
615.903	239.75
616.111	260.75
616.318	245.75
616.526	260.75
616.733	261.75
616.941	231.75
617.148	243.75
617.356	244.75
617.563	235.75
617.771	242.75
617.978	246.75
618.185	231.75
618.393	238.75
618.6	247.75
618.807	228.75
619.015	238.75
619.222	242.75
619.429	242.75
619.637	234.75
619.844	219.75
620.051	231.75
620.258	225.75
620.466	226.75
620.673	223.75
620.88	224.75
621.087	218.75
621.294	210.75
621.501	239.75
621.708	217.75
621.915	231.75
622.122	234.75
622.329	236.75
622.536	227.75
622.743	229.75
622.95	228.75
623.157	221.75
623.364	218.75
623.571	217.75
623.778	235.75
623.985	227.75
624.192	238.75
624.399	223.75
624.606	228.75
624.812	215.75
625.019	224.75
625.226	227.75
625.433	220.75
625.639	234.75
625.846	217.75
626.053	234.75
626.259	198.75
626.466	196.75
626.673	209.75
626.879	204.75
627.086	215.75
627.293	204.75
627.499	214.75
627.706	220.75
627.912	203.75
628.119	202.75
628.325	209.75
628.532	211.75
628.738	197.75
628.945	215.75
629.151	195.75
629.357	218.75
629.564	193.75
629.77	205.75
629.976	208.75
630.183	188.75
630.389	191.75
630.595	213.75
630.802	219.75
631.008	202.75
631.214	206.75
631.42	195.75
631.627	212.75
631.833	189.75
632.039	198.75
632.245	193.75
632.451	209.75
632.657	204.75
632.863	195.75
633.069	192.75
633.275	192.75
633.481	198.75
633.688	174.75
633.893	190.75
634.099	186.75
634.305	186.75
634.511	194.75
634.717	189.75
634.923	191.75
635.129	197.75
635.335	204.75
635.541	192.75
635.747	190.75
635.952	186.75
636.158	190.75
636.364	191.75
636.57	192.75
636.775	198.75
636.981	199.75
637.187	185.75
637.392	191.75
637.598	178.75
637.804	190.75
638.009	184.75
638.215	192.75
638.421	172.75
638.626	181.75
638.832	180.75
639.037	185.75
639.243	176.75
639.448	181.75
639.654	201.75
639.859	185.75
640.065	188.75
640.27	173.75
640.475	158.75
640.681	176.75
640.886	189.75
641.091	194.75
641.297	190.75
641.502	178.75
641.707	192.75
641.913	165.75
642.118	183.75
642.323	178.75
642.528	165.75
642.733	179.75
642.939	171.75
643.144	176.75
643.349	175.75
643.554	182.75
643.759	165.75
643.964	172.75
644.169	181.75
644.374	162.75
644.579	186.75
644.784	173.75
644.989	162.75
645.194	165.75
645.399	160.75
645.604	171.75
645.809	170.75
646.014	181.75
646.219	180.75
646.423	189.75
646.628	166.75
646.833	162.75
647.038	174.75
647.243	187.75
647.447	162.75
647.652	168.75
647.857	170.75
648.062	169.75
648.266	173.75
648.471	183.75
648.676	170.75
648.88	163.75
649.085	168.75
649.289	180.75
649.494	172.75
649.698	176.75
649.903	204.75
650.107	177.75
650.312	174.75
650.516	166.75
650.721	149.75
650.925	169.75
651.13	163.75
651.334	133.75
651.539	152.75
651.743	158.75
651.947	162.75
652.152	153.75
652.356	145.75
652.56	151.75
652.764	150.75
652.969	147.75
653.173	135.75
653.377	138.75
653.581	140.75
653.785	143.75
653.99	151.75
654.194	144.75
654.398	147.75
654.602	136.75
654.806	136.75
655.01	162.75
655.214	148.75
655.418	155.75
655.622	152.75
655.826	133.75
656.03	138.75
656.234	150.75
656.438	152.75
656.642	164.75
656.846	144.75
657.049	139.75
657.253	127.75
657.457	134.75
657.661	106.75
657.865	119.75
658.068	119.75
658.272	105.75
658.476	130.75
658.68	108.75
658.883	104.75
659.087	118.75
659.291	110.75
659.494	114.75
659.698	108.75
659.901	114.75
660.105	94.75
660.309	96.75
660.512	99.75
660.716	103.75
660.919	105.75
661.123	96.75
661.326	98.75
661.53	108.75
661.733	116.75
661.936	88.75
662.14	96.75
662.343	83.75
662.546	87.75
662.75	80.75
662.953	84.75
663.156	80.75
663.36	82.75
663.563	91.75
663.766	86.75
663.969	78.75
664.173	84.75
664.376	79.75
664.579	86.75
664.782	85.75
664.985	83.75
665.188	87.75
665.391	81.75
665.594	90.75
665.797	77.75
666	80.75
666.203	77.75
666.406	103.75
666.609	94.75
666.812	76.75
667.015	77.75
667.218	82.75
667.421	82.75
667.624	87.75
667.827	80.75
668.03	80.75
668.232	79.75
668.435	80.75
668.638	85.75
668.841	74.75
669.043	87.75
669.246	79.75
669.449	87.75
669.651	92.75
669.854	86.75
670.057	86.75
670.259	77.75
670.462	89.75
670.665	74.75
670.867	98.75
671.07	84.75
671.272	86.75
671.475	77.75
671.677	79.75
671.88	86.75
672.082	84.75
672.284	78.75
672.487	77.75
672.689	94.75
672.892	75.75
