Data from 1975.PennyLincolnUp.Lamp.En5.5.200Scan.071719.P1.Changed Mount._HRD10591_15-57-55-860.txt Node
Date: Thu Jul 18 15:57:55 EDT 2019
User: cochatt
Spectrometer: HR+D1059
Trigger mode: 1
Integration Time (sec): 1.000000E-1
Scans to average: 1
Electric dark correction enabled: true
Nonlinearity correction enabled: false
Boxcar width: 0
XAxis mode: Wavelengths
Number of Pixels in Spectrum: 2048
>>>>>Begin Spectral Data<<<<<
223.165	-21.44
223.4	-21.44
223.635	-21.44
223.869	-13.44
224.104	-35.44
224.338	-19.44
224.573	-9.44
224.808	-7.44
225.042	-2.44
225.277	-1.44
225.511	-5.44
225.746	6.56
225.98	4.56
226.215	6.56
226.449	10.56
226.683	23.56
226.918	41.56
227.152	22.56
227.387	34.56
227.621	32.56
227.856	45.56
228.09	48.56
228.324	51.56
228.559	53.56
228.793	73.56
229.027	92.56
229.262	107.56
229.496	109.56
229.73	122.56
229.964	143.56
230.199	115.56
230.433	110.56
230.667	125.56
230.901	119.56
231.136	114.56
231.37	120.56
231.604	121.56
231.838	120.56
232.072	112.56
232.306	117.56
232.541	112.56
232.775	114.56
233.009	106.56
233.243	121.56
233.477	118.56
233.711	110.56
233.945	113.56
234.179	119.56
234.413	127.56
234.647	127.56
234.881	118.56
235.115	120.56
235.349	121.56
235.583	146.56
235.817	123.56
236.051	121.56
236.285	133.56
236.519	129.56
236.753	138.56
236.987	166.56
237.221	195.56
237.455	241.56
237.689	195.56
237.922	150.56
238.156	144.56
238.39	143.56
238.624	137.56
238.858	129.56
239.091	130.56
239.325	135.56
239.559	133.56
239.793	138.56
240.027	137.56
240.26	148.56
240.494	166.56
240.728	161.56
240.961	150.56
241.195	130.56
241.429	146.56
241.662	137.56
241.896	140.56
242.13	155.56
242.363	149.56
242.597	141.56
242.83	143.56
243.064	152.56
243.298	137.56
243.531	153.56
243.765	144.56
243.998	148.56
244.232	151.56
244.465	139.56
244.699	143.56
244.932	138.56
245.166	144.56
245.399	150.56
245.633	151.56
245.866	163.56
246.099	149.56
246.333	163.56
246.566	145.56
246.8	139.56
247.033	138.56
247.266	157.56
247.5	172.56
247.733	165.56
247.966	187.56
248.2	168.56
248.433	186.56
248.666	187.56
248.899	198.56
249.133	218.56
249.366	203.56
249.599	199.56
249.832	198.56
250.066	179.56
250.299	183.56
250.532	184.56
250.765	215.56
250.998	201.56
251.231	219.56
251.465	217.56
251.698	216.56
251.931	215.56
252.164	204.56
252.397	217.56
252.63	210.56
252.863	204.56
253.096	236.56
253.329	234.56
253.562	246.56
253.795	219.56
254.028	222.56
254.261	214.56
254.494	224.56
254.727	264.56
254.96	284.56
255.193	277.56
255.426	257.56
255.659	256.56
255.892	240.56
256.124	245.56
256.357	242.56
256.59	240.56
256.823	235.56
257.056	230.56
257.289	222.56
257.521	243.56
257.754	216.56
257.987	208.56
258.22	203.56
258.452	216.56
258.685	208.56
258.918	211.56
259.151	217.56
259.383	227.56
259.616	234.56
259.849	229.56
260.081	251.56
260.314	268.56
260.547	267.56
260.779	264.56
261.012	248.56
261.244	230.56
261.477	212.56
261.71	222.56
261.942	233.56
262.175	237.56
262.407	236.56
262.64	230.56
262.872	251.56
263.105	230.56
263.337	227.56
263.57	224.56
263.802	212.56
264.035	228.56
264.267	219.56
264.499	229.56
264.732	228.56
264.964	226.56
265.197	220.56
265.429	226.56
265.661	218.56
265.894	245.56
266.126	230.56
266.358	233.56
266.591	243.56
266.823	244.56
267.055	267.56
267.287	241.56
267.52	225.56
267.752	220.56
267.984	239.56
268.216	260.56
268.448	247.56
268.681	257.56
268.913	256.56
269.145	272.56
269.377	290.56
269.609	289.56
269.841	287.56
270.073	285.56
270.306	317.56
270.538	321.56
270.77	311.56
271.002	294.56
271.234	302.56
271.466	311.56
271.698	325.56
271.93	335.56
272.162	329.56
272.394	333.56
272.626	308.56
272.858	294.56
273.09	293.56
273.322	299.56
273.553	270.56
273.785	278.56
274.017	292.56
274.249	289.56
274.481	282.56
274.713	272.56
274.945	279.56
275.176	277.56
275.408	282.56
275.64	301.56
275.872	280.56
276.104	299.56
276.335	268.56
276.567	266.56
276.799	292.56
277.031	329.56
277.262	335.56
277.494	314.56
277.726	317.56
277.957	302.56
278.189	297.56
278.421	307.56
278.652	287.56
278.884	291.56
279.115	293.56
279.347	287.56
279.579	295.56
279.81	288.56
280.042	271.56
280.273	285.56
280.505	315.56
280.736	292.56
280.968	285.56
281.199	281.56
281.431	289.56
281.662	273.56
281.894	280.56
282.125	271.56
282.356	300.56
282.588	307.56
282.819	305.56
283.051	311.56
283.282	301.56
283.513	304.56
283.745	279.56
283.976	298.56
284.207	295.56
284.439	316.56
284.67	311.56
284.901	315.56
285.132	304.56
285.364	298.56
285.595	297.56
285.826	304.56
286.057	301.56
286.288	291.56
286.52	309.56
286.751	292.56
286.982	296.56
287.213	314.56
287.444	301.56
287.675	293.56
287.906	307.56
288.138	336.56
288.369	318.56
288.6	310.56
288.831	320.56
289.062	317.56
289.293	295.56
289.524	315.56
289.755	298.56
289.986	311.56
290.217	302.56
290.448	305.56
290.679	312.56
290.91	309.56
291.141	318.56
291.371	309.56
291.602	315.56
291.833	333.56
292.064	327.56
292.295	319.56
292.526	315.56
292.757	322.56
292.987	332.56
293.218	322.56
293.449	336.56
293.68	324.56
293.91	322.56
294.141	323.56
294.372	319.56
294.603	318.56
294.833	324.56
295.064	326.56
295.295	332.56
295.525	313.56
295.756	327.56
295.987	331.56
296.217	347.56
296.448	365.56
296.679	338.56
296.909	324.56
297.14	339.56
297.37	337.56
297.601	340.56
297.831	332.56
298.062	335.56
298.292	333.56
298.523	330.56
298.753	334.56
298.984	338.56
299.214	321.56
299.445	337.56
299.675	313.56
299.905	325.56
300.136	332.56
300.366	341.56
300.597	336.56
300.827	335.56
301.057	340.56
301.288	355.56
301.518	353.56
301.748	343.56
301.979	350.56
302.209	360.56
302.439	356.56
302.669	339.56
302.9	358.56
303.13	342.56
303.36	358.56
303.59	368.56
303.82	353.56
304.051	348.56
304.281	364.56
304.511	355.56
304.741	349.56
304.971	333.56
305.201	349.56
305.431	349.56
305.661	335.56
305.891	350.56
306.121	335.56
306.352	337.56
306.582	352.56
306.812	359.56
307.042	364.56
307.272	360.56
307.502	361.56
307.731	352.56
307.961	360.56
308.191	356.56
308.421	367.56
308.651	362.56
308.881	356.56
309.111	362.56
309.341	369.56
309.571	375.56
309.8	374.56
310.03	377.56
310.26	386.56
310.49	388.56
310.72	396.56
310.949	377.56
311.179	418.56
311.409	401.56
311.639	394.56
311.868	394.56
312.098	377.56
312.328	407.56
312.557	424.56
312.787	427.56
313.017	428.56
313.246	407.56
313.476	395.56
313.706	392.56
313.935	399.56
314.165	401.56
314.394	405.56
314.624	407.56
314.853	397.56
315.083	403.56
315.312	384.56
315.542	389.56
315.771	409.56
316.001	403.56
316.23	394.56
316.46	385.56
316.689	397.56
316.919	394.56
317.148	408.56
317.377	399.56
317.607	403.56
317.836	388.56
318.065	400.56
318.295	414.56
318.524	401.56
318.753	402.56
318.983	409.56
319.212	393.56
319.441	399.56
319.67	425.56
319.9	399.56
320.129	402.56
320.358	400.56
320.587	395.56
320.816	406.56
321.046	413.56
321.275	415.56
321.504	404.56
321.733	408.56
321.962	427.56
322.191	431.56
322.42	445.56
322.649	431.56
322.878	439.56
323.108	455.56
323.337	477.56
323.566	490.56
323.795	497.56
324.024	541.56
324.253	632.56
324.482	857.56
324.71	1285.56
324.939	1888.56
325.168	1753.56
325.397	873.56
325.626	606.56
325.855	516.56
326.084	487.56
326.313	476.56
326.542	478.56
326.77	547.56
326.999	595.56
327.228	776.56
327.457	1176.56
327.686	1485.56
327.914	1029.56
328.143	663.56
328.372	587.56
328.6	557.56
328.829	540.56
329.058	549.56
329.287	551.56
329.515	555.56
329.744	510.56
329.972	518.56
330.201	527.56
330.43	555.56
330.658	588.56
330.887	591.56
331.115	584.56
331.344	509.56
331.572	494.56
331.801	505.56
332.03	511.56
332.258	501.56
332.486	480.56
332.715	486.56
332.943	488.56
333.172	507.56
333.4	509.56
333.629	482.56
333.857	526.56
334.085	527.56
334.314	556.56
334.542	583.56
334.771	588.56
334.999	535.56
335.227	535.56
335.455	511.56
335.684	471.56
335.912	494.56
336.14	467.56
336.369	465.56
336.597	492.56
336.825	467.56
337.053	463.56
337.281	496.56
337.51	476.56
337.738	481.56
337.966	472.56
338.194	462.56
338.422	435.56
338.65	466.56
338.878	464.56
339.106	449.56
339.334	473.56
339.562	449.56
339.79	441.56
340.018	462.56
340.246	447.56
340.474	450.56
340.702	463.56
340.93	433.56
341.158	461.56
341.386	467.56
341.614	466.56
341.842	446.56
342.07	435.56
342.298	446.56
342.526	447.56
342.754	450.56
342.981	428.56
343.209	470.56
343.437	465.56
343.665	458.56
343.893	472.56
344.12	501.56
344.348	476.56
344.576	464.56
344.804	463.56
345.031	483.56
345.259	477.56
345.487	473.56
345.714	473.56
345.942	465.56
346.17	448.56
346.397	439.56
346.625	452.56
346.853	421.56
347.08	439.56
347.308	437.56
347.535	448.56
347.763	443.56
347.99	438.56
348.218	459.56
348.445	450.56
348.673	445.56
348.9	441.56
349.128	428.56
349.355	424.56
349.583	411.56
349.81	419.56
350.037	416.56
350.265	419.56
350.492	439.56
350.72	453.56
350.947	415.56
351.174	437.56
351.402	428.56
351.629	453.56
351.856	471.56
352.083	448.56
352.311	457.56
352.538	435.56
352.765	424.56
352.992	444.56
353.22	456.56
353.447	423.56
353.674	431.56
353.901	430.56
354.128	421.56
354.355	422.56
354.583	416.56
354.81	432.56
355.037	425.56
355.264	415.56
355.491	428.56
355.718	407.56
355.945	425.56
356.172	421.56
356.399	421.56
356.626	420.56
356.853	421.56
357.08	423.56
357.307	436.56
357.534	390.56
357.761	415.56
357.988	431.56
358.215	419.56
358.441	418.56
358.668	421.56
358.895	422.56
359.122	407.56
359.349	445.56
359.576	423.56
359.802	456.56
360.029	489.56
360.256	492.56
360.483	483.56
360.709	451.56
360.936	437.56
361.163	456.56
361.39	449.56
361.616	439.56
361.843	432.56
362.07	452.56
362.296	428.56
362.523	423.56
362.749	443.56
362.976	451.56
363.203	427.56
363.429	419.56
363.656	431.56
363.882	433.56
364.109	405.56
364.335	431.56
364.562	432.56
364.788	430.56
365.015	431.56
365.241	427.56
365.468	432.56
365.694	421.56
365.92	434.56
366.147	457.56
366.373	439.56
366.599	421.56
366.826	418.56
367.052	446.56
367.278	426.56
367.505	431.56
367.731	434.56
367.957	425.56
368.184	451.56
368.41	441.56
368.636	455.56
368.862	454.56
369.089	432.56
369.315	435.56
369.541	429.56
369.767	443.56
369.993	441.56
370.219	424.56
370.445	409.56
370.672	433.56
370.898	440.56
371.124	441.56
371.35	452.56
371.576	444.56
371.802	459.56
372.028	427.56
372.254	425.56
372.48	444.56
372.706	451.56
372.932	397.56
373.158	459.56
373.384	451.56
373.61	456.56
373.835	448.56
374.061	452.56
374.287	436.56
374.513	439.56
374.739	441.56
374.965	452.56
375.191	459.56
375.416	446.56
375.642	427.56
375.868	439.56
376.094	417.56
376.319	440.56
376.545	448.56
376.771	431.56
376.997	423.56
377.222	441.56
377.448	432.56
377.674	422.56
377.899	415.56
378.125	443.56
378.35	446.56
378.576	432.56
378.802	421.56
379.027	422.56
379.253	443.56
379.478	441.56
379.704	435.56
379.929	445.56
380.155	443.56
380.38	454.56
380.606	445.56
380.831	438.56
381.057	450.56
381.282	423.56
381.507	439.56
381.733	437.56
381.958	440.56
382.184	446.56
382.409	468.56
382.634	449.56
382.86	452.56
383.085	440.56
383.31	454.56
383.535	458.56
383.761	464.56
383.986	460.56
384.211	458.56
384.436	480.56
384.662	480.56
384.887	487.56
385.112	473.56
385.337	484.56
385.562	480.56
385.787	516.56
386.013	503.56
386.238	485.56
386.463	486.56
386.688	500.56
386.913	481.56
387.138	475.56
387.363	496.56
387.588	486.56
387.813	513.56
388.038	483.56
388.263	464.56
388.488	489.56
388.713	481.56
388.938	493.56
389.163	481.56
389.387	490.56
389.612	478.56
389.837	472.56
390.062	472.56
390.287	492.56
390.512	490.56
390.736	488.56
390.961	487.56
391.186	494.56
391.411	496.56
391.636	508.56
391.86	519.56
392.085	526.56
392.31	525.56
392.534	504.56
392.759	518.56
392.984	504.56
393.208	502.56
393.433	486.56
393.658	495.56
393.882	492.56
394.107	471.56
394.331	509.56
394.556	494.56
394.78	486.56
395.005	509.56
395.229	482.56
395.454	503.56
395.678	511.56
395.903	541.56
396.127	535.56
396.352	533.56
396.576	521.56
396.801	517.56
397.025	505.56
397.249	502.56
397.474	516.56
397.698	523.56
397.922	543.56
398.147	551.56
398.371	546.56
398.595	564.56
398.82	573.56
399.044	584.56
399.268	607.56
399.492	647.56
399.717	691.56
399.941	716.56
400.165	731.56
400.389	725.56
400.613	657.56
400.837	623.56
401.062	576.56
401.286	579.56
401.51	564.56
401.734	558.56
401.958	564.56
402.182	581.56
402.406	591.56
402.63	610.56
402.854	586.56
403.078	609.56
403.302	599.56
403.526	601.56
403.75	603.56
403.974	628.56
404.198	592.56
404.422	616.56
404.645	609.56
404.869	648.56
405.093	645.56
405.317	683.56
405.541	721.56
405.765	652.56
405.988	628.56
406.212	645.56
406.436	654.56
406.66	651.56
406.883	646.56
407.107	679.56
407.331	714.56
407.555	814.56
407.778	806.56
408.002	730.56
408.226	681.56
408.449	670.56
408.673	661.56
408.896	681.56
409.12	720.56
409.344	672.56
409.567	634.56
409.791	627.56
410.014	599.56
410.238	600.56
410.461	601.56
410.685	624.56
410.908	601.56
411.132	652.56
411.355	697.56
411.578	657.56
411.802	604.56
412.025	612.56
412.249	598.56
412.472	636.56
412.695	677.56
412.919	656.56
413.142	623.56
413.365	594.56
413.589	592.56
413.812	588.56
414.035	586.56
414.258	574.56
414.482	543.56
414.705	561.56
414.928	579.56
415.151	582.56
415.374	568.56
415.597	588.56
415.821	563.56
416.044	563.56
416.267	564.56
416.49	565.56
416.713	543.56
416.936	567.56
417.159	565.56
417.382	578.56
417.605	575.56
417.828	584.56
418.051	603.56
418.274	576.56
418.497	559.56
418.72	581.56
418.943	569.56
419.166	603.56
419.389	657.56
419.611	613.56
419.834	616.56
420.057	613.56
420.28	596.56
420.503	600.56
420.726	606.56
420.948	602.56
421.171	637.56
421.394	652.56
421.617	592.56
421.839	600.56
422.062	599.56
422.285	610.56
422.507	666.56
422.73	735.56
422.953	708.56
423.175	621.56
423.398	615.56
423.621	624.56
423.843	633.56
424.066	635.56
424.288	640.56
424.511	655.56
424.733	688.56
424.956	788.56
425.178	772.56
425.401	741.56
425.623	755.56
425.846	676.56
426.068	612.56
426.291	637.56
426.513	606.56
426.735	637.56
426.958	659.56
427.18	736.56
427.402	878.56
427.625	977.56
427.847	813.56
428.069	708.56
428.292	628.56
428.514	614.56
428.736	570.56
428.958	561.56
429.181	591.56
429.403	569.56
429.625	588.56
429.847	601.56
430.069	680.56
430.292	701.56
430.514	598.56
430.736	588.56
430.958	553.56
431.18	541.56
431.402	546.56
431.624	525.56
431.846	535.56
432.068	543.56
432.29	524.56
432.512	555.56
432.734	542.56
432.956	551.56
433.178	571.56
433.4	557.56
433.622	556.56
433.844	535.56
434.066	543.56
434.287	534.56
434.509	566.56
434.731	597.56
434.953	589.56
435.175	627.56
435.397	619.56
435.618	619.56
435.84	647.56
436.062	744.56
436.284	841.56
436.505	697.56
436.727	631.56
436.949	601.56
437.17	578.56
437.392	566.56
437.614	571.56
437.835	614.56
438.057	694.56
438.278	803.56
438.5	804.56
438.721	883.56
438.943	871.56
439.165	697.56
439.386	604.56
439.608	617.56
439.829	624.56
440.05	651.56
440.272	691.56
440.493	658.56
440.715	602.56
440.936	581.56
441.158	568.56
441.379	553.56
441.6	587.56
441.822	600.56
442.043	653.56
442.264	744.56
442.486	815.56
442.707	682.56
442.928	646.56
443.149	653.56
443.371	659.56
443.592	711.56
443.813	809.56
444.034	838.56
444.255	724.56
444.476	647.56
444.698	677.56
444.919	669.56
445.14	795.56
445.361	730.56
445.582	676.56
445.803	730.56
446.024	828.56
446.245	822.56
446.466	766.56
446.687	643.56
446.908	605.56
447.129	566.56
447.35	578.56
447.571	579.56
447.792	568.56
448.013	577.56
448.234	553.56
448.455	629.56
448.675	721.56
448.896	893.56
449.117	716.56
449.338	687.56
449.559	840.56
449.779	918.56
450	747.56
450.221	622.56
450.442	577.56
450.662	553.56
450.883	552.56
451.104	557.56
451.324	563.56
451.545	535.56
451.766	522.56
451.986	510.56
452.207	511.56
452.428	517.56
452.648	497.56
452.869	501.56
453.089	522.56
453.31	535.56
453.53	519.56
453.751	487.56
453.971	486.56
454.192	484.56
454.412	509.56
454.633	485.56
454.853	486.56
455.073	488.56
455.294	509.56
455.514	595.56
455.734	597.56
455.955	518.56
456.175	495.56
456.395	449.56
456.616	470.56
456.836	482.56
457.056	496.56
457.276	479.56
457.497	474.56
457.717	476.56
457.937	478.56
458.157	483.56
458.377	490.56
458.598	530.56
458.818	565.56
459.038	622.56
459.258	655.56
459.478	584.56
459.698	536.56
459.918	548.56
460.138	555.56
460.358	557.56
460.578	570.56
460.798	571.56
461.018	580.56
461.238	576.56
461.458	553.56
461.678	548.56
461.898	568.56
462.118	590.56
462.338	609.56
462.558	611.56
462.777	617.56
462.997	633.56
463.217	658.56
463.437	648.56
463.657	642.56
463.876	599.56
464.096	621.56
464.316	597.56
464.536	623.56
464.755	607.56
464.975	611.56
465.195	617.56
465.414	666.56
465.634	616.56
465.854	585.56
466.073	563.56
466.293	543.56
466.512	543.56
466.732	527.56
466.951	527.56
467.171	525.56
467.391	541.56
467.61	536.56
467.829	534.56
468.049	540.56
468.268	554.56
468.488	544.56
468.707	541.56
468.927	529.56
469.146	526.56
469.365	517.56
469.585	519.56
469.804	533.56
470.023	527.56
470.243	531.56
470.462	541.56
470.681	536.56
470.901	565.56
471.12	548.56
471.339	529.56
471.558	543.56
471.777	544.56
471.997	524.56
472.216	531.56
472.435	535.56
472.654	552.56
472.873	539.56
473.092	515.56
473.311	507.56
473.53	532.56
473.749	522.56
473.968	557.56
474.187	663.56
474.406	679.56
474.625	594.56
474.844	554.56
475.063	535.56
475.282	524.56
475.501	556.56
475.72	560.56
475.939	530.56
476.158	537.56
476.377	523.56
476.596	531.56
476.814	550.56
477.033	569.56
477.252	533.56
477.471	569.56
477.69	569.56
477.908	577.56
478.127	556.56
478.346	589.56
478.564	603.56
478.783	599.56
479.002	611.56
479.22	609.56
479.439	620.56
479.658	644.56
479.876	638.56
480.095	640.56
480.313	668.56
480.532	679.56
480.751	659.56
480.969	653.56
481.188	687.56
481.406	732.56
481.624	675.56
481.843	661.56
482.061	642.56
482.28	601.56
482.498	616.56
482.717	626.56
482.935	618.56
483.153	622.56
483.372	611.56
483.59	636.56
483.808	607.56
484.027	604.56
484.245	597.56
484.463	616.56
484.681	646.56
484.9	619.56
485.118	669.56
485.336	616.56
485.554	661.56
485.772	637.56
485.99	643.56
486.209	646.56
486.427	633.56
486.645	657.56
486.863	645.56
487.081	658.56
487.299	686.56
487.517	665.56
487.735	683.56
487.953	659.56
488.171	665.56
488.389	657.56
488.607	668.56
488.825	660.56
489.043	665.56
489.261	663.56
489.479	704.56
489.696	693.56
489.914	671.56
490.132	691.56
490.35	699.56
490.568	695.56
490.786	697.56
491.003	707.56
491.221	739.56
491.439	737.56
491.657	766.56
491.874	745.56
492.092	758.56
492.31	776.56
492.527	785.56
492.745	744.56
492.963	777.56
493.18	777.56
493.398	793.56
493.615	788.56
493.833	789.56
494.05	788.56
494.268	784.56
494.485	793.56
494.703	780.56
494.92	803.56
495.138	784.56
495.355	804.56
495.573	795.56
495.79	776.56
496.008	803.56
496.225	785.56
496.442	775.56
496.66	805.56
496.877	793.56
497.094	805.56
497.312	811.56
497.529	812.56
497.746	827.56
497.963	851.56
498.181	898.56
498.398	872.56
498.615	903.56
498.832	955.56
499.049	977.56
499.267	968.56
499.484	1037.56
499.701	1063.56
499.918	1107.56
500.135	1190.56
500.352	1274.56
500.569	1260.56
500.786	1287.56
501.003	1275.56
501.22	1200.56
501.437	1136.56
501.654	1109.56
501.871	1039.56
502.088	1003.56
502.305	967.56
502.522	924.56
502.739	916.56
502.956	872.56
503.172	865.56
503.389	833.56
503.606	829.56
503.823	822.56
504.04	815.56
504.256	808.56
504.473	816.56
504.69	809.56
504.907	777.56
505.123	771.56
505.34	804.56
505.557	767.56
505.773	736.56
505.99	755.56
506.207	735.56
506.423	750.56
506.64	715.56
506.856	729.56
507.073	697.56
507.289	705.56
507.506	726.56
507.722	740.56
507.939	739.56
508.155	731.56
508.372	684.56
508.588	715.56
508.805	692.56
509.021	707.56
509.238	693.56
509.454	708.56
509.67	696.56
509.887	668.56
510.103	673.56
510.319	688.56
510.536	742.56
510.752	1097.56
510.968	949.56
511.184	693.56
511.401	664.56
511.617	659.56
511.833	641.56
512.049	662.56
512.265	648.56
512.481	636.56
512.698	658.56
512.914	658.56
513.13	651.56
513.346	627.56
513.562	640.56
513.778	657.56
513.994	661.56
514.21	655.56
514.426	669.56
514.642	691.56
514.858	708.56
515.074	736.56
515.29	835.56
515.506	1097.56
515.721	964.56
515.937	746.56
516.153	691.56
516.369	677.56
516.585	686.56
516.801	708.56
517.016	708.56
517.232	725.56
517.448	719.56
517.664	726.56
517.879	703.56
518.095	694.56
518.311	712.56
518.527	725.56
518.742	694.56
518.958	677.56
519.173	671.56
519.389	651.56
519.605	669.56
519.82	667.56
520.036	649.56
520.251	678.56
520.467	678.56
520.682	667.56
520.898	691.56
521.113	709.56
521.329	719.56
521.544	775.56
521.76	903.56
521.975	1325.56
522.19	1325.56
522.406	836.56
522.621	685.56
522.836	623.56
523.052	630.56
523.267	627.56
523.482	587.56
523.698	577.56
523.913	602.56
524.128	588.56
524.343	575.56
524.559	592.56
524.774	578.56
524.989	583.56
525.204	577.56
525.419	571.56
525.634	550.56
525.849	553.56
526.064	566.56
526.28	552.56
526.495	565.56
526.71	546.56
526.925	551.56
527.14	543.56
527.355	549.56
527.57	524.56
527.785	536.56
527.999	538.56
528.214	541.56
528.429	551.56
528.644	558.56
528.859	553.56
529.074	550.56
529.289	565.56
529.503	611.56
529.718	594.56
529.933	567.56
530.148	574.56
530.363	526.56
530.577	540.56
530.792	537.56
531.007	537.56
531.221	534.56
531.436	551.56
531.651	527.56
531.865	521.56
532.08	519.56
532.295	519.56
532.509	536.56
532.724	518.56
532.938	522.56
533.153	520.56
533.367	519.56
533.582	517.56
533.796	529.56
534.011	529.56
534.225	522.56
534.44	524.56
534.654	506.56
534.868	515.56
535.083	506.56
535.297	487.56
535.511	523.56
535.726	516.56
535.94	523.56
536.154	518.56
536.369	521.56
536.583	493.56
536.797	513.56
537.011	505.56
537.225	500.56
537.44	496.56
537.654	476.56
537.868	472.56
538.082	497.56
538.296	494.56
538.51	493.56
538.724	484.56
538.938	474.56
539.153	523.56
539.367	498.56
539.581	486.56
539.795	489.56
540.009	508.56
540.222	485.56
540.436	504.56
540.65	508.56
540.864	499.56
541.078	506.56
541.292	507.56
541.506	514.56
541.72	515.56
541.934	508.56
542.147	493.56
542.361	491.56
542.575	484.56
542.789	501.56
543.002	486.56
543.216	493.56
543.43	493.56
543.644	495.56
543.857	492.56
544.071	485.56
544.285	496.56
544.498	495.56
544.712	508.56
544.925	494.56
545.139	482.56
545.352	507.56
545.566	505.56
545.779	520.56
545.993	492.56
546.206	490.56
546.42	492.56
546.633	501.56
546.847	503.56
547.06	500.56
547.274	507.56
547.487	501.56
547.7	486.56
547.914	481.56
548.127	488.56
548.34	480.56
548.554	470.56
548.767	508.56
548.98	483.56
549.193	475.56
549.407	466.56
549.62	475.56
549.833	494.56
550.046	479.56
550.259	493.56
550.473	502.56
550.686	493.56
550.899	496.56
551.112	480.56
551.325	474.56
551.538	479.56
551.751	479.56
551.964	484.56
552.177	484.56
552.39	473.56
552.603	469.56
552.816	507.56
553.029	488.56
553.242	499.56
553.455	508.56
553.667	508.56
553.88	527.56
554.093	504.56
554.306	517.56
554.519	486.56
554.732	472.56
554.944	472.56
555.157	473.56
555.37	474.56
555.583	474.56
555.795	487.56
556.008	469.56
556.221	459.56
556.433	446.56
556.646	450.56
556.859	451.56
557.071	456.56
557.284	405.56
557.496	448.56
557.709	443.56
557.921	430.56
558.134	433.56
558.346	457.56
558.559	436.56
558.771	425.56
558.984	420.56
559.196	422.56
559.409	431.56
559.621	437.56
559.833	428.56
560.046	432.56
560.258	435.56
560.47	413.56
560.683	437.56
560.895	431.56
561.107	427.56
561.32	410.56
561.532	432.56
561.744	431.56
561.956	419.56
562.168	432.56
562.381	423.56
562.593	437.56
562.805	430.56
563.017	427.56
563.229	460.56
563.441	431.56
563.653	413.56
563.865	440.56
564.077	435.56
564.289	440.56
564.501	458.56
564.713	464.56
564.925	449.56
565.137	457.56
565.349	457.56
565.561	477.56
565.773	480.56
565.985	503.56
566.197	531.56
566.408	540.56
566.62	544.56
566.832	576.56
567.044	570.56
567.255	564.56
567.467	581.56
567.679	585.56
567.891	602.56
568.102	612.56
568.314	611.56
568.526	581.56
568.737	548.56
568.949	490.56
569.161	503.56
569.372	468.56
569.584	462.56
569.795	470.56
570.007	441.56
570.218	481.56
570.43	460.56
570.641	448.56
570.853	428.56
571.064	425.56
571.276	411.56
571.487	421.56
571.698	409.56
571.91	402.56
572.121	416.56
572.333	401.56
572.544	409.56
572.755	391.56
572.966	395.56
573.178	379.56
573.389	389.56
573.6	387.56
573.811	380.56
574.023	390.56
574.234	386.56
574.445	356.56
574.656	379.56
574.867	391.56
575.078	380.56
575.289	351.56
575.501	366.56
575.712	358.56
575.923	367.56
576.134	375.56
576.345	377.56
576.556	356.56
576.767	358.56
576.978	369.56
577.188	376.56
577.399	378.56
577.61	361.56
577.821	359.56
578.032	336.56
578.243	379.56
578.454	505.56
578.665	444.56
578.875	364.56
579.086	349.56
579.297	332.56
579.508	342.56
579.718	355.56
579.929	336.56
580.14	355.56
580.35	319.56
580.561	333.56
580.772	336.56
580.982	339.56
581.193	341.56
581.403	328.56
581.614	351.56
581.825	333.56
582.035	319.56
582.246	335.56
582.456	327.56
582.667	316.56
582.877	325.56
583.087	335.56
583.298	336.56
583.508	349.56
583.719	329.56
583.929	335.56
584.139	338.56
584.35	338.56
584.56	324.56
584.77	323.56
584.981	336.56
585.191	309.56
585.401	343.56
585.611	325.56
585.821	329.56
586.032	346.56
586.242	326.56
586.452	319.56
586.662	319.56
586.872	305.56
587.082	318.56
587.292	322.56
587.502	309.56
587.713	325.56
587.923	317.56
588.133	321.56
588.343	328.56
588.553	328.56
588.762	312.56
588.972	320.56
589.182	318.56
589.392	344.56
589.602	323.56
589.812	311.56
590.022	341.56
590.232	307.56
590.441	317.56
590.651	335.56
590.861	328.56
591.071	315.56
591.281	324.56
591.49	314.56
591.7	334.56
591.91	333.56
592.119	342.56
592.329	352.56
592.539	330.56
592.748	338.56
592.958	351.56
593.167	339.56
593.377	353.56
593.587	378.56
593.796	348.56
594.006	364.56
594.215	363.56
594.424	379.56
594.634	347.56
594.843	349.56
595.053	349.56
595.262	347.56
595.472	331.56
595.681	328.56
595.89	310.56
596.1	325.56
596.309	332.56
596.518	313.56
596.727	313.56
596.937	306.56
597.146	303.56
597.355	314.56
597.564	307.56
597.774	288.56
597.983	298.56
598.192	289.56
598.401	292.56
598.61	305.56
598.819	273.56
599.028	289.56
599.237	310.56
599.446	302.56
599.655	292.56
599.864	300.56
600.073	299.56
600.282	280.56
600.491	293.56
600.7	272.56
600.909	297.56
601.118	297.56
601.327	287.56
601.536	282.56
601.745	275.56
601.953	276.56
602.162	278.56
602.371	304.56
602.58	297.56
602.789	280.56
602.997	282.56
603.206	277.56
603.415	268.56
603.623	288.56
603.832	272.56
604.041	252.56
604.249	263.56
604.458	278.56
604.666	280.56
604.875	275.56
605.084	273.56
605.292	277.56
605.501	272.56
605.709	267.56
605.918	277.56
606.126	276.56
606.334	278.56
606.543	272.56
606.751	254.56
606.96	259.56
607.168	269.56
607.376	279.56
607.585	262.56
607.793	283.56
608.001	264.56
608.21	255.56
608.418	269.56
608.626	257.56
608.834	269.56
609.043	285.56
609.251	266.56
609.459	272.56
609.667	252.56
609.875	264.56
610.083	262.56
610.291	281.56
610.499	250.56
610.707	280.56
610.916	267.56
611.124	267.56
611.332	267.56
611.54	291.56
611.748	274.56
611.955	273.56
612.163	272.56
612.371	266.56
612.579	256.56
612.787	272.56
612.995	272.56
613.203	273.56
613.411	256.56
613.618	254.56
613.826	239.56
614.034	261.56
614.242	259.56
614.449	258.56
614.657	261.56
614.865	264.56
615.072	267.56
615.28	263.56
615.488	256.56
615.695	249.56
615.903	252.56
616.111	271.56
616.318	254.56
616.526	249.56
616.733	257.56
616.941	275.56
617.148	265.56
617.356	264.56
617.563	253.56
617.771	259.56
617.978	248.56
618.185	250.56
618.393	263.56
618.6	260.56
618.807	253.56
619.015	269.56
619.222	270.56
619.429	245.56
619.637	248.56
619.844	257.56
620.051	224.56
620.258	237.56
620.466	233.56
620.673	235.56
620.88	237.56
621.087	239.56
621.294	253.56
621.501	245.56
621.708	232.56
621.915	253.56
622.122	238.56
622.329	245.56
622.536	231.56
622.743	237.56
622.95	245.56
623.157	257.56
623.364	264.56
623.571	248.56
623.778	223.56
623.985	246.56
624.192	222.56
624.399	227.56
624.606	239.56
624.812	247.56
625.019	229.56
625.226	224.56
625.433	232.56
625.639	217.56
625.846	214.56
626.053	234.56
626.259	227.56
626.466	224.56
626.673	223.56
626.879	226.56
627.086	236.56
627.293	230.56
627.499	233.56
627.706	230.56
627.912	211.56
628.119	208.56
628.325	229.56
628.532	224.56
628.738	233.56
628.945	221.56
629.151	222.56
629.357	209.56
629.564	215.56
629.77	231.56
629.976	225.56
630.183	233.56
630.389	234.56
630.595	207.56
630.802	220.56
631.008	213.56
631.214	212.56
631.42	209.56
631.627	227.56
631.833	206.56
632.039	216.56
632.245	212.56
632.451	193.56
632.657	209.56
632.863	215.56
633.069	205.56
633.275	193.56
633.481	205.56
633.688	216.56
633.893	193.56
634.099	191.56
634.305	200.56
634.511	183.56
634.717	185.56
634.923	207.56
635.129	200.56
635.335	210.56
635.541	229.56
635.747	198.56
635.952	199.56
636.158	202.56
636.364	204.56
636.57	216.56
636.775	194.56
636.981	196.56
637.187	214.56
637.392	192.56
637.598	187.56
637.804	189.56
638.009	200.56
638.215	203.56
638.421	186.56
638.626	206.56
638.832	202.56
639.037	198.56
639.243	206.56
639.448	184.56
639.654	176.56
639.859	189.56
640.065	173.56
640.27	197.56
640.475	189.56
640.681	203.56
640.886	205.56
641.091	200.56
641.297	193.56
641.502	180.56
641.707	189.56
641.913	181.56
642.118	197.56
642.323	189.56
642.528	193.56
642.733	190.56
642.939	190.56
643.144	189.56
643.349	175.56
643.554	182.56
643.759	194.56
643.964	187.56
644.169	193.56
644.374	168.56
644.579	168.56
644.784	162.56
644.989	181.56
645.194	179.56
645.399	184.56
645.604	181.56
645.809	183.56
646.014	171.56
646.219	187.56
646.423	153.56
646.628	164.56
646.833	184.56
647.038	187.56
647.243	175.56
647.447	183.56
647.652	191.56
647.857	179.56
648.062	182.56
648.266	177.56
648.471	181.56
648.676	185.56
648.88	199.56
649.085	190.56
649.289	183.56
649.494	190.56
649.698	211.56
649.903	199.56
650.107	188.56
650.312	171.56
650.516	172.56
650.721	164.56
650.925	176.56
651.13	166.56
651.334	139.56
651.539	160.56
651.743	146.56
651.947	161.56
652.152	161.56
652.356	156.56
652.56	156.56
652.764	153.56
652.969	152.56
653.173	155.56
653.377	151.56
653.581	161.56
653.785	136.56
653.99	139.56
654.194	151.56
654.398	145.56
654.602	143.56
654.806	135.56
655.01	153.56
655.214	143.56
655.418	155.56
655.622	129.56
655.826	145.56
656.03	152.56
656.234	147.56
656.438	151.56
656.642	145.56
656.846	138.56
657.049	137.56
657.253	127.56
657.457	133.56
657.661	140.56
657.865	138.56
658.068	123.56
658.272	112.56
658.476	133.56
658.68	105.56
658.883	107.56
659.087	116.56
659.291	107.56
659.494	114.56
659.698	99.56
659.901	104.56
660.105	93.56
660.309	100.56
660.512	85.56
660.716	98.56
660.919	101.56
661.123	90.56
661.326	91.56
661.53	88.56
661.733	101.56
661.936	98.56
662.14	87.56
662.343	77.56
662.546	85.56
662.75	97.56
662.953	84.56
663.156	75.56
663.36	83.56
663.563	79.56
663.766	83.56
663.969	98.56
664.173	77.56
664.376	96.56
664.579	90.56
664.782	86.56
664.985	87.56
665.188	84.56
665.391	90.56
665.594	82.56
665.797	91.56
666	67.56
666.203	86.56
666.406	81.56
666.609	77.56
666.812	81.56
667.015	99.56
667.218	109.56
667.421	88.56
667.624	85.56
667.827	71.56
668.03	83.56
668.232	85.56
668.435	88.56
668.638	83.56
668.841	101.56
669.043	89.56
669.246	95.56
669.449	89.56
669.651	96.56
669.854	63.56
670.057	69.56
670.259	73.56
670.462	73.56
670.665	74.56
670.867	91.56
671.07	93.56
671.272	80.56
671.475	85.56
671.677	89.56
671.88	84.56
672.082	85.56
672.284	79.56
672.487	90.56
672.689	93.56
672.892	90.56
