Data from 1975.PennyLincolnUp.Lamp.En5.5.200Scan.071719.P1.Changed Mount._HRD10591_15-57-30-859.txt Node
Date: Thu Jul 18 15:57:30 EDT 2019
User: cochatt
Spectrometer: HR+D1059
Trigger mode: 1
Integration Time (sec): 1.000000E-1
Scans to average: 1
Electric dark correction enabled: true
Nonlinearity correction enabled: false
Boxcar width: 0
XAxis mode: Wavelengths
Number of Pixels in Spectrum: 2048
>>>>>Begin Spectral Data<<<<<
223.165	-3.44
223.4	-3.44
223.635	-3.44
223.869	-22.44
224.104	-36.44
224.338	-14.44
224.573	-15.44
224.808	-12.44
225.042	-6.44
225.277	-2.44
225.511	-6.44
225.746	4.56
225.98	3.56
226.215	5.56
226.449	22.56
226.683	14.56
226.918	34.56
227.152	34.56
227.387	39.56
227.621	34.56
227.856	33.56
228.09	33.56
228.324	43.56
228.559	51.56
228.793	64.56
229.027	90.56
229.262	104.56
229.496	129.56
229.73	128.56
229.964	158.56
230.199	121.56
230.433	99.56
230.667	106.56
230.901	113.56
231.136	106.56
231.37	117.56
231.604	104.56
231.838	122.56
232.072	124.56
232.306	107.56
232.541	120.56
232.775	103.56
233.009	106.56
233.243	109.56
233.477	120.56
233.711	113.56
233.945	114.56
234.179	113.56
234.413	124.56
234.647	101.56
234.881	130.56
235.115	118.56
235.349	126.56
235.583	126.56
235.817	133.56
236.051	125.56
236.285	130.56
236.519	130.56
236.753	130.56
236.987	146.56
237.221	180.56
237.455	216.56
237.689	182.56
237.922	150.56
238.156	137.56
238.39	142.56
238.624	138.56
238.858	132.56
239.091	126.56
239.325	122.56
239.559	130.56
239.793	140.56
240.027	140.56
240.26	133.56
240.494	148.56
240.728	148.56
240.961	149.56
241.195	147.56
241.429	133.56
241.662	142.56
241.896	154.56
242.13	122.56
242.363	132.56
242.597	138.56
242.83	148.56
243.064	166.56
243.298	144.56
243.531	139.56
243.765	134.56
243.998	140.56
244.232	133.56
244.465	157.56
244.699	160.56
244.932	154.56
245.166	160.56
245.399	148.56
245.633	153.56
245.866	156.56
246.099	166.56
246.333	165.56
246.566	162.56
246.8	158.56
247.033	167.56
247.266	158.56
247.5	167.56
247.733	183.56
247.966	165.56
248.2	167.56
248.433	169.56
248.666	184.56
248.899	181.56
249.133	202.56
249.366	209.56
249.599	203.56
249.832	191.56
250.066	197.56
250.299	199.56
250.532	205.56
250.765	206.56
250.998	224.56
251.231	251.56
251.465	224.56
251.698	216.56
251.931	200.56
252.164	196.56
252.397	215.56
252.63	213.56
252.863	204.56
253.096	206.56
253.329	220.56
253.562	232.56
253.795	227.56
254.028	216.56
254.261	223.56
254.494	222.56
254.727	241.56
254.96	284.56
255.193	281.56
255.426	258.56
255.659	214.56
255.892	241.56
256.124	218.56
256.357	255.56
256.59	220.56
256.823	219.56
257.056	211.56
257.289	242.56
257.521	216.56
257.754	222.56
257.987	207.56
258.22	216.56
258.452	212.56
258.685	206.56
258.918	219.56
259.151	213.56
259.383	216.56
259.616	219.56
259.849	217.56
260.081	234.56
260.314	255.56
260.547	256.56
260.779	247.56
261.012	224.56
261.244	240.56
261.477	222.56
261.71	231.56
261.942	215.56
262.175	233.56
262.407	235.56
262.64	240.56
262.872	206.56
263.105	225.56
263.337	218.56
263.57	229.56
263.802	226.56
264.035	220.56
264.267	218.56
264.499	224.56
264.732	200.56
264.964	227.56
265.197	219.56
265.429	216.56
265.661	226.56
265.894	224.56
266.126	213.56
266.358	214.56
266.591	227.56
266.823	225.56
267.055	219.56
267.287	243.56
267.52	228.56
267.752	234.56
267.984	239.56
268.216	252.56
268.448	268.56
268.681	254.56
268.913	278.56
269.145	283.56
269.377	285.56
269.609	286.56
269.841	274.56
270.073	295.56
270.306	284.56
270.538	317.56
270.77	318.56
271.002	308.56
271.234	306.56
271.466	299.56
271.698	324.56
271.93	319.56
272.162	320.56
272.394	317.56
272.626	317.56
272.858	296.56
273.09	279.56
273.322	271.56
273.553	264.56
273.785	267.56
274.017	264.56
274.249	279.56
274.481	272.56
274.713	270.56
274.945	279.56
275.176	268.56
275.408	282.56
275.64	292.56
275.872	272.56
276.104	280.56
276.335	275.56
276.567	296.56
276.799	309.56
277.031	308.56
277.262	329.56
277.494	330.56
277.726	313.56
277.957	311.56
278.189	308.56
278.421	282.56
278.652	276.56
278.884	281.56
279.115	284.56
279.347	274.56
279.579	277.56
279.81	276.56
280.042	287.56
280.273	278.56
280.505	289.56
280.736	284.56
280.968	282.56
281.199	277.56
281.431	280.56
281.662	280.56
281.894	275.56
282.125	289.56
282.356	283.56
282.588	321.56
282.819	308.56
283.051	296.56
283.282	289.56
283.513	274.56
283.745	287.56
283.976	298.56
284.207	279.56
284.439	282.56
284.67	294.56
284.901	301.56
285.132	297.56
285.364	323.56
285.595	302.56
285.826	294.56
286.057	301.56
286.288	288.56
286.52	306.56
286.751	299.56
286.982	304.56
287.213	311.56
287.444	297.56
287.675	309.56
287.906	310.56
288.138	326.56
288.369	337.56
288.6	318.56
288.831	317.56
289.062	316.56
289.293	336.56
289.524	307.56
289.755	318.56
289.986	314.56
290.217	311.56
290.448	292.56
290.679	304.56
290.91	309.56
291.141	311.56
291.371	317.56
291.602	299.56
291.833	310.56
292.064	319.56
292.295	313.56
292.526	329.56
292.757	294.56
292.987	308.56
293.218	298.56
293.449	325.56
293.68	324.56
293.91	325.56
294.141	321.56
294.372	306.56
294.603	317.56
294.833	319.56
295.064	324.56
295.295	332.56
295.525	307.56
295.756	294.56
295.987	318.56
296.217	338.56
296.448	345.56
296.679	324.56
296.909	318.56
297.14	333.56
297.37	331.56
297.601	320.56
297.831	315.56
298.062	338.56
298.292	322.56
298.523	318.56
298.753	314.56
298.984	326.56
299.214	318.56
299.445	347.56
299.675	322.56
299.905	346.56
300.136	326.56
300.366	332.56
300.597	318.56
300.827	334.56
301.057	353.56
301.288	341.56
301.518	333.56
301.748	346.56
301.979	330.56
302.209	339.56
302.439	359.56
302.669	345.56
302.9	330.56
303.13	354.56
303.36	348.56
303.59	352.56
303.82	349.56
304.051	353.56
304.281	336.56
304.511	344.56
304.741	345.56
304.971	354.56
305.201	337.56
305.431	344.56
305.661	361.56
305.891	336.56
306.121	348.56
306.352	358.56
306.582	350.56
306.812	353.56
307.042	333.56
307.272	334.56
307.502	357.56
307.731	341.56
307.961	362.56
308.191	371.56
308.421	349.56
308.651	368.56
308.881	354.56
309.111	351.56
309.341	361.56
309.571	353.56
309.8	374.56
310.03	392.56
310.26	391.56
310.49	393.56
310.72	383.56
310.949	387.56
311.179	401.56
311.409	397.56
311.639	384.56
311.868	384.56
312.098	373.56
312.328	396.56
312.557	395.56
312.787	421.56
313.017	402.56
313.246	380.56
313.476	390.56
313.706	382.56
313.935	403.56
314.165	400.56
314.394	382.56
314.624	414.56
314.853	393.56
315.083	399.56
315.312	388.56
315.542	400.56
315.771	390.56
316.001	398.56
316.23	389.56
316.46	378.56
316.689	394.56
316.919	400.56
317.148	411.56
317.377	414.56
317.607	380.56
317.836	373.56
318.065	403.56
318.295	382.56
318.524	382.56
318.753	398.56
318.983	386.56
319.212	388.56
319.441	407.56
319.67	411.56
319.9	390.56
320.129	394.56
320.358	407.56
320.587	402.56
320.816	390.56
321.046	407.56
321.275	395.56
321.504	389.56
321.733	437.56
321.962	394.56
322.191	402.56
322.42	419.56
322.649	455.56
322.878	428.56
323.108	430.56
323.337	457.56
323.566	491.56
323.795	512.56
324.024	536.56
324.253	618.56
324.482	842.56
324.71	1284.56
324.939	1900.56
325.168	1701.56
325.397	869.56
325.626	602.56
325.855	520.56
326.084	477.56
326.313	498.56
326.542	468.56
326.77	525.56
326.999	600.56
327.228	813.56
327.457	1183.56
327.686	1503.56
327.914	985.56
328.143	670.56
328.372	590.56
328.6	578.56
328.829	515.56
329.058	536.56
329.287	556.56
329.515	532.56
329.744	518.56
329.972	502.56
330.201	523.56
330.43	553.56
330.658	587.56
330.887	595.56
331.115	573.56
331.344	510.56
331.572	491.56
331.801	486.56
332.03	507.56
332.258	508.56
332.486	497.56
332.715	464.56
332.943	483.56
333.172	477.56
333.4	489.56
333.629	503.56
333.857	523.56
334.085	525.56
334.314	537.56
334.542	601.56
334.771	577.56
334.999	530.56
335.227	514.56
335.455	488.56
335.684	466.56
335.912	480.56
336.14	474.56
336.369	472.56
336.597	479.56
336.825	465.56
337.053	488.56
337.281	465.56
337.51	460.56
337.738	445.56
337.966	462.56
338.194	449.56
338.422	473.56
338.65	437.56
338.878	480.56
339.106	462.56
339.334	479.56
339.562	459.56
339.79	472.56
340.018	439.56
340.246	430.56
340.474	456.56
340.702	446.56
340.93	444.56
341.158	437.56
341.386	453.56
341.614	469.56
341.842	460.56
342.07	436.56
342.298	441.56
342.526	452.56
342.754	426.56
342.981	428.56
343.209	437.56
343.437	451.56
343.665	477.56
343.893	458.56
344.12	453.56
344.348	500.56
344.576	466.56
344.804	446.56
345.031	480.56
345.259	470.56
345.487	458.56
345.714	456.56
345.942	442.56
346.17	450.56
346.397	427.56
346.625	448.56
346.853	438.56
347.08	430.56
347.308	441.56
347.535	454.56
347.763	442.56
347.99	446.56
348.218	445.56
348.445	436.56
348.673	437.56
348.9	433.56
349.128	422.56
349.355	410.56
349.583	433.56
349.81	417.56
350.037	402.56
350.265	419.56
350.492	420.56
350.72	414.56
350.947	406.56
351.174	450.56
351.402	462.56
351.629	431.56
351.856	456.56
352.083	446.56
352.311	465.56
352.538	446.56
352.765	456.56
352.992	437.56
353.22	430.56
353.447	432.56
353.674	416.56
353.901	418.56
354.128	411.56
354.355	433.56
354.583	434.56
354.81	418.56
355.037	402.56
355.264	420.56
355.491	406.56
355.718	404.56
355.945	402.56
356.172	385.56
356.399	421.56
356.626	423.56
356.853	412.56
357.08	412.56
357.307	422.56
357.534	396.56
357.761	418.56
357.988	436.56
358.215	388.56
358.441	415.56
358.668	416.56
358.895	443.56
359.122	419.56
359.349	436.56
359.576	454.56
359.802	472.56
360.029	468.56
360.256	481.56
360.483	446.56
360.709	444.56
360.936	429.56
361.163	432.56
361.39	460.56
361.616	438.56
361.843	419.56
362.07	436.56
362.296	448.56
362.523	444.56
362.749	405.56
362.976	422.56
363.203	425.56
363.429	408.56
363.656	409.56
363.882	430.56
364.109	437.56
364.335	412.56
364.562	402.56
364.788	411.56
365.015	414.56
365.241	417.56
365.468	421.56
365.694	426.56
365.92	436.56
366.147	409.56
366.373	439.56
366.599	436.56
366.826	419.56
367.052	409.56
367.278	422.56
367.505	421.56
367.731	425.56
367.957	420.56
368.184	430.56
368.41	396.56
368.636	428.56
368.862	421.56
369.089	417.56
369.315	425.56
369.541	424.56
369.767	424.56
369.993	418.56
370.219	432.56
370.445	432.56
370.672	430.56
370.898	413.56
371.124	442.56
371.35	406.56
371.576	417.56
371.802	416.56
372.028	432.56
372.254	430.56
372.48	438.56
372.706	462.56
372.932	446.56
373.158	444.56
373.384	450.56
373.61	430.56
373.835	427.56
374.061	428.56
374.287	442.56
374.513	438.56
374.739	439.56
374.965	467.56
375.191	453.56
375.416	425.56
375.642	449.56
375.868	438.56
376.094	450.56
376.319	432.56
376.545	433.56
376.771	417.56
376.997	436.56
377.222	421.56
377.448	410.56
377.674	431.56
377.899	439.56
378.125	414.56
378.35	428.56
378.576	414.56
378.802	424.56
379.027	428.56
379.253	430.56
379.478	405.56
379.704	430.56
379.929	434.56
380.155	427.56
380.38	424.56
380.606	435.56
380.831	434.56
381.057	452.56
381.282	430.56
381.507	429.56
381.733	467.56
381.958	440.56
382.184	460.56
382.409	440.56
382.634	451.56
382.86	454.56
383.085	455.56
383.31	425.56
383.535	461.56
383.761	455.56
383.986	440.56
384.211	485.56
384.436	482.56
384.662	458.56
384.887	457.56
385.112	445.56
385.337	469.56
385.562	475.56
385.787	475.56
386.013	493.56
386.238	489.56
386.463	479.56
386.688	492.56
386.913	460.56
387.138	473.56
387.363	486.56
387.588	477.56
387.813	473.56
388.038	478.56
388.263	462.56
388.488	484.56
388.713	501.56
388.938	494.56
389.163	467.56
389.387	483.56
389.612	477.56
389.837	473.56
390.062	484.56
390.287	485.56
390.512	483.56
390.736	480.56
390.961	481.56
391.186	468.56
391.411	483.56
391.636	489.56
391.86	500.56
392.085	507.56
392.31	500.56
392.534	500.56
392.759	511.56
392.984	502.56
393.208	492.56
393.433	496.56
393.658	472.56
393.882	491.56
394.107	501.56
394.331	491.56
394.556	502.56
394.78	510.56
395.005	516.56
395.229	493.56
395.454	487.56
395.678	520.56
395.903	527.56
396.127	539.56
396.352	548.56
396.576	521.56
396.801	522.56
397.025	500.56
397.249	514.56
397.474	508.56
397.698	530.56
397.922	539.56
398.147	550.56
398.371	549.56
398.595	568.56
398.82	552.56
399.044	589.56
399.268	580.56
399.492	650.56
399.717	676.56
399.941	712.56
400.165	740.56
400.389	696.56
400.613	644.56
400.837	628.56
401.062	594.56
401.286	566.56
401.51	566.56
401.734	557.56
401.958	584.56
402.182	583.56
402.406	587.56
402.63	592.56
402.854	566.56
403.078	588.56
403.302	583.56
403.526	586.56
403.75	591.56
403.974	606.56
404.198	590.56
404.422	607.56
404.645	598.56
404.869	619.56
405.093	636.56
405.317	666.56
405.541	746.56
405.765	655.56
405.988	606.56
406.212	622.56
406.436	644.56
406.66	632.56
406.883	634.56
407.107	645.56
407.331	712.56
407.555	793.56
407.778	771.56
408.002	697.56
408.226	669.56
408.449	670.56
408.673	650.56
408.896	664.56
409.12	707.56
409.344	673.56
409.567	617.56
409.791	594.56
410.014	601.56
410.238	598.56
410.461	609.56
410.685	581.56
410.908	627.56
411.132	604.56
411.355	673.56
411.578	646.56
411.802	577.56
412.025	589.56
412.249	594.56
412.472	619.56
412.695	671.56
412.919	661.56
413.142	603.56
413.365	581.56
413.589	565.56
413.812	540.56
414.035	541.56
414.258	554.56
414.482	574.56
414.705	567.56
414.928	564.56
415.151	557.56
415.374	549.56
415.597	541.56
415.821	541.56
416.044	560.56
416.267	556.56
416.49	552.56
416.713	548.56
416.936	558.56
417.159	562.56
417.382	530.56
417.605	576.56
417.828	559.56
418.051	582.56
418.274	588.56
418.497	556.56
418.72	560.56
418.943	586.56
419.166	594.56
419.389	630.56
419.611	619.56
419.834	596.56
420.057	620.56
420.28	588.56
420.503	589.56
420.726	569.56
420.948	587.56
421.171	644.56
421.394	667.56
421.617	603.56
421.839	583.56
422.062	582.56
422.285	584.56
422.507	640.56
422.73	745.56
422.953	718.56
423.175	619.56
423.398	616.56
423.621	603.56
423.843	608.56
424.066	639.56
424.288	632.56
424.511	641.56
424.733	704.56
424.956	765.56
425.178	743.56
425.401	734.56
425.623	788.56
425.846	642.56
426.068	618.56
426.291	619.56
426.513	605.56
426.735	632.56
426.958	662.56
427.18	734.56
427.402	880.56
427.625	931.56
427.847	839.56
428.069	733.56
428.292	658.56
428.514	598.56
428.736	589.56
428.958	574.56
429.181	560.56
429.403	548.56
429.625	573.56
429.847	586.56
430.069	678.56
430.292	692.56
430.514	581.56
430.736	570.56
430.958	560.56
431.18	555.56
431.402	534.56
431.624	528.56
431.846	516.56
432.068	512.56
432.29	539.56
432.512	523.56
432.734	547.56
432.956	531.56
433.178	548.56
433.4	547.56
433.622	555.56
433.844	550.56
434.066	538.56
434.287	552.56
434.509	567.56
434.731	587.56
434.953	565.56
435.175	618.56
435.397	614.56
435.618	616.56
435.84	645.56
436.062	731.56
436.284	830.56
436.505	674.56
436.727	637.56
436.949	585.56
437.17	571.56
437.392	552.56
437.614	576.56
437.835	594.56
438.057	667.56
438.278	820.56
438.5	808.56
438.721	867.56
438.943	859.56
439.165	684.56
439.386	624.56
439.608	632.56
439.829	603.56
440.05	650.56
440.272	667.56
440.493	628.56
440.715	598.56
440.936	571.56
441.158	582.56
441.379	569.56
441.6	604.56
441.822	592.56
442.043	674.56
442.264	752.56
442.486	772.56
442.707	659.56
442.928	633.56
443.149	624.56
443.371	612.56
443.592	676.56
443.813	818.56
444.034	871.56
444.255	752.56
444.476	661.56
444.698	636.56
444.919	656.56
445.14	755.56
445.361	688.56
445.582	644.56
445.803	699.56
446.024	821.56
446.245	841.56
446.466	740.56
446.687	646.56
446.908	598.56
447.129	587.56
447.35	573.56
447.571	564.56
447.792	539.56
448.013	567.56
448.234	561.56
448.455	609.56
448.675	738.56
448.896	869.56
449.117	703.56
449.338	700.56
449.559	780.56
449.779	933.56
450	748.56
450.221	594.56
450.442	554.56
450.662	568.56
450.883	568.56
451.104	564.56
451.324	547.56
451.545	531.56
451.766	511.56
451.986	511.56
452.207	492.56
452.428	496.56
452.648	508.56
452.869	500.56
453.089	481.56
453.31	508.56
453.53	496.56
453.751	508.56
453.971	486.56
454.192	518.56
454.412	501.56
454.633	514.56
454.853	479.56
455.073	500.56
455.294	536.56
455.514	599.56
455.734	580.56
455.955	493.56
456.175	499.56
456.395	450.56
456.616	444.56
456.836	474.56
457.056	464.56
457.276	490.56
457.497	481.56
457.717	467.56
457.937	475.56
458.157	489.56
458.377	489.56
458.598	488.56
458.818	542.56
459.038	640.56
459.258	665.56
459.478	565.56
459.698	538.56
459.918	536.56
460.138	534.56
460.358	547.56
460.578	551.56
460.798	574.56
461.018	566.56
461.238	552.56
461.458	576.56
461.678	534.56
461.898	555.56
462.118	566.56
462.338	594.56
462.558	603.56
462.777	613.56
462.997	630.56
463.217	642.56
463.437	637.56
463.657	618.56
463.876	615.56
464.096	610.56
464.316	600.56
464.536	620.56
464.755	593.56
464.975	608.56
465.195	624.56
465.414	666.56
465.634	601.56
465.854	562.56
466.073	550.56
466.293	537.56
466.512	532.56
466.732	512.56
466.951	506.56
467.171	512.56
467.391	522.56
467.61	517.56
467.829	518.56
468.049	524.56
468.268	524.56
468.488	517.56
468.707	503.56
468.927	519.56
469.146	487.56
469.365	508.56
469.585	521.56
469.804	530.56
470.023	553.56
470.243	526.56
470.462	538.56
470.681	529.56
470.901	544.56
471.12	529.56
471.339	514.56
471.558	532.56
471.777	507.56
471.997	516.56
472.216	527.56
472.435	552.56
472.654	551.56
472.873	517.56
473.092	502.56
473.311	508.56
473.53	529.56
473.749	530.56
473.968	560.56
474.187	648.56
474.406	706.56
474.625	562.56
474.844	537.56
475.063	520.56
475.282	520.56
475.501	519.56
475.72	548.56
475.939	528.56
476.158	526.56
476.377	547.56
476.596	534.56
476.814	545.56
477.033	570.56
477.252	535.56
477.471	561.56
477.69	560.56
477.908	576.56
478.127	579.56
478.346	582.56
478.564	594.56
478.783	568.56
479.002	631.56
479.22	580.56
479.439	622.56
479.658	628.56
479.876	615.56
480.095	621.56
480.313	658.56
480.532	657.56
480.751	649.56
480.969	674.56
481.188	674.56
481.406	739.56
481.624	674.56
481.843	605.56
482.061	626.56
482.28	620.56
482.498	616.56
482.717	601.56
482.935	616.56
483.153	628.56
483.372	603.56
483.59	605.56
483.808	596.56
484.027	620.56
484.245	606.56
484.463	612.56
484.681	644.56
484.9	630.56
485.118	617.56
485.336	607.56
485.554	617.56
485.772	633.56
485.99	648.56
486.209	631.56
486.427	629.56
486.645	650.56
486.863	652.56
487.081	648.56
487.299	625.56
487.517	654.56
487.735	676.56
487.953	656.56
488.171	649.56
488.389	673.56
488.607	644.56
488.825	658.56
489.043	676.56
489.261	675.56
489.479	655.56
489.696	660.56
489.914	648.56
490.132	686.56
490.35	672.56
490.568	673.56
490.786	699.56
491.003	727.56
491.221	713.56
491.439	711.56
491.657	746.56
491.874	745.56
492.092	763.56
492.31	765.56
492.527	762.56
492.745	745.56
492.963	774.56
493.18	763.56
493.398	776.56
493.615	795.56
493.833	774.56
494.05	776.56
494.268	753.56
494.485	756.56
494.703	745.56
494.92	784.56
495.138	786.56
495.355	789.56
495.573	777.56
495.79	787.56
496.008	777.56
496.225	789.56
496.442	786.56
496.66	776.56
496.877	788.56
497.094	808.56
497.312	801.56
497.529	796.56
497.746	841.56
497.963	828.56
498.181	872.56
498.398	871.56
498.615	900.56
498.832	903.56
499.049	935.56
499.267	952.56
499.484	983.56
499.701	1048.56
499.918	1125.56
500.135	1166.56
500.352	1211.56
500.569	1241.56
500.786	1254.56
501.003	1258.56
501.22	1188.56
501.437	1113.56
501.654	1074.56
501.871	1058.56
502.088	992.56
502.305	970.56
502.522	901.56
502.739	890.56
502.956	862.56
503.172	835.56
503.389	828.56
503.606	827.56
503.823	797.56
504.04	809.56
504.256	826.56
504.473	814.56
504.69	792.56
504.907	796.56
505.123	766.56
505.34	771.56
505.557	747.56
505.773	741.56
505.99	717.56
506.207	721.56
506.423	730.56
506.64	715.56
506.856	720.56
507.073	739.56
507.289	703.56
507.506	690.56
507.722	724.56
507.939	728.56
508.155	705.56
508.372	708.56
508.588	677.56
508.805	660.56
509.021	685.56
509.238	690.56
509.454	714.56
509.67	691.56
509.887	697.56
510.103	666.56
510.319	676.56
510.536	780.56
510.752	1100.56
510.968	925.56
511.184	672.56
511.401	622.56
511.617	649.56
511.833	666.56
512.049	659.56
512.265	648.56
512.481	633.56
512.698	638.56
512.914	672.56
513.13	648.56
513.346	643.56
513.562	653.56
513.778	679.56
513.994	660.56
514.21	655.56
514.426	672.56
514.642	670.56
514.858	709.56
515.074	739.56
515.29	846.56
515.506	1088.56
515.721	982.56
515.937	747.56
516.153	712.56
516.369	692.56
516.585	667.56
516.801	698.56
517.016	693.56
517.232	683.56
517.448	686.56
517.664	719.56
517.879	698.56
518.095	698.56
518.311	673.56
518.527	704.56
518.742	682.56
518.958	662.56
519.173	649.56
519.389	638.56
519.605	630.56
519.82	655.56
520.036	642.56
520.251	661.56
520.467	674.56
520.682	662.56
520.898	683.56
521.113	686.56
521.329	686.56
521.544	745.56
521.76	900.56
521.975	1388.56
522.19	1386.56
522.406	834.56
522.621	708.56
522.836	617.56
523.052	634.56
523.267	612.56
523.482	594.56
523.698	602.56
523.913	578.56
524.128	586.56
524.343	585.56
524.559	560.56
524.774	559.56
524.989	546.56
525.204	557.56
525.419	540.56
525.634	560.56
525.849	557.56
526.064	558.56
526.28	556.56
526.495	560.56
526.71	530.56
526.925	524.56
527.14	539.56
527.355	538.56
527.57	534.56
527.785	509.56
527.999	546.56
528.214	524.56
528.429	516.56
528.644	546.56
528.859	557.56
529.074	548.56
529.289	549.56
529.503	582.56
529.718	599.56
529.933	570.56
530.148	557.56
530.363	550.56
530.577	522.56
530.792	541.56
531.007	524.56
531.221	522.56
531.436	531.56
531.651	514.56
531.865	519.56
532.08	516.56
532.295	523.56
532.509	497.56
532.724	518.56
532.938	532.56
533.153	494.56
533.367	523.56
533.582	501.56
533.796	530.56
534.011	530.56
534.225	510.56
534.44	508.56
534.654	507.56
534.868	517.56
535.083	510.56
535.297	485.56
535.511	524.56
535.726	527.56
535.94	520.56
536.154	535.56
536.369	496.56
536.583	515.56
536.797	493.56
537.011	482.56
537.225	490.56
537.44	487.56
537.654	507.56
537.868	488.56
538.082	524.56
538.296	512.56
538.51	482.56
538.724	510.56
538.938	500.56
539.153	498.56
539.367	492.56
539.581	484.56
539.795	483.56
540.009	500.56
540.222	481.56
540.436	482.56
540.65	485.56
540.864	533.56
541.078	508.56
541.292	491.56
541.506	483.56
541.72	471.56
541.934	490.56
542.147	504.56
542.361	490.56
542.575	488.56
542.789	502.56
543.002	488.56
543.216	498.56
543.43	494.56
543.644	485.56
543.857	488.56
544.071	489.56
544.285	512.56
544.498	482.56
544.712	516.56
544.925	496.56
545.139	475.56
545.352	490.56
545.566	487.56
545.779	475.56
545.993	474.56
546.206	498.56
546.42	473.56
546.633	502.56
546.847	487.56
547.06	475.56
547.274	477.56
547.487	475.56
547.7	485.56
547.914	482.56
548.127	491.56
548.34	477.56
548.554	472.56
548.767	482.56
548.98	487.56
549.193	467.56
549.407	491.56
549.62	472.56
549.833	476.56
550.046	481.56
550.259	490.56
550.473	465.56
550.686	483.56
550.899	489.56
551.112	454.56
551.325	472.56
551.538	483.56
551.751	461.56
551.964	463.56
552.177	485.56
552.39	459.56
552.603	503.56
552.816	476.56
553.029	488.56
553.242	491.56
553.455	501.56
553.667	516.56
553.88	516.56
554.093	495.56
554.306	512.56
554.519	482.56
554.732	473.56
554.944	479.56
555.157	478.56
555.37	484.56
555.583	468.56
555.795	462.56
556.008	445.56
556.221	422.56
556.433	451.56
556.646	452.56
556.859	445.56
557.071	452.56
557.284	441.56
557.496	437.56
557.709	432.56
557.921	436.56
558.134	438.56
558.346	437.56
558.559	428.56
558.771	425.56
558.984	420.56
559.196	416.56
559.409	434.56
559.621	442.56
559.833	417.56
560.046	416.56
560.258	433.56
560.47	429.56
560.683	424.56
560.895	418.56
561.107	429.56
561.32	442.56
561.532	426.56
561.744	425.56
561.956	442.56
562.168	436.56
562.381	454.56
562.593	434.56
562.805	434.56
563.017	428.56
563.229	424.56
563.441	417.56
563.653	428.56
563.865	438.56
564.077	424.56
564.289	449.56
564.501	427.56
564.713	440.56
564.925	459.56
565.137	461.56
565.349	471.56
565.561	490.56
565.773	473.56
565.985	496.56
566.197	510.56
566.408	508.56
566.62	539.56
566.832	524.56
567.044	566.56
567.255	566.56
567.467	586.56
567.679	570.56
567.891	604.56
568.102	614.56
568.314	576.56
568.526	563.56
568.737	515.56
568.949	503.56
569.161	498.56
569.372	468.56
569.584	459.56
569.795	452.56
570.007	446.56
570.218	486.56
570.43	454.56
570.641	430.56
570.853	418.56
571.064	418.56
571.276	427.56
571.487	420.56
571.698	395.56
571.91	413.56
572.121	429.56
572.333	383.56
572.544	377.56
572.755	382.56
572.966	386.56
573.178	376.56
573.389	368.56
573.6	376.56
573.811	374.56
574.023	372.56
574.234	358.56
574.445	345.56
574.656	378.56
574.867	374.56
575.078	368.56
575.289	376.56
575.501	360.56
575.712	350.56
575.923	365.56
576.134	371.56
576.345	376.56
576.556	352.56
576.767	356.56
576.978	340.56
577.188	359.56
577.399	373.56
577.61	358.56
577.821	359.56
578.032	338.56
578.243	373.56
578.454	524.56
578.665	423.56
578.875	356.56
579.086	349.56
579.297	368.56
579.508	342.56
579.718	342.56
579.929	347.56
580.14	327.56
580.35	322.56
580.561	323.56
580.772	322.56
580.982	348.56
581.193	324.56
581.403	336.56
581.614	329.56
581.825	322.56
582.035	318.56
582.246	329.56
582.456	327.56
582.667	334.56
582.877	325.56
583.087	312.56
583.298	332.56
583.508	340.56
583.719	333.56
583.929	326.56
584.139	325.56
584.35	313.56
584.56	323.56
584.77	332.56
584.981	317.56
585.191	321.56
585.401	328.56
585.611	326.56
585.821	353.56
586.032	304.56
586.242	342.56
586.452	325.56
586.662	306.56
586.872	332.56
587.082	327.56
587.292	315.56
587.502	310.56
587.713	314.56
587.923	323.56
588.133	320.56
588.343	312.56
588.553	326.56
588.762	328.56
588.972	304.56
589.182	326.56
589.392	320.56
589.602	320.56
589.812	325.56
590.022	318.56
590.232	318.56
590.441	327.56
590.651	326.56
590.861	330.56
591.071	337.56
591.281	339.56
591.49	317.56
591.7	326.56
591.91	352.56
592.119	332.56
592.329	326.56
592.539	353.56
592.748	350.56
592.958	360.56
593.167	353.56
593.377	357.56
593.587	358.56
593.796	361.56
594.006	360.56
594.215	359.56
594.424	355.56
594.634	354.56
594.843	348.56
595.053	350.56
595.262	341.56
595.472	348.56
595.681	325.56
595.89	333.56
596.1	315.56
596.309	299.56
596.518	312.56
596.727	306.56
596.937	298.56
597.146	329.56
597.355	312.56
597.564	308.56
597.774	295.56
597.983	309.56
598.192	286.56
598.401	294.56
598.61	290.56
598.819	289.56
599.028	291.56
599.237	279.56
599.446	274.56
599.655	280.56
599.864	290.56
600.073	272.56
600.282	283.56
600.491	276.56
600.7	277.56
600.909	273.56
601.118	297.56
601.327	261.56
601.536	289.56
601.745	269.56
601.953	269.56
602.162	283.56
602.371	277.56
602.58	280.56
602.789	270.56
602.997	273.56
603.206	271.56
603.415	270.56
603.623	290.56
603.832	265.56
604.041	266.56
604.249	268.56
604.458	279.56
604.666	241.56
604.875	269.56
605.084	281.56
605.292	286.56
605.501	265.56
605.709	279.56
605.918	279.56
606.126	261.56
606.334	247.56
606.543	274.56
606.751	260.56
606.96	260.56
607.168	263.56
607.376	270.56
607.585	256.56
607.793	274.56
608.001	283.56
608.21	269.56
608.418	253.56
608.626	265.56
608.834	284.56
609.043	264.56
609.251	252.56
609.459	278.56
609.667	260.56
609.875	259.56
610.083	261.56
610.291	235.56
610.499	272.56
610.707	272.56
610.916	257.56
611.124	269.56
611.332	271.56
611.54	281.56
611.748	264.56
611.955	272.56
612.163	259.56
612.371	268.56
612.579	263.56
612.787	253.56
612.995	253.56
613.203	267.56
613.411	274.56
613.618	244.56
613.826	260.56
614.034	259.56
614.242	265.56
614.449	270.56
614.657	242.56
614.865	267.56
615.072	233.56
615.28	265.56
615.488	256.56
615.695	257.56
615.903	253.56
616.111	237.56
616.318	259.56
616.526	256.56
616.733	260.56
616.941	258.56
617.148	269.56
617.356	246.56
617.563	260.56
617.771	263.56
617.978	266.56
618.185	244.56
618.393	274.56
618.6	234.56
618.807	238.56
619.015	250.56
619.222	242.56
619.429	246.56
619.637	244.56
619.844	256.56
620.051	249.56
620.258	229.56
620.466	240.56
620.673	241.56
620.88	225.56
621.087	229.56
621.294	235.56
621.501	220.56
621.708	246.56
621.915	245.56
622.122	219.56
622.329	229.56
622.536	236.56
622.743	241.56
622.95	222.56
623.157	231.56
623.364	246.56
623.571	241.56
623.778	240.56
623.985	239.56
624.192	221.56
624.399	218.56
624.606	230.56
624.812	225.56
625.019	226.56
625.226	231.56
625.433	231.56
625.639	193.56
625.846	223.56
626.053	230.56
626.259	219.56
626.466	213.56
626.673	213.56
626.879	236.56
627.086	219.56
627.293	231.56
627.499	225.56
627.706	223.56
627.912	230.56
628.119	204.56
628.325	224.56
628.532	228.56
628.738	227.56
628.945	205.56
629.151	229.56
629.357	204.56
629.564	207.56
629.77	206.56
629.976	200.56
630.183	200.56
630.389	212.56
630.595	206.56
630.802	202.56
631.008	204.56
631.214	209.56
631.42	194.56
631.627	217.56
631.833	203.56
632.039	208.56
632.245	209.56
632.451	195.56
632.657	208.56
632.863	201.56
633.069	210.56
633.275	210.56
633.481	192.56
633.688	185.56
633.893	205.56
634.099	200.56
634.305	204.56
634.511	208.56
634.717	212.56
634.923	203.56
635.129	189.56
635.335	203.56
635.541	212.56
635.747	194.56
635.952	192.56
636.158	189.56
636.364	213.56
636.57	192.56
636.775	201.56
636.981	189.56
637.187	190.56
637.392	169.56
637.598	182.56
637.804	193.56
638.009	183.56
638.215	188.56
638.421	208.56
638.626	185.56
638.832	180.56
639.037	187.56
639.243	170.56
639.448	180.56
639.654	192.56
639.859	181.56
640.065	174.56
640.27	213.56
640.475	184.56
640.681	186.56
640.886	180.56
641.091	180.56
641.297	187.56
641.502	177.56
641.707	170.56
641.913	192.56
642.118	190.56
642.323	158.56
642.528	181.56
642.733	177.56
642.939	201.56
643.144	187.56
643.349	166.56
643.554	162.56
643.759	199.56
643.964	182.56
644.169	174.56
644.374	170.56
644.579	189.56
644.784	196.56
644.989	177.56
645.194	169.56
645.399	168.56
645.604	179.56
645.809	172.56
646.014	167.56
646.219	186.56
646.423	171.56
646.628	169.56
646.833	178.56
647.038	180.56
647.243	166.56
647.447	186.56
647.652	198.56
647.857	194.56
648.062	161.56
648.266	202.56
648.471	186.56
648.676	181.56
648.88	165.56
649.085	194.56
649.289	176.56
649.494	169.56
649.698	194.56
649.903	190.56
650.107	174.56
650.312	176.56
650.516	186.56
650.721	156.56
650.925	168.56
651.13	168.56
651.334	145.56
651.539	172.56
651.743	162.56
651.947	152.56
652.152	139.56
652.356	142.56
652.56	148.56
652.764	146.56
652.969	153.56
653.173	161.56
653.377	139.56
653.581	134.56
653.785	138.56
653.99	137.56
654.194	148.56
654.398	157.56
654.602	139.56
654.806	125.56
655.01	136.56
655.214	134.56
655.418	132.56
655.622	132.56
655.826	147.56
656.03	160.56
656.234	142.56
656.438	153.56
656.642	155.56
656.846	153.56
657.049	138.56
657.253	132.56
657.457	139.56
657.661	113.56
657.865	132.56
658.068	113.56
658.272	115.56
658.476	120.56
658.68	109.56
658.883	103.56
659.087	118.56
659.291	102.56
659.494	110.56
659.698	113.56
659.901	96.56
660.105	97.56
660.309	101.56
660.512	101.56
660.716	86.56
660.919	111.56
661.123	99.56
661.326	92.56
661.53	81.56
661.733	86.56
661.936	89.56
662.14	86.56
662.343	70.56
662.546	88.56
662.75	76.56
662.953	80.56
663.156	80.56
663.36	88.56
663.563	77.56
663.766	78.56
663.969	81.56
664.173	86.56
664.376	87.56
664.579	86.56
664.782	76.56
664.985	95.56
665.188	83.56
665.391	92.56
665.594	81.56
665.797	61.56
666	89.56
666.203	74.56
666.406	71.56
666.609	92.56
666.812	86.56
667.015	68.56
667.218	99.56
667.421	82.56
667.624	73.56
667.827	75.56
668.03	76.56
668.232	83.56
668.435	89.56
668.638	80.56
668.841	90.56
669.043	75.56
669.246	84.56
669.449	85.56
669.651	90.56
669.854	67.56
670.057	92.56
670.259	75.56
670.462	74.56
670.665	60.56
670.867	86.56
671.07	92.56
671.272	86.56
671.475	80.56
671.677	82.56
671.88	86.56
672.082	68.56
672.284	75.56
672.487	91.56
672.689	85.56
672.892	81.56
