Data from 1975.PennyLincolnUp.Lamp.En5.5.200Scan.071719.P1.Changed Mount._HRD10591_15-56-47-859.txt Node
Date: Thu Jul 18 15:56:47 EDT 2019
User: cochatt
Spectrometer: HR+D1059
Trigger mode: 1
Integration Time (sec): 1.000000E-1
Scans to average: 1
Electric dark correction enabled: true
Nonlinearity correction enabled: false
Boxcar width: 0
XAxis mode: Wavelengths
Number of Pixels in Spectrum: 2048
>>>>>Begin Spectral Data<<<<<
223.165	-2.62
223.4	-2.62
223.635	-2.62
223.869	-23.62
224.104	-18.62
224.338	-9.62
224.573	-19.62
224.808	-14.62
225.042	-5.62
225.277	-13.62
225.511	-14.62
225.746	7.38
225.98	4.38
226.215	21.38
226.449	30.38
226.683	31.38
226.918	10.38
227.152	17.38
227.387	27.38
227.621	42.38
227.856	41.38
228.09	45.38
228.324	50.38
228.559	57.38
228.793	80.38
229.027	89.38
229.262	103.38
229.496	113.38
229.73	126.38
229.964	145.38
230.199	126.38
230.433	130.38
230.667	98.38
230.901	125.38
231.136	105.38
231.37	115.38
231.604	110.38
231.838	124.38
232.072	107.38
232.306	119.38
232.541	110.38
232.775	110.38
233.009	119.38
233.243	118.38
233.477	124.38
233.711	113.38
233.945	119.38
234.179	125.38
234.413	125.38
234.647	129.38
234.881	105.38
235.115	116.38
235.349	123.38
235.583	117.38
235.817	120.38
236.051	128.38
236.285	132.38
236.519	127.38
236.753	137.38
236.987	135.38
237.221	160.38
237.455	214.38
237.689	179.38
237.922	126.38
238.156	126.38
238.39	125.38
238.624	129.38
238.858	123.38
239.091	142.38
239.325	127.38
239.559	120.38
239.793	123.38
240.027	133.38
240.26	126.38
240.494	135.38
240.728	147.38
240.961	170.38
241.195	152.38
241.429	139.38
241.662	142.38
241.896	134.38
242.13	131.38
242.363	150.38
242.597	122.38
242.83	145.38
243.064	126.38
243.298	150.38
243.531	150.38
243.765	140.38
243.998	151.38
244.232	139.38
244.465	139.38
244.699	156.38
244.932	144.38
245.166	129.38
245.399	139.38
245.633	150.38
245.866	147.38
246.099	139.38
246.333	174.38
246.566	157.38
246.8	141.38
247.033	147.38
247.266	166.38
247.5	158.38
247.733	167.38
247.966	172.38
248.2	178.38
248.433	184.38
248.666	169.38
248.899	181.38
249.133	199.38
249.366	201.38
249.599	194.38
249.832	187.38
250.066	190.38
250.299	185.38
250.532	183.38
250.765	201.38
250.998	204.38
251.231	235.38
251.465	196.38
251.698	204.38
251.931	201.38
252.164	210.38
252.397	200.38
252.63	199.38
252.863	199.38
253.096	215.38
253.329	232.38
253.562	228.38
253.795	214.38
254.028	214.38
254.261	213.38
254.494	233.38
254.727	252.38
254.96	272.38
255.193	268.38
255.426	254.38
255.659	220.38
255.892	236.38
256.124	234.38
256.357	232.38
256.59	239.38
256.823	211.38
257.056	222.38
257.289	193.38
257.521	192.38
257.754	206.38
257.987	202.38
258.22	210.38
258.452	205.38
258.685	201.38
258.918	196.38
259.151	190.38
259.383	211.38
259.616	234.38
259.849	225.38
260.081	231.38
260.314	243.38
260.547	264.38
260.779	236.38
261.012	224.38
261.244	218.38
261.477	212.38
261.71	234.38
261.942	208.38
262.175	230.38
262.407	229.38
262.64	216.38
262.872	213.38
263.105	212.38
263.337	210.38
263.57	233.38
263.802	210.38
264.035	211.38
264.267	194.38
264.499	211.38
264.732	214.38
264.964	203.38
265.197	222.38
265.429	216.38
265.661	210.38
265.894	210.38
266.126	212.38
266.358	217.38
266.591	223.38
266.823	214.38
267.055	224.38
267.287	235.38
267.52	228.38
267.752	222.38
267.984	226.38
268.216	225.38
268.448	238.38
268.681	244.38
268.913	243.38
269.145	254.38
269.377	281.38
269.609	255.38
269.841	279.38
270.073	271.38
270.306	297.38
270.538	313.38
270.77	307.38
271.002	294.38
271.234	283.38
271.466	279.38
271.698	307.38
271.93	300.38
272.162	316.38
272.394	318.38
272.626	292.38
272.858	279.38
273.09	286.38
273.322	274.38
273.553	259.38
273.785	265.38
274.017	255.38
274.249	261.38
274.481	266.38
274.713	270.38
274.945	268.38
275.176	282.38
275.408	263.38
275.64	260.38
275.872	255.38
276.104	271.38
276.335	251.38
276.567	271.38
276.799	273.38
277.031	301.38
277.262	311.38
277.494	323.38
277.726	309.38
277.957	271.38
278.189	274.38
278.421	284.38
278.652	272.38
278.884	268.38
279.115	257.38
279.347	257.38
279.579	268.38
279.81	272.38
280.042	269.38
280.273	282.38
280.505	273.38
280.736	282.38
280.968	292.38
281.199	243.38
281.431	275.38
281.662	266.38
281.894	265.38
282.125	265.38
282.356	267.38
282.588	294.38
282.819	298.38
283.051	277.38
283.282	258.38
283.513	274.38
283.745	284.38
283.976	283.38
284.207	275.38
284.439	280.38
284.67	303.38
284.901	296.38
285.132	282.38
285.364	281.38
285.595	279.38
285.826	280.38
286.057	276.38
286.288	301.38
286.52	280.38
286.751	296.38
286.982	310.38
287.213	295.38
287.444	306.38
287.675	303.38
287.906	310.38
288.138	313.38
288.369	282.38
288.6	309.38
288.831	313.38
289.062	299.38
289.293	309.38
289.524	296.38
289.755	299.38
289.986	311.38
290.217	306.38
290.448	289.38
290.679	284.38
290.91	300.38
291.141	305.38
291.371	315.38
291.602	301.38
291.833	291.38
292.064	302.38
292.295	293.38
292.526	289.38
292.757	296.38
292.987	300.38
293.218	314.38
293.449	297.38
293.68	289.38
293.91	297.38
294.141	295.38
294.372	312.38
294.603	300.38
294.833	313.38
295.064	290.38
295.295	311.38
295.525	308.38
295.756	320.38
295.987	320.38
296.217	324.38
296.448	337.38
296.679	326.38
296.909	312.38
297.14	305.38
297.37	312.38
297.601	319.38
297.831	309.38
298.062	317.38
298.292	317.38
298.523	322.38
298.753	326.38
298.984	296.38
299.214	321.38
299.445	333.38
299.675	321.38
299.905	334.38
300.136	318.38
300.366	314.38
300.597	319.38
300.827	320.38
301.057	344.38
301.288	345.38
301.518	317.38
301.748	327.38
301.979	340.38
302.209	323.38
302.439	328.38
302.669	324.38
302.9	325.38
303.13	317.38
303.36	330.38
303.59	353.38
303.82	352.38
304.051	321.38
304.281	334.38
304.511	342.38
304.741	336.38
304.971	337.38
305.201	333.38
305.431	337.38
305.661	340.38
305.891	341.38
306.121	346.38
306.352	333.38
306.582	348.38
306.812	343.38
307.042	327.38
307.272	339.38
307.502	334.38
307.731	339.38
307.961	333.38
308.191	337.38
308.421	344.38
308.651	343.38
308.881	342.38
309.111	342.38
309.341	346.38
309.571	330.38
309.8	357.38
310.03	351.38
310.26	341.38
310.49	353.38
310.72	351.38
310.949	379.38
311.179	377.38
311.409	379.38
311.639	387.38
311.868	387.38
312.098	373.38
312.328	383.38
312.557	363.38
312.787	376.38
313.017	382.38
313.246	380.38
313.476	360.38
313.706	374.38
313.935	375.38
314.165	386.38
314.394	387.38
314.624	384.38
314.853	366.38
315.083	383.38
315.312	383.38
315.542	376.38
315.771	357.38
316.001	363.38
316.23	375.38
316.46	353.38
316.689	369.38
316.919	369.38
317.148	378.38
317.377	395.38
317.607	372.38
317.836	382.38
318.065	373.38
318.295	374.38
318.524	377.38
318.753	373.38
318.983	375.38
319.212	369.38
319.441	388.38
319.67	403.38
319.9	375.38
320.129	381.38
320.358	390.38
320.587	377.38
320.816	370.38
321.046	381.38
321.275	380.38
321.504	380.38
321.733	402.38
321.962	389.38
322.191	400.38
322.42	403.38
322.649	426.38
322.878	423.38
323.108	426.38
323.337	445.38
323.566	441.38
323.795	467.38
324.024	504.38
324.253	579.38
324.482	768.38
324.71	1161.38
324.939	1737.38
325.168	1531.38
325.397	791.38
325.626	577.38
325.855	488.38
326.084	467.38
326.313	468.38
326.542	469.38
326.77	493.38
326.999	569.38
327.228	708.38
327.457	1077.38
327.686	1346.38
327.914	915.38
328.143	609.38
328.372	558.38
328.6	507.38
328.829	498.38
329.058	482.38
329.287	523.38
329.515	499.38
329.744	459.38
329.972	472.38
330.201	477.38
330.43	529.38
330.658	561.38
330.887	555.38
331.115	537.38
331.344	474.38
331.572	447.38
331.801	459.38
332.03	473.38
332.258	463.38
332.486	451.38
332.715	455.38
332.943	444.38
333.172	462.38
333.4	478.38
333.629	488.38
333.857	486.38
334.085	499.38
334.314	499.38
334.542	536.38
334.771	550.38
334.999	505.38
335.227	500.38
335.455	478.38
335.684	477.38
335.912	460.38
336.14	460.38
336.369	445.38
336.597	460.38
336.825	476.38
337.053	435.38
337.281	445.38
337.51	452.38
337.738	429.38
337.966	441.38
338.194	439.38
338.422	445.38
338.65	421.38
338.878	438.38
339.106	415.38
339.334	437.38
339.562	426.38
339.79	430.38
340.018	437.38
340.246	425.38
340.474	421.38
340.702	428.38
340.93	434.38
341.158	435.38
341.386	433.38
341.614	436.38
341.842	448.38
342.07	421.38
342.298	422.38
342.526	429.38
342.754	440.38
342.981	420.38
343.209	417.38
343.437	436.38
343.665	436.38
343.893	457.38
344.12	435.38
344.348	448.38
344.576	440.38
344.804	462.38
345.031	448.38
345.259	448.38
345.487	429.38
345.714	439.38
345.942	437.38
346.17	409.38
346.397	402.38
346.625	413.38
346.853	409.38
347.08	409.38
347.308	402.38
347.535	418.38
347.763	439.38
347.99	415.38
348.218	415.38
348.445	431.38
348.673	412.38
348.9	435.38
349.128	412.38
349.355	412.38
349.583	366.38
349.81	401.38
350.037	401.38
350.265	407.38
350.492	432.38
350.72	419.38
350.947	408.38
351.174	406.38
351.402	411.38
351.629	421.38
351.856	409.38
352.083	425.38
352.311	437.38
352.538	418.38
352.765	426.38
352.992	435.38
353.22	411.38
353.447	420.38
353.674	410.38
353.901	400.38
354.128	399.38
354.355	385.38
354.583	411.38
354.81	400.38
355.037	418.38
355.264	412.38
355.491	381.38
355.718	387.38
355.945	388.38
356.172	387.38
356.399	399.38
356.626	409.38
356.853	383.38
357.08	398.38
357.307	398.38
357.534	410.38
357.761	382.38
357.988	378.38
358.215	395.38
358.441	418.38
358.668	382.38
358.895	394.38
359.122	403.38
359.349	409.38
359.576	407.38
359.802	419.38
360.029	450.38
360.256	449.38
360.483	439.38
360.709	409.38
360.936	421.38
361.163	405.38
361.39	428.38
361.616	415.38
361.843	434.38
362.07	439.38
362.296	412.38
362.523	410.38
362.749	412.38
362.976	404.38
363.203	407.38
363.429	430.38
363.656	415.38
363.882	407.38
364.109	422.38
364.335	409.38
364.562	419.38
364.788	420.38
365.015	405.38
365.241	416.38
365.468	400.38
365.694	416.38
365.92	400.38
366.147	418.38
366.373	408.38
366.599	408.38
366.826	405.38
367.052	394.38
367.278	405.38
367.505	430.38
367.731	396.38
367.957	435.38
368.184	403.38
368.41	395.38
368.636	417.38
368.862	413.38
369.089	414.38
369.315	409.38
369.541	410.38
369.767	404.38
369.993	443.38
370.219	414.38
370.445	424.38
370.672	397.38
370.898	391.38
371.124	392.38
371.35	423.38
371.576	431.38
371.802	403.38
372.028	407.38
372.254	426.38
372.48	412.38
372.706	412.38
372.932	421.38
373.158	435.38
373.384	429.38
373.61	417.38
373.835	420.38
374.061	419.38
374.287	414.38
374.513	425.38
374.739	413.38
374.965	417.38
375.191	419.38
375.416	418.38
375.642	428.38
375.868	438.38
376.094	445.38
376.319	405.38
376.545	421.38
376.771	415.38
376.997	429.38
377.222	429.38
377.448	419.38
377.674	404.38
377.899	419.38
378.125	421.38
378.35	411.38
378.576	421.38
378.802	400.38
379.027	418.38
379.253	409.38
379.478	428.38
379.704	392.38
379.929	401.38
380.155	413.38
380.38	413.38
380.606	449.38
380.831	417.38
381.057	441.38
381.282	417.38
381.507	422.38
381.733	407.38
381.958	410.38
382.184	432.38
382.409	403.38
382.634	436.38
382.86	420.38
383.085	438.38
383.31	449.38
383.535	434.38
383.761	438.38
383.986	435.38
384.211	455.38
384.436	468.38
384.662	455.38
384.887	462.38
385.112	459.38
385.337	470.38
385.562	464.38
385.787	457.38
386.013	463.38
386.238	471.38
386.463	471.38
386.688	492.38
386.913	464.38
387.138	471.38
387.363	469.38
387.588	461.38
387.813	471.38
388.038	467.38
388.263	470.38
388.488	471.38
388.713	454.38
388.938	446.38
389.163	469.38
389.387	460.38
389.612	458.38
389.837	481.38
390.062	464.38
390.287	455.38
390.512	427.38
390.736	453.38
390.961	476.38
391.186	470.38
391.411	481.38
391.636	485.38
391.86	482.38
392.085	472.38
392.31	476.38
392.534	476.38
392.759	475.38
392.984	446.38
393.208	458.38
393.433	487.38
393.658	471.38
393.882	486.38
394.107	482.38
394.331	487.38
394.556	461.38
394.78	482.38
395.005	494.38
395.229	483.38
395.454	483.38
395.678	501.38
395.903	519.38
396.127	526.38
396.352	498.38
396.576	505.38
396.801	504.38
397.025	484.38
397.249	490.38
397.474	502.38
397.698	498.38
397.922	532.38
398.147	532.38
398.371	557.38
398.595	520.38
398.82	537.38
399.044	565.38
399.268	584.38
399.492	620.38
399.717	660.38
399.941	655.38
400.165	702.38
400.389	666.38
400.613	622.38
400.837	585.38
401.062	559.38
401.286	561.38
401.51	548.38
401.734	530.38
401.958	537.38
402.182	563.38
402.406	557.38
402.63	548.38
402.854	561.38
403.078	552.38
403.302	541.38
403.526	570.38
403.75	565.38
403.974	576.38
404.198	591.38
404.422	586.38
404.645	565.38
404.869	605.38
405.093	620.38
405.317	640.38
405.541	690.38
405.765	629.38
405.988	564.38
406.212	588.38
406.436	617.38
406.66	636.38
406.883	593.38
407.107	635.38
407.331	677.38
407.555	752.38
407.778	731.38
408.002	697.38
408.226	641.38
408.449	643.38
408.673	621.38
408.896	651.38
409.12	683.38
409.344	672.38
409.567	589.38
409.791	564.38
410.014	571.38
410.238	572.38
410.461	576.38
410.685	575.38
410.908	607.38
411.132	622.38
411.355	638.38
411.578	594.38
411.802	575.38
412.025	532.38
412.249	585.38
412.472	589.38
412.695	625.38
412.919	618.38
413.142	579.38
413.365	553.38
413.589	561.38
413.812	548.38
414.035	543.38
414.258	538.38
414.482	538.38
414.705	525.38
414.928	525.38
415.151	526.38
415.374	519.38
415.597	522.38
415.821	533.38
416.044	550.38
416.267	532.38
416.49	533.38
416.713	525.38
416.936	517.38
417.159	535.38
417.382	535.38
417.605	554.38
417.828	551.38
418.051	564.38
418.274	535.38
418.497	547.38
418.72	537.38
418.943	525.38
419.166	590.38
419.389	603.38
419.611	580.38
419.834	559.38
420.057	563.38
420.28	579.38
420.503	563.38
420.726	569.38
420.948	588.38
421.171	605.38
421.394	629.38
421.617	591.38
421.839	558.38
422.062	556.38
422.285	558.38
422.507	630.38
422.73	719.38
422.953	663.38
423.175	592.38
423.398	575.38
423.621	567.38
423.843	592.38
424.066	603.38
424.288	614.38
424.511	614.38
424.733	675.38
424.956	733.38
425.178	685.38
425.401	710.38
425.623	760.38
425.846	633.38
426.068	583.38
426.291	580.38
426.513	593.38
426.735	579.38
426.958	636.38
427.18	697.38
427.402	829.38
427.625	923.38
427.847	758.38
428.069	666.38
428.292	617.38
428.514	573.38
428.736	557.38
428.958	552.38
429.181	527.38
429.403	545.38
429.625	542.38
429.847	577.38
430.069	647.38
430.292	637.38
430.514	575.38
430.736	535.38
430.958	541.38
431.18	525.38
431.402	539.38
431.624	521.38
431.846	508.38
432.068	516.38
432.29	507.38
432.512	518.38
432.734	535.38
432.956	540.38
433.178	545.38
433.4	543.38
433.622	539.38
433.844	534.38
434.066	525.38
434.287	524.38
434.509	540.38
434.731	528.38
434.953	524.38
435.175	569.38
435.397	584.38
435.618	586.38
435.84	636.38
436.062	686.38
436.284	782.38
436.505	645.38
436.727	586.38
436.949	570.38
437.17	555.38
437.392	535.38
437.614	546.38
437.835	556.38
438.057	641.38
438.278	758.38
438.5	757.38
438.721	869.38
438.943	830.38
439.165	626.38
439.386	595.38
439.608	583.38
439.829	573.38
440.05	617.38
440.272	654.38
440.493	608.38
440.715	574.38
440.936	569.38
441.158	542.38
441.379	551.38
441.6	563.38
441.822	581.38
442.043	610.38
442.264	705.38
442.486	749.38
442.707	667.38
442.928	594.38
443.149	625.38
443.371	629.38
443.592	661.38
443.813	754.38
444.034	853.38
444.255	679.38
444.476	631.38
444.698	612.38
444.919	597.38
445.14	737.38
445.361	685.38
445.582	622.38
445.803	678.38
446.024	805.38
446.245	779.38
446.466	726.38
446.687	602.38
446.908	597.38
447.129	530.38
447.35	553.38
447.571	507.38
447.792	524.38
448.013	543.38
448.234	545.38
448.455	587.38
448.675	707.38
448.896	831.38
449.117	714.38
449.338	637.38
449.559	785.38
449.779	870.38
450	695.38
450.221	560.38
450.442	545.38
450.662	509.38
450.883	527.38
451.104	510.38
451.324	515.38
451.545	494.38
451.766	479.38
451.986	487.38
452.207	482.38
452.428	460.38
452.648	473.38
452.869	494.38
453.089	467.38
453.31	501.38
453.53	491.38
453.751	477.38
453.971	470.38
454.192	490.38
454.412	471.38
454.633	463.38
454.853	444.38
455.073	455.38
455.294	506.38
455.514	568.38
455.734	551.38
455.955	497.38
456.175	454.38
456.395	463.38
456.616	439.38
456.836	444.38
457.056	447.38
457.276	431.38
457.497	436.38
457.717	460.38
457.937	466.38
458.157	452.38
458.377	458.38
458.598	482.38
458.818	524.38
459.038	597.38
459.258	620.38
459.478	549.38
459.698	525.38
459.918	507.38
460.138	516.38
460.358	532.38
460.578	514.38
460.798	551.38
461.018	548.38
461.238	537.38
461.458	547.38
461.678	535.38
461.898	553.38
462.118	549.38
462.338	550.38
462.558	560.38
462.777	586.38
462.997	587.38
463.217	637.38
463.437	600.38
463.657	600.38
463.876	594.38
464.096	587.38
464.316	578.38
464.536	590.38
464.755	560.38
464.975	575.38
465.195	581.38
465.414	625.38
465.634	573.38
465.854	553.38
466.073	526.38
466.293	525.38
466.512	520.38
466.732	471.38
466.951	497.38
467.171	483.38
467.391	505.38
467.61	505.38
467.829	509.38
468.049	484.38
468.268	509.38
468.488	475.38
468.707	483.38
468.927	489.38
469.146	494.38
469.365	497.38
469.585	489.38
469.804	498.38
470.023	505.38
470.243	482.38
470.462	501.38
470.681	509.38
470.901	530.38
471.12	511.38
471.339	496.38
471.558	497.38
471.777	518.38
471.997	497.38
472.216	516.38
472.435	533.38
472.654	503.38
472.873	521.38
473.092	500.38
473.311	473.38
473.53	504.38
473.749	500.38
473.968	535.38
474.187	632.38
474.406	662.38
474.625	537.38
474.844	513.38
475.063	494.38
475.282	500.38
475.501	495.38
475.72	513.38
475.939	512.38
476.158	528.38
476.377	522.38
476.596	501.38
476.814	537.38
477.033	520.38
477.252	542.38
477.471	530.38
477.69	537.38
477.908	557.38
478.127	565.38
478.346	568.38
478.564	569.38
478.783	601.38
479.002	572.38
479.22	595.38
479.439	571.38
479.658	609.38
479.876	585.38
480.095	614.38
480.313	654.38
480.532	653.38
480.751	634.38
480.969	645.38
481.188	667.38
481.406	689.38
481.624	620.38
481.843	607.38
482.061	604.38
482.28	618.38
482.498	591.38
482.717	611.38
482.935	591.38
483.153	579.38
483.372	561.38
483.59	577.38
483.808	605.38
484.027	575.38
484.245	578.38
484.463	573.38
484.681	610.38
484.9	605.38
485.118	598.38
485.336	580.38
485.554	599.38
485.772	595.38
485.99	610.38
486.209	619.38
486.427	613.38
486.645	618.38
486.863	622.38
487.081	637.38
487.299	617.38
487.517	651.38
487.735	634.38
487.953	641.38
488.171	641.38
488.389	651.38
488.607	609.38
488.825	620.38
489.043	606.38
489.261	609.38
489.479	639.38
489.696	637.38
489.914	649.38
490.132	671.38
490.35	686.38
490.568	673.38
490.786	666.38
491.003	683.38
491.221	710.38
491.439	729.38
491.657	697.38
491.874	715.38
492.092	736.38
492.31	721.38
492.527	710.38
492.745	738.38
492.963	735.38
493.18	723.38
493.398	738.38
493.615	757.38
493.833	765.38
494.05	750.38
494.268	764.38
494.485	743.38
494.703	755.38
494.92	735.38
495.138	747.38
495.355	746.38
495.573	758.38
495.79	747.38
496.008	727.38
496.225	752.38
496.442	742.38
496.66	760.38
496.877	752.38
497.094	759.38
497.312	784.38
497.529	779.38
497.746	802.38
497.963	773.38
498.181	803.38
498.398	834.38
498.615	828.38
498.832	886.38
499.049	897.38
499.267	954.38
499.484	955.38
499.701	999.38
499.918	1048.38
500.135	1122.38
500.352	1176.38
500.569	1199.38
500.786	1226.38
501.003	1165.38
501.22	1133.38
501.437	1077.38
501.654	1006.38
501.871	973.38
502.088	937.38
502.305	894.38
502.522	867.38
502.739	867.38
502.956	828.38
503.172	814.38
503.389	798.38
503.606	783.38
503.823	775.38
504.04	783.38
504.256	738.38
504.473	758.38
504.69	758.38
504.907	756.38
505.123	718.38
505.34	747.38
505.557	718.38
505.773	700.38
505.99	686.38
506.207	685.38
506.423	704.38
506.64	703.38
506.856	682.38
507.073	670.38
507.289	692.38
507.506	690.38
507.722	671.38
507.939	689.38
508.155	655.38
508.372	674.38
508.588	657.38
508.805	669.38
509.021	665.38
509.238	675.38
509.454	655.38
509.67	679.38
509.887	662.38
510.103	632.38
510.319	641.38
510.536	710.38
510.752	1011.38
510.968	884.38
511.184	655.38
511.401	625.38
511.617	595.38
511.833	607.38
512.049	620.38
512.265	617.38
512.481	611.38
512.698	606.38
512.914	603.38
513.13	632.38
513.346	617.38
513.562	612.38
513.778	618.38
513.994	608.38
514.21	629.38
514.426	630.38
514.642	654.38
514.858	643.38
515.074	710.38
515.29	778.38
515.506	1007.38
515.721	885.38
515.937	724.38
516.153	642.38
516.369	656.38
516.585	645.38
516.801	645.38
517.016	642.38
517.232	656.38
517.448	652.38
517.664	666.38
517.879	645.38
518.095	683.38
518.311	683.38
518.527	648.38
518.742	639.38
518.958	624.38
519.173	603.38
519.389	643.38
519.605	619.38
519.82	621.38
520.036	635.38
520.251	634.38
520.467	667.38
520.682	645.38
520.898	650.38
521.113	657.38
521.329	695.38
521.544	737.38
521.76	820.38
521.975	1233.38
522.19	1260.38
522.406	796.38
522.621	645.38
522.836	599.38
523.052	589.38
523.267	585.38
523.482	572.38
523.698	572.38
523.913	548.38
524.128	563.38
524.343	528.38
524.559	535.38
524.774	536.38
524.989	552.38
525.204	539.38
525.419	557.38
525.634	517.38
525.849	551.38
526.064	544.38
526.28	505.38
526.495	517.38
526.71	505.38
526.925	512.38
527.14	492.38
527.355	502.38
527.57	521.38
527.785	513.38
527.999	519.38
528.214	507.38
528.429	525.38
528.644	499.38
528.859	519.38
529.074	502.38
529.289	514.38
529.503	569.38
529.718	573.38
529.933	519.38
530.148	531.38
530.363	546.38
530.577	516.38
530.792	511.38
531.007	516.38
531.221	521.38
531.436	504.38
531.651	493.38
531.865	508.38
532.08	509.38
532.295	494.38
532.509	478.38
532.724	493.38
532.938	481.38
533.153	503.38
533.367	517.38
533.582	488.38
533.796	489.38
534.011	489.38
534.225	493.38
534.44	487.38
534.654	479.38
534.868	489.38
535.083	469.38
535.297	497.38
535.511	486.38
535.726	485.38
535.94	497.38
536.154	492.38
536.369	484.38
536.583	488.38
536.797	479.38
537.011	481.38
537.225	470.38
537.44	463.38
537.654	461.38
537.868	467.38
538.082	472.38
538.296	457.38
538.51	484.38
538.724	453.38
538.938	471.38
539.153	497.38
539.367	489.38
539.581	482.38
539.795	460.38
540.009	487.38
540.222	462.38
540.436	471.38
540.65	477.38
540.864	494.38
541.078	490.38
541.292	470.38
541.506	473.38
541.72	473.38
541.934	450.38
542.147	460.38
542.361	448.38
542.575	453.38
542.789	485.38
543.002	457.38
543.216	475.38
543.43	476.38
543.644	491.38
543.857	465.38
544.071	471.38
544.285	486.38
544.498	483.38
544.712	482.38
544.925	483.38
545.139	468.38
545.352	451.38
545.566	477.38
545.779	472.38
545.993	461.38
546.206	482.38
546.42	474.38
546.633	473.38
546.847	466.38
547.06	481.38
547.274	463.38
547.487	476.38
547.7	475.38
547.914	470.38
548.127	472.38
548.34	463.38
548.554	473.38
548.767	476.38
548.98	476.38
549.193	470.38
549.407	456.38
549.62	459.38
549.833	467.38
550.046	461.38
550.259	449.38
550.473	457.38
550.686	467.38
550.899	459.38
551.112	456.38
551.325	464.38
551.538	476.38
551.751	454.38
551.964	457.38
552.177	467.38
552.39	457.38
552.603	460.38
552.816	486.38
553.029	463.38
553.242	480.38
553.455	467.38
553.667	485.38
553.88	497.38
554.093	475.38
554.306	493.38
554.519	476.38
554.732	468.38
554.944	447.38
555.157	453.38
555.37	455.38
555.583	456.38
555.795	459.38
556.008	428.38
556.221	429.38
556.433	444.38
556.646	437.38
556.859	403.38
557.071	425.38
557.284	428.38
557.496	405.38
557.709	400.38
557.921	420.38
558.134	426.38
558.346	410.38
558.559	428.38
558.771	417.38
558.984	421.38
559.196	426.38
559.409	418.38
559.621	429.38
559.833	427.38
560.046	417.38
560.258	415.38
560.47	391.38
560.683	407.38
560.895	417.38
561.107	403.38
561.32	414.38
561.532	414.38
561.744	415.38
561.956	411.38
562.168	417.38
562.381	420.38
562.593	420.38
562.805	429.38
563.017	403.38
563.229	417.38
563.441	422.38
563.653	428.38
563.865	409.38
564.077	434.38
564.289	401.38
564.501	433.38
564.713	411.38
564.925	452.38
565.137	447.38
565.349	445.38
565.561	479.38
565.773	479.38
565.985	455.38
566.197	487.38
566.408	508.38
566.62	517.38
566.832	533.38
567.044	547.38
567.255	558.38
567.467	549.38
567.679	569.38
567.891	578.38
568.102	576.38
568.314	558.38
568.526	543.38
568.737	515.38
568.949	505.38
569.161	455.38
569.372	443.38
569.584	430.38
569.795	443.38
570.007	421.38
570.218	466.38
570.43	444.38
570.641	426.38
570.853	413.38
571.064	403.38
571.276	441.38
571.487	411.38
571.698	403.38
571.91	381.38
572.121	387.38
572.333	390.38
572.544	384.38
572.755	382.38
572.966	361.38
573.178	357.38
573.389	361.38
573.6	365.38
573.811	356.38
574.023	353.38
574.234	361.38
574.445	371.38
574.656	360.38
574.867	362.38
575.078	361.38
575.289	362.38
575.501	351.38
575.712	338.38
575.923	346.38
576.134	353.38
576.345	360.38
576.556	354.38
576.767	349.38
576.978	355.38
577.188	343.38
577.399	353.38
577.61	323.38
577.821	353.38
578.032	342.38
578.243	362.38
578.454	485.38
578.665	391.38
578.875	348.38
579.086	325.38
579.297	300.38
579.508	338.38
579.718	341.38
579.929	324.38
580.14	348.38
580.35	321.38
580.561	324.38
580.772	323.38
580.982	311.38
581.193	332.38
581.403	328.38
581.614	326.38
581.825	319.38
582.035	319.38
582.246	316.38
582.456	311.38
582.667	313.38
582.877	323.38
583.087	324.38
583.298	315.38
583.508	330.38
583.719	318.38
583.929	299.38
584.139	327.38
584.35	316.38
584.56	319.38
584.77	321.38
584.981	320.38
585.191	300.38
585.401	312.38
585.611	312.38
585.821	322.38
586.032	309.38
586.242	307.38
586.452	320.38
586.662	325.38
586.872	311.38
587.082	318.38
587.292	310.38
587.502	301.38
587.713	325.38
587.923	307.38
588.133	308.38
588.343	325.38
588.553	314.38
588.762	319.38
588.972	305.38
589.182	320.38
589.392	324.38
589.602	319.38
589.812	312.38
590.022	293.38
590.232	323.38
590.441	316.38
590.651	305.38
590.861	315.38
591.071	310.38
591.281	316.38
591.49	317.38
591.7	328.38
591.91	319.38
592.119	312.38
592.329	330.38
592.539	339.38
592.748	335.38
592.958	331.38
593.167	329.38
593.377	350.38
593.587	345.38
593.796	342.38
594.006	363.38
594.215	335.38
594.424	343.38
594.634	347.38
594.843	336.38
595.053	339.38
595.262	331.38
595.472	348.38
595.681	332.38
595.89	323.38
596.1	308.38
596.309	318.38
596.518	301.38
596.727	293.38
596.937	301.38
597.146	275.38
597.355	298.38
597.564	290.38
597.774	292.38
597.983	301.38
598.192	298.38
598.401	302.38
598.61	311.38
598.819	280.38
599.028	285.38
599.237	289.38
599.446	302.38
599.655	285.38
599.864	266.38
600.073	268.38
600.282	264.38
600.491	275.38
600.7	266.38
600.909	268.38
601.118	276.38
601.327	279.38
601.536	271.38
601.745	278.38
601.953	286.38
602.162	269.38
602.371	281.38
602.58	262.38
602.789	267.38
602.997	282.38
603.206	271.38
603.415	270.38
603.623	253.38
603.832	249.38
604.041	281.38
604.249	267.38
604.458	243.38
604.666	271.38
604.875	257.38
605.084	274.38
605.292	275.38
605.501	278.38
605.709	249.38
605.918	258.38
606.126	271.38
606.334	251.38
606.543	269.38
606.751	266.38
606.96	267.38
607.168	269.38
607.376	258.38
607.585	261.38
607.793	248.38
608.001	255.38
608.21	269.38
608.418	264.38
608.626	266.38
608.834	243.38
609.043	265.38
609.251	252.38
609.459	267.38
609.667	261.38
609.875	267.38
610.083	260.38
610.291	263.38
610.499	242.38
610.707	242.38
610.916	264.38
611.124	261.38
611.332	269.38
611.54	271.38
611.748	258.38
611.955	257.38
612.163	259.38
612.371	262.38
612.579	250.38
612.787	245.38
612.995	246.38
613.203	261.38
613.411	243.38
613.618	255.38
613.826	258.38
614.034	261.38
614.242	259.38
614.449	250.38
614.657	245.38
614.865	243.38
615.072	268.38
615.28	246.38
615.488	251.38
615.695	243.38
615.903	236.38
616.111	275.38
616.318	261.38
616.526	259.38
616.733	245.38
616.941	263.38
617.148	247.38
617.356	257.38
617.563	239.38
617.771	241.38
617.978	241.38
618.185	244.38
618.393	244.38
618.6	244.38
618.807	248.38
619.015	233.38
619.222	254.38
619.429	228.38
619.637	246.38
619.844	242.38
620.051	227.38
620.258	243.38
620.466	224.38
620.673	235.38
620.88	249.38
621.087	237.38
621.294	247.38
621.501	243.38
621.708	247.38
621.915	227.38
622.122	236.38
622.329	244.38
622.536	253.38
622.743	241.38
622.95	231.38
623.157	218.38
623.364	223.38
623.571	237.38
623.778	233.38
623.985	225.38
624.192	246.38
624.399	223.38
624.606	227.38
624.812	225.38
625.019	219.38
625.226	223.38
625.433	231.38
625.639	236.38
625.846	223.38
626.053	213.38
626.259	214.38
626.466	208.38
626.673	209.38
626.879	219.38
627.086	226.38
627.293	214.38
627.499	233.38
627.706	219.38
627.912	218.38
628.119	209.38
628.325	233.38
628.532	201.38
628.738	212.38
628.945	209.38
629.151	220.38
629.357	197.38
629.564	201.38
629.77	230.38
629.976	189.38
630.183	197.38
630.389	210.38
630.595	206.38
630.802	201.38
631.008	203.38
631.214	203.38
631.42	211.38
631.627	204.38
631.833	194.38
632.039	215.38
632.245	212.38
632.451	197.38
632.657	204.38
632.863	218.38
633.069	205.38
633.275	188.38
633.481	185.38
633.688	184.38
633.893	180.38
634.099	187.38
634.305	202.38
634.511	192.38
634.717	199.38
634.923	205.38
635.129	186.38
635.335	197.38
635.541	197.38
635.747	178.38
635.952	183.38
636.158	185.38
636.364	205.38
636.57	189.38
636.775	167.38
636.981	172.38
637.187	200.38
637.392	190.38
637.598	190.38
637.804	169.38
638.009	193.38
638.215	198.38
638.421	182.38
638.626	179.38
638.832	185.38
639.037	183.38
639.243	169.38
639.448	174.38
639.654	191.38
639.859	185.38
640.065	174.38
640.27	201.38
640.475	172.38
640.681	181.38
640.886	179.38
641.091	191.38
641.297	188.38
641.502	175.38
641.707	174.38
641.913	186.38
642.118	170.38
642.323	186.38
642.528	179.38
642.733	186.38
642.939	174.38
643.144	177.38
643.349	197.38
643.554	183.38
643.759	178.38
643.964	162.38
644.169	182.38
644.374	182.38
644.579	183.38
644.784	183.38
644.989	187.38
645.194	164.38
645.399	177.38
645.604	173.38
645.809	177.38
646.014	171.38
646.219	170.38
646.423	178.38
646.628	163.38
646.833	157.38
647.038	189.38
647.243	181.38
647.447	174.38
647.652	178.38
647.857	193.38
648.062	186.38
648.266	181.38
648.471	192.38
648.676	188.38
648.88	181.38
649.085	175.38
649.289	165.38
649.494	189.38
649.698	191.38
649.903	193.38
650.107	188.38
650.312	190.38
650.516	182.38
650.721	170.38
650.925	168.38
651.13	153.38
651.334	153.38
651.539	162.38
651.743	148.38
651.947	135.38
652.152	154.38
652.356	145.38
652.56	149.38
652.764	150.38
652.969	141.38
653.173	153.38
653.377	133.38
653.581	161.38
653.785	140.38
653.99	158.38
654.194	148.38
654.398	135.38
654.602	137.38
654.806	125.38
655.01	129.38
655.214	153.38
655.418	135.38
655.622	139.38
655.826	126.38
656.03	139.38
656.234	144.38
656.438	130.38
656.642	140.38
656.846	139.38
657.049	139.38
657.253	139.38
657.457	131.38
657.661	111.38
657.865	113.38
658.068	122.38
658.272	109.38
658.476	105.38
658.68	102.38
658.883	99.38
659.087	105.38
659.291	97.38
659.494	93.38
659.698	104.38
659.901	86.38
660.105	104.38
660.309	106.38
660.512	107.38
660.716	93.38
660.919	101.38
661.123	106.38
661.326	90.38
661.53	82.38
661.733	81.38
661.936	93.38
662.14	74.38
662.343	93.38
662.546	84.38
662.75	94.38
662.953	84.38
663.156	74.38
663.36	87.38
663.563	80.38
663.766	85.38
663.969	79.38
664.173	83.38
664.376	91.38
664.579	87.38
664.782	86.38
664.985	92.38
665.188	105.38
665.391	82.38
665.594	65.38
665.797	82.38
666	93.38
666.203	93.38
666.406	76.38
666.609	89.38
666.812	94.38
667.015	91.38
667.218	78.38
667.421	92.38
667.624	75.38
667.827	76.38
668.03	80.38
668.232	69.38
668.435	91.38
668.638	75.38
668.841	85.38
669.043	79.38
669.246	78.38
669.449	69.38
669.651	69.38
669.854	94.38
670.057	82.38
670.259	85.38
670.462	85.38
670.665	80.38
670.867	85.38
671.07	93.38
671.272	98.38
671.475	83.38
671.677	87.38
671.88	70.38
672.082	94.38
672.284	83.38
672.487	94.38
672.689	84.38
672.892	75.38
