Data from 1976.PennyLincolnUp.Lamp.En5.5.200Scan.071719.P1.Changed Mount._HRD10591_16-02-15-863.txt Node
Date: Thu Jul 18 16:02:15 EDT 2019
User: cochatt
Spectrometer: HR+D1059
Trigger mode: 1
Integration Time (sec): 1.000000E-1
Scans to average: 1
Electric dark correction enabled: true
Nonlinearity correction enabled: false
Boxcar width: 0
XAxis mode: Wavelengths
Number of Pixels in Spectrum: 2048
>>>>>Begin Spectral Data<<<<<
223.165	-25.5
223.4	-25.5
223.635	-25.5
223.869	-3.5
224.104	-2.5
224.338	-15.5
224.573	-28.5
224.808	-13.5
225.042	-11.5
225.277	-14.5
225.511	-3.5
225.746	2.5
225.98	16.5
226.215	9.5
226.449	12.5
226.683	27.5
226.918	14.5
227.152	35.5
227.387	38.5
227.621	43.5
227.856	47.5
228.09	43.5
228.324	46.5
228.559	40.5
228.793	60.5
229.027	95.5
229.262	90.5
229.496	102.5
229.73	123.5
229.964	151.5
230.199	139.5
230.433	114.5
230.667	113.5
230.901	111.5
231.136	101.5
231.37	120.5
231.604	102.5
231.838	106.5
232.072	113.5
232.306	106.5
232.541	130.5
232.775	104.5
233.009	121.5
233.243	118.5
233.477	124.5
233.711	104.5
233.945	104.5
234.179	112.5
234.413	118.5
234.647	117.5
234.881	115.5
235.115	106.5
235.349	106.5
235.583	117.5
235.817	146.5
236.051	134.5
236.285	118.5
236.519	117.5
236.753	118.5
236.987	163.5
237.221	182.5
237.455	217.5
237.689	190.5
237.922	140.5
238.156	130.5
238.39	130.5
238.624	137.5
238.858	118.5
239.091	124.5
239.325	118.5
239.559	135.5
239.793	129.5
240.027	123.5
240.26	142.5
240.494	174.5
240.728	167.5
240.961	146.5
241.195	146.5
241.429	139.5
241.662	134.5
241.896	129.5
242.13	120.5
242.363	130.5
242.597	147.5
242.83	146.5
243.064	141.5
243.298	150.5
243.531	134.5
243.765	139.5
243.998	155.5
244.232	142.5
244.465	154.5
244.699	153.5
244.932	148.5
245.166	141.5
245.399	148.5
245.633	139.5
245.866	160.5
246.099	159.5
246.333	160.5
246.566	158.5
246.8	153.5
247.033	163.5
247.266	158.5
247.5	171.5
247.733	168.5
247.966	180.5
248.2	170.5
248.433	150.5
248.666	181.5
248.899	198.5
249.133	186.5
249.366	218.5
249.599	213.5
249.832	196.5
250.066	192.5
250.299	185.5
250.532	202.5
250.765	213.5
250.998	214.5
251.231	234.5
251.465	218.5
251.698	199.5
251.931	195.5
252.164	211.5
252.397	203.5
252.63	201.5
252.863	220.5
253.096	218.5
253.329	228.5
253.562	236.5
253.795	202.5
254.028	208.5
254.261	230.5
254.494	239.5
254.727	272.5
254.96	286.5
255.193	274.5
255.426	238.5
255.659	232.5
255.892	248.5
256.124	237.5
256.357	255.5
256.59	235.5
256.823	240.5
257.056	214.5
257.289	220.5
257.521	230.5
257.754	214.5
257.987	217.5
258.22	203.5
258.452	217.5
258.685	220.5
258.918	218.5
259.151	222.5
259.383	219.5
259.616	249.5
259.849	232.5
260.081	264.5
260.314	278.5
260.547	259.5
260.779	258.5
261.012	240.5
261.244	250.5
261.477	217.5
261.71	233.5
261.942	240.5
262.175	232.5
262.407	241.5
262.64	223.5
262.872	224.5
263.105	201.5
263.337	224.5
263.57	221.5
263.802	216.5
264.035	208.5
264.267	218.5
264.499	225.5
264.732	206.5
264.964	217.5
265.197	214.5
265.429	222.5
265.661	219.5
265.894	224.5
266.126	223.5
266.358	238.5
266.591	241.5
266.823	238.5
267.055	232.5
267.287	252.5
267.52	258.5
267.752	229.5
267.984	254.5
268.216	259.5
268.448	241.5
268.681	239.5
268.913	283.5
269.145	279.5
269.377	284.5
269.609	280.5
269.841	281.5
270.073	270.5
270.306	278.5
270.538	319.5
270.77	318.5
271.002	308.5
271.234	303.5
271.466	320.5
271.698	335.5
271.93	346.5
272.162	342.5
272.394	339.5
272.626	327.5
272.858	304.5
273.09	290.5
273.322	278.5
273.553	295.5
273.785	291.5
274.017	286.5
274.249	289.5
274.481	285.5
274.713	286.5
274.945	295.5
275.176	271.5
275.408	286.5
275.64	289.5
275.872	297.5
276.104	280.5
276.335	271.5
276.567	287.5
276.799	293.5
277.031	314.5
277.262	330.5
277.494	340.5
277.726	325.5
277.957	321.5
278.189	293.5
278.421	268.5
278.652	288.5
278.884	279.5
279.115	292.5
279.347	276.5
279.579	309.5
279.81	297.5
280.042	285.5
280.273	277.5
280.505	288.5
280.736	281.5
280.968	271.5
281.199	291.5
281.431	299.5
281.662	298.5
281.894	283.5
282.125	312.5
282.356	306.5
282.588	305.5
282.819	318.5
283.051	297.5
283.282	303.5
283.513	305.5
283.745	300.5
283.976	298.5
284.207	299.5
284.439	311.5
284.67	302.5
284.901	302.5
285.132	298.5
285.364	315.5
285.595	290.5
285.826	292.5
286.057	322.5
286.288	292.5
286.52	312.5
286.751	308.5
286.982	304.5
287.213	317.5
287.444	313.5
287.675	307.5
287.906	314.5
288.138	320.5
288.369	338.5
288.6	330.5
288.831	326.5
289.062	306.5
289.293	328.5
289.524	337.5
289.755	304.5
289.986	307.5
290.217	314.5
290.448	312.5
290.679	298.5
290.91	308.5
291.141	318.5
291.371	308.5
291.602	327.5
291.833	291.5
292.064	311.5
292.295	308.5
292.526	306.5
292.757	306.5
292.987	323.5
293.218	314.5
293.449	320.5
293.68	328.5
293.91	321.5
294.141	322.5
294.372	313.5
294.603	318.5
294.833	307.5
295.064	325.5
295.295	309.5
295.525	303.5
295.756	327.5
295.987	324.5
296.217	338.5
296.448	346.5
296.679	330.5
296.909	327.5
297.14	318.5
297.37	332.5
297.601	346.5
297.831	314.5
298.062	328.5
298.292	329.5
298.523	344.5
298.753	350.5
298.984	335.5
299.214	323.5
299.445	326.5
299.675	334.5
299.905	326.5
300.136	339.5
300.366	342.5
300.597	346.5
300.827	371.5
301.057	352.5
301.288	340.5
301.518	337.5
301.748	343.5
301.979	334.5
302.209	343.5
302.439	345.5
302.669	375.5
302.9	353.5
303.13	351.5
303.36	356.5
303.59	367.5
303.82	368.5
304.051	376.5
304.281	360.5
304.511	348.5
304.741	356.5
304.971	369.5
305.201	367.5
305.431	346.5
305.661	335.5
305.891	353.5
306.121	363.5
306.352	353.5
306.582	361.5
306.812	343.5
307.042	363.5
307.272	363.5
307.502	379.5
307.731	357.5
307.961	371.5
308.191	378.5
308.421	372.5
308.651	361.5
308.881	361.5
309.111	372.5
309.341	386.5
309.571	371.5
309.8	380.5
310.03	389.5
310.26	387.5
310.49	384.5
310.72	396.5
310.949	409.5
311.179	412.5
311.409	423.5
311.639	391.5
311.868	396.5
312.098	384.5
312.328	392.5
312.557	409.5
312.787	425.5
313.017	432.5
313.246	410.5
313.476	378.5
313.706	396.5
313.935	408.5
314.165	420.5
314.394	436.5
314.624	438.5
314.853	419.5
315.083	396.5
315.312	407.5
315.542	392.5
315.771	415.5
316.001	399.5
316.23	389.5
316.46	408.5
316.689	382.5
316.919	411.5
317.148	408.5
317.377	396.5
317.607	412.5
317.836	402.5
318.065	384.5
318.295	394.5
318.524	417.5
318.753	400.5
318.983	397.5
319.212	399.5
319.441	407.5
319.67	420.5
319.9	402.5
320.129	415.5
320.358	406.5
320.587	404.5
320.816	428.5
321.046	415.5
321.275	411.5
321.504	415.5
321.733	412.5
321.962	450.5
322.191	446.5
322.42	433.5
322.649	445.5
322.878	463.5
323.108	456.5
323.337	486.5
323.566	501.5
323.795	522.5
324.024	557.5
324.253	657.5
324.482	922.5
324.71	1376.5
324.939	2030.5
325.168	1758.5
325.397	896.5
325.626	629.5
325.855	533.5
326.084	502.5
326.313	492.5
326.542	528.5
326.77	546.5
326.999	599.5
327.228	820.5
327.457	1278.5
327.686	1567.5
327.914	1038.5
328.143	695.5
328.372	608.5
328.6	596.5
328.829	549.5
329.058	547.5
329.287	598.5
329.515	531.5
329.744	496.5
329.972	530.5
330.201	543.5
330.43	562.5
330.658	578.5
330.887	582.5
331.115	601.5
331.344	521.5
331.572	498.5
331.801	500.5
332.03	499.5
332.258	496.5
332.486	486.5
332.715	484.5
332.943	491.5
333.172	490.5
333.4	507.5
333.629	489.5
333.857	512.5
334.085	523.5
334.314	543.5
334.542	570.5
334.771	578.5
334.999	541.5
335.227	506.5
335.455	504.5
335.684	501.5
335.912	505.5
336.14	483.5
336.369	489.5
336.597	494.5
336.825	514.5
337.053	457.5
337.281	476.5
337.51	494.5
337.738	484.5
337.966	457.5
338.194	492.5
338.422	477.5
338.65	448.5
338.878	462.5
339.106	449.5
339.334	444.5
339.562	464.5
339.79	453.5
340.018	454.5
340.246	446.5
340.474	478.5
340.702	453.5
340.93	462.5
341.158	453.5
341.386	449.5
341.614	457.5
341.842	465.5
342.07	449.5
342.298	442.5
342.526	453.5
342.754	422.5
342.981	428.5
343.209	431.5
343.437	445.5
343.665	441.5
343.893	458.5
344.12	497.5
344.348	474.5
344.576	456.5
344.804	479.5
345.031	472.5
345.259	482.5
345.487	479.5
345.714	463.5
345.942	432.5
346.17	441.5
346.397	445.5
346.625	439.5
346.853	441.5
347.08	427.5
347.308	440.5
347.535	446.5
347.763	462.5
347.99	442.5
348.218	461.5
348.445	442.5
348.673	443.5
348.9	431.5
349.128	432.5
349.355	416.5
349.583	422.5
349.81	416.5
350.037	437.5
350.265	411.5
350.492	422.5
350.72	420.5
350.947	437.5
351.174	424.5
351.402	456.5
351.629	433.5
351.856	440.5
352.083	438.5
352.311	437.5
352.538	453.5
352.765	467.5
352.992	442.5
353.22	438.5
353.447	441.5
353.674	431.5
353.901	427.5
354.128	423.5
354.355	424.5
354.583	435.5
354.81	431.5
355.037	413.5
355.264	431.5
355.491	395.5
355.718	404.5
355.945	426.5
356.172	413.5
356.399	421.5
356.626	404.5
356.853	422.5
357.08	423.5
357.307	406.5
357.534	416.5
357.761	422.5
357.988	422.5
358.215	395.5
358.441	395.5
358.668	414.5
358.895	420.5
359.122	443.5
359.349	431.5
359.576	438.5
359.802	478.5
360.029	455.5
360.256	480.5
360.483	479.5
360.709	461.5
360.936	434.5
361.163	438.5
361.39	419.5
361.616	431.5
361.843	444.5
362.07	431.5
362.296	432.5
362.523	425.5
362.749	458.5
362.976	451.5
363.203	408.5
363.429	431.5
363.656	431.5
363.882	430.5
364.109	420.5
364.335	442.5
364.562	406.5
364.788	412.5
365.015	426.5
365.241	426.5
365.468	427.5
365.694	439.5
365.92	420.5
366.147	430.5
366.373	419.5
366.599	425.5
366.826	418.5
367.052	410.5
367.278	411.5
367.505	417.5
367.731	412.5
367.957	419.5
368.184	420.5
368.41	424.5
368.636	424.5
368.862	431.5
369.089	426.5
369.315	414.5
369.541	415.5
369.767	403.5
369.993	408.5
370.219	424.5
370.445	411.5
370.672	412.5
370.898	408.5
371.124	437.5
371.35	425.5
371.576	433.5
371.802	431.5
372.028	430.5
372.254	407.5
372.48	415.5
372.706	417.5
372.932	444.5
373.158	448.5
373.384	430.5
373.61	423.5
373.835	425.5
374.061	426.5
374.287	442.5
374.513	438.5
374.739	431.5
374.965	436.5
375.191	440.5
375.416	435.5
375.642	426.5
375.868	442.5
376.094	430.5
376.319	424.5
376.545	443.5
376.771	426.5
376.997	452.5
377.222	434.5
377.448	412.5
377.674	440.5
377.899	400.5
378.125	438.5
378.35	414.5
378.576	414.5
378.802	405.5
379.027	426.5
379.253	434.5
379.478	430.5
379.704	422.5
379.929	424.5
380.155	425.5
380.38	419.5
380.606	432.5
380.831	430.5
381.057	436.5
381.282	404.5
381.507	423.5
381.733	452.5
381.958	424.5
382.184	436.5
382.409	438.5
382.634	452.5
382.86	426.5
383.085	447.5
383.31	452.5
383.535	452.5
383.761	450.5
383.986	447.5
384.211	460.5
384.436	458.5
384.662	471.5
384.887	460.5
385.112	449.5
385.337	458.5
385.562	473.5
385.787	455.5
386.013	479.5
386.238	476.5
386.463	497.5
386.688	475.5
386.913	470.5
387.138	484.5
387.363	484.5
387.588	475.5
387.813	511.5
388.038	462.5
388.263	467.5
388.488	462.5
388.713	486.5
388.938	474.5
389.163	480.5
389.387	465.5
389.612	486.5
389.837	476.5
390.062	480.5
390.287	454.5
390.512	460.5
390.736	466.5
390.961	472.5
391.186	470.5
391.411	481.5
391.636	492.5
391.86	490.5
392.085	500.5
392.31	485.5
392.534	505.5
392.759	490.5
392.984	491.5
393.208	482.5
393.433	480.5
393.658	476.5
393.882	457.5
394.107	500.5
394.331	486.5
394.556	485.5
394.78	471.5
395.005	479.5
395.229	508.5
395.454	490.5
395.678	516.5
395.903	511.5
396.127	535.5
396.352	548.5
396.576	486.5
396.801	482.5
397.025	491.5
397.249	517.5
397.474	496.5
397.698	504.5
397.922	510.5
398.147	528.5
398.371	550.5
398.595	560.5
398.82	546.5
399.044	595.5
399.268	560.5
399.492	624.5
399.717	647.5
399.941	688.5
400.165	704.5
400.389	704.5
400.613	639.5
400.837	597.5
401.062	571.5
401.286	562.5
401.51	559.5
401.734	560.5
401.958	579.5
402.182	568.5
402.406	560.5
402.63	575.5
402.854	568.5
403.078	569.5
403.302	590.5
403.526	583.5
403.75	599.5
403.974	579.5
404.198	582.5
404.422	593.5
404.645	591.5
404.869	562.5
405.093	651.5
405.317	683.5
405.541	689.5
405.765	637.5
405.988	625.5
406.212	604.5
406.436	620.5
406.66	644.5
406.883	618.5
407.107	670.5
407.331	719.5
407.555	785.5
407.778	753.5
408.002	705.5
408.226	655.5
408.449	631.5
408.673	636.5
408.896	684.5
409.12	709.5
409.344	674.5
409.567	581.5
409.791	603.5
410.014	587.5
410.238	568.5
410.461	581.5
410.685	590.5
410.908	610.5
411.132	636.5
411.355	688.5
411.578	637.5
411.802	567.5
412.025	569.5
412.249	592.5
412.472	604.5
412.695	646.5
412.919	617.5
413.142	568.5
413.365	564.5
413.589	567.5
413.812	559.5
414.035	552.5
414.258	534.5
414.482	546.5
414.705	538.5
414.928	546.5
415.151	533.5
415.374	552.5
415.597	520.5
415.821	518.5
416.044	531.5
416.267	563.5
416.49	535.5
416.713	512.5
416.936	530.5
417.159	542.5
417.382	536.5
417.605	548.5
417.828	562.5
418.051	572.5
418.274	572.5
418.497	536.5
418.72	543.5
418.943	539.5
419.166	566.5
419.389	602.5
419.611	584.5
419.834	585.5
420.057	591.5
420.28	586.5
420.503	578.5
420.726	576.5
420.948	574.5
421.171	623.5
421.394	644.5
421.617	602.5
421.839	568.5
422.062	575.5
422.285	574.5
422.507	636.5
422.73	724.5
422.953	680.5
423.175	600.5
423.398	580.5
423.621	585.5
423.843	628.5
424.066	614.5
424.288	581.5
424.511	624.5
424.733	653.5
424.956	746.5
425.178	720.5
425.401	740.5
425.623	747.5
425.846	638.5
426.068	603.5
426.291	590.5
426.513	598.5
426.735	616.5
426.958	627.5
427.18	721.5
427.402	838.5
427.625	920.5
427.847	786.5
428.069	710.5
428.292	630.5
428.514	579.5
428.736	544.5
428.958	567.5
429.181	544.5
429.403	537.5
429.625	557.5
429.847	565.5
430.069	649.5
430.292	640.5
430.514	571.5
430.736	552.5
430.958	555.5
431.18	528.5
431.402	529.5
431.624	500.5
431.846	521.5
432.068	537.5
432.29	511.5
432.512	521.5
432.734	530.5
432.956	538.5
433.178	535.5
433.4	550.5
433.622	545.5
433.844	530.5
434.066	528.5
434.287	524.5
434.509	550.5
434.731	555.5
434.953	546.5
435.175	562.5
435.397	584.5
435.618	599.5
435.84	643.5
436.062	713.5
436.284	816.5
436.505	679.5
436.727	603.5
436.949	580.5
437.17	560.5
437.392	562.5
437.614	561.5
437.835	597.5
438.057	675.5
438.278	784.5
438.5	757.5
438.721	890.5
438.943	812.5
439.165	648.5
439.386	599.5
439.608	607.5
439.829	592.5
440.05	610.5
440.272	674.5
440.493	623.5
440.715	585.5
440.936	546.5
441.158	561.5
441.379	549.5
441.6	554.5
441.822	594.5
442.043	637.5
442.264	698.5
442.486	778.5
442.707	655.5
442.928	631.5
443.149	596.5
443.371	634.5
443.592	683.5
443.813	784.5
444.034	841.5
444.255	722.5
444.476	628.5
444.698	640.5
444.919	626.5
445.14	675.5
445.361	628.5
445.582	653.5
445.803	690.5
446.024	803.5
446.245	820.5
446.466	745.5
446.687	637.5
446.908	612.5
447.129	571.5
447.35	560.5
447.571	537.5
447.792	537.5
448.013	536.5
448.234	532.5
448.455	600.5
448.675	695.5
448.896	860.5
449.117	718.5
449.338	672.5
449.559	766.5
449.779	900.5
450	714.5
450.221	582.5
450.442	547.5
450.662	529.5
450.883	527.5
451.104	526.5
451.324	546.5
451.545	500.5
451.766	487.5
451.986	483.5
452.207	471.5
452.428	465.5
452.648	490.5
452.869	483.5
453.089	491.5
453.31	503.5
453.53	479.5
453.751	509.5
453.971	499.5
454.192	473.5
454.412	510.5
454.633	484.5
454.853	474.5
455.073	486.5
455.294	503.5
455.514	555.5
455.734	567.5
455.955	474.5
456.175	466.5
456.395	460.5
456.616	420.5
456.836	455.5
457.056	455.5
457.276	427.5
457.497	448.5
457.717	472.5
457.937	468.5
458.157	456.5
458.377	475.5
458.598	512.5
458.818	542.5
459.038	613.5
459.258	626.5
459.478	585.5
459.698	533.5
459.918	523.5
460.138	506.5
460.358	528.5
460.578	560.5
460.798	564.5
461.018	546.5
461.238	560.5
461.458	541.5
461.678	542.5
461.898	539.5
462.118	551.5
462.338	554.5
462.558	572.5
462.777	576.5
462.997	595.5
463.217	617.5
463.437	620.5
463.657	609.5
463.876	573.5
464.096	576.5
464.316	578.5
464.536	582.5
464.755	576.5
464.975	562.5
465.195	615.5
465.414	664.5
465.634	586.5
465.854	550.5
466.073	523.5
466.293	525.5
466.512	521.5
466.732	509.5
466.951	489.5
467.171	501.5
467.391	485.5
467.61	526.5
467.829	521.5
468.049	500.5
468.268	496.5
468.488	474.5
468.707	483.5
468.927	483.5
469.146	481.5
469.365	486.5
469.585	506.5
469.804	496.5
470.023	518.5
470.243	502.5
470.462	517.5
470.681	517.5
470.901	520.5
471.12	506.5
471.339	517.5
471.558	523.5
471.777	503.5
471.997	499.5
472.216	490.5
472.435	534.5
472.654	531.5
472.873	510.5
473.092	502.5
473.311	508.5
473.53	512.5
473.749	502.5
473.968	532.5
474.187	635.5
474.406	679.5
474.625	546.5
474.844	519.5
475.063	521.5
475.282	507.5
475.501	500.5
475.72	501.5
475.939	509.5
476.158	497.5
476.377	519.5
476.596	528.5
476.814	514.5
477.033	535.5
477.252	538.5
477.471	535.5
477.69	535.5
477.908	526.5
478.127	556.5
478.346	562.5
478.564	570.5
478.783	564.5
479.002	572.5
479.22	594.5
479.439	607.5
479.658	602.5
479.876	615.5
480.095	575.5
480.313	640.5
480.532	640.5
480.751	630.5
480.969	627.5
481.188	674.5
481.406	697.5
481.624	652.5
481.843	590.5
482.061	597.5
482.28	587.5
482.498	605.5
482.717	598.5
482.935	604.5
483.153	596.5
483.372	588.5
483.59	590.5
483.808	596.5
484.027	582.5
484.245	585.5
484.463	601.5
484.681	610.5
484.9	588.5
485.118	594.5
485.336	620.5
485.554	602.5
485.772	614.5
485.99	604.5
486.209	626.5
486.427	609.5
486.645	624.5
486.863	612.5
487.081	620.5
487.299	622.5
487.517	627.5
487.735	626.5
487.953	648.5
488.171	614.5
488.389	630.5
488.607	637.5
488.825	618.5
489.043	634.5
489.261	629.5
489.479	642.5
489.696	644.5
489.914	636.5
490.132	650.5
490.35	657.5
490.568	675.5
490.786	676.5
491.003	672.5
491.221	692.5
491.439	692.5
491.657	690.5
491.874	704.5
492.092	737.5
492.31	718.5
492.527	734.5
492.745	748.5
492.963	739.5
493.18	754.5
493.398	735.5
493.615	752.5
493.833	738.5
494.05	739.5
494.268	755.5
494.485	745.5
494.703	743.5
494.92	756.5
495.138	770.5
495.355	772.5
495.573	745.5
495.79	762.5
496.008	756.5
496.225	745.5
496.442	766.5
496.66	769.5
496.877	738.5
497.094	756.5
497.312	780.5
497.529	779.5
497.746	783.5
497.963	790.5
498.181	804.5
498.398	810.5
498.615	837.5
498.832	873.5
499.049	900.5
499.267	891.5
499.484	940.5
499.701	1000.5
499.918	1063.5
500.135	1112.5
500.352	1153.5
500.569	1192.5
500.786	1244.5
501.003	1189.5
501.22	1136.5
501.437	1078.5
501.654	1028.5
501.871	975.5
502.088	967.5
502.305	926.5
502.522	873.5
502.739	866.5
502.956	817.5
503.172	788.5
503.389	793.5
503.606	794.5
503.823	793.5
504.04	789.5
504.256	767.5
504.473	789.5
504.69	793.5
504.907	770.5
505.123	731.5
505.34	724.5
505.557	721.5
505.773	720.5
505.99	727.5
506.207	716.5
506.423	715.5
506.64	712.5
506.856	700.5
507.073	694.5
507.289	696.5
507.506	689.5
507.722	706.5
507.939	694.5
508.155	656.5
508.372	664.5
508.588	648.5
508.805	636.5
509.021	634.5
509.238	665.5
509.454	682.5
509.67	670.5
509.887	650.5
510.103	675.5
510.319	684.5
510.536	706.5
510.752	1064.5
510.968	898.5
511.184	669.5
511.401	638.5
511.617	631.5
511.833	637.5
512.049	617.5
512.265	638.5
512.481	629.5
512.698	620.5
512.914	622.5
513.13	594.5
513.346	582.5
513.562	624.5
513.778	620.5
513.994	602.5
514.21	614.5
514.426	641.5
514.642	662.5
514.858	678.5
515.074	713.5
515.29	798.5
515.506	1084.5
515.721	950.5
515.937	721.5
516.153	665.5
516.369	663.5
516.585	662.5
516.801	654.5
517.016	643.5
517.232	682.5
517.448	690.5
517.664	674.5
517.879	666.5
518.095	667.5
518.311	660.5
518.527	674.5
518.742	661.5
518.958	647.5
519.173	630.5
519.389	623.5
519.605	629.5
519.82	612.5
520.036	625.5
520.251	646.5
520.467	668.5
520.682	668.5
520.898	673.5
521.113	668.5
521.329	717.5
521.544	722.5
521.76	891.5
521.975	1342.5
522.19	1310.5
522.406	826.5
522.621	652.5
522.836	602.5
523.052	589.5
523.267	568.5
523.482	564.5
523.698	546.5
523.913	568.5
524.128	538.5
524.343	562.5
524.559	542.5
524.774	530.5
524.989	532.5
525.204	545.5
525.419	566.5
525.634	539.5
525.849	548.5
526.064	540.5
526.28	547.5
526.495	523.5
526.71	542.5
526.925	539.5
527.14	507.5
527.355	522.5
527.57	502.5
527.785	517.5
527.999	514.5
528.214	510.5
528.429	515.5
528.644	511.5
528.859	522.5
529.074	507.5
529.289	530.5
529.503	596.5
529.718	581.5
529.933	548.5
530.148	520.5
530.363	538.5
530.577	521.5
530.792	500.5
531.007	495.5
531.221	491.5
531.436	502.5
531.651	496.5
531.865	494.5
532.08	504.5
532.295	492.5
532.509	483.5
532.724	473.5
532.938	488.5
533.153	488.5
533.367	492.5
533.582	495.5
533.796	502.5
534.011	510.5
534.225	496.5
534.44	487.5
534.654	497.5
534.868	516.5
535.083	475.5
535.297	508.5
535.511	497.5
535.726	516.5
535.94	492.5
536.154	477.5
536.369	464.5
536.583	491.5
536.797	482.5
537.011	485.5
537.225	496.5
537.44	496.5
537.654	478.5
537.868	451.5
538.082	487.5
538.296	476.5
538.51	476.5
538.724	471.5
538.938	489.5
539.153	486.5
539.367	471.5
539.581	501.5
539.795	475.5
540.009	483.5
540.222	466.5
540.436	474.5
540.65	473.5
540.864	456.5
541.078	479.5
541.292	496.5
541.506	522.5
541.72	495.5
541.934	479.5
542.147	471.5
542.361	468.5
542.575	469.5
542.789	465.5
543.002	453.5
543.216	476.5
543.43	457.5
543.644	476.5
543.857	470.5
544.071	495.5
544.285	485.5
544.498	475.5
544.712	476.5
544.925	461.5
545.139	478.5
545.352	457.5
545.566	462.5
545.779	462.5
545.993	452.5
546.206	478.5
546.42	484.5
546.633	451.5
546.847	464.5
547.06	458.5
547.274	466.5
547.487	457.5
547.7	481.5
547.914	484.5
548.127	453.5
548.34	457.5
548.554	465.5
548.767	473.5
548.98	471.5
549.193	468.5
549.407	462.5
549.62	467.5
549.833	478.5
550.046	437.5
550.259	461.5
550.473	475.5
550.686	472.5
550.899	446.5
551.112	464.5
551.325	438.5
551.538	452.5
551.751	462.5
551.964	476.5
552.177	443.5
552.39	459.5
552.603	480.5
552.816	475.5
553.029	467.5
553.242	495.5
553.455	478.5
553.667	468.5
553.88	495.5
554.093	483.5
554.306	489.5
554.519	472.5
554.732	460.5
554.944	447.5
555.157	446.5
555.37	451.5
555.583	445.5
555.795	440.5
556.008	413.5
556.221	420.5
556.433	421.5
556.646	432.5
556.859	398.5
557.071	422.5
557.284	408.5
557.496	425.5
557.709	410.5
557.921	415.5
558.134	398.5
558.346	408.5
558.559	386.5
558.771	409.5
558.984	411.5
559.196	391.5
559.409	390.5
559.621	394.5
559.833	383.5
560.046	394.5
560.258	396.5
560.47	378.5
560.683	406.5
560.895	394.5
561.107	401.5
561.32	394.5
561.532	392.5
561.744	406.5
561.956	404.5
562.168	423.5
562.381	432.5
562.593	422.5
562.805	387.5
563.017	410.5
563.229	408.5
563.441	414.5
563.653	395.5
563.865	414.5
564.077	434.5
564.289	409.5
564.501	420.5
564.713	446.5
564.925	455.5
565.137	439.5
565.349	463.5
565.561	444.5
565.773	446.5
565.985	467.5
566.197	451.5
566.408	475.5
566.62	510.5
566.832	532.5
567.044	531.5
567.255	528.5
567.467	548.5
567.679	553.5
567.891	569.5
568.102	576.5
568.314	572.5
568.526	524.5
568.737	519.5
568.949	477.5
569.161	457.5
569.372	455.5
569.584	454.5
569.795	434.5
570.007	428.5
570.218	453.5
570.43	431.5
570.641	403.5
570.853	405.5
571.064	417.5
571.276	392.5
571.487	406.5
571.698	379.5
571.91	382.5
572.121	386.5
572.333	380.5
572.544	360.5
572.755	380.5
572.966	379.5
573.178	375.5
573.389	345.5
573.6	346.5
573.811	366.5
574.023	372.5
574.234	355.5
574.445	353.5
574.656	342.5
574.867	351.5
575.078	370.5
575.289	336.5
575.501	362.5
575.712	356.5
575.923	354.5
576.134	355.5
576.345	343.5
576.556	349.5
576.767	344.5
576.978	346.5
577.188	344.5
577.399	343.5
577.61	339.5
577.821	339.5
578.032	338.5
578.243	378.5
578.454	494.5
578.665	414.5
578.875	326.5
579.086	340.5
579.297	342.5
579.508	327.5
579.718	326.5
579.929	322.5
580.14	322.5
580.35	335.5
580.561	337.5
580.772	312.5
580.982	330.5
581.193	313.5
581.403	319.5
581.614	322.5
581.825	316.5
582.035	315.5
582.246	311.5
582.456	345.5
582.667	325.5
582.877	314.5
583.087	320.5
583.298	316.5
583.508	320.5
583.719	308.5
583.929	322.5
584.139	311.5
584.35	320.5
584.56	289.5
584.77	321.5
584.981	324.5
585.191	312.5
585.401	328.5
585.611	310.5
585.821	315.5
586.032	323.5
586.242	311.5
586.452	308.5
586.662	291.5
586.872	294.5
587.082	311.5
587.292	324.5
587.502	311.5
587.713	302.5
587.923	309.5
588.133	310.5
588.343	291.5
588.553	297.5
588.762	303.5
588.972	307.5
589.182	302.5
589.392	302.5
589.602	308.5
589.812	314.5
590.022	324.5
590.232	320.5
590.441	305.5
590.651	318.5
590.861	304.5
591.071	312.5
591.281	330.5
591.49	307.5
591.7	330.5
591.91	322.5
592.119	322.5
592.329	327.5
592.539	324.5
592.748	323.5
592.958	326.5
593.167	344.5
593.377	337.5
593.587	342.5
593.796	331.5
594.006	330.5
594.215	330.5
594.424	335.5
594.634	328.5
594.843	320.5
595.053	318.5
595.262	301.5
595.472	338.5
595.681	320.5
595.89	327.5
596.1	308.5
596.309	295.5
596.518	287.5
596.727	309.5
596.937	272.5
597.146	288.5
597.355	294.5
597.564	268.5
597.774	282.5
597.983	275.5
598.192	262.5
598.401	305.5
598.61	285.5
598.819	283.5
599.028	279.5
599.237	274.5
599.446	257.5
599.655	279.5
599.864	274.5
600.073	254.5
600.282	275.5
600.491	264.5
600.7	286.5
600.909	272.5
601.118	261.5
601.327	265.5
601.536	270.5
601.745	274.5
601.953	276.5
602.162	278.5
602.371	265.5
602.58	262.5
602.789	261.5
602.997	263.5
603.206	276.5
603.415	269.5
603.623	262.5
603.832	281.5
604.041	260.5
604.249	251.5
604.458	254.5
604.666	225.5
604.875	262.5
605.084	254.5
605.292	250.5
605.501	245.5
605.709	261.5
605.918	255.5
606.126	263.5
606.334	252.5
606.543	259.5
606.751	239.5
606.96	254.5
607.168	248.5
607.376	254.5
607.585	261.5
607.793	258.5
608.001	259.5
608.21	242.5
608.418	234.5
608.626	260.5
608.834	258.5
609.043	230.5
609.251	252.5
609.459	248.5
609.667	254.5
609.875	247.5
610.083	240.5
610.291	249.5
610.499	267.5
610.707	246.5
610.916	268.5
611.124	271.5
611.332	248.5
611.54	273.5
611.748	274.5
611.955	256.5
612.163	248.5
612.371	222.5
612.579	240.5
612.787	258.5
612.995	259.5
613.203	266.5
613.411	242.5
613.618	243.5
613.826	244.5
614.034	260.5
614.242	250.5
614.449	234.5
614.657	237.5
614.865	238.5
615.072	241.5
615.28	248.5
615.488	266.5
615.695	258.5
615.903	242.5
616.111	259.5
616.318	268.5
616.526	254.5
616.733	247.5
616.941	254.5
617.148	252.5
617.356	244.5
617.563	249.5
617.771	246.5
617.978	231.5
618.185	249.5
618.393	247.5
618.6	247.5
618.807	233.5
619.015	243.5
619.222	247.5
619.429	234.5
619.637	246.5
619.844	242.5
620.051	241.5
620.258	232.5
620.466	221.5
620.673	219.5
620.88	205.5
621.087	228.5
621.294	226.5
621.501	218.5
621.708	233.5
621.915	218.5
622.122	224.5
622.329	232.5
622.536	223.5
622.743	238.5
622.95	227.5
623.157	246.5
623.364	220.5
623.571	216.5
623.778	228.5
623.985	243.5
624.192	213.5
624.399	223.5
624.606	235.5
624.812	216.5
625.019	203.5
625.226	214.5
625.433	223.5
625.639	210.5
625.846	226.5
626.053	222.5
626.259	212.5
626.466	217.5
626.673	201.5
626.879	203.5
627.086	215.5
627.293	210.5
627.499	219.5
627.706	215.5
627.912	214.5
628.119	207.5
628.325	225.5
628.532	214.5
628.738	218.5
628.945	202.5
629.151	212.5
629.357	212.5
629.564	193.5
629.77	208.5
629.976	211.5
630.183	215.5
630.389	192.5
630.595	200.5
630.802	196.5
631.008	188.5
631.214	194.5
631.42	201.5
631.627	193.5
631.833	189.5
632.039	214.5
632.245	187.5
632.451	192.5
632.657	186.5
632.863	210.5
633.069	186.5
633.275	197.5
633.481	201.5
633.688	196.5
633.893	175.5
634.099	205.5
634.305	195.5
634.511	171.5
634.717	194.5
634.923	187.5
635.129	174.5
635.335	185.5
635.541	190.5
635.747	206.5
635.952	190.5
636.158	188.5
636.364	199.5
636.57	190.5
636.775	187.5
636.981	192.5
637.187	197.5
637.392	204.5
637.598	198.5
637.804	181.5
638.009	201.5
638.215	191.5
638.421	163.5
638.626	172.5
638.832	182.5
639.037	162.5
639.243	192.5
639.448	171.5
639.654	192.5
639.859	176.5
640.065	179.5
640.27	191.5
640.475	190.5
640.681	178.5
640.886	200.5
641.091	190.5
641.297	185.5
641.502	184.5
641.707	189.5
641.913	184.5
642.118	169.5
642.323	174.5
642.528	183.5
642.733	165.5
642.939	179.5
643.144	178.5
643.349	169.5
643.554	176.5
643.759	176.5
643.964	186.5
644.169	175.5
644.374	178.5
644.579	165.5
644.784	161.5
644.989	175.5
645.194	168.5
645.399	163.5
645.604	172.5
645.809	178.5
646.014	168.5
646.219	178.5
646.423	158.5
646.628	157.5
646.833	181.5
647.038	162.5
647.243	182.5
647.447	180.5
647.652	182.5
647.857	192.5
648.062	180.5
648.266	191.5
648.471	170.5
648.676	160.5
648.88	163.5
649.085	178.5
649.289	172.5
649.494	186.5
649.698	204.5
649.903	195.5
650.107	170.5
650.312	164.5
650.516	151.5
650.721	172.5
650.925	160.5
651.13	159.5
651.334	155.5
651.539	158.5
651.743	154.5
651.947	150.5
652.152	152.5
652.356	162.5
652.56	161.5
652.764	148.5
652.969	152.5
653.173	155.5
653.377	148.5
653.581	153.5
653.785	145.5
653.99	131.5
654.194	147.5
654.398	158.5
654.602	136.5
654.806	128.5
655.01	145.5
655.214	138.5
655.418	159.5
655.622	147.5
655.826	144.5
656.03	158.5
656.234	142.5
656.438	135.5
656.642	152.5
656.846	131.5
657.049	128.5
657.253	144.5
657.457	116.5
657.661	121.5
657.865	129.5
658.068	133.5
658.272	112.5
658.476	120.5
658.68	102.5
658.883	99.5
659.087	117.5
659.291	103.5
659.494	104.5
659.698	97.5
659.901	103.5
660.105	97.5
660.309	96.5
660.512	98.5
660.716	100.5
660.919	98.5
661.123	95.5
661.326	75.5
661.53	91.5
661.733	80.5
661.936	89.5
662.14	72.5
662.343	93.5
662.546	87.5
662.75	73.5
662.953	87.5
663.156	87.5
663.36	89.5
663.563	98.5
663.766	89.5
663.969	85.5
664.173	79.5
664.376	75.5
664.579	80.5
664.782	82.5
664.985	75.5
665.188	87.5
665.391	96.5
665.594	83.5
665.797	85.5
666	80.5
666.203	97.5
666.406	73.5
666.609	82.5
666.812	79.5
667.015	79.5
667.218	85.5
667.421	60.5
667.624	91.5
667.827	91.5
668.03	70.5
668.232	75.5
668.435	75.5
668.638	79.5
668.841	75.5
669.043	89.5
669.246	87.5
669.449	89.5
669.651	70.5
669.854	71.5
670.057	77.5
670.259	76.5
670.462	83.5
670.665	88.5
670.867	78.5
671.07	75.5
671.272	80.5
671.475	94.5
671.677	79.5
671.88	84.5
672.082	84.5
672.284	72.5
672.487	70.5
672.689	83.5
672.892	76.5
