Data from 1976.PennyLincolnUp.Lamp.En5.5.200Scan.071719.P1.Changed Mount._HRD10591_16-00-35-860.txt Node
Date: Thu Jul 18 16:00:35 EDT 2019
User: cochatt
Spectrometer: HR+D1059
Trigger mode: 1
Integration Time (sec): 1.000000E-1
Scans to average: 1
Electric dark correction enabled: true
Nonlinearity correction enabled: false
Boxcar width: 0
XAxis mode: Wavelengths
Number of Pixels in Spectrum: 2048
>>>>>Begin Spectral Data<<<<<
223.165	-17.44
223.4	-17.44
223.635	-17.44
223.869	-15.44
224.104	-23.44
224.338	-13.44
224.573	-12.44
224.808	-6.44
225.042	-4.44
225.277	-12.44
225.511	-11.44
225.746	4.56
225.98	7.56
226.215	7.56
226.449	7.56
226.683	31.56
226.918	24.56
227.152	33.56
227.387	26.56
227.621	34.56
227.856	48.56
228.09	38.56
228.324	46.56
228.559	57.56
228.793	60.56
229.027	87.56
229.262	95.56
229.496	97.56
229.73	113.56
229.964	145.56
230.199	126.56
230.433	115.56
230.667	114.56
230.901	92.56
231.136	112.56
231.37	110.56
231.604	104.56
231.838	113.56
232.072	115.56
232.306	119.56
232.541	124.56
232.775	121.56
233.009	122.56
233.243	113.56
233.477	114.56
233.711	120.56
233.945	105.56
234.179	114.56
234.413	120.56
234.647	113.56
234.881	111.56
235.115	108.56
235.349	125.56
235.583	121.56
235.817	127.56
236.051	114.56
236.285	126.56
236.519	128.56
236.753	131.56
236.987	163.56
237.221	186.56
237.455	228.56
237.689	184.56
237.922	134.56
238.156	134.56
238.39	128.56
238.624	116.56
238.858	132.56
239.091	115.56
239.325	118.56
239.559	120.56
239.793	132.56
240.027	138.56
240.26	136.56
240.494	159.56
240.728	137.56
240.961	131.56
241.195	124.56
241.429	133.56
241.662	132.56
241.896	140.56
242.13	138.56
242.363	142.56
242.597	142.56
242.83	139.56
243.064	138.56
243.298	144.56
243.531	138.56
243.765	126.56
243.998	132.56
244.232	134.56
244.465	133.56
244.699	151.56
244.932	169.56
245.166	149.56
245.399	152.56
245.633	133.56
245.866	150.56
246.099	136.56
246.333	175.56
246.566	152.56
246.8	158.56
247.033	153.56
247.266	158.56
247.5	154.56
247.733	171.56
247.966	181.56
248.2	154.56
248.433	165.56
248.666	174.56
248.899	190.56
249.133	193.56
249.366	203.56
249.599	183.56
249.832	175.56
250.066	177.56
250.299	189.56
250.532	188.56
250.765	190.56
250.998	217.56
251.231	225.56
251.465	226.56
251.698	199.56
251.931	215.56
252.164	210.56
252.397	193.56
252.63	216.56
252.863	212.56
253.096	223.56
253.329	226.56
253.562	238.56
253.795	211.56
254.028	226.56
254.261	216.56
254.494	234.56
254.727	265.56
254.96	263.56
255.193	282.56
255.426	250.56
255.659	224.56
255.892	228.56
256.124	239.56
256.357	220.56
256.59	227.56
256.823	224.56
257.056	212.56
257.289	202.56
257.521	213.56
257.754	205.56
257.987	202.56
258.22	224.56
258.452	207.56
258.685	207.56
258.918	208.56
259.151	204.56
259.383	213.56
259.616	215.56
259.849	204.56
260.081	228.56
260.314	248.56
260.547	262.56
260.779	260.56
261.012	226.56
261.244	229.56
261.477	228.56
261.71	230.56
261.942	235.56
262.175	241.56
262.407	216.56
262.64	218.56
262.872	228.56
263.105	233.56
263.337	233.56
263.57	223.56
263.802	228.56
264.035	223.56
264.267	236.56
264.499	220.56
264.732	209.56
264.964	224.56
265.197	222.56
265.429	212.56
265.661	210.56
265.894	232.56
266.126	229.56
266.358	213.56
266.591	226.56
266.823	231.56
267.055	250.56
267.287	229.56
267.52	234.56
267.752	254.56
267.984	242.56
268.216	227.56
268.448	243.56
268.681	241.56
268.913	258.56
269.145	263.56
269.377	276.56
269.609	276.56
269.841	276.56
270.073	274.56
270.306	298.56
270.538	318.56
270.77	306.56
271.002	315.56
271.234	314.56
271.466	310.56
271.698	313.56
271.93	310.56
272.162	327.56
272.394	318.56
272.626	302.56
272.858	278.56
273.09	274.56
273.322	256.56
273.553	286.56
273.785	294.56
274.017	279.56
274.249	268.56
274.481	273.56
274.713	272.56
274.945	276.56
275.176	281.56
275.408	286.56
275.64	271.56
275.872	275.56
276.104	258.56
276.335	281.56
276.567	298.56
276.799	283.56
277.031	312.56
277.262	330.56
277.494	326.56
277.726	305.56
277.957	285.56
278.189	281.56
278.421	279.56
278.652	274.56
278.884	276.56
279.115	287.56
279.347	267.56
279.579	286.56
279.81	291.56
280.042	283.56
280.273	282.56
280.505	276.56
280.736	281.56
280.968	281.56
281.199	287.56
281.431	281.56
281.662	268.56
281.894	294.56
282.125	278.56
282.356	292.56
282.588	315.56
282.819	318.56
283.051	312.56
283.282	292.56
283.513	292.56
283.745	306.56
283.976	287.56
284.207	314.56
284.439	302.56
284.67	297.56
284.901	293.56
285.132	315.56
285.364	294.56
285.595	298.56
285.826	296.56
286.057	302.56
286.288	304.56
286.52	302.56
286.751	289.56
286.982	299.56
287.213	296.56
287.444	322.56
287.675	296.56
287.906	314.56
288.138	329.56
288.369	320.56
288.6	330.56
288.831	296.56
289.062	309.56
289.293	297.56
289.524	315.56
289.755	310.56
289.986	310.56
290.217	321.56
290.448	325.56
290.679	300.56
290.91	309.56
291.141	314.56
291.371	314.56
291.602	310.56
291.833	292.56
292.064	302.56
292.295	313.56
292.526	318.56
292.757	298.56
292.987	312.56
293.218	326.56
293.449	315.56
293.68	311.56
293.91	300.56
294.141	322.56
294.372	313.56
294.603	315.56
294.833	295.56
295.064	298.56
295.295	302.56
295.525	311.56
295.756	314.56
295.987	319.56
296.217	346.56
296.448	342.56
296.679	323.56
296.909	308.56
297.14	321.56
297.37	316.56
297.601	334.56
297.831	302.56
298.062	325.56
298.292	338.56
298.523	338.56
298.753	319.56
298.984	326.56
299.214	307.56
299.445	314.56
299.675	324.56
299.905	336.56
300.136	334.56
300.366	353.56
300.597	332.56
300.827	325.56
301.057	351.56
301.288	337.56
301.518	342.56
301.748	343.56
301.979	355.56
302.209	351.56
302.439	352.56
302.669	335.56
302.9	327.56
303.13	355.56
303.36	334.56
303.59	343.56
303.82	363.56
304.051	369.56
304.281	343.56
304.511	340.56
304.741	354.56
304.971	367.56
305.201	354.56
305.431	344.56
305.661	340.56
305.891	338.56
306.121	349.56
306.352	359.56
306.582	357.56
306.812	352.56
307.042	345.56
307.272	359.56
307.502	340.56
307.731	362.56
307.961	372.56
308.191	352.56
308.421	349.56
308.651	356.56
308.881	355.56
309.111	348.56
309.341	349.56
309.571	382.56
309.8	375.56
310.03	376.56
310.26	378.56
310.49	364.56
310.72	382.56
310.949	404.56
311.179	404.56
311.409	395.56
311.639	394.56
311.868	372.56
312.098	369.56
312.328	373.56
312.557	394.56
312.787	405.56
313.017	411.56
313.246	384.56
313.476	378.56
313.706	381.56
313.935	407.56
314.165	394.56
314.394	415.56
314.624	406.56
314.853	400.56
315.083	394.56
315.312	393.56
315.542	402.56
315.771	386.56
316.001	400.56
316.23	381.56
316.46	390.56
316.689	381.56
316.919	380.56
317.148	398.56
317.377	378.56
317.607	401.56
317.836	400.56
318.065	400.56
318.295	396.56
318.524	380.56
318.753	378.56
318.983	383.56
319.212	398.56
319.441	388.56
319.67	412.56
319.9	402.56
320.129	396.56
320.358	393.56
320.587	391.56
320.816	395.56
321.046	391.56
321.275	405.56
321.504	395.56
321.733	389.56
321.962	404.56
322.191	419.56
322.42	418.56
322.649	433.56
322.878	432.56
323.108	438.56
323.337	442.56
323.566	482.56
323.795	517.56
324.024	522.56
324.253	593.56
324.482	848.56
324.71	1297.56
324.939	1887.56
325.168	1652.56
325.397	853.56
325.626	595.56
325.855	523.56
326.084	487.56
326.313	482.56
326.542	486.56
326.77	536.56
326.999	610.56
327.228	807.56
327.457	1140.56
327.686	1418.56
327.914	946.56
328.143	648.56
328.372	581.56
328.6	562.56
328.829	524.56
329.058	548.56
329.287	554.56
329.515	523.56
329.744	479.56
329.972	482.56
330.201	492.56
330.43	543.56
330.658	562.56
330.887	580.56
331.115	554.56
331.344	526.56
331.572	476.56
331.801	484.56
332.03	491.56
332.258	501.56
332.486	457.56
332.715	484.56
332.943	453.56
333.172	481.56
333.4	486.56
333.629	499.56
333.857	505.56
334.085	516.56
334.314	532.56
334.542	544.56
334.771	547.56
334.999	537.56
335.227	480.56
335.455	455.56
335.684	464.56
335.912	473.56
336.14	479.56
336.369	470.56
336.597	477.56
336.825	475.56
337.053	467.56
337.281	445.56
337.51	442.56
337.738	484.56
337.966	450.56
338.194	466.56
338.422	464.56
338.65	461.56
338.878	466.56
339.106	463.56
339.334	449.56
339.562	426.56
339.79	440.56
340.018	434.56
340.246	442.56
340.474	455.56
340.702	454.56
340.93	449.56
341.158	447.56
341.386	454.56
341.614	452.56
341.842	450.56
342.07	432.56
342.298	442.56
342.526	438.56
342.754	417.56
342.981	456.56
343.209	435.56
343.437	466.56
343.665	451.56
343.893	460.56
344.12	460.56
344.348	482.56
344.576	463.56
344.804	450.56
345.031	455.56
345.259	468.56
345.487	450.56
345.714	430.56
345.942	433.56
346.17	428.56
346.397	408.56
346.625	434.56
346.853	427.56
347.08	452.56
347.308	433.56
347.535	438.56
347.763	443.56
347.99	450.56
348.218	428.56
348.445	444.56
348.673	441.56
348.9	415.56
349.128	424.56
349.355	409.56
349.583	427.56
349.81	423.56
350.037	409.56
350.265	423.56
350.492	435.56
350.72	424.56
350.947	434.56
351.174	437.56
351.402	427.56
351.629	437.56
351.856	427.56
352.083	442.56
352.311	420.56
352.538	442.56
352.765	448.56
352.992	418.56
353.22	406.56
353.447	420.56
353.674	411.56
353.901	411.56
354.128	423.56
354.355	410.56
354.583	399.56
354.81	428.56
355.037	414.56
355.264	401.56
355.491	397.56
355.718	401.56
355.945	390.56
356.172	398.56
356.399	384.56
356.626	417.56
356.853	399.56
357.08	390.56
357.307	404.56
357.534	415.56
357.761	407.56
357.988	409.56
358.215	406.56
358.441	402.56
358.668	412.56
358.895	432.56
359.122	395.56
359.349	425.56
359.576	436.56
359.802	453.56
360.029	455.56
360.256	470.56
360.483	459.56
360.709	423.56
360.936	430.56
361.163	418.56
361.39	440.56
361.616	419.56
361.843	423.56
362.07	429.56
362.296	420.56
362.523	433.56
362.749	440.56
362.976	417.56
363.203	426.56
363.429	417.56
363.656	422.56
363.882	420.56
364.109	419.56
364.335	407.56
364.562	401.56
364.788	422.56
365.015	408.56
365.241	417.56
365.468	407.56
365.694	424.56
365.92	409.56
366.147	392.56
366.373	404.56
366.599	418.56
366.826	415.56
367.052	419.56
367.278	404.56
367.505	415.56
367.731	411.56
367.957	392.56
368.184	396.56
368.41	397.56
368.636	418.56
368.862	430.56
369.089	413.56
369.315	402.56
369.541	422.56
369.767	432.56
369.993	434.56
370.219	424.56
370.445	436.56
370.672	414.56
370.898	421.56
371.124	387.56
371.35	403.56
371.576	418.56
371.802	412.56
372.028	410.56
372.254	419.56
372.48	418.56
372.706	431.56
372.932	427.56
373.158	414.56
373.384	417.56
373.61	408.56
373.835	410.56
374.061	432.56
374.287	435.56
374.513	439.56
374.739	441.56
374.965	440.56
375.191	444.56
375.416	439.56
375.642	424.56
375.868	400.56
376.094	426.56
376.319	401.56
376.545	432.56
376.771	425.56
376.997	411.56
377.222	387.56
377.448	408.56
377.674	405.56
377.899	414.56
378.125	426.56
378.35	417.56
378.576	404.56
378.802	408.56
379.027	425.56
379.253	417.56
379.478	410.56
379.704	416.56
379.929	394.56
380.155	445.56
380.38	420.56
380.606	431.56
380.831	426.56
381.057	410.56
381.282	418.56
381.507	419.56
381.733	418.56
381.958	407.56
382.184	425.56
382.409	432.56
382.634	426.56
382.86	433.56
383.085	417.56
383.31	435.56
383.535	418.56
383.761	435.56
383.986	457.56
384.211	470.56
384.436	471.56
384.662	475.56
384.887	455.56
385.112	444.56
385.337	472.56
385.562	460.56
385.787	475.56
386.013	482.56
386.238	474.56
386.463	475.56
386.688	466.56
386.913	450.56
387.138	457.56
387.363	465.56
387.588	464.56
387.813	469.56
388.038	451.56
388.263	450.56
388.488	458.56
388.713	463.56
388.938	467.56
389.163	477.56
389.387	469.56
389.612	460.56
389.837	480.56
390.062	454.56
390.287	451.56
390.512	454.56
390.736	452.56
390.961	472.56
391.186	458.56
391.411	472.56
391.636	468.56
391.86	493.56
392.085	510.56
392.31	482.56
392.534	481.56
392.759	464.56
392.984	465.56
393.208	476.56
393.433	472.56
393.658	489.56
393.882	488.56
394.107	454.56
394.331	462.56
394.556	476.56
394.78	495.56
395.005	491.56
395.229	458.56
395.454	482.56
395.678	488.56
395.903	489.56
396.127	526.56
396.352	514.56
396.576	505.56
396.801	487.56
397.025	466.56
397.249	500.56
397.474	502.56
397.698	502.56
397.922	515.56
398.147	538.56
398.371	523.56
398.595	517.56
398.82	506.56
399.044	539.56
399.268	588.56
399.492	603.56
399.717	672.56
399.941	688.56
400.165	701.56
400.389	676.56
400.613	659.56
400.837	560.56
401.062	569.56
401.286	534.56
401.51	543.56
401.734	537.56
401.958	537.56
402.182	546.56
402.406	556.56
402.63	557.56
402.854	564.56
403.078	571.56
403.302	579.56
403.526	593.56
403.75	583.56
403.974	578.56
404.198	553.56
404.422	571.56
404.645	587.56
404.869	595.56
405.093	587.56
405.317	656.56
405.541	664.56
405.765	633.56
405.988	607.56
406.212	607.56
406.436	611.56
406.66	628.56
406.883	596.56
407.107	622.56
407.331	687.56
407.555	725.56
407.778	744.56
408.002	696.56
408.226	640.56
408.449	612.56
408.673	614.56
408.896	651.56
409.12	696.56
409.344	648.56
409.567	605.56
409.791	575.56
410.014	560.56
410.238	577.56
410.461	546.56
410.685	561.56
410.908	588.56
411.132	613.56
411.355	642.56
411.578	604.56
411.802	574.56
412.025	567.56
412.249	579.56
412.472	616.56
412.695	642.56
412.919	622.56
413.142	569.56
413.365	562.56
413.589	565.56
413.812	530.56
414.035	538.56
414.258	543.56
414.482	524.56
414.705	522.56
414.928	532.56
415.151	520.56
415.374	547.56
415.597	530.56
415.821	507.56
416.044	528.56
416.267	527.56
416.49	523.56
416.713	520.56
416.936	534.56
417.159	540.56
417.382	534.56
417.605	529.56
417.828	536.56
418.051	558.56
418.274	560.56
418.497	545.56
418.72	552.56
418.943	532.56
419.166	554.56
419.389	590.56
419.611	571.56
419.834	568.56
420.057	585.56
420.28	571.56
420.503	546.56
420.726	558.56
420.948	590.56
421.171	598.56
421.394	626.56
421.617	587.56
421.839	579.56
422.062	578.56
422.285	555.56
422.507	610.56
422.73	703.56
422.953	687.56
423.175	607.56
423.398	576.56
423.621	574.56
423.843	574.56
424.066	590.56
424.288	588.56
424.511	602.56
424.733	636.56
424.956	776.56
425.178	697.56
425.401	694.56
425.623	720.56
425.846	638.56
426.068	589.56
426.291	568.56
426.513	578.56
426.735	575.56
426.958	638.56
427.18	704.56
427.402	837.56
427.625	912.56
427.847	787.56
428.069	681.56
428.292	636.56
428.514	564.56
428.736	547.56
428.958	544.56
429.181	540.56
429.403	532.56
429.625	515.56
429.847	559.56
430.069	625.56
430.292	627.56
430.514	565.56
430.736	512.56
430.958	527.56
431.18	506.56
431.402	516.56
431.624	520.56
431.846	510.56
432.068	498.56
432.29	522.56
432.512	520.56
432.734	520.56
432.956	507.56
433.178	522.56
433.4	527.56
433.622	502.56
433.844	512.56
434.066	515.56
434.287	510.56
434.509	513.56
434.731	546.56
434.953	564.56
435.175	540.56
435.397	568.56
435.618	566.56
435.84	620.56
436.062	699.56
436.284	747.56
436.505	630.56
436.727	592.56
436.949	566.56
437.17	538.56
437.392	520.56
437.614	528.56
437.835	594.56
438.057	653.56
438.278	755.56
438.5	786.56
438.721	842.56
438.943	794.56
439.165	643.56
439.386	603.56
439.608	574.56
439.829	580.56
440.05	600.56
440.272	636.56
440.493	599.56
440.715	566.56
440.936	564.56
441.158	560.56
441.379	547.56
441.6	564.56
441.822	587.56
442.043	606.56
442.264	690.56
442.486	752.56
442.707	647.56
442.928	590.56
443.149	610.56
443.371	625.56
443.592	661.56
443.813	772.56
444.034	816.56
444.255	695.56
444.476	642.56
444.698	622.56
444.919	599.56
445.14	728.56
445.361	668.56
445.582	657.56
445.803	678.56
446.024	779.56
446.245	795.56
446.466	713.56
446.687	615.56
446.908	586.56
447.129	571.56
447.35	538.56
447.571	546.56
447.792	523.56
448.013	531.56
448.234	547.56
448.455	604.56
448.675	708.56
448.896	805.56
449.117	670.56
449.338	680.56
449.559	758.56
449.779	862.56
450	682.56
450.221	582.56
450.442	517.56
450.662	518.56
450.883	522.56
451.104	553.56
451.324	511.56
451.545	496.56
451.766	483.56
451.986	479.56
452.207	492.56
452.428	474.56
452.648	464.56
452.869	442.56
453.089	461.56
453.31	519.56
453.53	502.56
453.751	487.56
453.971	478.56
454.192	491.56
454.412	481.56
454.633	487.56
454.853	481.56
455.073	471.56
455.294	497.56
455.514	563.56
455.734	542.56
455.955	469.56
456.175	474.56
456.395	451.56
456.616	444.56
456.836	448.56
457.056	454.56
457.276	448.56
457.497	451.56
457.717	439.56
457.937	466.56
458.157	438.56
458.377	466.56
458.598	466.56
458.818	538.56
459.038	605.56
459.258	624.56
459.478	549.56
459.698	531.56
459.918	515.56
460.138	521.56
460.358	556.56
460.578	555.56
460.798	551.56
461.018	545.56
461.238	534.56
461.458	550.56
461.678	540.56
461.898	566.56
462.118	535.56
462.338	576.56
462.558	568.56
462.777	564.56
462.997	586.56
463.217	618.56
463.437	631.56
463.657	596.56
463.876	593.56
464.096	599.56
464.316	584.56
464.536	619.56
464.755	568.56
464.975	576.56
465.195	598.56
465.414	651.56
465.634	566.56
465.854	524.56
466.073	528.56
466.293	529.56
466.512	503.56
466.732	485.56
466.951	506.56
467.171	485.56
467.391	481.56
467.61	527.56
467.829	494.56
468.049	509.56
468.268	491.56
468.488	468.56
468.707	476.56
468.927	473.56
469.146	479.56
469.365	494.56
469.585	492.56
469.804	486.56
470.023	517.56
470.243	487.56
470.462	511.56
470.681	519.56
470.901	515.56
471.12	509.56
471.339	514.56
471.558	483.56
471.777	492.56
471.997	492.56
472.216	496.56
472.435	526.56
472.654	514.56
472.873	481.56
473.092	484.56
473.311	503.56
473.53	496.56
473.749	522.56
473.968	545.56
474.187	622.56
474.406	652.56
474.625	540.56
474.844	524.56
475.063	484.56
475.282	488.56
475.501	513.56
475.72	491.56
475.939	497.56
476.158	515.56
476.377	528.56
476.596	494.56
476.814	503.56
477.033	527.56
477.252	519.56
477.471	535.56
477.69	534.56
477.908	551.56
478.127	554.56
478.346	552.56
478.564	558.56
478.783	582.56
479.002	579.56
479.22	566.56
479.439	581.56
479.658	576.56
479.876	588.56
480.095	593.56
480.313	628.56
480.532	651.56
480.751	636.56
480.969	609.56
481.188	655.56
481.406	687.56
481.624	604.56
481.843	610.56
482.061	583.56
482.28	585.56
482.498	555.56
482.717	584.56
482.935	598.56
483.153	565.56
483.372	564.56
483.59	563.56
483.808	589.56
484.027	582.56
484.245	598.56
484.463	569.56
484.681	590.56
484.9	613.56
485.118	596.56
485.336	597.56
485.554	579.56
485.772	600.56
485.99	589.56
486.209	628.56
486.427	606.56
486.645	607.56
486.863	600.56
487.081	603.56
487.299	633.56
487.517	615.56
487.735	634.56
487.953	626.56
488.171	628.56
488.389	629.56
488.607	626.56
488.825	620.56
489.043	606.56
489.261	618.56
489.479	626.56
489.696	612.56
489.914	618.56
490.132	640.56
490.35	661.56
490.568	641.56
490.786	629.56
491.003	649.56
491.221	675.56
491.439	687.56
491.657	694.56
491.874	667.56
492.092	726.56
492.31	700.56
492.527	684.56
492.745	703.56
492.963	722.56
493.18	723.56
493.398	719.56
493.615	713.56
493.833	716.56
494.05	719.56
494.268	766.56
494.485	745.56
494.703	729.56
494.92	752.56
495.138	714.56
495.355	726.56
495.573	715.56
495.79	738.56
496.008	754.56
496.225	722.56
496.442	741.56
496.66	706.56
496.877	744.56
497.094	746.56
497.312	744.56
497.529	762.56
497.746	762.56
497.963	780.56
498.181	806.56
498.398	796.56
498.615	820.56
498.832	850.56
499.049	895.56
499.267	884.56
499.484	938.56
499.701	1005.56
499.918	1045.56
500.135	1106.56
500.352	1146.56
500.569	1193.56
500.786	1205.56
501.003	1172.56
501.22	1117.56
501.437	1086.56
501.654	1028.56
501.871	979.56
502.088	956.56
502.305	897.56
502.522	887.56
502.739	862.56
502.956	799.56
503.172	800.56
503.389	810.56
503.606	791.56
503.823	774.56
504.04	756.56
504.256	746.56
504.473	748.56
504.69	746.56
504.907	740.56
505.123	719.56
505.34	714.56
505.557	719.56
505.773	722.56
505.99	695.56
506.207	686.56
506.423	699.56
506.64	683.56
506.856	672.56
507.073	687.56
507.289	684.56
507.506	670.56
507.722	678.56
507.939	675.56
508.155	667.56
508.372	634.56
508.588	646.56
508.805	638.56
509.021	660.56
509.238	674.56
509.454	679.56
509.67	653.56
509.887	619.56
510.103	639.56
510.319	660.56
510.536	726.56
510.752	1043.56
510.968	887.56
511.184	642.56
511.401	625.56
511.617	619.56
511.833	606.56
512.049	615.56
512.265	627.56
512.481	614.56
512.698	608.56
512.914	603.56
513.13	629.56
513.346	590.56
513.562	585.56
513.778	595.56
513.994	603.56
514.21	609.56
514.426	620.56
514.642	642.56
514.858	673.56
515.074	709.56
515.29	782.56
515.506	1104.56
515.721	921.56
515.937	709.56
516.153	666.56
516.369	667.56
516.585	648.56
516.801	644.56
517.016	645.56
517.232	671.56
517.448	672.56
517.664	680.56
517.879	661.56
518.095	658.56
518.311	666.56
518.527	649.56
518.742	644.56
518.958	645.56
519.173	611.56
519.389	614.56
519.605	595.56
519.82	624.56
520.036	635.56
520.251	611.56
520.467	650.56
520.682	657.56
520.898	662.56
521.113	630.56
521.329	675.56
521.544	742.56
521.76	881.56
521.975	1354.56
522.19	1303.56
522.406	798.56
522.621	652.56
522.836	617.56
523.052	583.56
523.267	547.56
523.482	546.56
523.698	548.56
523.913	556.56
524.128	537.56
524.343	547.56
524.559	535.56
524.774	531.56
524.989	552.56
525.204	543.56
525.419	551.56
525.634	528.56
525.849	527.56
526.064	512.56
526.28	513.56
526.495	520.56
526.71	517.56
526.925	513.56
527.14	494.56
527.355	538.56
527.57	505.56
527.785	502.56
527.999	495.56
528.214	489.56
528.429	497.56
528.644	502.56
528.859	540.56
529.074	514.56
529.289	531.56
529.503	585.56
529.718	554.56
529.933	527.56
530.148	526.56
530.363	502.56
530.577	510.56
530.792	490.56
531.007	494.56
531.221	493.56
531.436	493.56
531.651	487.56
531.865	506.56
532.08	490.56
532.295	506.56
532.509	491.56
532.724	496.56
532.938	509.56
533.153	497.56
533.367	485.56
533.582	480.56
533.796	495.56
534.011	490.56
534.225	478.56
534.44	490.56
534.654	484.56
534.868	496.56
535.083	463.56
535.297	470.56
535.511	481.56
535.726	506.56
535.94	481.56
536.154	482.56
536.369	450.56
536.583	475.56
536.797	475.56
537.011	458.56
537.225	467.56
537.44	464.56
537.654	450.56
537.868	466.56
538.082	464.56
538.296	487.56
538.51	474.56
538.724	463.56
538.938	452.56
539.153	465.56
539.367	470.56
539.581	463.56
539.795	479.56
540.009	481.56
540.222	469.56
540.436	460.56
540.65	472.56
540.864	478.56
541.078	470.56
541.292	502.56
541.506	471.56
541.72	466.56
541.934	484.56
542.147	458.56
542.361	477.56
542.575	457.56
542.789	474.56
543.002	450.56
543.216	454.56
543.43	485.56
543.644	469.56
543.857	465.56
544.071	465.56
544.285	479.56
544.498	472.56
544.712	467.56
544.925	472.56
545.139	471.56
545.352	470.56
545.566	461.56
545.779	464.56
545.993	469.56
546.206	457.56
546.42	487.56
546.633	458.56
546.847	466.56
547.06	470.56
547.274	471.56
547.487	474.56
547.7	472.56
547.914	455.56
548.127	460.56
548.34	459.56
548.554	451.56
548.767	455.56
548.98	467.56
549.193	482.56
549.407	450.56
549.62	460.56
549.833	462.56
550.046	460.56
550.259	460.56
550.473	460.56
550.686	457.56
550.899	436.56
551.112	452.56
551.325	458.56
551.538	443.56
551.751	448.56
551.964	441.56
552.177	437.56
552.39	442.56
552.603	460.56
552.816	458.56
553.029	468.56
553.242	472.56
553.455	458.56
553.667	488.56
553.88	466.56
554.093	476.56
554.306	460.56
554.519	454.56
554.732	457.56
554.944	450.56
555.157	439.56
555.37	437.56
555.583	437.56
555.795	436.56
556.008	431.56
556.221	448.56
556.433	407.56
556.646	420.56
556.859	417.56
557.071	418.56
557.284	420.56
557.496	428.56
557.709	430.56
557.921	403.56
558.134	412.56
558.346	412.56
558.559	406.56
558.771	392.56
558.984	416.56
559.196	407.56
559.409	409.56
559.621	407.56
559.833	421.56
560.046	399.56
560.258	388.56
560.47	387.56
560.683	406.56
560.895	392.56
561.107	380.56
561.32	390.56
561.532	380.56
561.744	409.56
561.956	404.56
562.168	402.56
562.381	396.56
562.593	397.56
562.805	427.56
563.017	417.56
563.229	398.56
563.441	434.56
563.653	435.56
563.865	422.56
564.077	426.56
564.289	418.56
564.501	414.56
564.713	425.56
564.925	438.56
565.137	433.56
565.349	443.56
565.561	436.56
565.773	447.56
565.985	468.56
566.197	477.56
566.408	474.56
566.62	508.56
566.832	528.56
567.044	550.56
567.255	563.56
567.467	528.56
567.679	575.56
567.891	593.56
568.102	568.56
568.314	576.56
568.526	536.56
568.737	516.56
568.949	491.56
569.161	468.56
569.372	442.56
569.584	435.56
569.795	419.56
570.007	453.56
570.218	442.56
570.43	446.56
570.641	401.56
570.853	396.56
571.064	410.56
571.276	424.56
571.487	397.56
571.698	402.56
571.91	399.56
572.121	379.56
572.333	383.56
572.544	354.56
572.755	340.56
572.966	369.56
573.178	375.56
573.389	354.56
573.6	355.56
573.811	367.56
574.023	362.56
574.234	344.56
574.445	357.56
574.656	363.56
574.867	360.56
575.078	367.56
575.289	344.56
575.501	352.56
575.712	340.56
575.923	348.56
576.134	339.56
576.345	322.56
576.556	332.56
576.767	359.56
576.978	354.56
577.188	337.56
577.399	328.56
577.61	340.56
577.821	338.56
578.032	330.56
578.243	356.56
578.454	522.56
578.665	398.56
578.875	335.56
579.086	326.56
579.297	344.56
579.508	332.56
579.718	336.56
579.929	328.56
580.14	325.56
580.35	307.56
580.561	314.56
580.772	315.56
580.982	343.56
581.193	306.56
581.403	301.56
581.614	317.56
581.825	313.56
582.035	320.56
582.246	315.56
582.456	325.56
582.667	307.56
582.877	302.56
583.087	322.56
583.298	321.56
583.508	303.56
583.719	300.56
583.929	344.56
584.139	315.56
584.35	321.56
584.56	320.56
584.77	328.56
584.981	311.56
585.191	292.56
585.401	304.56
585.611	299.56
585.821	300.56
586.032	311.56
586.242	310.56
586.452	298.56
586.662	305.56
586.872	286.56
587.082	318.56
587.292	321.56
587.502	319.56
587.713	316.56
587.923	324.56
588.133	314.56
588.343	286.56
588.553	317.56
588.762	303.56
588.972	319.56
589.182	311.56
589.392	320.56
589.602	302.56
589.812	310.56
590.022	306.56
590.232	322.56
590.441	315.56
590.651	308.56
590.861	306.56
591.071	316.56
591.281	310.56
591.49	325.56
591.7	306.56
591.91	328.56
592.119	310.56
592.329	314.56
592.539	308.56
592.748	329.56
592.958	336.56
593.167	323.56
593.377	335.56
593.587	343.56
593.796	321.56
594.006	330.56
594.215	331.56
594.424	352.56
594.634	346.56
594.843	336.56
595.053	327.56
595.262	308.56
595.472	306.56
595.681	304.56
595.89	314.56
596.1	292.56
596.309	280.56
596.518	302.56
596.727	304.56
596.937	288.56
597.146	282.56
597.355	283.56
597.564	289.56
597.774	277.56
597.983	289.56
598.192	280.56
598.401	287.56
598.61	282.56
598.819	275.56
599.028	268.56
599.237	262.56
599.446	262.56
599.655	279.56
599.864	291.56
600.073	277.56
600.282	287.56
600.491	274.56
600.7	278.56
600.909	275.56
601.118	258.56
601.327	267.56
601.536	263.56
601.745	256.56
601.953	283.56
602.162	268.56
602.371	275.56
602.58	267.56
602.789	255.56
602.997	234.56
603.206	260.56
603.415	267.56
603.623	246.56
603.832	245.56
604.041	257.56
604.249	254.56
604.458	264.56
604.666	258.56
604.875	256.56
605.084	260.56
605.292	263.56
605.501	248.56
605.709	248.56
605.918	259.56
606.126	238.56
606.334	243.56
606.543	269.56
606.751	267.56
606.96	239.56
607.168	249.56
607.376	262.56
607.585	256.56
607.793	247.56
608.001	273.56
608.21	268.56
608.418	266.56
608.626	265.56
608.834	262.56
609.043	243.56
609.251	239.56
609.459	251.56
609.667	248.56
609.875	256.56
610.083	257.56
610.291	255.56
610.499	246.56
610.707	243.56
610.916	242.56
611.124	239.56
611.332	244.56
611.54	256.56
611.748	251.56
611.955	246.56
612.163	256.56
612.371	264.56
612.579	256.56
612.787	242.56
612.995	241.56
613.203	260.56
613.411	262.56
613.618	253.56
613.826	238.56
614.034	240.56
614.242	231.56
614.449	254.56
614.657	231.56
614.865	233.56
615.072	248.56
615.28	248.56
615.488	249.56
615.695	234.56
615.903	254.56
616.111	245.56
616.318	246.56
616.526	231.56
616.733	250.56
616.941	243.56
617.148	259.56
617.356	238.56
617.563	259.56
617.771	249.56
617.978	238.56
618.185	238.56
618.393	247.56
618.6	229.56
618.807	245.56
619.015	243.56
619.222	243.56
619.429	243.56
619.637	241.56
619.844	235.56
620.051	225.56
620.258	240.56
620.466	222.56
620.673	221.56
620.88	211.56
621.087	208.56
621.294	229.56
621.501	229.56
621.708	232.56
621.915	235.56
622.122	231.56
622.329	224.56
622.536	231.56
622.743	225.56
622.95	229.56
623.157	206.56
623.364	234.56
623.571	239.56
623.778	216.56
623.985	216.56
624.192	215.56
624.399	212.56
624.606	217.56
624.812	228.56
625.019	233.56
625.226	241.56
625.433	218.56
625.639	209.56
625.846	217.56
626.053	211.56
626.259	202.56
626.466	228.56
626.673	202.56
626.879	201.56
627.086	215.56
627.293	217.56
627.499	227.56
627.706	201.56
627.912	227.56
628.119	208.56
628.325	217.56
628.532	209.56
628.738	216.56
628.945	212.56
629.151	201.56
629.357	211.56
629.564	213.56
629.77	202.56
629.976	217.56
630.183	192.56
630.389	203.56
630.595	202.56
630.802	196.56
631.008	193.56
631.214	188.56
631.42	216.56
631.627	193.56
631.833	201.56
632.039	203.56
632.245	192.56
632.451	200.56
632.657	192.56
632.863	200.56
633.069	199.56
633.275	200.56
633.481	192.56
633.688	199.56
633.893	191.56
634.099	184.56
634.305	176.56
634.511	187.56
634.717	210.56
634.923	178.56
635.129	182.56
635.335	186.56
635.541	195.56
635.747	180.56
635.952	192.56
636.158	168.56
636.364	186.56
636.57	192.56
636.775	210.56
636.981	183.56
637.187	198.56
637.392	182.56
637.598	168.56
637.804	177.56
638.009	186.56
638.215	189.56
638.421	183.56
638.626	168.56
638.832	180.56
639.037	183.56
639.243	192.56
639.448	189.56
639.654	173.56
639.859	168.56
640.065	183.56
640.27	194.56
640.475	188.56
640.681	185.56
640.886	178.56
641.091	183.56
641.297	184.56
641.502	166.56
641.707	169.56
641.913	171.56
642.118	168.56
642.323	177.56
642.528	166.56
642.733	183.56
642.939	162.56
643.144	165.56
643.349	152.56
643.554	170.56
643.759	168.56
643.964	186.56
644.169	168.56
644.374	174.56
644.579	165.56
644.784	185.56
644.989	169.56
645.194	167.56
645.399	176.56
645.604	169.56
645.809	166.56
646.014	176.56
646.219	170.56
646.423	174.56
646.628	176.56
646.833	163.56
647.038	182.56
647.243	172.56
647.447	180.56
647.652	175.56
647.857	166.56
648.062	153.56
648.266	171.56
648.471	163.56
648.676	167.56
648.88	179.56
649.085	172.56
649.289	162.56
649.494	174.56
649.698	186.56
649.903	184.56
650.107	174.56
650.312	170.56
650.516	135.56
650.721	160.56
650.925	139.56
651.13	133.56
651.334	163.56
651.539	151.56
651.743	134.56
651.947	158.56
652.152	154.56
652.356	157.56
652.56	146.56
652.764	148.56
652.969	143.56
653.173	159.56
653.377	145.56
653.581	148.56
653.785	136.56
653.99	141.56
654.194	136.56
654.398	143.56
654.602	152.56
654.806	144.56
655.01	129.56
655.214	143.56
655.418	132.56
655.622	133.56
655.826	148.56
656.03	129.56
656.234	118.56
656.438	136.56
656.642	134.56
656.846	147.56
657.049	128.56
657.253	120.56
657.457	106.56
657.661	110.56
657.865	117.56
658.068	115.56
658.272	120.56
658.476	115.56
658.68	100.56
658.883	107.56
659.087	116.56
659.291	103.56
659.494	105.56
659.698	97.56
659.901	110.56
660.105	91.56
660.309	88.56
660.512	94.56
660.716	97.56
660.919	110.56
661.123	94.56
661.326	94.56
661.53	99.56
661.733	74.56
661.936	92.56
662.14	91.56
662.343	98.56
662.546	87.56
662.75	78.56
662.953	93.56
663.156	83.56
663.36	75.56
663.563	81.56
663.766	81.56
663.969	81.56
664.173	77.56
664.376	74.56
664.579	78.56
664.782	79.56
664.985	81.56
665.188	80.56
665.391	80.56
665.594	74.56
665.797	96.56
666	85.56
666.203	89.56
666.406	81.56
666.609	98.56
666.812	80.56
667.015	75.56
667.218	84.56
667.421	87.56
667.624	84.56
667.827	67.56
668.03	79.56
668.232	82.56
668.435	87.56
668.638	88.56
668.841	92.56
669.043	68.56
669.246	75.56
669.449	82.56
669.651	80.56
669.854	82.56
670.057	76.56
670.259	79.56
670.462	71.56
670.665	67.56
670.867	90.56
671.07	75.56
671.272	74.56
671.475	82.56
671.677	80.56
671.88	77.56
672.082	86.56
672.284	88.56
672.487	78.56
672.689	79.56
672.892	70.56
