Data from 1976.PennyLincolnUp.Lamp.En5.5.200Scan.071719.P1.Changed Mount._HRD10591_16-01-22-861.txt Node
Date: Thu Jul 18 16:01:22 EDT 2019
User: cochatt
Spectrometer: HR+D1059
Trigger mode: 1
Integration Time (sec): 1.000000E-1
Scans to average: 1
Electric dark correction enabled: true
Nonlinearity correction enabled: false
Boxcar width: 0
XAxis mode: Wavelengths
Number of Pixels in Spectrum: 2048
>>>>>Begin Spectral Data<<<<<
223.165	-16.94
223.4	-16.94
223.635	-16.94
223.869	-24.94
224.104	-15.94
224.338	-17.94
224.573	-2.94
224.808	-19.94
225.042	-9.94
225.277	2.06
225.511	-7.94
225.746	-3.94
225.98	5.06
226.215	10.06
226.449	26.06
226.683	29.06
226.918	22.06
227.152	26.06
227.387	37.06
227.621	45.06
227.856	41.06
228.09	61.06
228.324	58.06
228.559	53.06
228.793	68.06
229.027	111.06
229.262	111.06
229.496	111.06
229.73	125.06
229.964	145.06
230.199	124.06
230.433	102.06
230.667	125.06
230.901	108.06
231.136	121.06
231.37	124.06
231.604	108.06
231.838	116.06
232.072	120.06
232.306	113.06
232.541	112.06
232.775	128.06
233.009	116.06
233.243	119.06
233.477	124.06
233.711	129.06
233.945	111.06
234.179	128.06
234.413	113.06
234.647	113.06
234.881	118.06
235.115	116.06
235.349	126.06
235.583	124.06
235.817	109.06
236.051	119.06
236.285	129.06
236.519	141.06
236.753	146.06
236.987	127.06
237.221	166.06
237.455	235.06
237.689	173.06
237.922	147.06
238.156	137.06
238.39	136.06
238.624	124.06
238.858	136.06
239.091	126.06
239.325	118.06
239.559	133.06
239.793	134.06
240.027	133.06
240.26	137.06
240.494	144.06
240.728	147.06
240.961	138.06
241.195	154.06
241.429	136.06
241.662	145.06
241.896	137.06
242.13	142.06
242.363	126.06
242.597	130.06
242.83	149.06
243.064	142.06
243.298	140.06
243.531	137.06
243.765	124.06
243.998	144.06
244.232	124.06
244.465	146.06
244.699	151.06
244.932	168.06
245.166	143.06
245.399	149.06
245.633	166.06
245.866	153.06
246.099	163.06
246.333	162.06
246.566	160.06
246.8	156.06
247.033	153.06
247.266	156.06
247.5	177.06
247.733	182.06
247.966	185.06
248.2	180.06
248.433	176.06
248.666	164.06
248.899	185.06
249.133	184.06
249.366	215.06
249.599	199.06
249.832	181.06
250.066	189.06
250.299	190.06
250.532	194.06
250.765	197.06
250.998	220.06
251.231	228.06
251.465	228.06
251.698	203.06
251.931	206.06
252.164	193.06
252.397	200.06
252.63	198.06
252.863	221.06
253.096	225.06
253.329	243.06
253.562	224.06
253.795	228.06
254.028	230.06
254.261	203.06
254.494	224.06
254.727	260.06
254.96	280.06
255.193	282.06
255.426	218.06
255.659	233.06
255.892	233.06
256.124	235.06
256.357	236.06
256.59	233.06
256.823	226.06
257.056	212.06
257.289	204.06
257.521	225.06
257.754	221.06
257.987	210.06
258.22	215.06
258.452	199.06
258.685	208.06
258.918	226.06
259.151	197.06
259.383	213.06
259.616	224.06
259.849	207.06
260.081	233.06
260.314	237.06
260.547	275.06
260.779	240.06
261.012	245.06
261.244	225.06
261.477	232.06
261.71	228.06
261.942	223.06
262.175	251.06
262.407	241.06
262.64	237.06
262.872	199.06
263.105	213.06
263.337	229.06
263.57	228.06
263.802	221.06
264.035	212.06
264.267	208.06
264.499	213.06
264.732	213.06
264.964	225.06
265.197	224.06
265.429	223.06
265.661	239.06
265.894	229.06
266.126	224.06
266.358	221.06
266.591	226.06
266.823	222.06
267.055	224.06
267.287	245.06
267.52	236.06
267.752	242.06
267.984	232.06
268.216	239.06
268.448	241.06
268.681	244.06
268.913	248.06
269.145	241.06
269.377	286.06
269.609	293.06
269.841	266.06
270.073	283.06
270.306	276.06
270.538	320.06
270.77	315.06
271.002	297.06
271.234	271.06
271.466	288.06
271.698	300.06
271.93	352.06
272.162	333.06
272.394	314.06
272.626	298.06
272.858	299.06
273.09	286.06
273.322	287.06
273.553	264.06
273.785	281.06
274.017	260.06
274.249	276.06
274.481	280.06
274.713	274.06
274.945	281.06
275.176	283.06
275.408	287.06
275.64	284.06
275.872	268.06
276.104	275.06
276.335	268.06
276.567	288.06
276.799	312.06
277.031	313.06
277.262	320.06
277.494	340.06
277.726	296.06
277.957	298.06
278.189	300.06
278.421	284.06
278.652	266.06
278.884	293.06
279.115	285.06
279.347	300.06
279.579	262.06
279.81	286.06
280.042	270.06
280.273	304.06
280.505	283.06
280.736	294.06
280.968	284.06
281.199	277.06
281.431	295.06
281.662	277.06
281.894	300.06
282.125	297.06
282.356	292.06
282.588	298.06
282.819	324.06
283.051	297.06
283.282	278.06
283.513	297.06
283.745	297.06
283.976	305.06
284.207	310.06
284.439	303.06
284.67	305.06
284.901	289.06
285.132	308.06
285.364	302.06
285.595	305.06
285.826	308.06
286.057	305.06
286.288	303.06
286.52	309.06
286.751	313.06
286.982	311.06
287.213	302.06
287.444	301.06
287.675	293.06
287.906	321.06
288.138	339.06
288.369	327.06
288.6	309.06
288.831	329.06
289.062	321.06
289.293	315.06
289.524	304.06
289.755	309.06
289.986	300.06
290.217	305.06
290.448	306.06
290.679	320.06
290.91	303.06
291.141	301.06
291.371	320.06
291.602	302.06
291.833	301.06
292.064	320.06
292.295	298.06
292.526	316.06
292.757	302.06
292.987	314.06
293.218	313.06
293.449	321.06
293.68	308.06
293.91	312.06
294.141	302.06
294.372	297.06
294.603	319.06
294.833	306.06
295.064	317.06
295.295	309.06
295.525	323.06
295.756	304.06
295.987	306.06
296.217	337.06
296.448	345.06
296.679	346.06
296.909	309.06
297.14	308.06
297.37	338.06
297.601	314.06
297.831	332.06
298.062	327.06
298.292	310.06
298.523	347.06
298.753	337.06
298.984	312.06
299.214	339.06
299.445	338.06
299.675	337.06
299.905	313.06
300.136	353.06
300.366	338.06
300.597	338.06
300.827	359.06
301.057	327.06
301.288	330.06
301.518	330.06
301.748	320.06
301.979	352.06
302.209	363.06
302.439	347.06
302.669	333.06
302.9	370.06
303.13	339.06
303.36	332.06
303.59	337.06
303.82	362.06
304.051	360.06
304.281	348.06
304.511	338.06
304.741	348.06
304.971	360.06
305.201	322.06
305.431	361.06
305.661	344.06
305.891	323.06
306.121	343.06
306.352	330.06
306.582	356.06
306.812	350.06
307.042	360.06
307.272	353.06
307.502	361.06
307.731	342.06
307.961	360.06
308.191	342.06
308.421	358.06
308.651	361.06
308.881	359.06
309.111	347.06
309.341	351.06
309.571	361.06
309.8	350.06
310.03	377.06
310.26	376.06
310.49	379.06
310.72	400.06
310.949	398.06
311.179	400.06
311.409	385.06
311.639	388.06
311.868	384.06
312.098	384.06
312.328	393.06
312.557	411.06
312.787	417.06
313.017	426.06
313.246	408.06
313.476	400.06
313.706	390.06
313.935	389.06
314.165	416.06
314.394	404.06
314.624	409.06
314.853	406.06
315.083	395.06
315.312	411.06
315.542	367.06
315.771	388.06
316.001	371.06
316.23	398.06
316.46	382.06
316.689	384.06
316.919	391.06
317.148	396.06
317.377	418.06
317.607	391.06
317.836	390.06
318.065	379.06
318.295	388.06
318.524	396.06
318.753	395.06
318.983	395.06
319.212	382.06
319.441	405.06
319.67	414.06
319.9	394.06
320.129	394.06
320.358	410.06
320.587	404.06
320.816	398.06
321.046	424.06
321.275	421.06
321.504	402.06
321.733	412.06
321.962	411.06
322.191	429.06
322.42	430.06
322.649	483.06
322.878	437.06
323.108	450.06
323.337	460.06
323.566	485.06
323.795	514.06
324.024	527.06
324.253	640.06
324.482	881.06
324.71	1308.06
324.939	1938.06
325.168	1662.06
325.397	839.06
325.626	604.06
325.855	524.06
326.084	501.06
326.313	480.06
326.542	473.06
326.77	490.06
326.999	599.06
327.228	798.06
327.457	1166.06
327.686	1449.06
327.914	958.06
328.143	672.06
328.372	577.06
328.6	553.06
328.829	539.06
329.058	531.06
329.287	578.06
329.515	518.06
329.744	502.06
329.972	499.06
330.201	529.06
330.43	555.06
330.658	554.06
330.887	582.06
331.115	574.06
331.344	512.06
331.572	488.06
331.801	477.06
332.03	488.06
332.258	500.06
332.486	492.06
332.715	472.06
332.943	474.06
333.172	483.06
333.4	508.06
333.629	512.06
333.857	516.06
334.085	496.06
334.314	553.06
334.542	556.06
334.771	550.06
334.999	536.06
335.227	482.06
335.455	487.06
335.684	471.06
335.912	454.06
336.14	472.06
336.369	470.06
336.597	467.06
336.825	480.06
337.053	453.06
337.281	447.06
337.51	451.06
337.738	442.06
337.966	444.06
338.194	466.06
338.422	464.06
338.65	439.06
338.878	453.06
339.106	438.06
339.334	450.06
339.562	457.06
339.79	456.06
340.018	462.06
340.246	429.06
340.474	463.06
340.702	440.06
340.93	437.06
341.158	432.06
341.386	435.06
341.614	450.06
341.842	438.06
342.07	427.06
342.298	447.06
342.526	434.06
342.754	413.06
342.981	433.06
343.209	431.06
343.437	440.06
343.665	456.06
343.893	464.06
344.12	479.06
344.348	461.06
344.576	466.06
344.804	462.06
345.031	441.06
345.259	452.06
345.487	460.06
345.714	431.06
345.942	435.06
346.17	426.06
346.397	416.06
346.625	410.06
346.853	442.06
347.08	414.06
347.308	432.06
347.535	429.06
347.763	423.06
347.99	429.06
348.218	421.06
348.445	441.06
348.673	419.06
348.9	416.06
349.128	430.06
349.355	415.06
349.583	424.06
349.81	411.06
350.037	424.06
350.265	433.06
350.492	413.06
350.72	438.06
350.947	406.06
351.174	415.06
351.402	439.06
351.629	418.06
351.856	408.06
352.083	442.06
352.311	410.06
352.538	433.06
352.765	454.06
352.992	439.06
353.22	431.06
353.447	424.06
353.674	409.06
353.901	418.06
354.128	412.06
354.355	410.06
354.583	409.06
354.81	398.06
355.037	416.06
355.264	414.06
355.491	410.06
355.718	396.06
355.945	423.06
356.172	406.06
356.399	415.06
356.626	395.06
356.853	394.06
357.08	401.06
357.307	399.06
357.534	407.06
357.761	411.06
357.988	421.06
358.215	400.06
358.441	423.06
358.668	408.06
358.895	419.06
359.122	410.06
359.349	406.06
359.576	432.06
359.802	437.06
360.029	451.06
360.256	458.06
360.483	434.06
360.709	438.06
360.936	423.06
361.163	416.06
361.39	419.06
361.616	433.06
361.843	437.06
362.07	434.06
362.296	408.06
362.523	403.06
362.749	440.06
362.976	420.06
363.203	412.06
363.429	386.06
363.656	414.06
363.882	414.06
364.109	430.06
364.335	411.06
364.562	394.06
364.788	393.06
365.015	411.06
365.241	420.06
365.468	420.06
365.694	406.06
365.92	429.06
366.147	399.06
366.373	417.06
366.599	414.06
366.826	408.06
367.052	419.06
367.278	416.06
367.505	436.06
367.731	428.06
367.957	419.06
368.184	410.06
368.41	427.06
368.636	414.06
368.862	408.06
369.089	419.06
369.315	427.06
369.541	428.06
369.767	424.06
369.993	421.06
370.219	409.06
370.445	415.06
370.672	436.06
370.898	403.06
371.124	394.06
371.35	403.06
371.576	406.06
371.802	407.06
372.028	404.06
372.254	421.06
372.48	425.06
372.706	424.06
372.932	419.06
373.158	424.06
373.384	433.06
373.61	421.06
373.835	441.06
374.061	406.06
374.287	444.06
374.513	405.06
374.739	426.06
374.965	426.06
375.191	446.06
375.416	441.06
375.642	409.06
375.868	421.06
376.094	416.06
376.319	410.06
376.545	404.06
376.771	417.06
376.997	401.06
377.222	430.06
377.448	412.06
377.674	424.06
377.899	434.06
378.125	413.06
378.35	424.06
378.576	422.06
378.802	417.06
379.027	422.06
379.253	416.06
379.478	416.06
379.704	417.06
379.929	399.06
380.155	434.06
380.38	426.06
380.606	412.06
380.831	422.06
381.057	432.06
381.282	418.06
381.507	416.06
381.733	425.06
381.958	422.06
382.184	432.06
382.409	442.06
382.634	425.06
382.86	427.06
383.085	441.06
383.31	428.06
383.535	444.06
383.761	426.06
383.986	431.06
384.211	440.06
384.436	440.06
384.662	455.06
384.887	443.06
385.112	447.06
385.337	454.06
385.562	463.06
385.787	464.06
386.013	488.06
386.238	465.06
386.463	465.06
386.688	456.06
386.913	475.06
387.138	473.06
387.363	467.06
387.588	457.06
387.813	482.06
388.038	478.06
388.263	472.06
388.488	485.06
388.713	475.06
388.938	476.06
389.163	488.06
389.387	451.06
389.612	455.06
389.837	449.06
390.062	460.06
390.287	463.06
390.512	431.06
390.736	455.06
390.961	445.06
391.186	477.06
391.411	484.06
391.636	491.06
391.86	500.06
392.085	497.06
392.31	486.06
392.534	490.06
392.759	485.06
392.984	460.06
393.208	480.06
393.433	474.06
393.658	459.06
393.882	478.06
394.107	477.06
394.331	466.06
394.556	484.06
394.78	462.06
395.005	461.06
395.229	486.06
395.454	471.06
395.678	470.06
395.903	501.06
396.127	493.06
396.352	516.06
396.576	489.06
396.801	473.06
397.025	495.06
397.249	484.06
397.474	496.06
397.698	496.06
397.922	515.06
398.147	516.06
398.371	531.06
398.595	528.06
398.82	541.06
399.044	565.06
399.268	571.06
399.492	598.06
399.717	639.06
399.941	682.06
400.165	705.06
400.389	692.06
400.613	609.06
400.837	574.06
401.062	574.06
401.286	517.06
401.51	560.06
401.734	538.06
401.958	536.06
402.182	529.06
402.406	555.06
402.63	551.06
402.854	552.06
403.078	540.06
403.302	547.06
403.526	586.06
403.75	567.06
403.974	550.06
404.198	566.06
404.422	566.06
404.645	550.06
404.869	586.06
405.093	591.06
405.317	646.06
405.541	680.06
405.765	613.06
405.988	598.06
406.212	625.06
406.436	604.06
406.66	617.06
406.883	607.06
407.107	606.06
407.331	655.06
407.555	743.06
407.778	741.06
408.002	712.06
408.226	634.06
408.449	631.06
408.673	603.06
408.896	634.06
409.12	680.06
409.344	652.06
409.567	574.06
409.791	594.06
410.014	594.06
410.238	572.06
410.461	571.06
410.685	551.06
410.908	576.06
411.132	608.06
411.355	610.06
411.578	584.06
411.802	548.06
412.025	555.06
412.249	559.06
412.472	578.06
412.695	632.06
412.919	609.06
413.142	566.06
413.365	592.06
413.589	558.06
413.812	540.06
414.035	514.06
414.258	554.06
414.482	534.06
414.705	537.06
414.928	544.06
415.151	533.06
415.374	518.06
415.597	536.06
415.821	520.06
416.044	527.06
416.267	546.06
416.49	524.06
416.713	543.06
416.936	538.06
417.159	518.06
417.382	547.06
417.605	542.06
417.828	560.06
418.051	580.06
418.274	538.06
418.497	530.06
418.72	529.06
418.943	516.06
419.166	529.06
419.389	587.06
419.611	570.06
419.834	559.06
420.057	560.06
420.28	570.06
420.503	555.06
420.726	558.06
420.948	554.06
421.171	616.06
421.394	627.06
421.617	578.06
421.839	567.06
422.062	535.06
422.285	559.06
422.507	630.06
422.73	688.06
422.953	642.06
423.175	592.06
423.398	568.06
423.621	574.06
423.843	576.06
424.066	589.06
424.288	599.06
424.511	609.06
424.733	674.06
424.956	752.06
425.178	701.06
425.401	719.06
425.623	733.06
425.846	618.06
426.068	607.06
426.291	578.06
426.513	578.06
426.735	587.06
426.958	609.06
427.18	694.06
427.402	844.06
427.625	898.06
427.847	756.06
428.069	660.06
428.292	625.06
428.514	582.06
428.736	538.06
428.958	549.06
429.181	527.06
429.403	537.06
429.625	542.06
429.847	559.06
430.069	617.06
430.292	628.06
430.514	553.06
430.736	527.06
430.958	536.06
431.18	520.06
431.402	525.06
431.624	522.06
431.846	488.06
432.068	494.06
432.29	508.06
432.512	519.06
432.734	520.06
432.956	526.06
433.178	520.06
433.4	536.06
433.622	522.06
433.844	506.06
434.066	504.06
434.287	525.06
434.509	524.06
434.731	537.06
434.953	545.06
435.175	546.06
435.397	582.06
435.618	568.06
435.84	596.06
436.062	694.06
436.284	806.06
436.505	639.06
436.727	597.06
436.949	558.06
437.17	531.06
437.392	528.06
437.614	540.06
437.835	553.06
438.057	667.06
438.278	768.06
438.5	749.06
438.721	861.06
438.943	784.06
439.165	658.06
439.386	575.06
439.608	590.06
439.829	580.06
440.05	623.06
440.272	634.06
440.493	595.06
440.715	580.06
440.936	552.06
441.158	546.06
441.379	534.06
441.6	543.06
441.822	558.06
442.043	605.06
442.264	687.06
442.486	744.06
442.707	630.06
442.928	594.06
443.149	615.06
443.371	586.06
443.592	662.06
443.813	756.06
444.034	830.06
444.255	666.06
444.476	613.06
444.698	573.06
444.919	603.06
445.14	703.06
445.361	658.06
445.582	638.06
445.803	677.06
446.024	796.06
446.245	794.06
446.466	714.06
446.687	607.06
446.908	577.06
447.129	566.06
447.35	530.06
447.571	550.06
447.792	527.06
448.013	538.06
448.234	540.06
448.455	590.06
448.675	674.06
448.896	831.06
449.117	677.06
449.338	645.06
449.559	760.06
449.779	855.06
450	684.06
450.221	580.06
450.442	540.06
450.662	498.06
450.883	524.06
451.104	530.06
451.324	521.06
451.545	508.06
451.766	488.06
451.986	478.06
452.207	476.06
452.428	466.06
452.648	481.06
452.869	455.06
453.089	476.06
453.31	485.06
453.53	482.06
453.751	487.06
453.971	480.06
454.192	479.06
454.412	465.06
454.633	477.06
454.853	470.06
455.073	464.06
455.294	500.06
455.514	556.06
455.734	546.06
455.955	486.06
456.175	454.06
456.395	449.06
456.616	432.06
456.836	461.06
457.056	428.06
457.276	438.06
457.497	431.06
457.717	452.06
457.937	460.06
458.157	455.06
458.377	449.06
458.598	490.06
458.818	519.06
459.038	592.06
459.258	615.06
459.478	543.06
459.698	521.06
459.918	482.06
460.138	506.06
460.358	540.06
460.578	516.06
460.798	557.06
461.018	535.06
461.238	520.06
461.458	535.06
461.678	510.06
461.898	534.06
462.118	539.06
462.338	536.06
462.558	530.06
462.777	541.06
462.997	605.06
463.217	620.06
463.437	600.06
463.657	584.06
463.876	572.06
464.096	595.06
464.316	568.06
464.536	587.06
464.755	564.06
464.975	570.06
465.195	573.06
465.414	602.06
465.634	567.06
465.854	545.06
466.073	525.06
466.293	493.06
466.512	493.06
466.732	488.06
466.951	497.06
467.171	492.06
467.391	506.06
467.61	487.06
467.829	512.06
468.049	506.06
468.268	507.06
468.488	472.06
468.707	482.06
468.927	475.06
469.146	463.06
469.365	479.06
469.585	473.06
469.804	490.06
470.023	487.06
470.243	485.06
470.462	516.06
470.681	499.06
470.901	501.06
471.12	493.06
471.339	494.06
471.558	511.06
471.777	509.06
471.997	519.06
472.216	489.06
472.435	503.06
472.654	495.06
472.873	491.06
473.092	498.06
473.311	489.06
473.53	482.06
473.749	507.06
473.968	530.06
474.187	635.06
474.406	659.06
474.625	553.06
474.844	500.06
475.063	479.06
475.282	472.06
475.501	480.06
475.72	497.06
475.939	488.06
476.158	504.06
476.377	495.06
476.596	484.06
476.814	524.06
477.033	531.06
477.252	552.06
477.471	502.06
477.69	550.06
477.908	539.06
478.127	535.06
478.346	559.06
478.564	564.06
478.783	563.06
479.002	572.06
479.22	561.06
479.439	584.06
479.658	608.06
479.876	573.06
480.095	594.06
480.313	633.06
480.532	634.06
480.751	609.06
480.969	630.06
481.188	623.06
481.406	698.06
481.624	613.06
481.843	570.06
482.061	586.06
482.28	567.06
482.498	555.06
482.717	565.06
482.935	586.06
483.153	589.06
483.372	584.06
483.59	564.06
483.808	566.06
484.027	568.06
484.245	577.06
484.463	583.06
484.681	613.06
484.9	578.06
485.118	573.06
485.336	588.06
485.554	589.06
485.772	580.06
485.99	573.06
486.209	634.06
486.427	603.06
486.645	592.06
486.863	621.06
487.081	622.06
487.299	599.06
487.517	612.06
487.735	626.06
487.953	614.06
488.171	594.06
488.389	613.06
488.607	629.06
488.825	605.06
489.043	626.06
489.261	609.06
489.479	624.06
489.696	623.06
489.914	615.06
490.132	634.06
490.35	634.06
490.568	649.06
490.786	667.06
491.003	644.06
491.221	670.06
491.439	684.06
491.657	675.06
491.874	690.06
492.092	718.06
492.31	704.06
492.527	702.06
492.745	712.06
492.963	724.06
493.18	694.06
493.398	717.06
493.615	710.06
493.833	733.06
494.05	710.06
494.268	682.06
494.485	699.06
494.703	708.06
494.92	701.06
495.138	710.06
495.355	732.06
495.573	712.06
495.79	730.06
496.008	738.06
496.225	717.06
496.442	711.06
496.66	734.06
496.877	738.06
497.094	731.06
497.312	772.06
497.529	760.06
497.746	738.06
497.963	750.06
498.181	785.06
498.398	828.06
498.615	848.06
498.832	853.06
499.049	854.06
499.267	900.06
499.484	932.06
499.701	991.06
499.918	1002.06
500.135	1054.06
500.352	1141.06
500.569	1166.06
500.786	1180.06
501.003	1134.06
501.22	1084.06
501.437	1057.06
501.654	1006.06
501.871	955.06
502.088	908.06
502.305	915.06
502.522	865.06
502.739	827.06
502.956	786.06
503.172	798.06
503.389	760.06
503.606	770.06
503.823	754.06
504.04	765.06
504.256	742.06
504.473	736.06
504.69	733.06
504.907	742.06
505.123	724.06
505.34	710.06
505.557	686.06
505.773	703.06
505.99	687.06
506.207	670.06
506.423	699.06
506.64	699.06
506.856	672.06
507.073	677.06
507.289	676.06
507.506	644.06
507.722	663.06
507.939	661.06
508.155	668.06
508.372	671.06
508.588	652.06
508.805	644.06
509.021	653.06
509.238	642.06
509.454	645.06
509.67	629.06
509.887	637.06
510.103	640.06
510.319	636.06
510.536	700.06
510.752	1058.06
510.968	877.06
511.184	652.06
511.401	628.06
511.617	601.06
511.833	613.06
512.049	600.06
512.265	591.06
512.481	600.06
512.698	614.06
512.914	598.06
513.13	601.06
513.346	609.06
513.562	609.06
513.778	598.06
513.994	596.06
514.21	611.06
514.426	626.06
514.642	646.06
514.858	662.06
515.074	690.06
515.29	788.06
515.506	1051.06
515.721	912.06
515.937	680.06
516.153	625.06
516.369	642.06
516.585	641.06
516.801	640.06
517.016	643.06
517.232	650.06
517.448	655.06
517.664	656.06
517.879	661.06
518.095	641.06
518.311	637.06
518.527	634.06
518.742	610.06
518.958	621.06
519.173	612.06
519.389	608.06
519.605	634.06
519.82	637.06
520.036	610.06
520.251	600.06
520.467	651.06
520.682	654.06
520.898	645.06
521.113	652.06
521.329	658.06
521.544	690.06
521.76	863.06
521.975	1296.06
522.19	1291.06
522.406	809.06
522.621	662.06
522.836	566.06
523.052	573.06
523.267	576.06
523.482	555.06
523.698	523.06
523.913	567.06
524.128	549.06
524.343	552.06
524.559	529.06
524.774	527.06
524.989	504.06
525.204	524.06
525.419	505.06
525.634	510.06
525.849	495.06
526.064	497.06
526.28	493.06
526.495	498.06
526.71	510.06
526.925	516.06
527.14	516.06
527.355	508.06
527.57	496.06
527.785	504.06
527.999	494.06
528.214	493.06
528.429	496.06
528.644	518.06
528.859	511.06
529.074	514.06
529.289	511.06
529.503	575.06
529.718	575.06
529.933	526.06
530.148	513.06
530.363	496.06
530.577	499.06
530.792	493.06
531.007	476.06
531.221	464.06
531.436	500.06
531.651	471.06
531.865	489.06
532.08	477.06
532.295	487.06
532.509	483.06
532.724	489.06
532.938	475.06
533.153	492.06
533.367	468.06
533.582	480.06
533.796	489.06
534.011	489.06
534.225	478.06
534.44	477.06
534.654	468.06
534.868	488.06
535.083	484.06
535.297	479.06
535.511	488.06
535.726	526.06
535.94	486.06
536.154	493.06
536.369	493.06
536.583	458.06
536.797	468.06
537.011	458.06
537.225	449.06
537.44	465.06
537.654	455.06
537.868	487.06
538.082	448.06
538.296	466.06
538.51	449.06
538.724	469.06
538.938	476.06
539.153	463.06
539.367	484.06
539.581	468.06
539.795	448.06
540.009	451.06
540.222	461.06
540.436	491.06
540.65	463.06
540.864	465.06
541.078	466.06
541.292	476.06
541.506	470.06
541.72	458.06
541.934	469.06
542.147	457.06
542.361	460.06
542.575	483.06
542.789	476.06
543.002	463.06
543.216	454.06
543.43	462.06
543.644	452.06
543.857	465.06
544.071	459.06
544.285	461.06
544.498	458.06
544.712	451.06
544.925	470.06
545.139	457.06
545.352	461.06
545.566	463.06
545.779	450.06
545.993	461.06
546.206	474.06
546.42	476.06
546.633	466.06
546.847	478.06
547.06	458.06
547.274	444.06
547.487	448.06
547.7	472.06
547.914	440.06
548.127	449.06
548.34	434.06
548.554	438.06
548.767	444.06
548.98	470.06
549.193	461.06
549.407	453.06
549.62	458.06
549.833	456.06
550.046	437.06
550.259	468.06
550.473	461.06
550.686	448.06
550.899	441.06
551.112	429.06
551.325	442.06
551.538	446.06
551.751	455.06
551.964	455.06
552.177	436.06
552.39	446.06
552.603	461.06
552.816	459.06
553.029	457.06
553.242	472.06
553.455	477.06
553.667	478.06
553.88	492.06
554.093	471.06
554.306	440.06
554.519	463.06
554.732	449.06
554.944	452.06
555.157	445.06
555.37	440.06
555.583	427.06
555.795	428.06
556.008	399.06
556.221	404.06
556.433	413.06
556.646	397.06
556.859	421.06
557.071	391.06
557.284	400.06
557.496	392.06
557.709	411.06
557.921	408.06
558.134	384.06
558.346	408.06
558.559	387.06
558.771	403.06
558.984	385.06
559.196	386.06
559.409	390.06
559.621	412.06
559.833	386.06
560.046	409.06
560.258	398.06
560.47	428.06
560.683	384.06
560.895	385.06
561.107	403.06
561.32	402.06
561.532	402.06
561.744	402.06
561.956	398.06
562.168	403.06
562.381	413.06
562.593	401.06
562.805	421.06
563.017	403.06
563.229	390.06
563.441	408.06
563.653	397.06
563.865	416.06
564.077	406.06
564.289	411.06
564.501	423.06
564.713	415.06
564.925	442.06
565.137	431.06
565.349	442.06
565.561	466.06
565.773	445.06
565.985	444.06
566.197	483.06
566.408	470.06
566.62	518.06
566.832	534.06
567.044	523.06
567.255	525.06
567.467	549.06
567.679	526.06
567.891	576.06
568.102	555.06
568.314	551.06
568.526	502.06
568.737	525.06
568.949	476.06
569.161	462.06
569.372	440.06
569.584	421.06
569.795	448.06
570.007	402.06
570.218	433.06
570.43	438.06
570.641	406.06
570.853	417.06
571.064	408.06
571.276	407.06
571.487	413.06
571.698	381.06
571.91	375.06
572.121	380.06
572.333	384.06
572.544	374.06
572.755	355.06
572.966	361.06
573.178	360.06
573.389	364.06
573.6	349.06
573.811	359.06
574.023	347.06
574.234	344.06
574.445	340.06
574.656	337.06
574.867	352.06
575.078	340.06
575.289	344.06
575.501	328.06
575.712	336.06
575.923	336.06
576.134	339.06
576.345	353.06
576.556	336.06
576.767	342.06
576.978	351.06
577.188	353.06
577.399	341.06
577.61	306.06
577.821	332.06
578.032	323.06
578.243	367.06
578.454	499.06
578.665	390.06
578.875	354.06
579.086	319.06
579.297	331.06
579.508	312.06
579.718	325.06
579.929	312.06
580.14	322.06
580.35	329.06
580.561	318.06
580.772	326.06
580.982	317.06
581.193	319.06
581.403	307.06
581.614	317.06
581.825	310.06
582.035	312.06
582.246	305.06
582.456	324.06
582.667	314.06
582.877	321.06
583.087	301.06
583.298	301.06
583.508	305.06
583.719	312.06
583.929	316.06
584.139	303.06
584.35	308.06
584.56	314.06
584.77	291.06
584.981	308.06
585.191	322.06
585.401	296.06
585.611	332.06
585.821	301.06
586.032	296.06
586.242	303.06
586.452	299.06
586.662	300.06
586.872	316.06
587.082	302.06
587.292	303.06
587.502	299.06
587.713	290.06
587.923	284.06
588.133	300.06
588.343	298.06
588.553	308.06
588.762	311.06
588.972	301.06
589.182	317.06
589.392	298.06
589.602	308.06
589.812	296.06
590.022	324.06
590.232	314.06
590.441	304.06
590.651	308.06
590.861	298.06
591.071	304.06
591.281	303.06
591.49	313.06
591.7	316.06
591.91	294.06
592.119	303.06
592.329	299.06
592.539	322.06
592.748	332.06
592.958	316.06
593.167	316.06
593.377	340.06
593.587	359.06
593.796	343.06
594.006	322.06
594.215	331.06
594.424	344.06
594.634	324.06
594.843	325.06
595.053	302.06
595.262	321.06
595.472	326.06
595.681	314.06
595.89	293.06
596.1	284.06
596.309	285.06
596.518	296.06
596.727	302.06
596.937	281.06
597.146	298.06
597.355	294.06
597.564	283.06
597.774	282.06
597.983	280.06
598.192	286.06
598.401	275.06
598.61	265.06
598.819	281.06
599.028	287.06
599.237	268.06
599.446	279.06
599.655	285.06
599.864	276.06
600.073	266.06
600.282	272.06
600.491	263.06
600.7	255.06
600.909	273.06
601.118	260.06
601.327	271.06
601.536	287.06
601.745	260.06
601.953	286.06
602.162	268.06
602.371	264.06
602.58	256.06
602.789	260.06
602.997	282.06
603.206	255.06
603.415	261.06
603.623	258.06
603.832	262.06
604.041	251.06
604.249	255.06
604.458	264.06
604.666	261.06
604.875	241.06
605.084	231.06
605.292	254.06
605.501	263.06
605.709	254.06
605.918	258.06
606.126	258.06
606.334	270.06
606.543	257.06
606.751	245.06
606.96	251.06
607.168	260.06
607.376	243.06
607.585	256.06
607.793	244.06
608.001	245.06
608.21	262.06
608.418	244.06
608.626	242.06
608.834	246.06
609.043	265.06
609.251	248.06
609.459	237.06
609.667	246.06
609.875	247.06
610.083	256.06
610.291	246.06
610.499	236.06
610.707	249.06
610.916	244.06
611.124	250.06
611.332	252.06
611.54	253.06
611.748	262.06
611.955	260.06
612.163	257.06
612.371	251.06
612.579	260.06
612.787	227.06
612.995	269.06
613.203	248.06
613.411	233.06
613.618	212.06
613.826	252.06
614.034	250.06
614.242	246.06
614.449	251.06
614.657	226.06
614.865	247.06
615.072	246.06
615.28	238.06
615.488	230.06
615.695	244.06
615.903	257.06
616.111	270.06
616.318	239.06
616.526	226.06
616.733	241.06
616.941	238.06
617.148	247.06
617.356	240.06
617.563	265.06
617.771	251.06
617.978	229.06
618.185	235.06
618.393	244.06
618.6	248.06
618.807	250.06
619.015	248.06
619.222	244.06
619.429	233.06
619.637	247.06
619.844	236.06
620.051	244.06
620.258	231.06
620.466	220.06
620.673	223.06
620.88	220.06
621.087	217.06
621.294	216.06
621.501	226.06
621.708	228.06
621.915	234.06
622.122	224.06
622.329	244.06
622.536	239.06
622.743	229.06
622.95	229.06
623.157	218.06
623.364	222.06
623.571	225.06
623.778	256.06
623.985	221.06
624.192	217.06
624.399	223.06
624.606	237.06
624.812	231.06
625.019	212.06
625.226	223.06
625.433	218.06
625.639	218.06
625.846	205.06
626.053	233.06
626.259	208.06
626.466	212.06
626.673	204.06
626.879	208.06
627.086	206.06
627.293	216.06
627.499	204.06
627.706	190.06
627.912	207.06
628.119	225.06
628.325	204.06
628.532	206.06
628.738	212.06
628.945	215.06
629.151	192.06
629.357	203.06
629.564	212.06
629.77	201.06
629.976	191.06
630.183	193.06
630.389	203.06
630.595	201.06
630.802	205.06
631.008	188.06
631.214	205.06
631.42	210.06
631.627	193.06
631.833	201.06
632.039	215.06
632.245	202.06
632.451	198.06
632.657	200.06
632.863	201.06
633.069	202.06
633.275	193.06
633.481	209.06
633.688	205.06
633.893	202.06
634.099	175.06
634.305	188.06
634.511	193.06
634.717	198.06
634.923	198.06
635.129	166.06
635.335	192.06
635.541	196.06
635.747	189.06
635.952	181.06
636.158	181.06
636.364	194.06
636.57	198.06
636.775	205.06
636.981	204.06
637.187	184.06
637.392	187.06
637.598	188.06
637.804	189.06
638.009	193.06
638.215	180.06
638.421	190.06
638.626	176.06
638.832	182.06
639.037	191.06
639.243	184.06
639.448	186.06
639.654	195.06
639.859	189.06
640.065	155.06
640.27	183.06
640.475	188.06
640.681	172.06
640.886	167.06
641.091	178.06
641.297	187.06
641.502	154.06
641.707	176.06
641.913	184.06
642.118	176.06
642.323	180.06
642.528	176.06
642.733	164.06
642.939	169.06
643.144	191.06
643.349	190.06
643.554	185.06
643.759	177.06
643.964	167.06
644.169	177.06
644.374	162.06
644.579	171.06
644.784	179.06
644.989	170.06
645.194	172.06
645.399	162.06
645.604	177.06
645.809	172.06
646.014	182.06
646.219	172.06
646.423	160.06
646.628	173.06
646.833	170.06
647.038	164.06
647.243	168.06
647.447	158.06
647.652	173.06
647.857	159.06
648.062	177.06
648.266	158.06
648.471	184.06
648.676	173.06
648.88	180.06
649.085	183.06
649.289	166.06
649.494	178.06
649.698	190.06
649.903	178.06
650.107	168.06
650.312	149.06
650.516	163.06
650.721	157.06
650.925	152.06
651.13	161.06
651.334	167.06
651.539	152.06
651.743	165.06
651.947	144.06
652.152	151.06
652.356	153.06
652.56	152.06
652.764	146.06
652.969	152.06
653.173	152.06
653.377	147.06
653.581	142.06
653.785	140.06
653.99	144.06
654.194	136.06
654.398	160.06
654.602	140.06
654.806	139.06
655.01	151.06
655.214	149.06
655.418	156.06
655.622	130.06
655.826	145.06
656.03	136.06
656.234	156.06
656.438	144.06
656.642	141.06
656.846	153.06
657.049	143.06
657.253	154.06
657.457	122.06
657.661	121.06
657.865	138.06
658.068	120.06
658.272	110.06
658.476	119.06
658.68	101.06
658.883	113.06
659.087	116.06
659.291	127.06
659.494	110.06
659.698	90.06
659.901	88.06
660.105	106.06
660.309	102.06
660.512	100.06
660.716	95.06
660.919	103.06
661.123	104.06
661.326	111.06
661.53	96.06
661.733	93.06
661.936	92.06
662.14	75.06
662.343	79.06
662.546	83.06
662.75	103.06
662.953	92.06
663.156	91.06
663.36	88.06
663.563	91.06
663.766	98.06
663.969	92.06
664.173	72.06
664.376	71.06
664.579	103.06
664.782	91.06
664.985	80.06
665.188	87.06
665.391	91.06
665.594	83.06
665.797	75.06
666	87.06
666.203	80.06
666.406	79.06
666.609	82.06
666.812	97.06
667.015	89.06
667.218	92.06
667.421	83.06
667.624	90.06
667.827	81.06
668.03	82.06
668.232	91.06
668.435	96.06
668.638	97.06
668.841	85.06
669.043	92.06
669.246	80.06
669.449	81.06
669.651	87.06
669.854	81.06
670.057	81.06
670.259	80.06
670.462	94.06
670.665	92.06
670.867	73.06
671.07	83.06
671.272	90.06
671.475	95.06
671.677	87.06
671.88	91.06
672.082	89.06
672.284	82.06
672.487	72.06
672.689	99.06
672.892	88.06
