Data from 1976.PennyLincolnUp.Lamp.En5.5.200Scan.071719.P1.Changed Mount._HRD10591_16-01-06-860.txt Node
Date: Thu Jul 18 16:01:06 EDT 2019
User: cochatt
Spectrometer: HR+D1059
Trigger mode: 1
Integration Time (sec): 1.000000E-1
Scans to average: 1
Electric dark correction enabled: true
Nonlinearity correction enabled: false
Boxcar width: 0
XAxis mode: Wavelengths
Number of Pixels in Spectrum: 2048
>>>>>Begin Spectral Data<<<<<
223.165	-16.12
223.4	-16.12
223.635	-16.12
223.869	-19.12
224.104	-22.12
224.338	-5.12
224.573	-10.12
224.808	-20.12
225.042	-8.12
225.277	3.88
225.511	4.88
225.746	-3.12
225.98	5.88
226.215	-3.12
226.449	20.88
226.683	20.88
226.918	23.88
227.152	26.88
227.387	28.88
227.621	34.88
227.856	48.88
228.09	55.88
228.324	53.88
228.559	49.88
228.793	55.88
229.027	104.88
229.262	105.88
229.496	96.88
229.73	124.88
229.964	138.88
230.199	119.88
230.433	125.88
230.667	110.88
230.901	113.88
231.136	101.88
231.37	109.88
231.604	123.88
231.838	112.88
232.072	103.88
232.306	117.88
232.541	114.88
232.775	104.88
233.009	112.88
233.243	121.88
233.477	132.88
233.711	121.88
233.945	106.88
234.179	112.88
234.413	116.88
234.647	116.88
234.881	112.88
235.115	116.88
235.349	117.88
235.583	110.88
235.817	114.88
236.051	122.88
236.285	130.88
236.519	116.88
236.753	120.88
236.987	136.88
237.221	164.88
237.455	228.88
237.689	184.88
237.922	130.88
238.156	128.88
238.39	139.88
238.624	124.88
238.858	136.88
239.091	122.88
239.325	122.88
239.559	135.88
239.793	136.88
240.027	120.88
240.26	145.88
240.494	156.88
240.728	147.88
240.961	139.88
241.195	149.88
241.429	142.88
241.662	129.88
241.896	132.88
242.13	135.88
242.363	125.88
242.597	134.88
242.83	126.88
243.064	143.88
243.298	143.88
243.531	142.88
243.765	154.88
243.998	128.88
244.232	132.88
244.465	135.88
244.699	139.88
244.932	133.88
245.166	154.88
245.399	146.88
245.633	140.88
245.866	142.88
246.099	136.88
246.333	160.88
246.566	156.88
246.8	146.88
247.033	133.88
247.266	153.88
247.5	170.88
247.733	172.88
247.966	168.88
248.2	149.88
248.433	178.88
248.666	178.88
248.899	177.88
249.133	196.88
249.366	210.88
249.599	184.88
249.832	194.88
250.066	179.88
250.299	174.88
250.532	173.88
250.765	189.88
250.998	218.88
251.231	233.88
251.465	203.88
251.698	214.88
251.931	194.88
252.164	200.88
252.397	190.88
252.63	218.88
252.863	217.88
253.096	209.88
253.329	217.88
253.562	219.88
253.795	233.88
254.028	222.88
254.261	212.88
254.494	218.88
254.727	234.88
254.96	270.88
255.193	265.88
255.426	244.88
255.659	227.88
255.892	237.88
256.124	232.88
256.357	212.88
256.59	217.88
256.823	216.88
257.056	196.88
257.289	205.88
257.521	204.88
257.754	220.88
257.987	210.88
258.22	209.88
258.452	217.88
258.685	221.88
258.918	195.88
259.151	211.88
259.383	229.88
259.616	232.88
259.849	235.88
260.081	246.88
260.314	238.88
260.547	269.88
260.779	245.88
261.012	230.88
261.244	229.88
261.477	233.88
261.71	235.88
261.942	235.88
262.175	232.88
262.407	238.88
262.64	220.88
262.872	217.88
263.105	219.88
263.337	215.88
263.57	221.88
263.802	214.88
264.035	208.88
264.267	196.88
264.499	225.88
264.732	220.88
264.964	212.88
265.197	211.88
265.429	215.88
265.661	215.88
265.894	223.88
266.126	220.88
266.358	212.88
266.591	219.88
266.823	235.88
267.055	234.88
267.287	243.88
267.52	242.88
267.752	249.88
267.984	231.88
268.216	213.88
268.448	244.88
268.681	250.88
268.913	242.88
269.145	267.88
269.377	285.88
269.609	275.88
269.841	269.88
270.073	267.88
270.306	290.88
270.538	313.88
270.77	312.88
271.002	298.88
271.234	279.88
271.466	298.88
271.698	302.88
271.93	313.88
272.162	311.88
272.394	313.88
272.626	334.88
272.858	276.88
273.09	290.88
273.322	287.88
273.553	266.88
273.785	266.88
274.017	279.88
274.249	275.88
274.481	283.88
274.713	267.88
274.945	275.88
275.176	281.88
275.408	270.88
275.64	276.88
275.872	273.88
276.104	279.88
276.335	279.88
276.567	284.88
276.799	279.88
277.031	293.88
277.262	307.88
277.494	318.88
277.726	296.88
277.957	285.88
278.189	274.88
278.421	274.88
278.652	278.88
278.884	272.88
279.115	265.88
279.347	279.88
279.579	272.88
279.81	278.88
280.042	254.88
280.273	264.88
280.505	295.88
280.736	274.88
280.968	263.88
281.199	283.88
281.431	291.88
281.662	285.88
281.894	270.88
282.125	276.88
282.356	291.88
282.588	309.88
282.819	298.88
283.051	279.88
283.282	278.88
283.513	291.88
283.745	294.88
283.976	290.88
284.207	292.88
284.439	300.88
284.67	294.88
284.901	294.88
285.132	302.88
285.364	304.88
285.595	277.88
285.826	278.88
286.057	292.88
286.288	290.88
286.52	295.88
286.751	281.88
286.982	297.88
287.213	297.88
287.444	306.88
287.675	302.88
287.906	318.88
288.138	304.88
288.369	316.88
288.6	312.88
288.831	308.88
289.062	306.88
289.293	296.88
289.524	320.88
289.755	326.88
289.986	286.88
290.217	307.88
290.448	288.88
290.679	324.88
290.91	304.88
291.141	303.88
291.371	305.88
291.602	283.88
291.833	306.88
292.064	312.88
292.295	311.88
292.526	310.88
292.757	326.88
292.987	306.88
293.218	318.88
293.449	315.88
293.68	322.88
293.91	318.88
294.141	299.88
294.372	287.88
294.603	315.88
294.833	310.88
295.064	310.88
295.295	299.88
295.525	311.88
295.756	292.88
295.987	318.88
296.217	329.88
296.448	341.88
296.679	304.88
296.909	313.88
297.14	325.88
297.37	309.88
297.601	334.88
297.831	301.88
298.062	322.88
298.292	315.88
298.523	308.88
298.753	302.88
298.984	309.88
299.214	323.88
299.445	320.88
299.675	329.88
299.905	337.88
300.136	324.88
300.366	327.88
300.597	329.88
300.827	337.88
301.057	310.88
301.288	344.88
301.518	343.88
301.748	355.88
301.979	347.88
302.209	341.88
302.439	324.88
302.669	360.88
302.9	365.88
303.13	349.88
303.36	349.88
303.59	340.88
303.82	357.88
304.051	362.88
304.281	336.88
304.511	328.88
304.741	351.88
304.971	340.88
305.201	331.88
305.431	349.88
305.661	350.88
305.891	338.88
306.121	342.88
306.352	360.88
306.582	354.88
306.812	337.88
307.042	329.88
307.272	342.88
307.502	355.88
307.731	351.88
307.961	331.88
308.191	354.88
308.421	345.88
308.651	338.88
308.881	348.88
309.111	346.88
309.341	355.88
309.571	375.88
309.8	384.88
310.03	384.88
310.26	370.88
310.49	373.88
310.72	379.88
310.949	413.88
311.179	399.88
311.409	378.88
311.639	376.88
311.868	372.88
312.098	383.88
312.328	404.88
312.557	392.88
312.787	412.88
313.017	406.88
313.246	396.88
313.476	384.88
313.706	380.88
313.935	398.88
314.165	398.88
314.394	405.88
314.624	399.88
314.853	386.88
315.083	382.88
315.312	391.88
315.542	369.88
315.771	386.88
316.001	383.88
316.23	366.88
316.46	378.88
316.689	376.88
316.919	391.88
317.148	380.88
317.377	384.88
317.607	397.88
317.836	380.88
318.065	370.88
318.295	392.88
318.524	378.88
318.753	399.88
318.983	398.88
319.212	387.88
319.441	387.88
319.67	385.88
319.9	390.88
320.129	387.88
320.358	388.88
320.587	384.88
320.816	421.88
321.046	402.88
321.275	427.88
321.504	427.88
321.733	384.88
321.962	412.88
322.191	404.88
322.42	434.88
322.649	433.88
322.878	461.88
323.108	438.88
323.337	475.88
323.566	490.88
323.795	501.88
324.024	516.88
324.253	613.88
324.482	869.88
324.71	1261.88
324.939	1908.88
325.168	1684.88
325.397	840.88
325.626	585.88
325.855	522.88
326.084	485.88
326.313	459.88
326.542	500.88
326.77	525.88
326.999	592.88
327.228	775.88
327.457	1162.88
327.686	1424.88
327.914	952.88
328.143	609.88
328.372	566.88
328.6	516.88
328.829	536.88
329.058	537.88
329.287	576.88
329.515	509.88
329.744	488.88
329.972	493.88
330.201	485.88
330.43	546.88
330.658	582.88
330.887	561.88
331.115	580.88
331.344	493.88
331.572	462.88
331.801	500.88
332.03	498.88
332.258	465.88
332.486	477.88
332.715	449.88
332.943	462.88
333.172	477.88
333.4	496.88
333.629	481.88
333.857	491.88
334.085	512.88
334.314	546.88
334.542	519.88
334.771	544.88
334.999	530.88
335.227	480.88
335.455	474.88
335.684	484.88
335.912	454.88
336.14	460.88
336.369	437.88
336.597	472.88
336.825	439.88
337.053	470.88
337.281	460.88
337.51	448.88
337.738	463.88
337.966	469.88
338.194	460.88
338.422	445.88
338.65	441.88
338.878	446.88
339.106	435.88
339.334	434.88
339.562	442.88
339.79	444.88
340.018	421.88
340.246	453.88
340.474	444.88
340.702	424.88
340.93	440.88
341.158	433.88
341.386	419.88
341.614	444.88
341.842	436.88
342.07	440.88
342.298	460.88
342.526	434.88
342.754	442.88
342.981	412.88
343.209	422.88
343.437	442.88
343.665	440.88
343.893	450.88
344.12	458.88
344.348	467.88
344.576	457.88
344.804	447.88
345.031	461.88
345.259	452.88
345.487	433.88
345.714	447.88
345.942	425.88
346.17	432.88
346.397	414.88
346.625	436.88
346.853	428.88
347.08	418.88
347.308	433.88
347.535	435.88
347.763	413.88
347.99	411.88
348.218	424.88
348.445	421.88
348.673	426.88
348.9	443.88
349.128	437.88
349.355	395.88
349.583	419.88
349.81	418.88
350.037	425.88
350.265	418.88
350.492	402.88
350.72	381.88
350.947	402.88
351.174	428.88
351.402	439.88
351.629	431.88
351.856	382.88
352.083	433.88
352.311	429.88
352.538	419.88
352.765	445.88
352.992	437.88
353.22	403.88
353.447	413.88
353.674	404.88
353.901	418.88
354.128	416.88
354.355	390.88
354.583	416.88
354.81	398.88
355.037	394.88
355.264	397.88
355.491	401.88
355.718	412.88
355.945	394.88
356.172	402.88
356.399	385.88
356.626	399.88
356.853	401.88
357.08	397.88
357.307	393.88
357.534	406.88
357.761	392.88
357.988	412.88
358.215	401.88
358.441	416.88
358.668	391.88
358.895	407.88
359.122	400.88
359.349	426.88
359.576	420.88
359.802	431.88
360.029	465.88
360.256	455.88
360.483	453.88
360.709	427.88
360.936	436.88
361.163	422.88
361.39	395.88
361.616	413.88
361.843	406.88
362.07	417.88
362.296	412.88
362.523	406.88
362.749	411.88
362.976	423.88
363.203	413.88
363.429	402.88
363.656	402.88
363.882	396.88
364.109	414.88
364.335	409.88
364.562	408.88
364.788	404.88
365.015	376.88
365.241	407.88
365.468	435.88
365.694	414.88
365.92	417.88
366.147	412.88
366.373	400.88
366.599	405.88
366.826	411.88
367.052	408.88
367.278	399.88
367.505	382.88
367.731	406.88
367.957	410.88
368.184	420.88
368.41	404.88
368.636	419.88
368.862	414.88
369.089	425.88
369.315	410.88
369.541	436.88
369.767	426.88
369.993	409.88
370.219	422.88
370.445	413.88
370.672	413.88
370.898	413.88
371.124	417.88
371.35	418.88
371.576	420.88
371.802	397.88
372.028	421.88
372.254	427.88
372.48	410.88
372.706	405.88
372.932	429.88
373.158	411.88
373.384	409.88
373.61	408.88
373.835	411.88
374.061	425.88
374.287	415.88
374.513	411.88
374.739	428.88
374.965	428.88
375.191	448.88
375.416	430.88
375.642	403.88
375.868	418.88
376.094	396.88
376.319	415.88
376.545	418.88
376.771	408.88
376.997	399.88
377.222	427.88
377.448	390.88
377.674	403.88
377.899	420.88
378.125	419.88
378.35	397.88
378.576	411.88
378.802	408.88
379.027	408.88
379.253	381.88
379.478	412.88
379.704	409.88
379.929	402.88
380.155	425.88
380.38	393.88
380.606	422.88
380.831	417.88
381.057	421.88
381.282	426.88
381.507	427.88
381.733	413.88
381.958	427.88
382.184	419.88
382.409	445.88
382.634	444.88
382.86	420.88
383.085	445.88
383.31	429.88
383.535	443.88
383.761	438.88
383.986	440.88
384.211	457.88
384.436	471.88
384.662	426.88
384.887	443.88
385.112	445.88
385.337	441.88
385.562	457.88
385.787	448.88
386.013	462.88
386.238	477.88
386.463	460.88
386.688	442.88
386.913	458.88
387.138	444.88
387.363	465.88
387.588	455.88
387.813	465.88
388.038	444.88
388.263	457.88
388.488	473.88
388.713	465.88
388.938	457.88
389.163	469.88
389.387	485.88
389.612	445.88
389.837	445.88
390.062	478.88
390.287	466.88
390.512	454.88
390.736	472.88
390.961	474.88
391.186	439.88
391.411	460.88
391.636	477.88
391.86	475.88
392.085	485.88
392.31	472.88
392.534	476.88
392.759	486.88
392.984	475.88
393.208	466.88
393.433	463.88
393.658	467.88
393.882	467.88
394.107	436.88
394.331	452.88
394.556	456.88
394.78	461.88
395.005	456.88
395.229	462.88
395.454	483.88
395.678	500.88
395.903	504.88
396.127	493.88
396.352	516.88
396.576	467.88
396.801	463.88
397.025	476.88
397.249	465.88
397.474	477.88
397.698	496.88
397.922	485.88
398.147	540.88
398.371	529.88
398.595	521.88
398.82	515.88
399.044	555.88
399.268	546.88
399.492	617.88
399.717	620.88
399.941	649.88
400.165	662.88
400.389	663.88
400.613	609.88
400.837	564.88
401.062	553.88
401.286	560.88
401.51	520.88
401.734	543.88
401.958	530.88
402.182	533.88
402.406	553.88
402.63	528.88
402.854	527.88
403.078	573.88
403.302	551.88
403.526	547.88
403.75	549.88
403.974	563.88
404.198	558.88
404.422	556.88
404.645	557.88
404.869	567.88
405.093	568.88
405.317	635.88
405.541	667.88
405.765	603.88
405.988	576.88
406.212	584.88
406.436	605.88
406.66	614.88
406.883	590.88
407.107	623.88
407.331	650.88
407.555	736.88
407.778	704.88
408.002	665.88
408.226	630.88
408.449	619.88
408.673	605.88
408.896	618.88
409.12	674.88
409.344	633.88
409.567	580.88
409.791	566.88
410.014	550.88
410.238	547.88
410.461	556.88
410.685	554.88
410.908	592.88
411.132	581.88
411.355	630.88
411.578	595.88
411.802	568.88
412.025	568.88
412.249	563.88
412.472	589.88
412.695	593.88
412.919	601.88
413.142	559.88
413.365	533.88
413.589	540.88
413.812	531.88
414.035	515.88
414.258	527.88
414.482	523.88
414.705	536.88
414.928	528.88
415.151	533.88
415.374	521.88
415.597	524.88
415.821	523.88
416.044	520.88
416.267	527.88
416.49	526.88
416.713	526.88
416.936	521.88
417.159	510.88
417.382	511.88
417.605	519.88
417.828	511.88
418.051	557.88
418.274	545.88
418.497	534.88
418.72	524.88
418.943	528.88
419.166	532.88
419.389	577.88
419.611	580.88
419.834	572.88
420.057	567.88
420.28	580.88
420.503	530.88
420.726	561.88
420.948	552.88
421.171	585.88
421.394	612.88
421.617	585.88
421.839	550.88
422.062	544.88
422.285	540.88
422.507	604.88
422.73	684.88
422.953	665.88
423.175	592.88
423.398	572.88
423.621	587.88
423.843	588.88
424.066	589.88
424.288	563.88
424.511	584.88
424.733	634.88
424.956	743.88
425.178	697.88
425.401	689.88
425.623	702.88
425.846	612.88
426.068	576.88
426.291	570.88
426.513	569.88
426.735	557.88
426.958	614.88
427.18	676.88
427.402	818.88
427.625	918.88
427.847	733.88
428.069	660.88
428.292	584.88
428.514	571.88
428.736	552.88
428.958	540.88
429.181	518.88
429.403	544.88
429.625	530.88
429.847	584.88
430.069	633.88
430.292	631.88
430.514	527.88
430.736	543.88
430.958	501.88
431.18	514.88
431.402	516.88
431.624	491.88
431.846	493.88
432.068	490.88
432.29	504.88
432.512	488.88
432.734	526.88
432.956	523.88
433.178	539.88
433.4	500.88
433.622	524.88
433.844	493.88
434.066	496.88
434.287	496.88
434.509	539.88
434.731	532.88
434.953	539.88
435.175	568.88
435.397	562.88
435.618	595.88
435.84	598.88
436.062	748.88
436.284	770.88
436.505	648.88
436.727	578.88
436.949	539.88
437.17	541.88
437.392	517.88
437.614	553.88
437.835	557.88
438.057	641.88
438.278	756.88
438.5	780.88
438.721	847.88
438.943	800.88
439.165	644.88
439.386	578.88
439.608	571.88
439.829	567.88
440.05	576.88
440.272	633.88
440.493	598.88
440.715	544.88
440.936	550.88
441.158	524.88
441.379	535.88
441.6	545.88
441.822	596.88
442.043	616.88
442.264	681.88
442.486	729.88
442.707	639.88
442.928	590.88
443.149	573.88
443.371	610.88
443.592	643.88
443.813	732.88
444.034	811.88
444.255	670.88
444.476	599.88
444.698	596.88
444.919	620.88
445.14	721.88
445.361	656.88
445.582	618.88
445.803	672.88
446.024	735.88
446.245	762.88
446.466	704.88
446.687	588.88
446.908	586.88
447.129	534.88
447.35	526.88
447.571	514.88
447.792	515.88
448.013	538.88
448.234	528.88
448.455	571.88
448.675	688.88
448.896	835.88
449.117	691.88
449.338	628.88
449.559	746.88
449.779	863.88
450	705.88
450.221	537.88
450.442	538.88
450.662	525.88
450.883	491.88
451.104	503.88
451.324	519.88
451.545	476.88
451.766	485.88
451.986	462.88
452.207	462.88
452.428	440.88
452.648	483.88
452.869	484.88
453.089	483.88
453.31	466.88
453.53	443.88
453.751	478.88
453.971	469.88
454.192	493.88
454.412	465.88
454.633	453.88
454.853	438.88
455.073	471.88
455.294	470.88
455.514	549.88
455.734	533.88
455.955	474.88
456.175	456.88
456.395	439.88
456.616	442.88
456.836	449.88
457.056	438.88
457.276	425.88
457.497	448.88
457.717	444.88
457.937	425.88
458.157	450.88
458.377	457.88
458.598	456.88
458.818	514.88
459.038	593.88
459.258	632.88
459.478	550.88
459.698	523.88
459.918	479.88
460.138	501.88
460.358	512.88
460.578	484.88
460.798	538.88
461.018	535.88
461.238	525.88
461.458	503.88
461.678	509.88
461.898	530.88
462.118	523.88
462.338	544.88
462.558	549.88
462.777	535.88
462.997	573.88
463.217	568.88
463.437	576.88
463.657	578.88
463.876	563.88
464.096	558.88
464.316	579.88
464.536	552.88
464.755	534.88
464.975	564.88
465.195	581.88
465.414	615.88
465.634	553.88
465.854	523.88
466.073	522.88
466.293	502.88
466.512	507.88
466.732	480.88
466.951	501.88
467.171	477.88
467.391	475.88
467.61	485.88
467.829	522.88
468.049	477.88
468.268	492.88
468.488	465.88
468.707	469.88
468.927	458.88
469.146	468.88
469.365	473.88
469.585	447.88
469.804	480.88
470.023	484.88
470.243	494.88
470.462	494.88
470.681	520.88
470.901	522.88
471.12	489.88
471.339	492.88
471.558	488.88
471.777	481.88
471.997	457.88
472.216	481.88
472.435	506.88
472.654	509.88
472.873	484.88
473.092	480.88
473.311	465.88
473.53	471.88
473.749	492.88
473.968	527.88
474.187	602.88
474.406	645.88
474.625	532.88
474.844	523.88
475.063	503.88
475.282	497.88
475.501	471.88
475.72	488.88
475.939	484.88
476.158	489.88
476.377	496.88
476.596	486.88
476.814	525.88
477.033	512.88
477.252	516.88
477.471	508.88
477.69	525.88
477.908	529.88
478.127	515.88
478.346	533.88
478.564	533.88
478.783	551.88
479.002	560.88
479.22	538.88
479.439	569.88
479.658	567.88
479.876	581.88
480.095	578.88
480.313	638.88
480.532	642.88
480.751	612.88
480.969	624.88
481.188	642.88
481.406	648.88
481.624	601.88
481.843	596.88
482.061	592.88
482.28	574.88
482.498	589.88
482.717	557.88
482.935	567.88
483.153	560.88
483.372	569.88
483.59	547.88
483.808	561.88
484.027	542.88
484.245	583.88
484.463	587.88
484.681	589.88
484.9	557.88
485.118	581.88
485.336	595.88
485.554	593.88
485.772	583.88
485.99	589.88
486.209	588.88
486.427	605.88
486.645	601.88
486.863	618.88
487.081	614.88
487.299	588.88
487.517	600.88
487.735	621.88
487.953	590.88
488.171	602.88
488.389	581.88
488.607	604.88
488.825	616.88
489.043	605.88
489.261	600.88
489.479	634.88
489.696	628.88
489.914	620.88
490.132	630.88
490.35	648.88
490.568	641.88
490.786	680.88
491.003	669.88
491.221	683.88
491.439	690.88
491.657	683.88
491.874	684.88
492.092	693.88
492.31	674.88
492.527	694.88
492.745	704.88
492.963	701.88
493.18	698.88
493.398	703.88
493.615	726.88
493.833	725.88
494.05	696.88
494.268	724.88
494.485	715.88
494.703	721.88
494.92	720.88
495.138	714.88
495.355	726.88
495.573	726.88
495.79	712.88
496.008	716.88
496.225	693.88
496.442	726.88
496.66	715.88
496.877	718.88
497.094	721.88
497.312	729.88
497.529	745.88
497.746	763.88
497.963	744.88
498.181	780.88
498.398	770.88
498.615	813.88
498.832	857.88
499.049	855.88
499.267	869.88
499.484	944.88
499.701	971.88
499.918	986.88
500.135	1050.88
500.352	1122.88
500.569	1137.88
500.786	1144.88
501.003	1102.88
501.22	1049.88
501.437	1006.88
501.654	990.88
501.871	949.88
502.088	925.88
502.305	857.88
502.522	850.88
502.739	837.88
502.956	795.88
503.172	796.88
503.389	761.88
503.606	748.88
503.823	732.88
504.04	735.88
504.256	754.88
504.473	725.88
504.69	720.88
504.907	729.88
505.123	708.88
505.34	721.88
505.557	685.88
505.773	712.88
505.99	669.88
506.207	680.88
506.423	663.88
506.64	670.88
506.856	690.88
507.073	679.88
507.289	660.88
507.506	641.88
507.722	660.88
507.939	686.88
508.155	641.88
508.372	617.88
508.588	616.88
508.805	605.88
509.021	616.88
509.238	650.88
509.454	649.88
509.67	627.88
509.887	628.88
510.103	628.88
510.319	641.88
510.536	689.88
510.752	1066.88
510.968	883.88
511.184	642.88
511.401	590.88
511.617	608.88
511.833	615.88
512.049	609.88
512.265	598.88
512.481	606.88
512.698	591.88
512.914	584.88
513.13	596.88
513.346	599.88
513.562	593.88
513.778	587.88
513.994	608.88
514.21	600.88
514.426	603.88
514.642	628.88
514.858	641.88
515.074	678.88
515.29	779.88
515.506	1008.88
515.721	870.88
515.937	692.88
516.153	641.88
516.369	627.88
516.585	625.88
516.801	611.88
517.016	612.88
517.232	636.88
517.448	624.88
517.664	651.88
517.879	638.88
518.095	634.88
518.311	644.88
518.527	630.88
518.742	604.88
518.958	611.88
519.173	604.88
519.389	584.88
519.605	587.88
519.82	606.88
520.036	620.88
520.251	618.88
520.467	642.88
520.682	610.88
520.898	610.88
521.113	659.88
521.329	664.88
521.544	707.88
521.76	861.88
521.975	1312.88
522.19	1279.88
522.406	780.88
522.621	631.88
522.836	579.88
523.052	570.88
523.267	546.88
523.482	572.88
523.698	532.88
523.913	524.88
524.128	563.88
524.343	522.88
524.559	519.88
524.774	521.88
524.989	524.88
525.204	534.88
525.419	555.88
525.634	520.88
525.849	514.88
526.064	502.88
526.28	505.88
526.495	496.88
526.71	512.88
526.925	512.88
527.14	475.88
527.355	494.88
527.57	473.88
527.785	498.88
527.999	485.88
528.214	504.88
528.429	474.88
528.644	505.88
528.859	503.88
529.074	479.88
529.289	512.88
529.503	554.88
529.718	542.88
529.933	522.88
530.148	519.88
530.363	514.88
530.577	503.88
530.792	483.88
531.007	499.88
531.221	493.88
531.436	468.88
531.651	467.88
531.865	469.88
532.08	471.88
532.295	479.88
532.509	469.88
532.724	483.88
532.938	489.88
533.153	474.88
533.367	464.88
533.582	475.88
533.796	478.88
534.011	462.88
534.225	489.88
534.44	463.88
534.654	484.88
534.868	471.88
535.083	486.88
535.297	466.88
535.511	481.88
535.726	483.88
535.94	468.88
536.154	461.88
536.369	474.88
536.583	481.88
536.797	471.88
537.011	451.88
537.225	468.88
537.44	465.88
537.654	453.88
537.868	455.88
538.082	472.88
538.296	476.88
538.51	457.88
538.724	465.88
538.938	484.88
539.153	441.88
539.367	468.88
539.581	461.88
539.795	446.88
540.009	460.88
540.222	474.88
540.436	462.88
540.65	465.88
540.864	476.88
541.078	454.88
541.292	464.88
541.506	462.88
541.72	448.88
541.934	457.88
542.147	466.88
542.361	449.88
542.575	451.88
542.789	469.88
543.002	448.88
543.216	456.88
543.43	457.88
543.644	470.88
543.857	477.88
544.071	468.88
544.285	458.88
544.498	450.88
544.712	476.88
544.925	466.88
545.139	445.88
545.352	462.88
545.566	454.88
545.779	449.88
545.993	473.88
546.206	469.88
546.42	453.88
546.633	438.88
546.847	437.88
547.06	448.88
547.274	454.88
547.487	461.88
547.7	457.88
547.914	427.88
548.127	455.88
548.34	447.88
548.554	460.88
548.767	477.88
548.98	452.88
549.193	427.88
549.407	442.88
549.62	450.88
549.833	465.88
550.046	430.88
550.259	451.88
550.473	446.88
550.686	427.88
550.899	442.88
551.112	426.88
551.325	436.88
551.538	455.88
551.751	415.88
551.964	425.88
552.177	442.88
552.39	454.88
552.603	462.88
552.816	446.88
553.029	454.88
553.242	466.88
553.455	476.88
553.667	444.88
553.88	446.88
554.093	481.88
554.306	446.88
554.519	436.88
554.732	460.88
554.944	449.88
555.157	434.88
555.37	449.88
555.583	426.88
555.795	422.88
556.008	405.88
556.221	425.88
556.433	405.88
556.646	394.88
556.859	427.88
557.071	398.88
557.284	418.88
557.496	410.88
557.709	401.88
557.921	389.88
558.134	403.88
558.346	390.88
558.559	396.88
558.771	401.88
558.984	384.88
559.196	379.88
559.409	384.88
559.621	378.88
559.833	402.88
560.046	362.88
560.258	398.88
560.47	396.88
560.683	393.88
560.895	390.88
561.107	389.88
561.32	372.88
561.532	382.88
561.744	390.88
561.956	378.88
562.168	390.88
562.381	390.88
562.593	406.88
562.805	394.88
563.017	405.88
563.229	406.88
563.441	409.88
563.653	396.88
563.865	394.88
564.077	428.88
564.289	397.88
564.501	426.88
564.713	425.88
564.925	408.88
565.137	445.88
565.349	407.88
565.561	436.88
565.773	424.88
565.985	450.88
566.197	480.88
566.408	486.88
566.62	502.88
566.832	510.88
567.044	509.88
567.255	515.88
567.467	510.88
567.679	538.88
567.891	537.88
568.102	519.88
568.314	556.88
568.526	550.88
568.737	483.88
568.949	463.88
569.161	457.88
569.372	435.88
569.584	420.88
569.795	405.88
570.007	410.88
570.218	432.88
570.43	442.88
570.641	422.88
570.853	404.88
571.064	391.88
571.276	390.88
571.487	383.88
571.698	379.88
571.91	389.88
572.121	391.88
572.333	375.88
572.544	374.88
572.755	361.88
572.966	349.88
573.178	355.88
573.389	348.88
573.6	363.88
573.811	340.88
574.023	350.88
574.234	358.88
574.445	338.88
574.656	345.88
574.867	329.88
575.078	362.88
575.289	343.88
575.501	342.88
575.712	347.88
575.923	345.88
576.134	341.88
576.345	349.88
576.556	343.88
576.767	317.88
576.978	329.88
577.188	338.88
577.399	320.88
577.61	325.88
577.821	338.88
578.032	317.88
578.243	349.88
578.454	504.88
578.665	382.88
578.875	359.88
579.086	331.88
579.297	332.88
579.508	337.88
579.718	324.88
579.929	324.88
580.14	329.88
580.35	325.88
580.561	314.88
580.772	304.88
580.982	313.88
581.193	291.88
581.403	320.88
581.614	328.88
581.825	318.88
582.035	320.88
582.246	299.88
582.456	314.88
582.667	305.88
582.877	310.88
583.087	322.88
583.298	296.88
583.508	321.88
583.719	306.88
583.929	301.88
584.139	319.88
584.35	304.88
584.56	310.88
584.77	297.88
584.981	296.88
585.191	310.88
585.401	320.88
585.611	292.88
585.821	309.88
586.032	305.88
586.242	297.88
586.452	308.88
586.662	302.88
586.872	308.88
587.082	317.88
587.292	299.88
587.502	296.88
587.713	318.88
587.923	287.88
588.133	294.88
588.343	314.88
588.553	276.88
588.762	293.88
588.972	286.88
589.182	309.88
589.392	295.88
589.602	296.88
589.812	296.88
590.022	296.88
590.232	309.88
590.441	301.88
590.651	306.88
590.861	300.88
591.071	308.88
591.281	293.88
591.49	283.88
591.7	310.88
591.91	314.88
592.119	308.88
592.329	328.88
592.539	329.88
592.748	310.88
592.958	315.88
593.167	346.88
593.377	322.88
593.587	332.88
593.796	338.88
594.006	329.88
594.215	344.88
594.424	340.88
594.634	333.88
594.843	316.88
595.053	335.88
595.262	325.88
595.472	326.88
595.681	296.88
595.89	296.88
596.1	291.88
596.309	292.88
596.518	296.88
596.727	282.88
596.937	293.88
597.146	285.88
597.355	268.88
597.564	274.88
597.774	278.88
597.983	280.88
598.192	268.88
598.401	273.88
598.61	269.88
598.819	299.88
599.028	255.88
599.237	271.88
599.446	240.88
599.655	288.88
599.864	278.88
600.073	290.88
600.282	252.88
600.491	273.88
600.7	269.88
600.909	247.88
601.118	270.88
601.327	269.88
601.536	261.88
601.745	272.88
601.953	268.88
602.162	258.88
602.371	271.88
602.58	254.88
602.789	259.88
602.997	262.88
603.206	267.88
603.415	278.88
603.623	250.88
603.832	253.88
604.041	252.88
604.249	245.88
604.458	244.88
604.666	256.88
604.875	255.88
605.084	264.88
605.292	247.88
605.501	253.88
605.709	258.88
605.918	254.88
606.126	268.88
606.334	266.88
606.543	254.88
606.751	250.88
606.96	249.88
607.168	243.88
607.376	236.88
607.585	250.88
607.793	253.88
608.001	247.88
608.21	240.88
608.418	235.88
608.626	237.88
608.834	250.88
609.043	249.88
609.251	251.88
609.459	246.88
609.667	225.88
609.875	242.88
610.083	265.88
610.291	240.88
610.499	249.88
610.707	262.88
610.916	243.88
611.124	259.88
611.332	273.88
611.54	249.88
611.748	264.88
611.955	242.88
612.163	238.88
612.371	266.88
612.579	240.88
612.787	233.88
612.995	240.88
613.203	244.88
613.411	224.88
613.618	238.88
613.826	238.88
614.034	232.88
614.242	230.88
614.449	239.88
614.657	236.88
614.865	244.88
615.072	248.88
615.28	228.88
615.488	236.88
615.695	217.88
615.903	245.88
616.111	256.88
616.318	243.88
616.526	234.88
616.733	237.88
616.941	243.88
617.148	249.88
617.356	262.88
617.563	237.88
617.771	241.88
617.978	222.88
618.185	237.88
618.393	222.88
618.6	242.88
618.807	227.88
619.015	243.88
619.222	228.88
619.429	226.88
619.637	226.88
619.844	224.88
620.051	225.88
620.258	216.88
620.466	223.88
620.673	216.88
620.88	224.88
621.087	222.88
621.294	233.88
621.501	217.88
621.708	198.88
621.915	231.88
622.122	210.88
622.329	230.88
622.536	252.88
622.743	223.88
622.95	212.88
623.157	211.88
623.364	213.88
623.571	214.88
623.778	228.88
623.985	242.88
624.192	233.88
624.399	227.88
624.606	219.88
624.812	222.88
625.019	204.88
625.226	221.88
625.433	234.88
625.639	214.88
625.846	215.88
626.053	195.88
626.259	199.88
626.466	206.88
626.673	204.88
626.879	196.88
627.086	209.88
627.293	202.88
627.499	192.88
627.706	203.88
627.912	216.88
628.119	218.88
628.325	207.88
628.532	213.88
628.738	203.88
628.945	216.88
629.151	206.88
629.357	203.88
629.564	201.88
629.77	206.88
629.976	197.88
630.183	204.88
630.389	205.88
630.595	187.88
630.802	188.88
631.008	202.88
631.214	204.88
631.42	194.88
631.627	205.88
631.833	195.88
632.039	189.88
632.245	208.88
632.451	187.88
632.657	197.88
632.863	209.88
633.069	202.88
633.275	184.88
633.481	184.88
633.688	197.88
633.893	182.88
634.099	180.88
634.305	188.88
634.511	190.88
634.717	187.88
634.923	174.88
635.129	178.88
635.335	190.88
635.541	203.88
635.747	184.88
635.952	198.88
636.158	203.88
636.364	196.88
636.57	187.88
636.775	165.88
636.981	186.88
637.187	189.88
637.392	177.88
637.598	201.88
637.804	180.88
638.009	188.88
638.215	191.88
638.421	206.88
638.626	194.88
638.832	176.88
639.037	194.88
639.243	158.88
639.448	182.88
639.654	178.88
639.859	178.88
640.065	184.88
640.27	187.88
640.475	173.88
640.681	163.88
640.886	173.88
641.091	189.88
641.297	179.88
641.502	177.88
641.707	180.88
641.913	185.88
642.118	175.88
642.323	165.88
642.528	181.88
642.733	165.88
642.939	169.88
643.144	157.88
643.349	168.88
643.554	167.88
643.759	171.88
643.964	155.88
644.169	173.88
644.374	172.88
644.579	167.88
644.784	164.88
644.989	163.88
645.194	172.88
645.399	151.88
645.604	168.88
645.809	172.88
646.014	176.88
646.219	157.88
646.423	172.88
646.628	169.88
646.833	160.88
647.038	175.88
647.243	186.88
647.447	176.88
647.652	177.88
647.857	165.88
648.062	183.88
648.266	165.88
648.471	162.88
648.676	172.88
648.88	185.88
649.085	180.88
649.289	167.88
649.494	176.88
649.698	190.88
649.903	193.88
650.107	163.88
650.312	161.88
650.516	153.88
650.721	163.88
650.925	152.88
651.13	148.88
651.334	177.88
651.539	148.88
651.743	163.88
651.947	148.88
652.152	149.88
652.356	146.88
652.56	137.88
652.764	160.88
652.969	154.88
653.173	149.88
653.377	136.88
653.581	144.88
653.785	146.88
653.99	142.88
654.194	143.88
654.398	132.88
654.602	130.88
654.806	108.88
655.01	131.88
655.214	135.88
655.418	127.88
655.622	148.88
655.826	133.88
656.03	143.88
656.234	140.88
656.438	150.88
656.642	135.88
656.846	139.88
657.049	154.88
657.253	143.88
657.457	126.88
657.661	118.88
657.865	109.88
658.068	113.88
658.272	134.88
658.476	112.88
658.68	105.88
658.883	101.88
659.087	118.88
659.291	112.88
659.494	100.88
659.698	94.88
659.901	82.88
660.105	117.88
660.309	105.88
660.512	88.88
660.716	106.88
660.919	93.88
661.123	106.88
661.326	76.88
661.53	88.88
661.733	87.88
661.936	89.88
662.14	74.88
662.343	84.88
662.546	85.88
662.75	88.88
662.953	97.88
663.156	66.88
663.36	94.88
663.563	82.88
663.766	80.88
663.969	92.88
664.173	84.88
664.376	86.88
664.579	89.88
664.782	88.88
664.985	92.88
665.188	78.88
665.391	89.88
665.594	70.88
665.797	79.88
666	76.88
666.203	70.88
666.406	85.88
666.609	67.88
666.812	66.88
667.015	93.88
667.218	85.88
667.421	72.88
667.624	80.88
667.827	97.88
668.03	90.88
668.232	88.88
668.435	81.88
668.638	83.88
668.841	91.88
669.043	79.88
669.246	84.88
669.449	83.88
669.651	94.88
669.854	76.88
670.057	77.88
670.259	70.88
670.462	74.88
670.665	92.88
670.867	77.88
671.07	86.88
671.272	89.88
671.475	88.88
671.677	93.88
671.88	91.88
672.082	83.88
672.284	87.88
672.487	83.88
672.689	86.88
672.892	83.88
