Data from 1976.PennyLincolnUp.Lamp.En5.5.200Scan.071719.P1.Changed Mount._HRD10591_16-01-50-862.txt Node
Date: Thu Jul 18 16:01:50 EDT 2019
User: cochatt
Spectrometer: HR+D1059
Trigger mode: 1
Integration Time (sec): 1.000000E-1
Scans to average: 1
Electric dark correction enabled: true
Nonlinearity correction enabled: false
Boxcar width: 0
XAxis mode: Wavelengths
Number of Pixels in Spectrum: 2048
>>>>>Begin Spectral Data<<<<<
223.165	-19.06
223.4	-19.06
223.635	-19.06
223.869	-16.06
224.104	-26.06
224.338	-8.06
224.573	-8.06
224.808	-6.06
225.042	-5.06
225.277	-6.06
225.511	-8.06
225.746	-0.06
225.98	0.94
226.215	5.94
226.449	26.94
226.683	14.94
226.918	22.94
227.152	30.94
227.387	21.94
227.621	32.94
227.856	25.94
228.09	61.94
228.324	48.94
228.559	46.94
228.793	60.94
229.027	98.94
229.262	105.94
229.496	108.94
229.73	119.94
229.964	153.94
230.199	132.94
230.433	128.94
230.667	126.94
230.901	107.94
231.136	113.94
231.37	103.94
231.604	111.94
231.838	106.94
232.072	125.94
232.306	103.94
232.541	106.94
232.775	126.94
233.009	111.94
233.243	120.94
233.477	123.94
233.711	128.94
233.945	123.94
234.179	123.94
234.413	110.94
234.647	137.94
234.881	100.94
235.115	115.94
235.349	119.94
235.583	131.94
235.817	138.94
236.051	133.94
236.285	129.94
236.519	118.94
236.753	129.94
236.987	154.94
237.221	178.94
237.455	242.94
237.689	188.94
237.922	168.94
238.156	132.94
238.39	123.94
238.624	125.94
238.858	123.94
239.091	131.94
239.325	128.94
239.559	122.94
239.793	131.94
240.027	141.94
240.26	156.94
240.494	171.94
240.728	147.94
240.961	155.94
241.195	142.94
241.429	141.94
241.662	149.94
241.896	138.94
242.13	139.94
242.363	151.94
242.597	139.94
242.83	146.94
243.064	155.94
243.298	141.94
243.531	150.94
243.765	157.94
243.998	135.94
244.232	153.94
244.465	151.94
244.699	156.94
244.932	151.94
245.166	148.94
245.399	167.94
245.633	158.94
245.866	148.94
246.099	147.94
246.333	167.94
246.566	154.94
246.8	154.94
247.033	163.94
247.266	173.94
247.5	164.94
247.733	184.94
247.966	177.94
248.2	175.94
248.433	179.94
248.666	169.94
248.899	196.94
249.133	206.94
249.366	209.94
249.599	202.94
249.832	180.94
250.066	183.94
250.299	174.94
250.532	184.94
250.765	210.94
250.998	233.94
251.231	235.94
251.465	222.94
251.698	211.94
251.931	214.94
252.164	186.94
252.397	203.94
252.63	199.94
252.863	198.94
253.096	227.94
253.329	233.94
253.562	246.94
253.795	238.94
254.028	234.94
254.261	231.94
254.494	222.94
254.727	274.94
254.96	301.94
255.193	269.94
255.426	268.94
255.659	235.94
255.892	239.94
256.124	231.94
256.357	247.94
256.59	252.94
256.823	243.94
257.056	221.94
257.289	220.94
257.521	230.94
257.754	221.94
257.987	207.94
258.22	209.94
258.452	211.94
258.685	225.94
258.918	213.94
259.151	229.94
259.383	233.94
259.616	228.94
259.849	236.94
260.081	245.94
260.314	273.94
260.547	275.94
260.779	250.94
261.012	246.94
261.244	237.94
261.477	233.94
261.71	243.94
261.942	242.94
262.175	241.94
262.407	245.94
262.64	222.94
262.872	232.94
263.105	225.94
263.337	234.94
263.57	236.94
263.802	219.94
264.035	220.94
264.267	221.94
264.499	220.94
264.732	248.94
264.964	248.94
265.197	234.94
265.429	226.94
265.661	223.94
265.894	246.94
266.126	237.94
266.358	233.94
266.591	233.94
266.823	244.94
267.055	247.94
267.287	230.94
267.52	247.94
267.752	224.94
267.984	229.94
268.216	231.94
268.448	252.94
268.681	255.94
268.913	270.94
269.145	281.94
269.377	306.94
269.609	289.94
269.841	285.94
270.073	286.94
270.306	333.94
270.538	341.94
270.77	345.94
271.002	316.94
271.234	331.94
271.466	305.94
271.698	324.94
271.93	339.94
272.162	353.94
272.394	326.94
272.626	334.94
272.858	305.94
273.09	315.94
273.322	281.94
273.553	291.94
273.785	298.94
274.017	289.94
274.249	274.94
274.481	278.94
274.713	285.94
274.945	285.94
275.176	278.94
275.408	289.94
275.64	303.94
275.872	286.94
276.104	309.94
276.335	300.94
276.567	280.94
276.799	334.94
277.031	325.94
277.262	341.94
277.494	350.94
277.726	325.94
277.957	298.94
278.189	302.94
278.421	299.94
278.652	298.94
278.884	309.94
279.115	303.94
279.347	318.94
279.579	300.94
279.81	289.94
280.042	278.94
280.273	271.94
280.505	289.94
280.736	296.94
280.968	301.94
281.199	292.94
281.431	294.94
281.662	315.94
281.894	309.94
282.125	318.94
282.356	307.94
282.588	334.94
282.819	329.94
283.051	305.94
283.282	299.94
283.513	315.94
283.745	279.94
283.976	301.94
284.207	321.94
284.439	321.94
284.67	321.94
284.901	308.94
285.132	291.94
285.364	316.94
285.595	304.94
285.826	308.94
286.057	297.94
286.288	307.94
286.52	307.94
286.751	297.94
286.982	324.94
287.213	313.94
287.444	316.94
287.675	318.94
287.906	323.94
288.138	318.94
288.369	335.94
288.6	333.94
288.831	332.94
289.062	324.94
289.293	339.94
289.524	320.94
289.755	314.94
289.986	325.94
290.217	320.94
290.448	320.94
290.679	318.94
290.91	327.94
291.141	317.94
291.371	329.94
291.602	324.94
291.833	295.94
292.064	322.94
292.295	323.94
292.526	323.94
292.757	319.94
292.987	324.94
293.218	310.94
293.449	333.94
293.68	325.94
293.91	323.94
294.141	313.94
294.372	343.94
294.603	334.94
294.833	326.94
295.064	345.94
295.295	327.94
295.525	334.94
295.756	340.94
295.987	330.94
296.217	342.94
296.448	369.94
296.679	345.94
296.909	336.94
297.14	337.94
297.37	351.94
297.601	335.94
297.831	324.94
298.062	353.94
298.292	357.94
298.523	339.94
298.753	330.94
298.984	338.94
299.214	350.94
299.445	350.94
299.675	345.94
299.905	358.94
300.136	377.94
300.366	344.94
300.597	362.94
300.827	346.94
301.057	332.94
301.288	354.94
301.518	355.94
301.748	363.94
301.979	368.94
302.209	378.94
302.439	379.94
302.669	348.94
302.9	350.94
303.13	347.94
303.36	369.94
303.59	346.94
303.82	354.94
304.051	353.94
304.281	365.94
304.511	374.94
304.741	360.94
304.971	358.94
305.201	362.94
305.431	354.94
305.661	347.94
305.891	364.94
306.121	377.94
306.352	352.94
306.582	373.94
306.812	362.94
307.042	356.94
307.272	377.94
307.502	373.94
307.731	390.94
307.961	363.94
308.191	362.94
308.421	366.94
308.651	395.94
308.881	358.94
309.111	386.94
309.341	391.94
309.571	375.94
309.8	383.94
310.03	381.94
310.26	385.94
310.49	409.94
310.72	414.94
310.949	411.94
311.179	422.94
311.409	421.94
311.639	397.94
311.868	400.94
312.098	410.94
312.328	392.94
312.557	439.94
312.787	420.94
313.017	435.94
313.246	430.94
313.476	401.94
313.706	410.94
313.935	429.94
314.165	428.94
314.394	428.94
314.624	433.94
314.853	421.94
315.083	410.94
315.312	417.94
315.542	402.94
315.771	411.94
316.001	416.94
316.23	408.94
316.46	404.94
316.689	398.94
316.919	416.94
317.148	433.94
317.377	413.94
317.607	410.94
317.836	420.94
318.065	421.94
318.295	398.94
318.524	406.94
318.753	408.94
318.983	410.94
319.212	395.94
319.441	427.94
319.67	418.94
319.9	418.94
320.129	421.94
320.358	439.94
320.587	441.94
320.816	422.94
321.046	437.94
321.275	409.94
321.504	425.94
321.733	423.94
321.962	418.94
322.191	450.94
322.42	447.94
322.649	477.94
322.878	474.94
323.108	487.94
323.337	487.94
323.566	499.94
323.795	542.94
324.024	549.94
324.253	661.94
324.482	899.94
324.71	1415.94
324.939	2129.94
325.168	1849.94
325.397	915.94
325.626	630.94
325.855	541.94
326.084	504.94
326.313	501.94
326.542	515.94
326.77	575.94
326.999	635.94
327.228	862.94
327.457	1266.94
327.686	1593.94
327.914	1075.94
328.143	684.94
328.372	628.94
328.6	588.94
328.829	565.94
329.058	577.94
329.287	572.94
329.515	567.94
329.744	535.94
329.972	504.94
330.201	527.94
330.43	567.94
330.658	606.94
330.887	631.94
331.115	613.94
331.344	544.94
331.572	533.94
331.801	505.94
332.03	517.94
332.258	517.94
332.486	481.94
332.715	495.94
332.943	497.94
333.172	459.94
333.4	511.94
333.629	535.94
333.857	531.94
334.085	526.94
334.314	567.94
334.542	575.94
334.771	591.94
334.999	551.94
335.227	551.94
335.455	523.94
335.684	516.94
335.912	495.94
336.14	497.94
336.369	497.94
336.597	509.94
336.825	476.94
337.053	486.94
337.281	464.94
337.51	478.94
337.738	480.94
337.966	492.94
338.194	493.94
338.422	501.94
338.65	470.94
338.878	464.94
339.106	454.94
339.334	447.94
339.562	465.94
339.79	471.94
340.018	487.94
340.246	471.94
340.474	469.94
340.702	473.94
340.93	441.94
341.158	472.94
341.386	478.94
341.614	459.94
341.842	464.94
342.07	478.94
342.298	480.94
342.526	467.94
342.754	453.94
342.981	459.94
343.209	446.94
343.437	461.94
343.665	466.94
343.893	500.94
344.12	494.94
344.348	479.94
344.576	503.94
344.804	498.94
345.031	490.94
345.259	501.94
345.487	491.94
345.714	469.94
345.942	446.94
346.17	464.94
346.397	452.94
346.625	456.94
346.853	450.94
347.08	440.94
347.308	467.94
347.535	449.94
347.763	467.94
347.99	467.94
348.218	464.94
348.445	473.94
348.673	467.94
348.9	441.94
349.128	425.94
349.355	445.94
349.583	443.94
349.81	425.94
350.037	435.94
350.265	414.94
350.492	417.94
350.72	430.94
350.947	421.94
351.174	455.94
351.402	465.94
351.629	476.94
351.856	443.94
352.083	466.94
352.311	459.94
352.538	452.94
352.765	449.94
352.992	463.94
353.22	437.94
353.447	449.94
353.674	417.94
353.901	441.94
354.128	411.94
354.355	429.94
354.583	427.94
354.81	408.94
355.037	433.94
355.264	411.94
355.491	442.94
355.718	426.94
355.945	420.94
356.172	420.94
356.399	442.94
356.626	432.94
356.853	421.94
357.08	401.94
357.307	423.94
357.534	427.94
357.761	415.94
357.988	424.94
358.215	433.94
358.441	429.94
358.668	411.94
358.895	415.94
359.122	442.94
359.349	440.94
359.576	429.94
359.802	453.94
360.029	498.94
360.256	502.94
360.483	469.94
360.709	459.94
360.936	452.94
361.163	455.94
361.39	455.94
361.616	455.94
361.843	447.94
362.07	447.94
362.296	419.94
362.523	422.94
362.749	431.94
362.976	441.94
363.203	433.94
363.429	422.94
363.656	445.94
363.882	443.94
364.109	447.94
364.335	419.94
364.562	426.94
364.788	430.94
365.015	427.94
365.241	418.94
365.468	436.94
365.694	439.94
365.92	429.94
366.147	431.94
366.373	400.94
366.599	409.94
366.826	422.94
367.052	428.94
367.278	434.94
367.505	439.94
367.731	421.94
367.957	428.94
368.184	429.94
368.41	437.94
368.636	439.94
368.862	455.94
369.089	442.94
369.315	435.94
369.541	423.94
369.767	413.94
369.993	420.94
370.219	425.94
370.445	435.94
370.672	435.94
370.898	429.94
371.124	422.94
371.35	446.94
371.576	452.94
371.802	422.94
372.028	406.94
372.254	425.94
372.48	437.94
372.706	433.94
372.932	443.94
373.158	453.94
373.384	437.94
373.61	421.94
373.835	421.94
374.061	440.94
374.287	442.94
374.513	439.94
374.739	461.94
374.965	455.94
375.191	445.94
375.416	424.94
375.642	453.94
375.868	450.94
376.094	439.94
376.319	433.94
376.545	425.94
376.771	429.94
376.997	435.94
377.222	455.94
377.448	445.94
377.674	426.94
377.899	415.94
378.125	423.94
378.35	430.94
378.576	425.94
378.802	429.94
379.027	428.94
379.253	436.94
379.478	438.94
379.704	442.94
379.929	443.94
380.155	442.94
380.38	441.94
380.606	427.94
380.831	439.94
381.057	449.94
381.282	430.94
381.507	433.94
381.733	419.94
381.958	430.94
382.184	425.94
382.409	451.94
382.634	435.94
382.86	440.94
383.085	468.94
383.31	463.94
383.535	467.94
383.761	460.94
383.986	475.94
384.211	478.94
384.436	453.94
384.662	464.94
384.887	477.94
385.112	454.94
385.337	481.94
385.562	463.94
385.787	458.94
386.013	498.94
386.238	489.94
386.463	475.94
386.688	486.94
386.913	500.94
387.138	489.94
387.363	476.94
387.588	477.94
387.813	478.94
388.038	495.94
388.263	494.94
388.488	469.94
388.713	476.94
388.938	490.94
389.163	473.94
389.387	483.94
389.612	485.94
389.837	479.94
390.062	514.94
390.287	479.94
390.512	469.94
390.736	480.94
390.961	472.94
391.186	464.94
391.411	496.94
391.636	492.94
391.86	499.94
392.085	493.94
392.31	495.94
392.534	535.94
392.759	496.94
392.984	487.94
393.208	510.94
393.433	478.94
393.658	481.94
393.882	498.94
394.107	497.94
394.331	505.94
394.556	470.94
394.78	505.94
395.005	486.94
395.229	481.94
395.454	487.94
395.678	515.94
395.903	526.94
396.127	546.94
396.352	551.94
396.576	515.94
396.801	478.94
397.025	505.94
397.249	507.94
397.474	519.94
397.698	538.94
397.922	541.94
398.147	543.94
398.371	579.94
398.595	574.94
398.82	563.94
399.044	588.94
399.268	611.94
399.492	657.94
399.717	676.94
399.941	706.94
400.165	747.94
400.389	718.94
400.613	644.94
400.837	602.94
401.062	595.94
401.286	570.94
401.51	566.94
401.734	573.94
401.958	568.94
402.182	558.94
402.406	578.94
402.63	562.94
402.854	569.94
403.078	579.94
403.302	590.94
403.526	607.94
403.75	604.94
403.974	597.94
404.198	594.94
404.422	613.94
404.645	618.94
404.869	591.94
405.093	641.94
405.317	675.94
405.541	715.94
405.765	641.94
405.988	614.94
406.212	629.94
406.436	649.94
406.66	650.94
406.883	637.94
407.107	665.94
407.331	717.94
407.555	814.94
407.778	791.94
408.002	708.94
408.226	651.94
408.449	665.94
408.673	655.94
408.896	667.94
409.12	693.94
409.344	690.94
409.567	594.94
409.791	592.94
410.014	585.94
410.238	606.94
410.461	590.94
410.685	574.94
410.908	628.94
411.132	648.94
411.355	676.94
411.578	625.94
411.802	589.94
412.025	584.94
412.249	577.94
412.472	630.94
412.695	683.94
412.919	629.94
413.142	621.94
413.365	579.94
413.589	585.94
413.812	575.94
414.035	564.94
414.258	546.94
414.482	541.94
414.705	551.94
414.928	555.94
415.151	555.94
415.374	562.94
415.597	547.94
415.821	567.94
416.044	551.94
416.267	572.94
416.49	575.94
416.713	556.94
416.936	545.94
417.159	548.94
417.382	556.94
417.605	575.94
417.828	583.94
418.051	574.94
418.274	567.94
418.497	538.94
418.72	557.94
418.943	547.94
419.166	571.94
419.389	588.94
419.611	604.94
419.834	573.94
420.057	617.94
420.28	588.94
420.503	579.94
420.726	588.94
420.948	583.94
421.171	635.94
421.394	689.94
421.617	614.94
421.839	582.94
422.062	561.94
422.285	567.94
422.507	655.94
422.73	717.94
422.953	708.94
423.175	613.94
423.398	584.94
423.621	608.94
423.843	611.94
424.066	625.94
424.288	604.94
424.511	635.94
424.733	663.94
424.956	774.94
425.178	732.94
425.401	717.94
425.623	749.94
425.846	648.94
426.068	602.94
426.291	610.94
426.513	590.94
426.735	614.94
426.958	658.94
427.18	713.94
427.402	888.94
427.625	976.94
427.847	838.94
428.069	711.94
428.292	650.94
428.514	606.94
428.736	586.94
428.958	562.94
429.181	557.94
429.403	545.94
429.625	589.94
429.847	618.94
430.069	669.94
430.292	689.94
430.514	587.94
430.736	530.94
430.958	552.94
431.18	539.94
431.402	537.94
431.624	525.94
431.846	545.94
432.068	521.94
432.29	551.94
432.512	543.94
432.734	556.94
432.956	539.94
433.178	548.94
433.4	561.94
433.622	521.94
433.844	545.94
434.066	527.94
434.287	518.94
434.509	556.94
434.731	562.94
434.953	541.94
435.175	589.94
435.397	587.94
435.618	613.94
435.84	631.94
436.062	745.94
436.284	818.94
436.505	685.94
436.727	594.94
436.949	576.94
437.17	552.94
437.392	540.94
437.614	562.94
437.835	616.94
438.057	675.94
438.278	808.94
438.5	791.94
438.721	899.94
438.943	859.94
439.165	682.94
439.386	636.94
439.608	599.94
439.829	605.94
440.05	619.94
440.272	673.94
440.493	641.94
440.715	585.94
440.936	548.94
441.158	572.94
441.379	568.94
441.6	610.94
441.822	635.94
442.043	638.94
442.264	745.94
442.486	801.94
442.707	656.94
442.928	628.94
443.149	648.94
443.371	661.94
443.592	704.94
443.813	797.94
444.034	864.94
444.255	731.94
444.476	670.94
444.698	612.94
444.919	651.94
445.14	737.94
445.361	709.94
445.582	658.94
445.803	703.94
446.024	819.94
446.245	822.94
446.466	749.94
446.687	667.94
446.908	580.94
447.129	584.94
447.35	605.94
447.571	583.94
447.792	543.94
448.013	571.94
448.234	574.94
448.455	613.94
448.675	742.94
448.896	845.94
449.117	725.94
449.338	700.94
449.559	797.94
449.779	910.94
450	739.94
450.221	602.94
450.442	570.94
450.662	541.94
450.883	536.94
451.104	557.94
451.324	538.94
451.545	527.94
451.766	509.94
451.986	501.94
452.207	523.94
452.428	507.94
452.648	502.94
452.869	502.94
453.089	531.94
453.31	505.94
453.53	508.94
453.751	502.94
453.971	502.94
454.192	515.94
454.412	506.94
454.633	486.94
454.853	482.94
455.073	480.94
455.294	541.94
455.514	581.94
455.734	579.94
455.955	514.94
456.175	486.94
456.395	487.94
456.616	456.94
456.836	462.94
457.056	442.94
457.276	442.94
457.497	482.94
457.717	463.94
457.937	477.94
458.157	489.94
458.377	490.94
458.598	512.94
458.818	549.94
459.038	629.94
459.258	661.94
459.478	572.94
459.698	533.94
459.918	534.94
460.138	538.94
460.358	553.94
460.578	549.94
460.798	556.94
461.018	572.94
461.238	561.94
461.458	573.94
461.678	575.94
461.898	579.94
462.118	556.94
462.338	567.94
462.558	585.94
462.777	601.94
462.997	633.94
463.217	624.94
463.437	630.94
463.657	597.94
463.876	616.94
464.096	603.94
464.316	606.94
464.536	603.94
464.755	619.94
464.975	618.94
465.195	595.94
465.414	666.94
465.634	605.94
465.854	573.94
466.073	533.94
466.293	521.94
466.512	499.94
466.732	501.94
466.951	507.94
467.171	512.94
467.391	486.94
467.61	520.94
467.829	543.94
468.049	524.94
468.268	532.94
468.488	510.94
468.707	492.94
468.927	484.94
469.146	487.94
469.365	501.94
469.585	492.94
469.804	512.94
470.023	507.94
470.243	529.94
470.462	518.94
470.681	543.94
470.901	533.94
471.12	535.94
471.339	501.94
471.558	502.94
471.777	524.94
471.997	511.94
472.216	519.94
472.435	555.94
472.654	535.94
472.873	517.94
473.092	495.94
473.311	517.94
473.53	525.94
473.749	521.94
473.968	552.94
474.187	658.94
474.406	689.94
474.625	584.94
474.844	548.94
475.063	528.94
475.282	498.94
475.501	501.94
475.72	523.94
475.939	516.94
476.158	532.94
476.377	531.94
476.596	535.94
476.814	546.94
477.033	553.94
477.252	539.94
477.471	558.94
477.69	541.94
477.908	577.94
478.127	569.94
478.346	580.94
478.564	569.94
478.783	579.94
479.002	571.94
479.22	590.94
479.439	579.94
479.658	617.94
479.876	605.94
480.095	640.94
480.313	657.94
480.532	665.94
480.751	658.94
480.969	662.94
481.188	673.94
481.406	742.94
481.624	647.94
481.843	627.94
482.061	625.94
482.28	600.94
482.498	615.94
482.717	606.94
482.935	585.94
483.153	601.94
483.372	600.94
483.59	609.94
483.808	593.94
484.027	588.94
484.245	585.94
484.463	601.94
484.681	609.94
484.9	614.94
485.118	584.94
485.336	616.94
485.554	618.94
485.772	614.94
485.99	621.94
486.209	614.94
486.427	615.94
486.645	625.94
486.863	647.94
487.081	661.94
487.299	630.94
487.517	636.94
487.735	633.94
487.953	622.94
488.171	651.94
488.389	634.94
488.607	633.94
488.825	674.94
489.043	665.94
489.261	661.94
489.479	629.94
489.696	670.94
489.914	658.94
490.132	676.94
490.35	661.94
490.568	671.94
490.786	702.94
491.003	683.94
491.221	712.94
491.439	743.94
491.657	749.94
491.874	736.94
492.092	733.94
492.31	761.94
492.527	740.94
492.745	715.94
492.963	737.94
493.18	764.94
493.398	755.94
493.615	757.94
493.833	740.94
494.05	757.94
494.268	765.94
494.485	780.94
494.703	766.94
494.92	766.94
495.138	763.94
495.355	792.94
495.573	781.94
495.79	760.94
496.008	760.94
496.225	746.94
496.442	705.94
496.66	770.94
496.877	755.94
497.094	767.94
497.312	805.94
497.529	777.94
497.746	806.94
497.963	822.94
498.181	853.94
498.398	852.94
498.615	892.94
498.832	893.94
499.049	917.94
499.267	948.94
499.484	958.94
499.701	1024.94
499.918	1033.94
500.135	1122.94
500.352	1184.94
500.569	1189.94
500.786	1227.94
501.003	1221.94
501.22	1117.94
501.437	1104.94
501.654	1050.94
501.871	1029.94
502.088	961.94
502.305	923.94
502.522	902.94
502.739	895.94
502.956	842.94
503.172	826.94
503.389	796.94
503.606	806.94
503.823	811.94
504.04	805.94
504.256	789.94
504.473	780.94
504.69	769.94
504.907	758.94
505.123	759.94
505.34	746.94
505.557	740.94
505.773	766.94
505.99	728.94
506.207	710.94
506.423	703.94
506.64	704.94
506.856	702.94
507.073	685.94
507.289	702.94
507.506	711.94
507.722	713.94
507.939	706.94
508.155	693.94
508.372	679.94
508.588	673.94
508.805	680.94
509.021	669.94
509.238	695.94
509.454	673.94
509.67	699.94
509.887	677.94
510.103	662.94
510.319	667.94
510.536	740.94
510.752	1102.94
510.968	915.94
511.184	663.94
511.401	661.94
511.617	637.94
511.833	638.94
512.049	650.94
512.265	625.94
512.481	629.94
512.698	619.94
512.914	617.94
513.13	617.94
513.346	632.94
513.562	627.94
513.778	638.94
513.994	633.94
514.21	629.94
514.426	643.94
514.642	695.94
514.858	680.94
515.074	746.94
515.29	830.94
515.506	1116.94
515.721	949.94
515.937	710.94
516.153	675.94
516.369	686.94
516.585	664.94
516.801	651.94
517.016	692.94
517.232	684.94
517.448	676.94
517.664	706.94
517.879	683.94
518.095	663.94
518.311	691.94
518.527	681.94
518.742	665.94
518.958	682.94
519.173	651.94
519.389	670.94
519.605	626.94
519.82	644.94
520.036	653.94
520.251	672.94
520.467	678.94
520.682	681.94
520.898	683.94
521.113	679.94
521.329	728.94
521.544	762.94
521.76	925.94
521.975	1403.94
522.19	1359.94
522.406	829.94
522.621	683.94
522.836	646.94
523.052	598.94
523.267	587.94
523.482	578.94
523.698	564.94
523.913	589.94
524.128	575.94
524.343	580.94
524.559	564.94
524.774	565.94
524.989	553.94
525.204	539.94
525.419	535.94
525.634	548.94
525.849	549.94
526.064	522.94
526.28	540.94
526.495	546.94
526.71	535.94
526.925	539.94
527.14	521.94
527.355	519.94
527.57	518.94
527.785	530.94
527.999	516.94
528.214	513.94
528.429	532.94
528.644	538.94
528.859	519.94
529.074	533.94
529.289	542.94
529.503	595.94
529.718	575.94
529.933	555.94
530.148	522.94
530.363	544.94
530.577	517.94
530.792	510.94
531.007	504.94
531.221	513.94
531.436	490.94
531.651	507.94
531.865	497.94
532.08	509.94
532.295	497.94
532.509	500.94
532.724	501.94
532.938	521.94
533.153	494.94
533.367	503.94
533.582	510.94
533.796	488.94
534.011	501.94
534.225	495.94
534.44	483.94
534.654	502.94
534.868	501.94
535.083	519.94
535.297	497.94
535.511	505.94
535.726	519.94
535.94	505.94
536.154	494.94
536.369	490.94
536.583	478.94
536.797	511.94
537.011	472.94
537.225	517.94
537.44	499.94
537.654	478.94
537.868	498.94
538.082	473.94
538.296	485.94
538.51	469.94
538.724	481.94
538.938	498.94
539.153	497.94
539.367	496.94
539.581	490.94
539.795	493.94
540.009	502.94
540.222	476.94
540.436	492.94
540.65	473.94
540.864	497.94
541.078	490.94
541.292	504.94
541.506	480.94
541.72	476.94
541.934	468.94
542.147	484.94
542.361	476.94
542.575	471.94
542.789	479.94
543.002	484.94
543.216	490.94
543.43	470.94
543.644	488.94
543.857	471.94
544.071	469.94
544.285	484.94
544.498	524.94
544.712	484.94
544.925	482.94
545.139	494.94
545.352	506.94
545.566	490.94
545.779	511.94
545.993	489.94
546.206	486.94
546.42	482.94
546.633	477.94
546.847	502.94
547.06	484.94
547.274	473.94
547.487	476.94
547.7	460.94
547.914	479.94
548.127	463.94
548.34	474.94
548.554	463.94
548.767	445.94
548.98	497.94
549.193	454.94
549.407	470.94
549.62	463.94
549.833	465.94
550.046	469.94
550.259	479.94
550.473	459.94
550.686	475.94
550.899	473.94
551.112	485.94
551.325	457.94
551.538	467.94
551.751	457.94
551.964	475.94
552.177	441.94
552.39	460.94
552.603	460.94
552.816	479.94
553.029	474.94
553.242	482.94
553.455	482.94
553.667	491.94
553.88	499.94
554.093	486.94
554.306	469.94
554.519	472.94
554.732	475.94
554.944	469.94
555.157	460.94
555.37	451.94
555.583	459.94
555.795	429.94
556.008	443.94
556.221	429.94
556.433	436.94
556.646	426.94
556.859	406.94
557.071	442.94
557.284	431.94
557.496	451.94
557.709	420.94
557.921	421.94
558.134	421.94
558.346	397.94
558.559	413.94
558.771	402.94
558.984	405.94
559.196	416.94
559.409	414.94
559.621	409.94
559.833	399.94
560.046	421.94
560.258	412.94
560.47	411.94
560.683	414.94
560.895	406.94
561.107	412.94
561.32	412.94
561.532	424.94
561.744	418.94
561.956	414.94
562.168	421.94
562.381	406.94
562.593	421.94
562.805	400.94
563.017	408.94
563.229	439.94
563.441	414.94
563.653	427.94
563.865	427.94
564.077	414.94
564.289	438.94
564.501	436.94
564.713	464.94
564.925	433.94
565.137	454.94
565.349	437.94
565.561	470.94
565.773	460.94
565.985	461.94
566.197	488.94
566.408	486.94
566.62	518.94
566.832	559.94
567.044	547.94
567.255	548.94
567.467	558.94
567.679	555.94
567.891	584.94
568.102	579.94
568.314	565.94
568.526	543.94
568.737	511.94
568.949	484.94
569.161	476.94
569.372	486.94
569.584	468.94
569.795	444.94
570.007	458.94
570.218	455.94
570.43	462.94
570.641	446.94
570.853	399.94
571.064	396.94
571.276	421.94
571.487	413.94
571.698	397.94
571.91	387.94
572.121	401.94
572.333	387.94
572.544	380.94
572.755	399.94
572.966	369.94
573.178	371.94
573.389	371.94
573.6	387.94
573.811	365.94
574.023	357.94
574.234	361.94
574.445	357.94
574.656	357.94
574.867	359.94
575.078	364.94
575.289	379.94
575.501	349.94
575.712	361.94
575.923	340.94
576.134	339.94
576.345	350.94
576.556	354.94
576.767	355.94
576.978	359.94
577.188	351.94
577.399	362.94
577.61	349.94
577.821	357.94
578.032	345.94
578.243	360.94
578.454	535.94
578.665	413.94
578.875	329.94
579.086	339.94
579.297	359.94
579.508	349.94
579.718	336.94
579.929	337.94
580.14	340.94
580.35	331.94
580.561	330.94
580.772	315.94
580.982	328.94
581.193	305.94
581.403	321.94
581.614	328.94
581.825	310.94
582.035	317.94
582.246	334.94
582.456	342.94
582.667	316.94
582.877	319.94
583.087	336.94
583.298	321.94
583.508	329.94
583.719	315.94
583.929	323.94
584.139	326.94
584.35	323.94
584.56	314.94
584.77	339.94
584.981	319.94
585.191	312.94
585.401	319.94
585.611	309.94
585.821	330.94
586.032	330.94
586.242	331.94
586.452	333.94
586.662	321.94
586.872	309.94
587.082	325.94
587.292	314.94
587.502	325.94
587.713	299.94
587.923	321.94
588.133	303.94
588.343	309.94
588.553	319.94
588.762	309.94
588.972	312.94
589.182	311.94
589.392	319.94
589.602	325.94
589.812	319.94
590.022	309.94
590.232	303.94
590.441	318.94
590.651	309.94
590.861	320.94
591.071	334.94
591.281	318.94
591.49	325.94
591.7	329.94
591.91	324.94
592.119	332.94
592.329	325.94
592.539	350.94
592.748	325.94
592.958	338.94
593.167	348.94
593.377	355.94
593.587	343.94
593.796	342.94
594.006	347.94
594.215	322.94
594.424	338.94
594.634	356.94
594.843	316.94
595.053	330.94
595.262	326.94
595.472	327.94
595.681	316.94
595.89	302.94
596.1	333.94
596.309	318.94
596.518	303.94
596.727	299.94
596.937	300.94
597.146	287.94
597.355	301.94
597.564	294.94
597.774	295.94
597.983	292.94
598.192	285.94
598.401	310.94
598.61	270.94
598.819	297.94
599.028	298.94
599.237	261.94
599.446	294.94
599.655	290.94
599.864	278.94
600.073	286.94
600.282	282.94
600.491	293.94
600.7	283.94
600.909	270.94
601.118	289.94
601.327	266.94
601.536	275.94
601.745	276.94
601.953	274.94
602.162	290.94
602.371	270.94
602.58	273.94
602.789	272.94
602.997	277.94
603.206	259.94
603.415	271.94
603.623	289.94
603.832	284.94
604.041	274.94
604.249	275.94
604.458	271.94
604.666	242.94
604.875	251.94
605.084	267.94
605.292	282.94
605.501	264.94
605.709	255.94
605.918	262.94
606.126	262.94
606.334	265.94
606.543	272.94
606.751	238.94
606.96	263.94
607.168	261.94
607.376	260.94
607.585	254.94
607.793	291.94
608.001	252.94
608.21	270.94
608.418	253.94
608.626	250.94
608.834	254.94
609.043	261.94
609.251	255.94
609.459	268.94
609.667	258.94
609.875	237.94
610.083	259.94
610.291	258.94
610.499	271.94
610.707	260.94
610.916	256.94
611.124	261.94
611.332	244.94
611.54	258.94
611.748	261.94
611.955	263.94
612.163	254.94
612.371	261.94
612.579	261.94
612.787	248.94
612.995	266.94
613.203	251.94
613.411	254.94
613.618	234.94
613.826	263.94
614.034	259.94
614.242	256.94
614.449	249.94
614.657	243.94
614.865	242.94
615.072	242.94
615.28	253.94
615.488	270.94
615.695	246.94
615.903	230.94
616.111	245.94
616.318	270.94
616.526	252.94
616.733	276.94
616.941	238.94
617.148	259.94
617.356	259.94
617.563	249.94
617.771	242.94
617.978	238.94
618.185	254.94
618.393	245.94
618.6	252.94
618.807	258.94
619.015	257.94
619.222	258.94
619.429	243.94
619.637	236.94
619.844	242.94
620.051	224.94
620.258	245.94
620.466	233.94
620.673	223.94
620.88	240.94
621.087	230.94
621.294	241.94
621.501	226.94
621.708	242.94
621.915	224.94
622.122	241.94
622.329	241.94
622.536	231.94
622.743	232.94
622.95	232.94
623.157	219.94
623.364	227.94
623.571	233.94
623.778	226.94
623.985	230.94
624.192	225.94
624.399	238.94
624.606	238.94
624.812	229.94
625.019	214.94
625.226	226.94
625.433	215.94
625.639	232.94
625.846	233.94
626.053	221.94
626.259	210.94
626.466	217.94
626.673	226.94
626.879	213.94
627.086	202.94
627.293	199.94
627.499	196.94
627.706	228.94
627.912	227.94
628.119	220.94
628.325	218.94
628.532	208.94
628.738	205.94
628.945	211.94
629.151	213.94
629.357	212.94
629.564	194.94
629.77	207.94
629.976	203.94
630.183	202.94
630.389	218.94
630.595	211.94
630.802	192.94
631.008	197.94
631.214	210.94
631.42	208.94
631.627	196.94
631.833	223.94
632.039	205.94
632.245	193.94
632.451	190.94
632.657	186.94
632.863	195.94
633.069	208.94
633.275	208.94
633.481	187.94
633.688	201.94
633.893	203.94
634.099	188.94
634.305	204.94
634.511	197.94
634.717	191.94
634.923	190.94
635.129	179.94
635.335	183.94
635.541	193.94
635.747	182.94
635.952	200.94
636.158	181.94
636.364	197.94
636.57	189.94
636.775	198.94
636.981	184.94
637.187	212.94
637.392	181.94
637.598	201.94
637.804	182.94
638.009	191.94
638.215	173.94
638.421	181.94
638.626	181.94
638.832	191.94
639.037	193.94
639.243	189.94
639.448	177.94
639.654	185.94
639.859	188.94
640.065	187.94
640.27	181.94
640.475	183.94
640.681	179.94
640.886	180.94
641.091	179.94
641.297	174.94
641.502	187.94
641.707	197.94
641.913	199.94
642.118	173.94
642.323	159.94
642.528	190.94
642.733	187.94
642.939	161.94
643.144	182.94
643.349	172.94
643.554	173.94
643.759	165.94
643.964	170.94
644.169	173.94
644.374	173.94
644.579	190.94
644.784	177.94
644.989	183.94
645.194	169.94
645.399	161.94
645.604	165.94
645.809	189.94
646.014	182.94
646.219	178.94
646.423	170.94
646.628	185.94
646.833	161.94
647.038	181.94
647.243	191.94
647.447	158.94
647.652	181.94
647.857	181.94
648.062	183.94
648.266	184.94
648.471	175.94
648.676	174.94
648.88	171.94
649.085	188.94
649.289	187.94
649.494	172.94
649.698	199.94
649.903	172.94
650.107	173.94
650.312	170.94
650.516	165.94
650.721	161.94
650.925	143.94
651.13	172.94
651.334	156.94
651.539	157.94
651.743	148.94
651.947	144.94
652.152	154.94
652.356	149.94
652.56	159.94
652.764	146.94
652.969	155.94
653.173	163.94
653.377	145.94
653.581	137.94
653.785	149.94
653.99	153.94
654.194	157.94
654.398	141.94
654.602	143.94
654.806	133.94
655.01	147.94
655.214	143.94
655.418	143.94
655.622	144.94
655.826	121.94
656.03	137.94
656.234	149.94
656.438	143.94
656.642	135.94
656.846	142.94
657.049	122.94
657.253	142.94
657.457	157.94
657.661	116.94
657.865	120.94
658.068	113.94
658.272	121.94
658.476	123.94
658.68	116.94
658.883	108.94
659.087	107.94
659.291	104.94
659.494	121.94
659.698	107.94
659.901	111.94
660.105	94.94
660.309	90.94
660.512	96.94
660.716	93.94
660.919	96.94
661.123	102.94
661.326	91.94
661.53	87.94
661.733	83.94
661.936	96.94
662.14	85.94
662.343	88.94
662.546	82.94
662.75	95.94
662.953	87.94
663.156	90.94
663.36	93.94
663.563	87.94
663.766	79.94
663.969	85.94
664.173	78.94
664.376	82.94
664.579	91.94
664.782	88.94
664.985	88.94
665.188	98.94
665.391	89.94
665.594	91.94
665.797	86.94
666	85.94
666.203	77.94
666.406	77.94
666.609	88.94
666.812	84.94
667.015	87.94
667.218	93.94
667.421	72.94
667.624	94.94
667.827	85.94
668.03	69.94
668.232	79.94
668.435	80.94
668.638	71.94
668.841	82.94
669.043	73.94
669.246	79.94
669.449	73.94
669.651	82.94
669.854	84.94
670.057	79.94
670.259	78.94
670.462	91.94
670.665	89.94
670.867	95.94
671.07	90.94
671.272	81.94
671.475	79.94
671.677	85.94
671.88	69.94
672.082	72.94
672.284	90.94
672.487	66.94
672.689	88.94
672.892	82.94
