Data from 1976.PennyLincolnUp.Lamp.En5.5.200Scan.071719.P1.Changed Mount._HRD10591_16-00-25-860.txt Node
Date: Thu Jul 18 16:00:25 EDT 2019
User: cochatt
Spectrometer: HR+D1059
Trigger mode: 1
Integration Time (sec): 1.000000E-1
Scans to average: 1
Electric dark correction enabled: true
Nonlinearity correction enabled: false
Boxcar width: 0
XAxis mode: Wavelengths
Number of Pixels in Spectrum: 2048
>>>>>Begin Spectral Data<<<<<
223.165	-9.25
223.4	-9.25
223.635	-9.25
223.869	-13.25
224.104	-5.25
224.338	-15.25
224.573	-11.25
224.808	-11.25
225.042	-16.25
225.277	3.75
225.511	0.75
225.746	4.75
225.98	-3.25
226.215	0.75
226.449	16.75
226.683	9.75
226.918	16.75
227.152	31.75
227.387	40.75
227.621	32.75
227.856	40.75
228.09	47.75
228.324	55.75
228.559	64.75
228.793	68.75
229.027	92.75
229.262	98.75
229.496	112.75
229.73	123.75
229.964	143.75
230.199	103.75
230.433	117.75
230.667	102.75
230.901	106.75
231.136	97.75
231.37	116.75
231.604	118.75
231.838	105.75
232.072	102.75
232.306	90.75
232.541	118.75
232.775	113.75
233.009	125.75
233.243	118.75
233.477	120.75
233.711	113.75
233.945	119.75
234.179	114.75
234.413	117.75
234.647	110.75
234.881	99.75
235.115	125.75
235.349	125.75
235.583	113.75
235.817	98.75
236.051	141.75
236.285	113.75
236.519	121.75
236.753	127.75
236.987	158.75
237.221	182.75
237.455	205.75
237.689	172.75
237.922	137.75
238.156	128.75
238.39	142.75
238.624	142.75
238.858	116.75
239.091	123.75
239.325	120.75
239.559	119.75
239.793	117.75
240.027	141.75
240.26	135.75
240.494	148.75
240.728	140.75
240.961	149.75
241.195	147.75
241.429	142.75
241.662	147.75
241.896	152.75
242.13	137.75
242.363	136.75
242.597	135.75
242.83	139.75
243.064	134.75
243.298	142.75
243.531	141.75
243.765	133.75
243.998	136.75
244.232	136.75
244.465	142.75
244.699	139.75
244.932	140.75
245.166	136.75
245.399	154.75
245.633	158.75
245.866	150.75
246.099	152.75
246.333	140.75
246.566	164.75
246.8	159.75
247.033	157.75
247.266	166.75
247.5	161.75
247.733	164.75
247.966	164.75
248.2	175.75
248.433	155.75
248.666	179.75
248.899	177.75
249.133	188.75
249.366	202.75
249.599	200.75
249.832	185.75
250.066	186.75
250.299	172.75
250.532	177.75
250.765	204.75
250.998	218.75
251.231	221.75
251.465	188.75
251.698	207.75
251.931	209.75
252.164	189.75
252.397	208.75
252.63	196.75
252.863	204.75
253.096	222.75
253.329	214.75
253.562	209.75
253.795	231.75
254.028	228.75
254.261	221.75
254.494	215.75
254.727	240.75
254.96	272.75
255.193	242.75
255.426	231.75
255.659	220.75
255.892	226.75
256.124	241.75
256.357	240.75
256.59	210.75
256.823	219.75
257.056	218.75
257.289	204.75
257.521	208.75
257.754	211.75
257.987	204.75
258.22	193.75
258.452	215.75
258.685	213.75
258.918	215.75
259.151	205.75
259.383	214.75
259.616	207.75
259.849	223.75
260.081	242.75
260.314	232.75
260.547	267.75
260.779	236.75
261.012	228.75
261.244	226.75
261.477	229.75
261.71	214.75
261.942	210.75
262.175	236.75
262.407	213.75
262.64	220.75
262.872	215.75
263.105	214.75
263.337	216.75
263.57	231.75
263.802	219.75
264.035	221.75
264.267	211.75
264.499	204.75
264.732	229.75
264.964	239.75
265.197	228.75
265.429	207.75
265.661	216.75
265.894	228.75
266.126	231.75
266.358	239.75
266.591	221.75
266.823	236.75
267.055	224.75
267.287	220.75
267.52	214.75
267.752	233.75
267.984	243.75
268.216	243.75
268.448	230.75
268.681	230.75
268.913	244.75
269.145	280.75
269.377	275.75
269.609	277.75
269.841	297.75
270.073	256.75
270.306	273.75
270.538	305.75
270.77	320.75
271.002	291.75
271.234	286.75
271.466	299.75
271.698	308.75
271.93	314.75
272.162	310.75
272.394	308.75
272.626	300.75
272.858	300.75
273.09	274.75
273.322	285.75
273.553	269.75
273.785	255.75
274.017	271.75
274.249	291.75
274.481	263.75
274.713	268.75
274.945	272.75
275.176	285.75
275.408	269.75
275.64	283.75
275.872	260.75
276.104	277.75
276.335	278.75
276.567	265.75
276.799	273.75
277.031	313.75
277.262	314.75
277.494	317.75
277.726	309.75
277.957	275.75
278.189	299.75
278.421	287.75
278.652	281.75
278.884	257.75
279.115	280.75
279.347	283.75
279.579	289.75
279.81	273.75
280.042	274.75
280.273	294.75
280.505	292.75
280.736	278.75
280.968	289.75
281.199	285.75
281.431	268.75
281.662	282.75
281.894	290.75
282.125	268.75
282.356	304.75
282.588	313.75
282.819	304.75
283.051	269.75
283.282	298.75
283.513	279.75
283.745	274.75
283.976	280.75
284.207	309.75
284.439	308.75
284.67	289.75
284.901	287.75
285.132	292.75
285.364	305.75
285.595	295.75
285.826	282.75
286.057	296.75
286.288	286.75
286.52	290.75
286.751	293.75
286.982	305.75
287.213	295.75
287.444	310.75
287.675	314.75
287.906	306.75
288.138	321.75
288.369	309.75
288.6	313.75
288.831	301.75
289.062	331.75
289.293	293.75
289.524	300.75
289.755	310.75
289.986	289.75
290.217	300.75
290.448	312.75
290.679	303.75
290.91	306.75
291.141	314.75
291.371	314.75
291.602	312.75
291.833	322.75
292.064	310.75
292.295	302.75
292.526	308.75
292.757	315.75
292.987	308.75
293.218	325.75
293.449	316.75
293.68	288.75
293.91	321.75
294.141	300.75
294.372	292.75
294.603	297.75
294.833	308.75
295.064	314.75
295.295	324.75
295.525	315.75
295.756	293.75
295.987	307.75
296.217	349.75
296.448	343.75
296.679	314.75
296.909	311.75
297.14	306.75
297.37	311.75
297.601	326.75
297.831	301.75
298.062	328.75
298.292	312.75
298.523	328.75
298.753	317.75
298.984	329.75
299.214	314.75
299.445	295.75
299.675	312.75
299.905	326.75
300.136	331.75
300.366	323.75
300.597	327.75
300.827	321.75
301.057	328.75
301.288	370.75
301.518	323.75
301.748	335.75
301.979	348.75
302.209	343.75
302.439	329.75
302.669	336.75
302.9	340.75
303.13	332.75
303.36	337.75
303.59	352.75
303.82	346.75
304.051	348.75
304.281	345.75
304.511	352.75
304.741	349.75
304.971	364.75
305.201	344.75
305.431	343.75
305.661	361.75
305.891	345.75
306.121	354.75
306.352	342.75
306.582	373.75
306.812	355.75
307.042	343.75
307.272	355.75
307.502	345.75
307.731	344.75
307.961	345.75
308.191	349.75
308.421	322.75
308.651	351.75
308.881	345.75
309.111	354.75
309.341	353.75
309.571	346.75
309.8	371.75
310.03	363.75
310.26	379.75
310.49	379.75
310.72	374.75
310.949	385.75
311.179	404.75
311.409	393.75
311.639	378.75
311.868	381.75
312.098	371.75
312.328	399.75
312.557	416.75
312.787	383.75
313.017	417.75
313.246	374.75
313.476	365.75
313.706	391.75
313.935	387.75
314.165	401.75
314.394	402.75
314.624	402.75
314.853	401.75
315.083	380.75
315.312	385.75
315.542	371.75
315.771	389.75
316.001	370.75
316.23	389.75
316.46	379.75
316.689	381.75
316.919	379.75
317.148	391.75
317.377	375.75
317.607	391.75
317.836	391.75
318.065	402.75
318.295	372.75
318.524	382.75
318.753	370.75
318.983	401.75
319.212	393.75
319.441	379.75
319.67	387.75
319.9	377.75
320.129	397.75
320.358	396.75
320.587	389.75
320.816	404.75
321.046	397.75
321.275	401.75
321.504	393.75
321.733	391.75
321.962	416.75
322.191	431.75
322.42	422.75
322.649	421.75
322.878	447.75
323.108	437.75
323.337	440.75
323.566	485.75
323.795	471.75
324.024	525.75
324.253	616.75
324.482	801.75
324.71	1197.75
324.939	1771.75
325.168	1566.75
325.397	812.75
325.626	560.75
325.855	483.75
326.084	484.75
326.313	467.75
326.542	464.75
326.77	505.75
326.999	588.75
327.228	736.75
327.457	1107.75
327.686	1356.75
327.914	927.75
328.143	609.75
328.372	567.75
328.6	532.75
328.829	548.75
329.058	507.75
329.287	520.75
329.515	513.75
329.744	465.75
329.972	500.75
330.201	479.75
330.43	508.75
330.658	525.75
330.887	571.75
331.115	545.75
331.344	485.75
331.572	488.75
331.801	466.75
332.03	465.75
332.258	474.75
332.486	481.75
332.715	459.75
332.943	456.75
333.172	457.75
333.4	473.75
333.629	491.75
333.857	509.75
334.085	505.75
334.314	504.75
334.542	564.75
334.771	546.75
334.999	523.75
335.227	520.75
335.455	484.75
335.684	456.75
335.912	452.75
336.14	458.75
336.369	459.75
336.597	490.75
336.825	457.75
337.053	458.75
337.281	465.75
337.51	456.75
337.738	471.75
337.966	428.75
338.194	426.75
338.422	476.75
338.65	435.75
338.878	448.75
339.106	449.75
339.334	451.75
339.562	451.75
339.79	436.75
340.018	452.75
340.246	431.75
340.474	440.75
340.702	439.75
340.93	446.75
341.158	437.75
341.386	451.75
341.614	432.75
341.842	428.75
342.07	420.75
342.298	420.75
342.526	444.75
342.754	433.75
342.981	408.75
343.209	433.75
343.437	431.75
343.665	441.75
343.893	451.75
344.12	459.75
344.348	493.75
344.576	460.75
344.804	464.75
345.031	465.75
345.259	453.75
345.487	467.75
345.714	446.75
345.942	441.75
346.17	435.75
346.397	408.75
346.625	428.75
346.853	423.75
347.08	434.75
347.308	433.75
347.535	433.75
347.763	441.75
347.99	426.75
348.218	435.75
348.445	442.75
348.673	420.75
348.9	422.75
349.128	422.75
349.355	406.75
349.583	424.75
349.81	420.75
350.037	425.75
350.265	432.75
350.492	408.75
350.72	411.75
350.947	389.75
351.174	411.75
351.402	426.75
351.629	418.75
351.856	422.75
352.083	445.75
352.311	460.75
352.538	430.75
352.765	423.75
352.992	419.75
353.22	419.75
353.447	412.75
353.674	397.75
353.901	394.75
354.128	406.75
354.355	404.75
354.583	389.75
354.81	413.75
355.037	393.75
355.264	412.75
355.491	378.75
355.718	395.75
355.945	398.75
356.172	369.75
356.399	402.75
356.626	397.75
356.853	377.75
357.08	378.75
357.307	393.75
357.534	400.75
357.761	397.75
357.988	383.75
358.215	383.75
358.441	389.75
358.668	392.75
358.895	395.75
359.122	391.75
359.349	413.75
359.576	415.75
359.802	451.75
360.029	448.75
360.256	451.75
360.483	431.75
360.709	432.75
360.936	438.75
361.163	439.75
361.39	412.75
361.616	427.75
361.843	406.75
362.07	410.75
362.296	419.75
362.523	397.75
362.749	414.75
362.976	409.75
363.203	415.75
363.429	427.75
363.656	392.75
363.882	403.75
364.109	400.75
364.335	416.75
364.562	394.75
364.788	398.75
365.015	409.75
365.241	412.75
365.468	408.75
365.694	412.75
365.92	410.75
366.147	417.75
366.373	419.75
366.599	416.75
366.826	392.75
367.052	388.75
367.278	404.75
367.505	422.75
367.731	415.75
367.957	408.75
368.184	414.75
368.41	420.75
368.636	414.75
368.862	410.75
369.089	397.75
369.315	390.75
369.541	405.75
369.767	399.75
369.993	397.75
370.219	398.75
370.445	397.75
370.672	396.75
370.898	407.75
371.124	407.75
371.35	433.75
371.576	415.75
371.802	413.75
372.028	412.75
372.254	425.75
372.48	400.75
372.706	416.75
372.932	415.75
373.158	418.75
373.384	419.75
373.61	427.75
373.835	418.75
374.061	421.75
374.287	409.75
374.513	408.75
374.739	423.75
374.965	409.75
375.191	418.75
375.416	424.75
375.642	428.75
375.868	383.75
376.094	398.75
376.319	413.75
376.545	414.75
376.771	420.75
376.997	400.75
377.222	396.75
377.448	419.75
377.674	420.75
377.899	401.75
378.125	392.75
378.35	397.75
378.576	421.75
378.802	418.75
379.027	403.75
379.253	415.75
379.478	402.75
379.704	424.75
379.929	434.75
380.155	421.75
380.38	428.75
380.606	416.75
380.831	408.75
381.057	398.75
381.282	395.75
381.507	407.75
381.733	400.75
381.958	417.75
382.184	425.75
382.409	431.75
382.634	412.75
382.86	417.75
383.085	426.75
383.31	431.75
383.535	430.75
383.761	448.75
383.986	441.75
384.211	456.75
384.436	451.75
384.662	433.75
384.887	453.75
385.112	456.75
385.337	466.75
385.562	441.75
385.787	435.75
386.013	454.75
386.238	463.75
386.463	471.75
386.688	462.75
386.913	464.75
387.138	472.75
387.363	470.75
387.588	450.75
387.813	449.75
388.038	445.75
388.263	472.75
388.488	476.75
388.713	435.75
388.938	451.75
389.163	449.75
389.387	444.75
389.612	462.75
389.837	467.75
390.062	452.75
390.287	468.75
390.512	431.75
390.736	454.75
390.961	461.75
391.186	458.75
391.411	478.75
391.636	495.75
391.86	485.75
392.085	491.75
392.31	481.75
392.534	463.75
392.759	487.75
392.984	473.75
393.208	475.75
393.433	471.75
393.658	474.75
393.882	463.75
394.107	451.75
394.331	441.75
394.556	461.75
394.78	448.75
395.005	468.75
395.229	457.75
395.454	476.75
395.678	469.75
395.903	509.75
396.127	523.75
396.352	510.75
396.576	483.75
396.801	479.75
397.025	492.75
397.249	481.75
397.474	516.75
397.698	495.75
397.922	533.75
398.147	535.75
398.371	510.75
398.595	539.75
398.82	541.75
399.044	550.75
399.268	580.75
399.492	630.75
399.717	661.75
399.941	668.75
400.165	671.75
400.389	655.75
400.613	605.75
400.837	583.75
401.062	571.75
401.286	550.75
401.51	545.75
401.734	538.75
401.958	540.75
402.182	517.75
402.406	553.75
402.63	537.75
402.854	543.75
403.078	561.75
403.302	549.75
403.526	578.75
403.75	573.75
403.974	580.75
404.198	536.75
404.422	582.75
404.645	573.75
404.869	587.75
405.093	586.75
405.317	640.75
405.541	667.75
405.765	610.75
405.988	594.75
406.212	580.75
406.436	600.75
406.66	607.75
406.883	587.75
407.107	612.75
407.331	658.75
407.555	710.75
407.778	729.75
408.002	663.75
408.226	628.75
408.449	589.75
408.673	600.75
408.896	632.75
409.12	684.75
409.344	642.75
409.567	592.75
409.791	593.75
410.014	583.75
410.238	579.75
410.461	565.75
410.685	568.75
410.908	557.75
411.132	602.75
411.355	600.75
411.578	602.75
411.802	591.75
412.025	554.75
412.249	565.75
412.472	587.75
412.695	616.75
412.919	630.75
413.142	579.75
413.365	548.75
413.589	555.75
413.812	516.75
414.035	544.75
414.258	524.75
414.482	529.75
414.705	542.75
414.928	533.75
415.151	533.75
415.374	540.75
415.597	533.75
415.821	514.75
416.044	528.75
416.267	509.75
416.49	536.75
416.713	512.75
416.936	523.75
417.159	513.75
417.382	536.75
417.605	528.75
417.828	523.75
418.051	533.75
418.274	537.75
418.497	541.75
418.72	543.75
418.943	527.75
419.166	550.75
419.389	573.75
419.611	589.75
419.834	573.75
420.057	557.75
420.28	562.75
420.503	547.75
420.726	560.75
420.948	515.75
421.171	584.75
421.394	634.75
421.617	579.75
421.839	540.75
422.062	540.75
422.285	536.75
422.507	627.75
422.73	698.75
422.953	650.75
423.175	580.75
423.398	582.75
423.621	565.75
423.843	589.75
424.066	584.75
424.288	557.75
424.511	591.75
424.733	646.75
424.956	721.75
425.178	687.75
425.401	706.75
425.623	699.75
425.846	616.75
426.068	579.75
426.291	549.75
426.513	580.75
426.735	597.75
426.958	629.75
427.18	673.75
427.402	806.75
427.625	895.75
427.847	759.75
428.069	660.75
428.292	599.75
428.514	575.75
428.736	538.75
428.958	538.75
429.181	530.75
429.403	528.75
429.625	521.75
429.847	548.75
430.069	609.75
430.292	624.75
430.514	547.75
430.736	545.75
430.958	518.75
431.18	523.75
431.402	504.75
431.624	505.75
431.846	528.75
432.068	491.75
432.29	516.75
432.512	500.75
432.734	533.75
432.956	531.75
433.178	541.75
433.4	502.75
433.622	526.75
433.844	498.75
434.066	507.75
434.287	507.75
434.509	521.75
434.731	529.75
434.953	510.75
435.175	532.75
435.397	594.75
435.618	574.75
435.84	590.75
436.062	671.75
436.284	789.75
436.505	649.75
436.727	568.75
436.949	531.75
437.17	544.75
437.392	535.75
437.614	529.75
437.835	570.75
438.057	648.75
438.278	748.75
438.5	737.75
438.721	821.75
438.943	778.75
439.165	627.75
439.386	561.75
439.608	556.75
439.829	561.75
440.05	586.75
440.272	629.75
440.493	595.75
440.715	549.75
440.936	541.75
441.158	533.75
441.379	503.75
441.6	561.75
441.822	576.75
442.043	620.75
442.264	690.75
442.486	728.75
442.707	621.75
442.928	584.75
443.149	592.75
443.371	593.75
443.592	639.75
443.813	738.75
444.034	780.75
444.255	671.75
444.476	624.75
444.698	595.75
444.919	583.75
445.14	733.75
445.361	671.75
445.582	625.75
445.803	673.75
446.024	753.75
446.245	758.75
446.466	687.75
446.687	608.75
446.908	567.75
447.129	539.75
447.35	536.75
447.571	507.75
447.792	546.75
448.013	520.75
448.234	561.75
448.455	592.75
448.675	703.75
448.896	785.75
449.117	667.75
449.338	638.75
449.559	744.75
449.779	837.75
450	677.75
450.221	567.75
450.442	537.75
450.662	488.75
450.883	486.75
451.104	507.75
451.324	507.75
451.545	501.75
451.766	484.75
451.986	462.75
452.207	455.75
452.428	469.75
452.648	469.75
452.869	468.75
453.089	476.75
453.31	482.75
453.53	466.75
453.751	476.75
453.971	465.75
454.192	487.75
454.412	454.75
454.633	463.75
454.853	455.75
455.073	463.75
455.294	500.75
455.514	548.75
455.734	526.75
455.955	476.75
456.175	447.75
456.395	435.75
456.616	449.75
456.836	428.75
457.056	449.75
457.276	433.75
457.497	435.75
457.717	449.75
457.937	455.75
458.157	459.75
458.377	460.75
458.598	476.75
458.818	504.75
459.038	567.75
459.258	621.75
459.478	554.75
459.698	500.75
459.918	501.75
460.138	515.75
460.358	512.75
460.578	528.75
460.798	521.75
461.018	491.75
461.238	525.75
461.458	509.75
461.678	531.75
461.898	535.75
462.118	561.75
462.338	555.75
462.558	531.75
462.777	543.75
462.997	601.75
463.217	594.75
463.437	602.75
463.657	604.75
463.876	573.75
464.096	573.75
464.316	583.75
464.536	568.75
464.755	579.75
464.975	583.75
465.195	611.75
465.414	620.75
465.634	560.75
465.854	543.75
466.073	508.75
466.293	496.75
466.512	498.75
466.732	487.75
466.951	481.75
467.171	505.75
467.391	521.75
467.61	496.75
467.829	503.75
468.049	497.75
468.268	486.75
468.488	467.75
468.707	483.75
468.927	469.75
469.146	479.75
469.365	481.75
469.585	471.75
469.804	473.75
470.023	488.75
470.243	494.75
470.462	499.75
470.681	474.75
470.901	507.75
471.12	492.75
471.339	473.75
471.558	498.75
471.777	511.75
471.997	513.75
472.216	503.75
472.435	521.75
472.654	512.75
472.873	488.75
473.092	501.75
473.311	481.75
473.53	482.75
473.749	499.75
473.968	529.75
474.187	614.75
474.406	653.75
474.625	544.75
474.844	495.75
475.063	514.75
475.282	485.75
475.501	511.75
475.72	498.75
475.939	514.75
476.158	483.75
476.377	507.75
476.596	481.75
476.814	513.75
477.033	504.75
477.252	523.75
477.471	517.75
477.69	511.75
477.908	516.75
478.127	564.75
478.346	529.75
478.564	533.75
478.783	556.75
479.002	577.75
479.22	574.75
479.439	575.75
479.658	562.75
479.876	575.75
480.095	587.75
480.313	632.75
480.532	631.75
480.751	617.75
480.969	616.75
481.188	642.75
481.406	671.75
481.624	598.75
481.843	602.75
482.061	576.75
482.28	577.75
482.498	580.75
482.717	578.75
482.935	581.75
483.153	564.75
483.372	566.75
483.59	563.75
483.808	559.75
484.027	562.75
484.245	578.75
484.463	578.75
484.681	595.75
484.9	579.75
485.118	585.75
485.336	589.75
485.554	585.75
485.772	586.75
485.99	571.75
486.209	590.75
486.427	579.75
486.645	594.75
486.863	631.75
487.081	602.75
487.299	589.75
487.517	610.75
487.735	603.75
487.953	598.75
488.171	614.75
488.389	602.75
488.607	615.75
488.825	598.75
489.043	601.75
489.261	621.75
489.479	600.75
489.696	612.75
489.914	615.75
490.132	626.75
490.35	632.75
490.568	639.75
490.786	639.75
491.003	660.75
491.221	661.75
491.439	660.75
491.657	673.75
491.874	684.75
492.092	685.75
492.31	703.75
492.527	691.75
492.745	668.75
492.963	717.75
493.18	697.75
493.398	706.75
493.615	699.75
493.833	699.75
494.05	728.75
494.268	710.75
494.485	713.75
494.703	723.75
494.92	708.75
495.138	725.75
495.355	716.75
495.573	691.75
495.79	698.75
496.008	726.75
496.225	732.75
496.442	698.75
496.66	705.75
496.877	719.75
497.094	723.75
497.312	725.75
497.529	752.75
497.746	752.75
497.963	754.75
498.181	789.75
498.398	769.75
498.615	833.75
498.832	859.75
499.049	856.75
499.267	888.75
499.484	921.75
499.701	973.75
499.918	1004.75
500.135	1061.75
500.352	1121.75
500.569	1141.75
500.786	1193.75
501.003	1164.75
501.22	1099.75
501.437	1031.75
501.654	971.75
501.871	974.75
502.088	895.75
502.305	879.75
502.522	850.75
502.739	843.75
502.956	813.75
503.172	764.75
503.389	776.75
503.606	772.75
503.823	768.75
504.04	748.75
504.256	753.75
504.473	748.75
504.69	730.75
504.907	739.75
505.123	741.75
505.34	692.75
505.557	696.75
505.773	703.75
505.99	695.75
506.207	690.75
506.423	689.75
506.64	682.75
506.856	677.75
507.073	659.75
507.289	667.75
507.506	652.75
507.722	643.75
507.939	681.75
508.155	657.75
508.372	625.75
508.588	642.75
508.805	635.75
509.021	632.75
509.238	641.75
509.454	639.75
509.67	643.75
509.887	626.75
510.103	624.75
510.319	621.75
510.536	680.75
510.752	1029.75
510.968	849.75
511.184	610.75
511.401	620.75
511.617	609.75
511.833	614.75
512.049	607.75
512.265	579.75
512.481	599.75
512.698	581.75
512.914	587.75
513.13	577.75
513.346	573.75
513.562	575.75
513.778	610.75
513.994	593.75
514.21	625.75
514.426	616.75
514.642	643.75
514.858	663.75
515.074	692.75
515.29	769.75
515.506	1029.75
515.721	897.75
515.937	684.75
516.153	635.75
516.369	639.75
516.585	625.75
516.801	631.75
517.016	632.75
517.232	678.75
517.448	632.75
517.664	653.75
517.879	648.75
518.095	634.75
518.311	634.75
518.527	644.75
518.742	637.75
518.958	609.75
519.173	616.75
519.389	587.75
519.605	608.75
519.82	627.75
520.036	595.75
520.251	623.75
520.467	616.75
520.682	631.75
520.898	626.75
521.113	646.75
521.329	659.75
521.544	709.75
521.76	824.75
521.975	1264.75
522.19	1226.75
522.406	777.75
522.621	641.75
522.836	587.75
523.052	573.75
523.267	547.75
523.482	537.75
523.698	526.75
523.913	528.75
524.128	566.75
524.343	536.75
524.559	523.75
524.774	513.75
524.989	535.75
525.204	533.75
525.419	526.75
525.634	517.75
525.849	519.75
526.064	518.75
526.28	507.75
526.495	512.75
526.71	501.75
526.925	498.75
527.14	487.75
527.355	498.75
527.57	503.75
527.785	521.75
527.999	519.75
528.214	497.75
528.429	494.75
528.644	514.75
528.859	517.75
529.074	514.75
529.289	544.75
529.503	580.75
529.718	549.75
529.933	522.75
530.148	478.75
530.363	515.75
530.577	506.75
530.792	483.75
531.007	486.75
531.221	503.75
531.436	481.75
531.651	474.75
531.865	483.75
532.08	490.75
532.295	496.75
532.509	460.75
532.724	485.75
532.938	474.75
533.153	491.75
533.367	472.75
533.582	474.75
533.796	478.75
534.011	484.75
534.225	486.75
534.44	476.75
534.654	486.75
534.868	468.75
535.083	462.75
535.297	471.75
535.511	499.75
535.726	489.75
535.94	480.75
536.154	468.75
536.369	469.75
536.583	460.75
536.797	484.75
537.011	470.75
537.225	462.75
537.44	449.75
537.654	476.75
537.868	463.75
538.082	465.75
538.296	448.75
538.51	444.75
538.724	475.75
538.938	450.75
539.153	476.75
539.367	461.75
539.581	453.75
539.795	454.75
540.009	466.75
540.222	456.75
540.436	469.75
540.65	466.75
540.864	461.75
541.078	464.75
541.292	459.75
541.506	483.75
541.72	470.75
541.934	460.75
542.147	457.75
542.361	440.75
542.575	459.75
542.789	446.75
543.002	459.75
543.216	452.75
543.43	461.75
543.644	458.75
543.857	464.75
544.071	444.75
544.285	444.75
544.498	461.75
544.712	456.75
544.925	470.75
545.139	456.75
545.352	470.75
545.566	470.75
545.779	469.75
545.993	453.75
546.206	452.75
546.42	437.75
546.633	464.75
546.847	445.75
547.06	452.75
547.274	465.75
547.487	459.75
547.7	447.75
547.914	457.75
548.127	464.75
548.34	455.75
548.554	453.75
548.767	458.75
548.98	456.75
549.193	442.75
549.407	450.75
549.62	449.75
549.833	456.75
550.046	451.75
550.259	457.75
550.473	441.75
550.686	437.75
550.899	455.75
551.112	425.75
551.325	428.75
551.538	426.75
551.751	436.75
551.964	439.75
552.177	419.75
552.39	441.75
552.603	461.75
552.816	475.75
553.029	461.75
553.242	448.75
553.455	468.75
553.667	482.75
553.88	493.75
554.093	468.75
554.306	475.75
554.519	451.75
554.732	453.75
554.944	460.75
555.157	449.75
555.37	441.75
555.583	442.75
555.795	423.75
556.008	431.75
556.221	445.75
556.433	431.75
556.646	415.75
556.859	402.75
557.071	404.75
557.284	408.75
557.496	409.75
557.709	412.75
557.921	420.75
558.134	407.75
558.346	391.75
558.559	380.75
558.771	413.75
558.984	397.75
559.196	378.75
559.409	393.75
559.621	426.75
559.833	388.75
560.046	393.75
560.258	397.75
560.47	391.75
560.683	394.75
560.895	408.75
561.107	386.75
561.32	376.75
561.532	409.75
561.744	403.75
561.956	400.75
562.168	411.75
562.381	409.75
562.593	401.75
562.805	415.75
563.017	390.75
563.229	417.75
563.441	409.75
563.653	415.75
563.865	416.75
564.077	397.75
564.289	423.75
564.501	401.75
564.713	418.75
564.925	433.75
565.137	433.75
565.349	445.75
565.561	422.75
565.773	471.75
565.985	466.75
566.197	477.75
566.408	467.75
566.62	502.75
566.832	504.75
567.044	520.75
567.255	544.75
567.467	527.75
567.679	551.75
567.891	560.75
568.102	551.75
568.314	564.75
568.526	527.75
568.737	524.75
568.949	492.75
569.161	455.75
569.372	452.75
569.584	433.75
569.795	449.75
570.007	426.75
570.218	463.75
570.43	436.75
570.641	407.75
570.853	413.75
571.064	410.75
571.276	408.75
571.487	399.75
571.698	384.75
571.91	387.75
572.121	393.75
572.333	388.75
572.544	368.75
572.755	360.75
572.966	347.75
573.178	358.75
573.389	364.75
573.6	351.75
573.811	351.75
574.023	335.75
574.234	339.75
574.445	346.75
574.656	331.75
574.867	318.75
575.078	356.75
575.289	333.75
575.501	347.75
575.712	341.75
575.923	324.75
576.134	321.75
576.345	333.75
576.556	339.75
576.767	325.75
576.978	340.75
577.188	344.75
577.399	329.75
577.61	334.75
577.821	325.75
578.032	330.75
578.243	340.75
578.454	488.75
578.665	397.75
578.875	323.75
579.086	323.75
579.297	324.75
579.508	331.75
579.718	326.75
579.929	301.75
580.14	329.75
580.35	316.75
580.561	305.75
580.772	310.75
580.982	317.75
581.193	316.75
581.403	315.75
581.614	315.75
581.825	324.75
582.035	309.75
582.246	327.75
582.456	307.75
582.667	310.75
582.877	299.75
583.087	305.75
583.298	314.75
583.508	318.75
583.719	318.75
583.929	295.75
584.139	318.75
584.35	309.75
584.56	326.75
584.77	310.75
584.981	305.75
585.191	313.75
585.401	292.75
585.611	319.75
585.821	316.75
586.032	304.75
586.242	304.75
586.452	297.75
586.662	307.75
586.872	304.75
587.082	316.75
587.292	313.75
587.502	319.75
587.713	298.75
587.923	303.75
588.133	312.75
588.343	290.75
588.553	289.75
588.762	297.75
588.972	276.75
589.182	308.75
589.392	304.75
589.602	300.75
589.812	295.75
590.022	307.75
590.232	286.75
590.441	299.75
590.651	311.75
590.861	287.75
591.071	297.75
591.281	311.75
591.49	298.75
591.7	305.75
591.91	313.75
592.119	312.75
592.329	310.75
592.539	312.75
592.748	323.75
592.958	318.75
593.167	329.75
593.377	315.75
593.587	351.75
593.796	353.75
594.006	345.75
594.215	321.75
594.424	320.75
594.634	338.75
594.843	306.75
595.053	315.75
595.262	306.75
595.472	300.75
595.681	308.75
595.89	295.75
596.1	303.75
596.309	297.75
596.518	284.75
596.727	290.75
596.937	268.75
597.146	282.75
597.355	290.75
597.564	275.75
597.774	289.75
597.983	275.75
598.192	276.75
598.401	273.75
598.61	285.75
598.819	258.75
599.028	280.75
599.237	265.75
599.446	276.75
599.655	274.75
599.864	249.75
600.073	261.75
600.282	266.75
600.491	266.75
600.7	269.75
600.909	252.75
601.118	262.75
601.327	275.75
601.536	268.75
601.745	269.75
601.953	260.75
602.162	273.75
602.371	258.75
602.58	255.75
602.789	266.75
602.997	252.75
603.206	269.75
603.415	240.75
603.623	250.75
603.832	248.75
604.041	267.75
604.249	271.75
604.458	263.75
604.666	261.75
604.875	258.75
605.084	257.75
605.292	254.75
605.501	235.75
605.709	262.75
605.918	279.75
606.126	267.75
606.334	234.75
606.543	254.75
606.751	259.75
606.96	250.75
607.168	255.75
607.376	258.75
607.585	255.75
607.793	256.75
608.001	245.75
608.21	243.75
608.418	247.75
608.626	268.75
608.834	247.75
609.043	266.75
609.251	255.75
609.459	239.75
609.667	262.75
609.875	241.75
610.083	221.75
610.291	257.75
610.499	245.75
610.707	257.75
610.916	244.75
611.124	248.75
611.332	237.75
611.54	253.75
611.748	260.75
611.955	253.75
612.163	247.75
612.371	250.75
612.579	245.75
612.787	265.75
612.995	231.75
613.203	248.75
613.411	257.75
613.618	250.75
613.826	253.75
614.034	223.75
614.242	241.75
614.449	231.75
614.657	238.75
614.865	241.75
615.072	243.75
615.28	246.75
615.488	246.75
615.695	243.75
615.903	227.75
616.111	226.75
616.318	260.75
616.526	259.75
616.733	244.75
616.941	246.75
617.148	223.75
617.356	244.75
617.563	239.75
617.771	239.75
617.978	231.75
618.185	253.75
618.393	236.75
618.6	248.75
618.807	243.75
619.015	248.75
619.222	235.75
619.429	235.75
619.637	228.75
619.844	225.75
620.051	252.75
620.258	234.75
620.466	233.75
620.673	220.75
620.88	233.75
621.087	215.75
621.294	224.75
621.501	219.75
621.708	231.75
621.915	229.75
622.122	216.75
622.329	223.75
622.536	216.75
622.743	221.75
622.95	220.75
623.157	222.75
623.364	225.75
623.571	227.75
623.778	227.75
623.985	220.75
624.192	210.75
624.399	211.75
624.606	211.75
624.812	228.75
625.019	226.75
625.226	213.75
625.433	199.75
625.639	210.75
625.846	219.75
626.053	221.75
626.259	204.75
626.466	193.75
626.673	191.75
626.879	205.75
627.086	199.75
627.293	208.75
627.499	201.75
627.706	209.75
627.912	196.75
628.119	200.75
628.325	202.75
628.532	193.75
628.738	204.75
628.945	195.75
629.151	194.75
629.357	199.75
629.564	188.75
629.77	201.75
629.976	202.75
630.183	202.75
630.389	194.75
630.595	194.75
630.802	186.75
631.008	189.75
631.214	218.75
631.42	208.75
631.627	184.75
631.833	188.75
632.039	184.75
632.245	187.75
632.451	196.75
632.657	201.75
632.863	199.75
633.069	205.75
633.275	187.75
633.481	197.75
633.688	188.75
633.893	186.75
634.099	193.75
634.305	196.75
634.511	201.75
634.717	196.75
634.923	183.75
635.129	175.75
635.335	198.75
635.541	169.75
635.747	190.75
635.952	173.75
636.158	177.75
636.364	180.75
636.57	194.75
636.775	194.75
636.981	178.75
637.187	197.75
637.392	180.75
637.598	199.75
637.804	175.75
638.009	187.75
638.215	181.75
638.421	179.75
638.626	175.75
638.832	184.75
639.037	189.75
639.243	194.75
639.448	184.75
639.654	180.75
639.859	178.75
640.065	170.75
640.27	173.75
640.475	182.75
640.681	167.75
640.886	184.75
641.091	177.75
641.297	185.75
641.502	161.75
641.707	171.75
641.913	177.75
642.118	149.75
642.323	165.75
642.528	178.75
642.733	182.75
642.939	168.75
643.144	161.75
643.349	168.75
643.554	183.75
643.759	183.75
643.964	171.75
644.169	161.75
644.374	164.75
644.579	159.75
644.784	175.75
644.989	155.75
645.194	163.75
645.399	182.75
645.604	166.75
645.809	182.75
646.014	166.75
646.219	170.75
646.423	164.75
646.628	170.75
646.833	180.75
647.038	173.75
647.243	181.75
647.447	172.75
647.652	185.75
647.857	160.75
648.062	183.75
648.266	172.75
648.471	162.75
648.676	170.75
648.88	186.75
649.085	171.75
649.289	183.75
649.494	166.75
649.698	186.75
649.903	193.75
650.107	156.75
650.312	186.75
650.516	175.75
650.721	162.75
650.925	155.75
651.13	164.75
651.334	157.75
651.539	148.75
651.743	155.75
651.947	159.75
652.152	149.75
652.356	152.75
652.56	133.75
652.764	151.75
652.969	143.75
653.173	155.75
653.377	158.75
653.581	141.75
653.785	143.75
653.99	141.75
654.194	160.75
654.398	127.75
654.602	136.75
654.806	141.75
655.01	160.75
655.214	142.75
655.418	141.75
655.622	139.75
655.826	138.75
656.03	127.75
656.234	137.75
656.438	148.75
656.642	165.75
656.846	132.75
657.049	140.75
657.253	127.75
657.457	118.75
657.661	117.75
657.865	117.75
658.068	111.75
658.272	117.75
658.476	94.75
658.68	98.75
658.883	107.75
659.087	121.75
659.291	112.75
659.494	90.75
659.698	95.75
659.901	103.75
660.105	103.75
660.309	96.75
660.512	81.75
660.716	88.75
660.919	77.75
661.123	89.75
661.326	95.75
661.53	85.75
661.733	99.75
661.936	75.75
662.14	88.75
662.343	79.75
662.546	89.75
662.75	92.75
662.953	81.75
663.156	77.75
663.36	89.75
663.563	92.75
663.766	84.75
663.969	93.75
664.173	85.75
664.376	74.75
664.579	82.75
664.782	76.75
664.985	85.75
665.188	93.75
665.391	94.75
665.594	88.75
665.797	81.75
666	84.75
666.203	73.75
666.406	88.75
666.609	84.75
666.812	80.75
667.015	76.75
667.218	71.75
667.421	73.75
667.624	84.75
667.827	77.75
668.03	85.75
668.232	79.75
668.435	58.75
668.638	88.75
668.841	93.75
669.043	82.75
669.246	63.75
669.449	90.75
669.651	90.75
669.854	85.75
670.057	89.75
670.259	75.75
670.462	84.75
670.665	75.75
670.867	83.75
671.07	83.75
671.272	83.75
671.475	75.75
671.677	81.75
671.88	83.75
672.082	82.75
672.284	82.75
672.487	84.75
672.689	83.75
672.892	88.75
