Data from 1976.PennyLincolnUp.Lamp.En5.5.200Scan.071719.P1.Changed Mount._HRD10591_16-00-41-861.txt Node
Date: Thu Jul 18 16:00:41 EDT 2019
User: cochatt
Spectrometer: HR+D1059
Trigger mode: 1
Integration Time (sec): 1.000000E-1
Scans to average: 1
Electric dark correction enabled: true
Nonlinearity correction enabled: false
Boxcar width: 0
XAxis mode: Wavelengths
Number of Pixels in Spectrum: 2048
>>>>>Begin Spectral Data<<<<<
223.165	-0.88
223.4	-0.88
223.635	-0.88
223.869	-12.88
224.104	-30.88
224.338	-1.88
224.573	-12.88
224.808	-15.88
225.042	-8.88
225.277	3.12
225.511	-16.88
225.746	2.12
225.98	5.12
226.215	10.12
226.449	19.12
226.683	5.12
226.918	29.12
227.152	27.12
227.387	29.12
227.621	33.12
227.856	36.12
228.09	47.12
228.324	49.12
228.559	60.12
228.793	69.12
229.027	104.12
229.262	113.12
229.496	111.12
229.73	122.12
229.964	165.12
230.199	121.12
230.433	120.12
230.667	115.12
230.901	99.12
231.136	115.12
231.37	106.12
231.604	104.12
231.838	111.12
232.072	109.12
232.306	120.12
232.541	104.12
232.775	116.12
233.009	128.12
233.243	124.12
233.477	101.12
233.711	108.12
233.945	121.12
234.179	129.12
234.413	122.12
234.647	113.12
234.881	112.12
235.115	118.12
235.349	115.12
235.583	116.12
235.817	115.12
236.051	124.12
236.285	129.12
236.519	131.12
236.753	131.12
236.987	121.12
237.221	179.12
237.455	196.12
237.689	179.12
237.922	131.12
238.156	136.12
238.39	122.12
238.624	135.12
238.858	108.12
239.091	136.12
239.325	137.12
239.559	118.12
239.793	141.12
240.027	132.12
240.26	135.12
240.494	152.12
240.728	153.12
240.961	142.12
241.195	139.12
241.429	139.12
241.662	133.12
241.896	146.12
242.13	127.12
242.363	139.12
242.597	134.12
242.83	151.12
243.064	150.12
243.298	150.12
243.531	140.12
243.765	151.12
243.998	162.12
244.232	145.12
244.465	161.12
244.699	140.12
244.932	149.12
245.166	153.12
245.399	151.12
245.633	143.12
245.866	144.12
246.099	157.12
246.333	159.12
246.566	152.12
246.8	152.12
247.033	164.12
247.266	150.12
247.5	174.12
247.733	148.12
247.966	174.12
248.2	179.12
248.433	173.12
248.666	164.12
248.899	168.12
249.133	208.12
249.366	220.12
249.599	198.12
249.832	189.12
250.066	181.12
250.299	198.12
250.532	203.12
250.765	202.12
250.998	226.12
251.231	229.12
251.465	218.12
251.698	208.12
251.931	193.12
252.164	195.12
252.397	216.12
252.63	207.12
252.863	197.12
253.096	214.12
253.329	215.12
253.562	233.12
253.795	243.12
254.028	224.12
254.261	215.12
254.494	214.12
254.727	253.12
254.96	296.12
255.193	269.12
255.426	245.12
255.659	232.12
255.892	237.12
256.124	235.12
256.357	246.12
256.59	234.12
256.823	231.12
257.056	201.12
257.289	222.12
257.521	216.12
257.754	204.12
257.987	204.12
258.22	215.12
258.452	224.12
258.685	216.12
258.918	217.12
259.151	215.12
259.383	240.12
259.616	231.12
259.849	228.12
260.081	237.12
260.314	264.12
260.547	258.12
260.779	245.12
261.012	237.12
261.244	230.12
261.477	215.12
261.71	225.12
261.942	227.12
262.175	229.12
262.407	238.12
262.64	222.12
262.872	236.12
263.105	233.12
263.337	235.12
263.57	226.12
263.802	228.12
264.035	210.12
264.267	227.12
264.499	218.12
264.732	228.12
264.964	233.12
265.197	232.12
265.429	230.12
265.661	233.12
265.894	238.12
266.126	231.12
266.358	226.12
266.591	235.12
266.823	239.12
267.055	238.12
267.287	244.12
267.52	245.12
267.752	259.12
267.984	233.12
268.216	230.12
268.448	231.12
268.681	256.12
268.913	254.12
269.145	283.12
269.377	289.12
269.609	297.12
269.841	289.12
270.073	293.12
270.306	293.12
270.538	332.12
270.77	316.12
271.002	312.12
271.234	294.12
271.466	332.12
271.698	302.12
271.93	323.12
272.162	331.12
272.394	331.12
272.626	321.12
272.858	313.12
273.09	321.12
273.322	279.12
273.553	274.12
273.785	259.12
274.017	267.12
274.249	273.12
274.481	277.12
274.713	287.12
274.945	284.12
275.176	281.12
275.408	297.12
275.64	266.12
275.872	279.12
276.104	269.12
276.335	273.12
276.567	293.12
276.799	296.12
277.031	328.12
277.262	325.12
277.494	316.12
277.726	309.12
277.957	319.12
278.189	306.12
278.421	286.12
278.652	295.12
278.884	294.12
279.115	299.12
279.347	303.12
279.579	295.12
279.81	265.12
280.042	289.12
280.273	280.12
280.505	297.12
280.736	278.12
280.968	291.12
281.199	294.12
281.431	302.12
281.662	297.12
281.894	285.12
282.125	289.12
282.356	305.12
282.588	337.12
282.819	328.12
283.051	299.12
283.282	305.12
283.513	309.12
283.745	294.12
283.976	302.12
284.207	303.12
284.439	300.12
284.67	310.12
284.901	300.12
285.132	290.12
285.364	310.12
285.595	299.12
285.826	287.12
286.057	303.12
286.288	296.12
286.52	307.12
286.751	291.12
286.982	309.12
287.213	319.12
287.444	320.12
287.675	303.12
287.906	311.12
288.138	329.12
288.369	341.12
288.6	329.12
288.831	311.12
289.062	299.12
289.293	311.12
289.524	327.12
289.755	314.12
289.986	314.12
290.217	309.12
290.448	322.12
290.679	301.12
290.91	333.12
291.141	322.12
291.371	321.12
291.602	328.12
291.833	327.12
292.064	315.12
292.295	315.12
292.526	312.12
292.757	307.12
292.987	303.12
293.218	311.12
293.449	313.12
293.68	308.12
293.91	317.12
294.141	330.12
294.372	324.12
294.603	321.12
294.833	311.12
295.064	317.12
295.295	310.12
295.525	329.12
295.756	325.12
295.987	340.12
296.217	337.12
296.448	357.12
296.679	342.12
296.909	333.12
297.14	313.12
297.37	324.12
297.601	347.12
297.831	348.12
298.062	316.12
298.292	332.12
298.523	333.12
298.753	338.12
298.984	337.12
299.214	327.12
299.445	320.12
299.675	339.12
299.905	357.12
300.136	331.12
300.366	326.12
300.597	357.12
300.827	345.12
301.057	341.12
301.288	350.12
301.518	349.12
301.748	347.12
301.979	345.12
302.209	361.12
302.439	356.12
302.669	358.12
302.9	353.12
303.13	357.12
303.36	351.12
303.59	350.12
303.82	374.12
304.051	373.12
304.281	352.12
304.511	350.12
304.741	353.12
304.971	334.12
305.201	361.12
305.431	367.12
305.661	346.12
305.891	352.12
306.121	356.12
306.352	358.12
306.582	341.12
306.812	372.12
307.042	360.12
307.272	355.12
307.502	375.12
307.731	355.12
307.961	380.12
308.191	352.12
308.421	368.12
308.651	353.12
308.881	372.12
309.111	351.12
309.341	356.12
309.571	379.12
309.8	382.12
310.03	359.12
310.26	406.12
310.49	392.12
310.72	371.12
310.949	403.12
311.179	399.12
311.409	384.12
311.639	401.12
311.868	408.12
312.098	384.12
312.328	407.12
312.557	402.12
312.787	431.12
313.017	425.12
313.246	397.12
313.476	393.12
313.706	404.12
313.935	383.12
314.165	403.12
314.394	419.12
314.624	409.12
314.853	408.12
315.083	406.12
315.312	405.12
315.542	412.12
315.771	397.12
316.001	407.12
316.23	399.12
316.46	402.12
316.689	396.12
316.919	395.12
317.148	409.12
317.377	395.12
317.607	405.12
317.836	401.12
318.065	404.12
318.295	407.12
318.524	384.12
318.753	385.12
318.983	397.12
319.212	383.12
319.441	412.12
319.67	419.12
319.9	405.12
320.129	414.12
320.358	407.12
320.587	409.12
320.816	422.12
321.046	410.12
321.275	415.12
321.504	412.12
321.733	404.12
321.962	431.12
322.191	441.12
322.42	425.12
322.649	461.12
322.878	449.12
323.108	469.12
323.337	453.12
323.566	475.12
323.795	505.12
324.024	530.12
324.253	639.12
324.482	839.12
324.71	1335.12
324.939	1889.12
325.168	1656.12
325.397	861.12
325.626	609.12
325.855	535.12
326.084	507.12
326.313	499.12
326.542	501.12
326.77	530.12
326.999	592.12
327.228	784.12
327.457	1179.12
327.686	1430.12
327.914	976.12
328.143	655.12
328.372	583.12
328.6	549.12
328.829	555.12
329.058	555.12
329.287	561.12
329.515	534.12
329.744	496.12
329.972	502.12
330.201	543.12
330.43	548.12
330.658	549.12
330.887	597.12
331.115	560.12
331.344	521.12
331.572	493.12
331.801	495.12
332.03	515.12
332.258	506.12
332.486	478.12
332.715	491.12
332.943	507.12
333.172	480.12
333.4	510.12
333.629	527.12
333.857	513.12
334.085	527.12
334.314	544.12
334.542	552.12
334.771	588.12
334.999	528.12
335.227	497.12
335.455	501.12
335.684	500.12
335.912	469.12
336.14	483.12
336.369	461.12
336.597	495.12
336.825	481.12
337.053	464.12
337.281	460.12
337.51	483.12
337.738	474.12
337.966	470.12
338.194	478.12
338.422	467.12
338.65	466.12
338.878	448.12
339.106	461.12
339.334	452.12
339.562	461.12
339.79	428.12
340.018	465.12
340.246	459.12
340.474	448.12
340.702	445.12
340.93	440.12
341.158	444.12
341.386	427.12
341.614	458.12
341.842	458.12
342.07	460.12
342.298	460.12
342.526	439.12
342.754	457.12
342.981	434.12
343.209	441.12
343.437	474.12
343.665	465.12
343.893	468.12
344.12	478.12
344.348	477.12
344.576	466.12
344.804	476.12
345.031	484.12
345.259	475.12
345.487	473.12
345.714	461.12
345.942	453.12
346.17	464.12
346.397	435.12
346.625	439.12
346.853	420.12
347.08	441.12
347.308	433.12
347.535	438.12
347.763	439.12
347.99	433.12
348.218	443.12
348.445	455.12
348.673	448.12
348.9	430.12
349.128	442.12
349.355	428.12
349.583	415.12
349.81	428.12
350.037	444.12
350.265	427.12
350.492	423.12
350.72	409.12
350.947	441.12
351.174	436.12
351.402	429.12
351.629	444.12
351.856	447.12
352.083	428.12
352.311	421.12
352.538	413.12
352.765	463.12
352.992	443.12
353.22	423.12
353.447	422.12
353.674	398.12
353.901	414.12
354.128	415.12
354.355	409.12
354.583	409.12
354.81	407.12
355.037	417.12
355.264	411.12
355.491	409.12
355.718	435.12
355.945	419.12
356.172	417.12
356.399	426.12
356.626	401.12
356.853	433.12
357.08	423.12
357.307	383.12
357.534	402.12
357.761	417.12
357.988	415.12
358.215	427.12
358.441	437.12
358.668	431.12
358.895	429.12
359.122	426.12
359.349	415.12
359.576	431.12
359.802	465.12
360.029	477.12
360.256	447.12
360.483	468.12
360.709	444.12
360.936	445.12
361.163	429.12
361.39	431.12
361.616	448.12
361.843	431.12
362.07	431.12
362.296	447.12
362.523	419.12
362.749	437.12
362.976	423.12
363.203	438.12
363.429	443.12
363.656	436.12
363.882	406.12
364.109	425.12
364.335	414.12
364.562	423.12
364.788	421.12
365.015	415.12
365.241	425.12
365.468	424.12
365.694	419.12
365.92	402.12
366.147	415.12
366.373	404.12
366.599	407.12
366.826	411.12
367.052	408.12
367.278	409.12
367.505	448.12
367.731	436.12
367.957	411.12
368.184	424.12
368.41	431.12
368.636	435.12
368.862	441.12
369.089	424.12
369.315	432.12
369.541	406.12
369.767	422.12
369.993	433.12
370.219	428.12
370.445	437.12
370.672	411.12
370.898	428.12
371.124	429.12
371.35	427.12
371.576	415.12
371.802	449.12
372.028	418.12
372.254	419.12
372.48	433.12
372.706	425.12
372.932	430.12
373.158	447.12
373.384	441.12
373.61	441.12
373.835	432.12
374.061	447.12
374.287	408.12
374.513	443.12
374.739	416.12
374.965	439.12
375.191	424.12
375.416	443.12
375.642	443.12
375.868	439.12
376.094	429.12
376.319	437.12
376.545	418.12
376.771	431.12
376.997	417.12
377.222	420.12
377.448	444.12
377.674	457.12
377.899	424.12
378.125	419.12
378.35	409.12
378.576	432.12
378.802	428.12
379.027	408.12
379.253	393.12
379.478	412.12
379.704	406.12
379.929	398.12
380.155	439.12
380.38	447.12
380.606	412.12
380.831	424.12
381.057	429.12
381.282	443.12
381.507	428.12
381.733	425.12
381.958	429.12
382.184	435.12
382.409	456.12
382.634	441.12
382.86	443.12
383.085	441.12
383.31	451.12
383.535	460.12
383.761	444.12
383.986	444.12
384.211	461.12
384.436	448.12
384.662	452.12
384.887	464.12
385.112	481.12
385.337	471.12
385.562	450.12
385.787	459.12
386.013	496.12
386.238	477.12
386.463	476.12
386.688	473.12
386.913	469.12
387.138	461.12
387.363	489.12
387.588	476.12
387.813	479.12
388.038	488.12
388.263	452.12
388.488	480.12
388.713	483.12
388.938	483.12
389.163	485.12
389.387	473.12
389.612	481.12
389.837	491.12
390.062	457.12
390.287	479.12
390.512	484.12
390.736	488.12
390.961	469.12
391.186	471.12
391.411	485.12
391.636	483.12
391.86	493.12
392.085	509.12
392.31	517.12
392.534	487.12
392.759	472.12
392.984	471.12
393.208	485.12
393.433	482.12
393.658	479.12
393.882	487.12
394.107	473.12
394.331	491.12
394.556	476.12
394.78	492.12
395.005	499.12
395.229	495.12
395.454	484.12
395.678	494.12
395.903	526.12
396.127	512.12
396.352	513.12
396.576	506.12
396.801	498.12
397.025	515.12
397.249	490.12
397.474	493.12
397.698	487.12
397.922	511.12
398.147	531.12
398.371	556.12
398.595	517.12
398.82	540.12
399.044	556.12
399.268	609.12
399.492	623.12
399.717	671.12
399.941	700.12
400.165	701.12
400.389	682.12
400.613	632.12
400.837	603.12
401.062	581.12
401.286	550.12
401.51	533.12
401.734	553.12
401.958	555.12
402.182	560.12
402.406	571.12
402.63	570.12
402.854	542.12
403.078	568.12
403.302	569.12
403.526	580.12
403.75	573.12
403.974	569.12
404.198	567.12
404.422	588.12
404.645	593.12
404.869	597.12
405.093	620.12
405.317	653.12
405.541	696.12
405.765	645.12
405.988	622.12
406.212	633.12
406.436	605.12
406.66	638.12
406.883	625.12
407.107	632.12
407.331	681.12
407.555	767.12
407.778	719.12
408.002	701.12
408.226	645.12
408.449	632.12
408.673	635.12
408.896	656.12
409.12	691.12
409.344	657.12
409.567	616.12
409.791	601.12
410.014	608.12
410.238	575.12
410.461	572.12
410.685	580.12
410.908	608.12
411.132	646.12
411.355	653.12
411.578	608.12
411.802	597.12
412.025	576.12
412.249	583.12
412.472	606.12
412.695	659.12
412.919	652.12
413.142	585.12
413.365	552.12
413.589	545.12
413.812	557.12
414.035	550.12
414.258	541.12
414.482	568.12
414.705	565.12
414.928	549.12
415.151	559.12
415.374	555.12
415.597	525.12
415.821	538.12
416.044	547.12
416.267	542.12
416.49	541.12
416.713	534.12
416.936	545.12
417.159	536.12
417.382	536.12
417.605	519.12
417.828	559.12
418.051	562.12
418.274	567.12
418.497	536.12
418.72	529.12
418.943	565.12
419.166	592.12
419.389	583.12
419.611	597.12
419.834	588.12
420.057	574.12
420.28	587.12
420.503	577.12
420.726	568.12
420.948	573.12
421.171	616.12
421.394	630.12
421.617	581.12
421.839	576.12
422.062	563.12
422.285	575.12
422.507	643.12
422.73	709.12
422.953	664.12
423.175	602.12
423.398	610.12
423.621	601.12
423.843	617.12
424.066	597.12
424.288	580.12
424.511	610.12
424.733	723.12
424.956	740.12
425.178	732.12
425.401	721.12
425.623	720.12
425.846	656.12
426.068	606.12
426.291	617.12
426.513	589.12
426.735	606.12
426.958	612.12
427.18	711.12
427.402	873.12
427.625	929.12
427.847	767.12
428.069	701.12
428.292	612.12
428.514	552.12
428.736	558.12
428.958	566.12
429.181	560.12
429.403	556.12
429.625	563.12
429.847	599.12
430.069	661.12
430.292	651.12
430.514	563.12
430.736	529.12
430.958	522.12
431.18	511.12
431.402	522.12
431.624	516.12
431.846	537.12
432.068	520.12
432.29	523.12
432.512	525.12
432.734	552.12
432.956	507.12
433.178	549.12
433.4	540.12
433.622	529.12
433.844	529.12
434.066	531.12
434.287	531.12
434.509	540.12
434.731	538.12
434.953	543.12
435.175	555.12
435.397	593.12
435.618	605.12
435.84	645.12
436.062	727.12
436.284	787.12
436.505	638.12
436.727	609.12
436.949	579.12
437.17	541.12
437.392	553.12
437.614	553.12
437.835	565.12
438.057	671.12
438.278	784.12
438.5	779.12
438.721	885.12
438.943	851.12
439.165	656.12
439.386	618.12
439.608	590.12
439.829	601.12
440.05	616.12
440.272	637.12
440.493	599.12
440.715	556.12
440.936	592.12
441.158	576.12
441.379	564.12
441.6	571.12
441.822	600.12
442.043	656.12
442.264	734.12
442.486	763.12
442.707	651.12
442.928	599.12
443.149	625.12
443.371	613.12
443.592	688.12
443.813	741.12
444.034	827.12
444.255	707.12
444.476	629.12
444.698	640.12
444.919	623.12
445.14	755.12
445.361	679.12
445.582	644.12
445.803	692.12
446.024	794.12
446.245	830.12
446.466	720.12
446.687	635.12
446.908	598.12
447.129	553.12
447.35	540.12
447.571	537.12
447.792	523.12
448.013	522.12
448.234	556.12
448.455	582.12
448.675	723.12
448.896	836.12
449.117	703.12
449.338	687.12
449.559	811.12
449.779	906.12
450	697.12
450.221	581.12
450.442	535.12
450.662	518.12
450.883	538.12
451.104	535.12
451.324	527.12
451.545	524.12
451.766	517.12
451.986	503.12
452.207	477.12
452.428	475.12
452.648	489.12
452.869	465.12
453.089	486.12
453.31	517.12
453.53	486.12
453.751	474.12
453.971	490.12
454.192	486.12
454.412	463.12
454.633	479.12
454.853	484.12
455.073	472.12
455.294	503.12
455.514	573.12
455.734	570.12
455.955	499.12
456.175	458.12
456.395	453.12
456.616	464.12
456.836	445.12
457.056	459.12
457.276	463.12
457.497	465.12
457.717	462.12
457.937	472.12
458.157	459.12
458.377	490.12
458.598	477.12
458.818	527.12
459.038	604.12
459.258	645.12
459.478	551.12
459.698	523.12
459.918	529.12
460.138	521.12
460.358	529.12
460.578	558.12
460.798	554.12
461.018	579.12
461.238	520.12
461.458	572.12
461.678	539.12
461.898	542.12
462.118	540.12
462.338	543.12
462.558	549.12
462.777	575.12
462.997	587.12
463.217	615.12
463.437	639.12
463.657	599.12
463.876	575.12
464.096	586.12
464.316	593.12
464.536	594.12
464.755	567.12
464.975	567.12
465.195	604.12
465.414	643.12
465.634	567.12
465.854	535.12
466.073	540.12
466.293	527.12
466.512	495.12
466.732	511.12
466.951	500.12
467.171	499.12
467.391	507.12
467.61	521.12
467.829	493.12
468.049	488.12
468.268	489.12
468.488	489.12
468.707	480.12
468.927	507.12
469.146	481.12
469.365	487.12
469.585	496.12
469.804	500.12
470.023	482.12
470.243	493.12
470.462	506.12
470.681	517.12
470.901	548.12
471.12	501.12
471.339	489.12
471.558	511.12
471.777	495.12
471.997	509.12
472.216	512.12
472.435	506.12
472.654	522.12
472.873	519.12
473.092	484.12
473.311	497.12
473.53	489.12
473.749	506.12
473.968	563.12
474.187	622.12
474.406	631.12
474.625	571.12
474.844	513.12
475.063	504.12
475.282	492.12
475.501	496.12
475.72	523.12
475.939	501.12
476.158	514.12
476.377	524.12
476.596	525.12
476.814	523.12
477.033	530.12
477.252	528.12
477.471	543.12
477.69	548.12
477.908	569.12
478.127	560.12
478.346	583.12
478.564	580.12
478.783	572.12
479.002	571.12
479.22	604.12
479.439	621.12
479.658	597.12
479.876	633.12
480.095	621.12
480.313	665.12
480.532	640.12
480.751	636.12
480.969	654.12
481.188	655.12
481.406	694.12
481.624	639.12
481.843	613.12
482.061	589.12
482.28	612.12
482.498	579.12
482.717	581.12
482.935	584.12
483.153	580.12
483.372	573.12
483.59	583.12
483.808	585.12
484.027	582.12
484.245	576.12
484.463	569.12
484.681	612.12
484.9	603.12
485.118	606.12
485.336	614.12
485.554	604.12
485.772	607.12
485.99	613.12
486.209	601.12
486.427	605.12
486.645	613.12
486.863	642.12
487.081	643.12
487.299	623.12
487.517	609.12
487.735	613.12
487.953	625.12
488.171	663.12
488.389	635.12
488.607	628.12
488.825	635.12
489.043	628.12
489.261	639.12
489.479	657.12
489.696	638.12
489.914	662.12
490.132	645.12
490.35	659.12
490.568	673.12
490.786	680.12
491.003	675.12
491.221	679.12
491.439	697.12
491.657	692.12
491.874	693.12
492.092	727.12
492.31	746.12
492.527	734.12
492.745	748.12
492.963	719.12
493.18	739.12
493.398	721.12
493.615	760.12
493.833	725.12
494.05	755.12
494.268	736.12
494.485	731.12
494.703	733.12
494.92	731.12
495.138	742.12
495.355	752.12
495.573	748.12
495.79	730.12
496.008	773.12
496.225	720.12
496.442	749.12
496.66	759.12
496.877	764.12
497.094	745.12
497.312	761.12
497.529	787.12
497.746	768.12
497.963	816.12
498.181	828.12
498.398	821.12
498.615	843.12
498.832	858.12
499.049	873.12
499.267	919.12
499.484	981.12
499.701	1006.12
499.918	1033.12
500.135	1111.12
500.352	1160.12
500.569	1180.12
500.786	1185.12
501.003	1186.12
501.22	1135.12
501.437	1064.12
501.654	1011.12
501.871	999.12
502.088	972.12
502.305	896.12
502.522	862.12
502.739	848.12
502.956	829.12
503.172	805.12
503.389	788.12
503.606	789.12
503.823	795.12
504.04	748.12
504.256	745.12
504.473	760.12
504.69	764.12
504.907	781.12
505.123	759.12
505.34	725.12
505.557	721.12
505.773	750.12
505.99	721.12
506.207	691.12
506.423	705.12
506.64	714.12
506.856	701.12
507.073	688.12
507.289	680.12
507.506	671.12
507.722	670.12
507.939	687.12
508.155	679.12
508.372	658.12
508.588	653.12
508.805	679.12
509.021	672.12
509.238	672.12
509.454	673.12
509.67	656.12
509.887	665.12
510.103	638.12
510.319	671.12
510.536	714.12
510.752	1068.12
510.968	891.12
511.184	651.12
511.401	633.12
511.617	633.12
511.833	613.12
512.049	619.12
512.265	623.12
512.481	641.12
512.698	621.12
512.914	620.12
513.13	606.12
513.346	639.12
513.562	598.12
513.778	595.12
513.994	621.12
514.21	620.12
514.426	645.12
514.642	645.12
514.858	675.12
515.074	701.12
515.29	790.12
515.506	1064.12
515.721	926.12
515.937	697.12
516.153	673.12
516.369	653.12
516.585	650.12
516.801	637.12
517.016	649.12
517.232	672.12
517.448	676.12
517.664	686.12
517.879	673.12
518.095	658.12
518.311	653.12
518.527	636.12
518.742	642.12
518.958	650.12
519.173	635.12
519.389	629.12
519.605	622.12
519.82	624.12
520.036	635.12
520.251	618.12
520.467	655.12
520.682	671.12
520.898	648.12
521.113	653.12
521.329	685.12
521.544	720.12
521.76	860.12
521.975	1323.12
522.19	1253.12
522.406	819.12
522.621	636.12
522.836	587.12
523.052	595.12
523.267	562.12
523.482	563.12
523.698	543.12
523.913	556.12
524.128	545.12
524.343	547.12
524.559	547.12
524.774	552.12
524.989	556.12
525.204	552.12
525.419	567.12
525.634	541.12
525.849	521.12
526.064	551.12
526.28	525.12
526.495	513.12
526.71	535.12
526.925	510.12
527.14	516.12
527.355	537.12
527.57	511.12
527.785	520.12
527.999	503.12
528.214	530.12
528.429	528.12
528.644	527.12
528.859	540.12
529.074	520.12
529.289	529.12
529.503	595.12
529.718	557.12
529.933	538.12
530.148	535.12
530.363	524.12
530.577	519.12
530.792	519.12
531.007	505.12
531.221	501.12
531.436	503.12
531.651	489.12
531.865	489.12
532.08	484.12
532.295	499.12
532.509	501.12
532.724	493.12
532.938	508.12
533.153	503.12
533.367	489.12
533.582	490.12
533.796	492.12
534.011	501.12
534.225	497.12
534.44	490.12
534.654	508.12
534.868	500.12
535.083	491.12
535.297	502.12
535.511	530.12
535.726	519.12
535.94	502.12
536.154	481.12
536.369	475.12
536.583	471.12
536.797	501.12
537.011	487.12
537.225	469.12
537.44	480.12
537.654	456.12
537.868	459.12
538.082	469.12
538.296	470.12
538.51	507.12
538.724	482.12
538.938	485.12
539.153	481.12
539.367	513.12
539.581	513.12
539.795	484.12
540.009	462.12
540.222	473.12
540.436	486.12
540.65	494.12
540.864	507.12
541.078	465.12
541.292	495.12
541.506	472.12
541.72	483.12
541.934	497.12
542.147	501.12
542.361	469.12
542.575	477.12
542.789	493.12
543.002	495.12
543.216	460.12
543.43	477.12
543.644	488.12
543.857	473.12
544.071	472.12
544.285	465.12
544.498	479.12
544.712	489.12
544.925	488.12
545.139	475.12
545.352	481.12
545.566	463.12
545.779	475.12
545.993	477.12
546.206	505.12
546.42	485.12
546.633	483.12
546.847	454.12
547.06	482.12
547.274	444.12
547.487	476.12
547.7	479.12
547.914	448.12
548.127	472.12
548.34	481.12
548.554	485.12
548.767	445.12
548.98	449.12
549.193	445.12
549.407	461.12
549.62	485.12
549.833	481.12
550.046	475.12
550.259	466.12
550.473	489.12
550.686	470.12
550.899	468.12
551.112	471.12
551.325	452.12
551.538	461.12
551.751	452.12
551.964	445.12
552.177	443.12
552.39	459.12
552.603	450.12
552.816	475.12
553.029	487.12
553.242	492.12
553.455	496.12
553.667	505.12
553.88	511.12
554.093	495.12
554.306	479.12
554.519	473.12
554.732	459.12
554.944	459.12
555.157	445.12
555.37	450.12
555.583	449.12
555.795	455.12
556.008	420.12
556.221	409.12
556.433	427.12
556.646	423.12
556.859	400.12
557.071	419.12
557.284	432.12
557.496	441.12
557.709	397.12
557.921	422.12
558.134	405.12
558.346	419.12
558.559	416.12
558.771	424.12
558.984	415.12
559.196	389.12
559.409	403.12
559.621	405.12
559.833	400.12
560.046	389.12
560.258	398.12
560.47	400.12
560.683	427.12
560.895	410.12
561.107	382.12
561.32	409.12
561.532	398.12
561.744	402.12
561.956	421.12
562.168	417.12
562.381	417.12
562.593	421.12
562.805	408.12
563.017	440.12
563.229	427.12
563.441	408.12
563.653	397.12
563.865	413.12
564.077	425.12
564.289	429.12
564.501	419.12
564.713	433.12
564.925	443.12
565.137	431.12
565.349	428.12
565.561	459.12
565.773	455.12
565.985	458.12
566.197	469.12
566.408	505.12
566.62	511.12
566.832	535.12
567.044	549.12
567.255	542.12
567.467	573.12
567.679	569.12
567.891	576.12
568.102	571.12
568.314	564.12
568.526	528.12
568.737	495.12
568.949	501.12
569.161	459.12
569.372	478.12
569.584	441.12
569.795	428.12
570.007	445.12
570.218	453.12
570.43	447.12
570.641	422.12
570.853	410.12
571.064	409.12
571.276	416.12
571.487	413.12
571.698	413.12
571.91	400.12
572.121	392.12
572.333	375.12
572.544	396.12
572.755	358.12
572.966	372.12
573.178	361.12
573.389	346.12
573.6	356.12
573.811	358.12
574.023	360.12
574.234	330.12
574.445	338.12
574.656	346.12
574.867	368.12
575.078	352.12
575.289	363.12
575.501	341.12
575.712	343.12
575.923	347.12
576.134	346.12
576.345	347.12
576.556	368.12
576.767	346.12
576.978	344.12
577.188	358.12
577.399	345.12
577.61	349.12
577.821	325.12
578.032	351.12
578.243	368.12
578.454	489.12
578.665	409.12
578.875	350.12
579.086	332.12
579.297	319.12
579.508	331.12
579.718	318.12
579.929	331.12
580.14	321.12
580.35	308.12
580.561	311.12
580.772	316.12
580.982	317.12
581.193	323.12
581.403	320.12
581.614	329.12
581.825	328.12
582.035	324.12
582.246	325.12
582.456	318.12
582.667	339.12
582.877	318.12
583.087	326.12
583.298	300.12
583.508	309.12
583.719	323.12
583.929	326.12
584.139	330.12
584.35	321.12
584.56	327.12
584.77	312.12
584.981	322.12
585.191	301.12
585.401	320.12
585.611	312.12
585.821	296.12
586.032	321.12
586.242	326.12
586.452	312.12
586.662	309.12
586.872	323.12
587.082	314.12
587.292	319.12
587.502	301.12
587.713	297.12
587.923	329.12
588.133	304.12
588.343	291.12
588.553	307.12
588.762	322.12
588.972	302.12
589.182	320.12
589.392	316.12
589.602	318.12
589.812	306.12
590.022	320.12
590.232	304.12
590.441	303.12
590.651	319.12
590.861	327.12
591.071	296.12
591.281	327.12
591.49	324.12
591.7	337.12
591.91	329.12
592.119	320.12
592.329	334.12
592.539	349.12
592.748	330.12
592.958	343.12
593.167	331.12
593.377	341.12
593.587	343.12
593.796	345.12
594.006	372.12
594.215	336.12
594.424	328.12
594.634	339.12
594.843	338.12
595.053	326.12
595.262	336.12
595.472	315.12
595.681	309.12
595.89	311.12
596.1	309.12
596.309	319.12
596.518	297.12
596.727	294.12
596.937	289.12
597.146	298.12
597.355	315.12
597.564	303.12
597.774	293.12
597.983	296.12
598.192	286.12
598.401	301.12
598.61	300.12
598.819	292.12
599.028	271.12
599.237	272.12
599.446	271.12
599.655	294.12
599.864	285.12
600.073	284.12
600.282	286.12
600.491	285.12
600.7	263.12
600.909	260.12
601.118	269.12
601.327	268.12
601.536	275.12
601.745	279.12
601.953	267.12
602.162	259.12
602.371	265.12
602.58	257.12
602.789	266.12
602.997	272.12
603.206	270.12
603.415	259.12
603.623	264.12
603.832	267.12
604.041	259.12
604.249	256.12
604.458	268.12
604.666	256.12
604.875	248.12
605.084	248.12
605.292	259.12
605.501	258.12
605.709	282.12
605.918	240.12
606.126	238.12
606.334	259.12
606.543	248.12
606.751	269.12
606.96	262.12
607.168	251.12
607.376	259.12
607.585	262.12
607.793	259.12
608.001	250.12
608.21	253.12
608.418	256.12
608.626	252.12
608.834	266.12
609.043	254.12
609.251	261.12
609.459	262.12
609.667	263.12
609.875	245.12
610.083	262.12
610.291	245.12
610.499	253.12
610.707	267.12
610.916	252.12
611.124	259.12
611.332	265.12
611.54	268.12
611.748	247.12
611.955	225.12
612.163	230.12
612.371	248.12
612.579	243.12
612.787	260.12
612.995	245.12
613.203	253.12
613.411	238.12
613.618	245.12
613.826	236.12
614.034	241.12
614.242	249.12
614.449	234.12
614.657	241.12
614.865	231.12
615.072	256.12
615.28	259.12
615.488	263.12
615.695	251.12
615.903	252.12
616.111	239.12
616.318	267.12
616.526	275.12
616.733	270.12
616.941	232.12
617.148	238.12
617.356	250.12
617.563	262.12
617.771	234.12
617.978	239.12
618.185	246.12
618.393	255.12
618.6	239.12
618.807	226.12
619.015	223.12
619.222	243.12
619.429	243.12
619.637	231.12
619.844	256.12
620.051	220.12
620.258	225.12
620.466	230.12
620.673	219.12
620.88	220.12
621.087	224.12
621.294	227.12
621.501	233.12
621.708	212.12
621.915	228.12
622.122	252.12
622.329	230.12
622.536	245.12
622.743	227.12
622.95	230.12
623.157	235.12
623.364	235.12
623.571	227.12
623.778	221.12
623.985	239.12
624.192	231.12
624.399	216.12
624.606	218.12
624.812	223.12
625.019	227.12
625.226	225.12
625.433	209.12
625.639	222.12
625.846	227.12
626.053	233.12
626.259	210.12
626.466	219.12
626.673	204.12
626.879	210.12
627.086	215.12
627.293	224.12
627.499	205.12
627.706	196.12
627.912	223.12
628.119	213.12
628.325	224.12
628.532	210.12
628.738	212.12
628.945	209.12
629.151	205.12
629.357	207.12
629.564	190.12
629.77	206.12
629.976	201.12
630.183	215.12
630.389	213.12
630.595	197.12
630.802	206.12
631.008	200.12
631.214	207.12
631.42	205.12
631.627	196.12
631.833	184.12
632.039	204.12
632.245	200.12
632.451	205.12
632.657	199.12
632.863	203.12
633.069	193.12
633.275	193.12
633.481	204.12
633.688	198.12
633.893	201.12
634.099	200.12
634.305	201.12
634.511	188.12
634.717	192.12
634.923	179.12
635.129	195.12
635.335	187.12
635.541	200.12
635.747	198.12
635.952	187.12
636.158	180.12
636.364	176.12
636.57	170.12
636.775	211.12
636.981	188.12
637.187	188.12
637.392	165.12
637.598	183.12
637.804	193.12
638.009	181.12
638.215	190.12
638.421	199.12
638.626	166.12
638.832	202.12
639.037	198.12
639.243	185.12
639.448	185.12
639.654	192.12
639.859	179.12
640.065	192.12
640.27	183.12
640.475	189.12
640.681	183.12
640.886	185.12
641.091	195.12
641.297	181.12
641.502	185.12
641.707	172.12
641.913	172.12
642.118	167.12
642.323	181.12
642.528	179.12
642.733	177.12
642.939	167.12
643.144	165.12
643.349	174.12
643.554	168.12
643.759	179.12
643.964	172.12
644.169	168.12
644.374	171.12
644.579	166.12
644.784	176.12
644.989	172.12
645.194	167.12
645.399	171.12
645.604	171.12
645.809	188.12
646.014	174.12
646.219	168.12
646.423	174.12
646.628	177.12
646.833	173.12
647.038	174.12
647.243	175.12
647.447	174.12
647.652	183.12
647.857	181.12
648.062	194.12
648.266	181.12
648.471	195.12
648.676	189.12
648.88	178.12
649.085	163.12
649.289	185.12
649.494	180.12
649.698	187.12
649.903	200.12
650.107	176.12
650.312	171.12
650.516	156.12
650.721	159.12
650.925	178.12
651.13	167.12
651.334	157.12
651.539	158.12
651.743	165.12
651.947	163.12
652.152	160.12
652.356	157.12
652.56	148.12
652.764	163.12
652.969	144.12
653.173	153.12
653.377	135.12
653.581	156.12
653.785	135.12
653.99	143.12
654.194	139.12
654.398	148.12
654.602	137.12
654.806	135.12
655.01	128.12
655.214	145.12
655.418	149.12
655.622	135.12
655.826	127.12
656.03	138.12
656.234	149.12
656.438	154.12
656.642	166.12
656.846	141.12
657.049	130.12
657.253	130.12
657.457	137.12
657.661	116.12
657.865	139.12
658.068	127.12
658.272	117.12
658.476	108.12
658.68	100.12
658.883	104.12
659.087	107.12
659.291	102.12
659.494	125.12
659.698	101.12
659.901	100.12
660.105	102.12
660.309	101.12
660.512	96.12
660.716	99.12
660.919	85.12
661.123	101.12
661.326	92.12
661.53	93.12
661.733	96.12
661.936	104.12
662.14	94.12
662.343	94.12
662.546	90.12
662.75	90.12
662.953	85.12
663.156	92.12
663.36	81.12
663.563	80.12
663.766	82.12
663.969	83.12
664.173	81.12
664.376	74.12
664.579	81.12
664.782	93.12
664.985	88.12
665.188	75.12
665.391	86.12
665.594	94.12
665.797	85.12
666	88.12
666.203	94.12
666.406	87.12
666.609	80.12
666.812	80.12
667.015	65.12
667.218	94.12
667.421	79.12
667.624	88.12
667.827	87.12
668.03	83.12
668.232	86.12
668.435	95.12
668.638	80.12
668.841	82.12
669.043	78.12
669.246	88.12
669.449	85.12
669.651	91.12
669.854	85.12
670.057	73.12
670.259	90.12
670.462	71.12
670.665	95.12
670.867	91.12
671.07	88.12
671.272	94.12
671.475	92.12
671.677	72.12
671.88	86.12
672.082	85.12
672.284	85.12
672.487	92.12
672.689	75.12
672.892	94.12
