Data from 1976.PennyLincolnUp.Lamp.En5.5.200Scan.071719.P1.Changed Mount._HRD10591_16-02-32-864.txt Node
Date: Thu Jul 18 16:02:32 EDT 2019
User: cochatt
Spectrometer: HR+D1059
Trigger mode: 1
Integration Time (sec): 1.000000E-1
Scans to average: 1
Electric dark correction enabled: true
Nonlinearity correction enabled: false
Boxcar width: 0
XAxis mode: Wavelengths
Number of Pixels in Spectrum: 2048
>>>>>Begin Spectral Data<<<<<
223.165	-18.25
223.4	-18.25
223.635	-18.25
223.869	-9.25
224.104	-15.25
224.338	-18.25
224.573	1.75
224.808	-29.25
225.042	-1.25
225.277	-1.25
225.511	-1.25
225.746	-8.25
225.98	-7.25
226.215	14.75
226.449	22.75
226.683	15.75
226.918	23.75
227.152	30.75
227.387	30.75
227.621	30.75
227.856	39.75
228.09	50.75
228.324	44.75
228.559	57.75
228.793	69.75
229.027	89.75
229.262	123.75
229.496	113.75
229.73	129.75
229.964	142.75
230.199	151.75
230.433	132.75
230.667	109.75
230.901	114.75
231.136	100.75
231.37	108.75
231.604	107.75
231.838	118.75
232.072	113.75
232.306	121.75
232.541	107.75
232.775	109.75
233.009	121.75
233.243	111.75
233.477	108.75
233.711	123.75
233.945	101.75
234.179	118.75
234.413	118.75
234.647	116.75
234.881	130.75
235.115	113.75
235.349	127.75
235.583	126.75
235.817	121.75
236.051	133.75
236.285	140.75
236.519	132.75
236.753	125.75
236.987	154.75
237.221	192.75
237.455	241.75
237.689	191.75
237.922	147.75
238.156	129.75
238.39	132.75
238.624	133.75
238.858	132.75
239.091	132.75
239.325	124.75
239.559	121.75
239.793	132.75
240.027	137.75
240.26	163.75
240.494	165.75
240.728	149.75
240.961	162.75
241.195	145.75
241.429	136.75
241.662	143.75
241.896	129.75
242.13	140.75
242.363	137.75
242.597	137.75
242.83	158.75
243.064	147.75
243.298	156.75
243.531	133.75
243.765	135.75
243.998	143.75
244.232	144.75
244.465	143.75
244.699	154.75
244.932	150.75
245.166	148.75
245.399	157.75
245.633	153.75
245.866	163.75
246.099	137.75
246.333	151.75
246.566	154.75
246.8	169.75
247.033	158.75
247.266	153.75
247.5	184.75
247.733	169.75
247.966	175.75
248.2	178.75
248.433	160.75
248.666	167.75
248.899	198.75
249.133	220.75
249.366	213.75
249.599	222.75
249.832	197.75
250.066	185.75
250.299	183.75
250.532	215.75
250.765	217.75
250.998	225.75
251.231	226.75
251.465	215.75
251.698	190.75
251.931	221.75
252.164	209.75
252.397	196.75
252.63	207.75
252.863	219.75
253.096	222.75
253.329	234.75
253.562	239.75
253.795	210.75
254.028	221.75
254.261	213.75
254.494	233.75
254.727	259.75
254.96	284.75
255.193	284.75
255.426	259.75
255.659	237.75
255.892	233.75
256.124	231.75
256.357	257.75
256.59	249.75
256.823	222.75
257.056	223.75
257.289	214.75
257.521	217.75
257.754	211.75
257.987	214.75
258.22	231.75
258.452	213.75
258.685	236.75
258.918	217.75
259.151	232.75
259.383	224.75
259.616	248.75
259.849	241.75
260.081	247.75
260.314	255.75
260.547	271.75
260.779	274.75
261.012	257.75
261.244	230.75
261.477	245.75
261.71	224.75
261.942	219.75
262.175	239.75
262.407	229.75
262.64	230.75
262.872	207.75
263.105	209.75
263.337	223.75
263.57	218.75
263.802	212.75
264.035	233.75
264.267	221.75
264.499	222.75
264.732	238.75
264.964	235.75
265.197	219.75
265.429	238.75
265.661	221.75
265.894	235.75
266.126	225.75
266.358	218.75
266.591	231.75
266.823	230.75
267.055	232.75
267.287	251.75
267.52	233.75
267.752	230.75
267.984	251.75
268.216	236.75
268.448	269.75
268.681	257.75
268.913	269.75
269.145	292.75
269.377	287.75
269.609	281.75
269.841	301.75
270.073	293.75
270.306	330.75
270.538	318.75
270.77	327.75
271.002	321.75
271.234	314.75
271.466	339.75
271.698	341.75
271.93	323.75
272.162	346.75
272.394	342.75
272.626	334.75
272.858	294.75
273.09	315.75
273.322	300.75
273.553	300.75
273.785	282.75
274.017	299.75
274.249	273.75
274.481	282.75
274.713	300.75
274.945	278.75
275.176	275.75
275.408	274.75
275.64	300.75
275.872	297.75
276.104	316.75
276.335	297.75
276.567	297.75
276.799	298.75
277.031	307.75
277.262	337.75
277.494	340.75
277.726	326.75
277.957	315.75
278.189	311.75
278.421	298.75
278.652	284.75
278.884	297.75
279.115	297.75
279.347	300.75
279.579	291.75
279.81	291.75
280.042	297.75
280.273	282.75
280.505	294.75
280.736	292.75
280.968	303.75
281.199	292.75
281.431	287.75
281.662	302.75
281.894	285.75
282.125	302.75
282.356	312.75
282.588	333.75
282.819	320.75
283.051	292.75
283.282	289.75
283.513	283.75
283.745	312.75
283.976	317.75
284.207	307.75
284.439	321.75
284.67	331.75
284.901	305.75
285.132	306.75
285.364	293.75
285.595	317.75
285.826	309.75
286.057	318.75
286.288	314.75
286.52	303.75
286.751	314.75
286.982	297.75
287.213	330.75
287.444	314.75
287.675	312.75
287.906	345.75
288.138	318.75
288.369	326.75
288.6	342.75
288.831	317.75
289.062	328.75
289.293	320.75
289.524	316.75
289.755	310.75
289.986	326.75
290.217	331.75
290.448	345.75
290.679	316.75
290.91	329.75
291.141	309.75
291.371	318.75
291.602	325.75
291.833	325.75
292.064	310.75
292.295	325.75
292.526	324.75
292.757	331.75
292.987	321.75
293.218	314.75
293.449	318.75
293.68	323.75
293.91	308.75
294.141	321.75
294.372	335.75
294.603	324.75
294.833	308.75
295.064	321.75
295.295	311.75
295.525	325.75
295.756	330.75
295.987	342.75
296.217	365.75
296.448	373.75
296.679	346.75
296.909	329.75
297.14	314.75
297.37	325.75
297.601	319.75
297.831	338.75
298.062	322.75
298.292	322.75
298.523	347.75
298.753	334.75
298.984	350.75
299.214	327.75
299.445	349.75
299.675	351.75
299.905	354.75
300.136	340.75
300.366	331.75
300.597	341.75
300.827	361.75
301.057	358.75
301.288	360.75
301.518	357.75
301.748	356.75
301.979	351.75
302.209	354.75
302.439	352.75
302.669	352.75
302.9	354.75
303.13	356.75
303.36	367.75
303.59	369.75
303.82	359.75
304.051	362.75
304.281	369.75
304.511	389.75
304.741	373.75
304.971	372.75
305.201	346.75
305.431	352.75
305.661	365.75
305.891	350.75
306.121	356.75
306.352	355.75
306.582	381.75
306.812	354.75
307.042	350.75
307.272	381.75
307.502	360.75
307.731	358.75
307.961	363.75
308.191	348.75
308.421	356.75
308.651	333.75
308.881	355.75
309.111	378.75
309.341	367.75
309.571	378.75
309.8	389.75
310.03	395.75
310.26	395.75
310.49	373.75
310.72	395.75
310.949	422.75
311.179	412.75
311.409	400.75
311.639	394.75
311.868	407.75
312.098	393.75
312.328	402.75
312.557	403.75
312.787	424.75
313.017	428.75
313.246	401.75
313.476	412.75
313.706	415.75
313.935	418.75
314.165	407.75
314.394	422.75
314.624	434.75
314.853	421.75
315.083	398.75
315.312	413.75
315.542	407.75
315.771	395.75
316.001	411.75
316.23	391.75
316.46	409.75
316.689	410.75
316.919	424.75
317.148	412.75
317.377	434.75
317.607	428.75
317.836	421.75
318.065	391.75
318.295	422.75
318.524	400.75
318.753	380.75
318.983	397.75
319.212	398.75
319.441	419.75
319.67	426.75
319.9	398.75
320.129	419.75
320.358	394.75
320.587	413.75
320.816	417.75
321.046	428.75
321.275	433.75
321.504	407.75
321.733	418.75
321.962	451.75
322.191	440.75
322.42	455.75
322.649	454.75
322.878	478.75
323.108	467.75
323.337	502.75
323.566	497.75
323.795	535.75
324.024	558.75
324.253	666.75
324.482	946.75
324.71	1406.75
324.939	2100.75
325.168	1845.75
325.397	943.75
325.626	655.75
325.855	551.75
326.084	522.75
326.313	537.75
326.542	523.75
326.77	532.75
326.999	633.75
327.228	869.75
327.457	1278.75
327.686	1612.75
327.914	1057.75
328.143	709.75
328.372	621.75
328.6	574.75
328.829	556.75
329.058	587.75
329.287	588.75
329.515	541.75
329.744	521.75
329.972	502.75
330.201	542.75
330.43	599.75
330.658	590.75
330.887	614.75
331.115	604.75
331.344	527.75
331.572	519.75
331.801	521.75
332.03	525.75
332.258	482.75
332.486	490.75
332.715	467.75
332.943	490.75
333.172	485.75
333.4	513.75
333.629	521.75
333.857	511.75
334.085	542.75
334.314	570.75
334.542	589.75
334.771	589.75
334.999	570.75
335.227	499.75
335.455	515.75
335.684	491.75
335.912	494.75
336.14	491.75
336.369	491.75
336.597	497.75
336.825	508.75
337.053	485.75
337.281	487.75
337.51	477.75
337.738	480.75
337.966	485.75
338.194	491.75
338.422	478.75
338.65	478.75
338.878	462.75
339.106	458.75
339.334	472.75
339.562	462.75
339.79	464.75
340.018	465.75
340.246	454.75
340.474	464.75
340.702	468.75
340.93	462.75
341.158	456.75
341.386	460.75
341.614	472.75
341.842	454.75
342.07	462.75
342.298	448.75
342.526	463.75
342.754	443.75
342.981	450.75
343.209	460.75
343.437	465.75
343.665	451.75
343.893	466.75
344.12	507.75
344.348	477.75
344.576	474.75
344.804	489.75
345.031	497.75
345.259	509.75
345.487	477.75
345.714	454.75
345.942	441.75
346.17	451.75
346.397	436.75
346.625	442.75
346.853	436.75
347.08	433.75
347.308	461.75
347.535	477.75
347.763	451.75
347.99	458.75
348.218	468.75
348.445	465.75
348.673	454.75
348.9	445.75
349.128	453.75
349.355	417.75
349.583	421.75
349.81	420.75
350.037	429.75
350.265	417.75
350.492	447.75
350.72	445.75
350.947	441.75
351.174	451.75
351.402	439.75
351.629	431.75
351.856	453.75
352.083	456.75
352.311	444.75
352.538	434.75
352.765	446.75
352.992	459.75
353.22	437.75
353.447	436.75
353.674	422.75
353.901	444.75
354.128	438.75
354.355	435.75
354.583	455.75
354.81	417.75
355.037	413.75
355.264	446.75
355.491	420.75
355.718	417.75
355.945	418.75
356.172	410.75
356.399	421.75
356.626	413.75
356.853	429.75
357.08	411.75
357.307	405.75
357.534	397.75
357.761	398.75
357.988	424.75
358.215	448.75
358.441	433.75
358.668	404.75
358.895	430.75
359.122	418.75
359.349	426.75
359.576	460.75
359.802	455.75
360.029	475.75
360.256	495.75
360.483	479.75
360.709	456.75
360.936	463.75
361.163	445.75
361.39	445.75
361.616	450.75
361.843	437.75
362.07	454.75
362.296	436.75
362.523	459.75
362.749	445.75
362.976	432.75
363.203	425.75
363.429	439.75
363.656	417.75
363.882	426.75
364.109	438.75
364.335	429.75
364.562	439.75
364.788	418.75
365.015	426.75
365.241	428.75
365.468	437.75
365.694	418.75
365.92	441.75
366.147	430.75
366.373	437.75
366.599	437.75
366.826	420.75
367.052	414.75
367.278	415.75
367.505	434.75
367.731	413.75
367.957	441.75
368.184	457.75
368.41	428.75
368.636	435.75
368.862	465.75
369.089	415.75
369.315	425.75
369.541	399.75
369.767	429.75
369.993	433.75
370.219	438.75
370.445	429.75
370.672	438.75
370.898	440.75
371.124	427.75
371.35	421.75
371.576	437.75
371.802	439.75
372.028	446.75
372.254	433.75
372.48	420.75
372.706	430.75
372.932	442.75
373.158	435.75
373.384	434.75
373.61	435.75
373.835	436.75
374.061	426.75
374.287	431.75
374.513	438.75
374.739	438.75
374.965	462.75
375.191	457.75
375.416	445.75
375.642	443.75
375.868	442.75
376.094	431.75
376.319	453.75
376.545	410.75
376.771	440.75
376.997	430.75
377.222	422.75
377.448	429.75
377.674	426.75
377.899	429.75
378.125	425.75
378.35	410.75
378.576	411.75
378.802	412.75
379.027	433.75
379.253	454.75
379.478	443.75
379.704	430.75
379.929	430.75
380.155	446.75
380.38	428.75
380.606	435.75
380.831	441.75
381.057	436.75
381.282	445.75
381.507	437.75
381.733	413.75
381.958	437.75
382.184	416.75
382.409	441.75
382.634	429.75
382.86	426.75
383.085	463.75
383.31	439.75
383.535	458.75
383.761	451.75
383.986	459.75
384.211	451.75
384.436	470.75
384.662	463.75
384.887	479.75
385.112	467.75
385.337	493.75
385.562	475.75
385.787	488.75
386.013	469.75
386.238	467.75
386.463	481.75
386.688	475.75
386.913	483.75
387.138	476.75
387.363	485.75
387.588	478.75
387.813	474.75
388.038	478.75
388.263	484.75
388.488	479.75
388.713	473.75
388.938	478.75
389.163	481.75
389.387	466.75
389.612	482.75
389.837	481.75
390.062	472.75
390.287	469.75
390.512	488.75
390.736	477.75
390.961	463.75
391.186	470.75
391.411	486.75
391.636	493.75
391.86	499.75
392.085	464.75
392.31	495.75
392.534	494.75
392.759	501.75
392.984	481.75
393.208	499.75
393.433	463.75
393.658	478.75
393.882	486.75
394.107	501.75
394.331	486.75
394.556	480.75
394.78	480.75
395.005	507.75
395.229	499.75
395.454	487.75
395.678	501.75
395.903	510.75
396.127	534.75
396.352	522.75
396.576	521.75
396.801	526.75
397.025	510.75
397.249	499.75
397.474	515.75
397.698	530.75
397.922	532.75
398.147	542.75
398.371	547.75
398.595	561.75
398.82	559.75
399.044	574.75
399.268	579.75
399.492	636.75
399.717	670.75
399.941	717.75
400.165	717.75
400.389	696.75
400.613	636.75
400.837	598.75
401.062	569.75
401.286	566.75
401.51	564.75
401.734	545.75
401.958	552.75
402.182	554.75
402.406	579.75
402.63	563.75
402.854	582.75
403.078	558.75
403.302	589.75
403.526	572.75
403.75	590.75
403.974	601.75
404.198	589.75
404.422	591.75
404.645	594.75
404.869	596.75
405.093	626.75
405.317	677.75
405.541	740.75
405.765	651.75
405.988	616.75
406.212	637.75
406.436	641.75
406.66	660.75
406.883	631.75
407.107	643.75
407.331	703.75
407.555	769.75
407.778	781.75
408.002	689.75
408.226	625.75
408.449	645.75
408.673	655.75
408.896	685.75
409.12	699.75
409.344	665.75
409.567	603.75
409.791	595.75
410.014	583.75
410.238	579.75
410.461	574.75
410.685	591.75
410.908	610.75
411.132	666.75
411.355	628.75
411.578	632.75
411.802	583.75
412.025	551.75
412.249	590.75
412.472	602.75
412.695	645.75
412.919	645.75
413.142	591.75
413.365	574.75
413.589	590.75
413.812	576.75
414.035	530.75
414.258	558.75
414.482	552.75
414.705	561.75
414.928	563.75
415.151	552.75
415.374	558.75
415.597	564.75
415.821	533.75
416.044	533.75
416.267	562.75
416.49	543.75
416.713	537.75
416.936	542.75
417.159	525.75
417.382	537.75
417.605	579.75
417.828	545.75
418.051	563.75
418.274	569.75
418.497	550.75
418.72	548.75
418.943	556.75
419.166	580.75
419.389	592.75
419.611	602.75
419.834	562.75
420.057	555.75
420.28	579.75
420.503	567.75
420.726	564.75
420.948	596.75
421.171	644.75
421.394	643.75
421.617	592.75
421.839	563.75
422.062	564.75
422.285	567.75
422.507	638.75
422.73	711.75
422.953	690.75
423.175	592.75
423.398	580.75
423.621	567.75
423.843	627.75
424.066	613.75
424.288	620.75
424.511	629.75
424.733	691.75
424.956	781.75
425.178	766.75
425.401	733.75
425.623	777.75
425.846	671.75
426.068	623.75
426.291	596.75
426.513	605.75
426.735	615.75
426.958	642.75
427.18	725.75
427.402	871.75
427.625	941.75
427.847	817.75
428.069	692.75
428.292	633.75
428.514	614.75
428.736	587.75
428.958	573.75
429.181	547.75
429.403	578.75
429.625	562.75
429.847	591.75
430.069	634.75
430.292	689.75
430.514	571.75
430.736	550.75
430.958	535.75
431.18	527.75
431.402	535.75
431.624	533.75
431.846	511.75
432.068	539.75
432.29	541.75
432.512	532.75
432.734	528.75
432.956	542.75
433.178	553.75
433.4	551.75
433.622	534.75
433.844	526.75
434.066	535.75
434.287	538.75
434.509	541.75
434.731	542.75
434.953	564.75
435.175	566.75
435.397	596.75
435.618	595.75
435.84	656.75
436.062	745.75
436.284	809.75
436.505	678.75
436.727	625.75
436.949	575.75
437.17	550.75
437.392	557.75
437.614	562.75
437.835	576.75
438.057	682.75
438.278	791.75
438.5	783.75
438.721	876.75
438.943	848.75
439.165	672.75
439.386	635.75
439.608	621.75
439.829	596.75
440.05	620.75
440.272	652.75
440.493	642.75
440.715	584.75
440.936	562.75
441.158	571.75
441.379	562.75
441.6	562.75
441.822	617.75
442.043	635.75
442.264	733.75
442.486	759.75
442.707	661.75
442.928	622.75
443.149	645.75
443.371	632.75
443.592	668.75
443.813	811.75
444.034	835.75
444.255	734.75
444.476	645.75
444.698	643.75
444.919	629.75
445.14	707.75
445.361	653.75
445.582	636.75
445.803	684.75
446.024	819.75
446.245	836.75
446.466	748.75
446.687	626.75
446.908	583.75
447.129	557.75
447.35	562.75
447.571	565.75
447.792	534.75
448.013	548.75
448.234	551.75
448.455	653.75
448.675	744.75
448.896	855.75
449.117	724.75
449.338	663.75
449.559	810.75
449.779	931.75
450	738.75
450.221	617.75
450.442	558.75
450.662	547.75
450.883	536.75
451.104	559.75
451.324	535.75
451.545	501.75
451.766	492.75
451.986	499.75
452.207	502.75
452.428	487.75
452.648	490.75
452.869	481.75
453.089	492.75
453.31	493.75
453.53	493.75
453.751	480.75
453.971	493.75
454.192	531.75
454.412	503.75
454.633	500.75
454.853	501.75
455.073	488.75
455.294	529.75
455.514	589.75
455.734	568.75
455.955	524.75
456.175	475.75
456.395	463.75
456.616	477.75
456.836	451.75
457.056	460.75
457.276	466.75
457.497	447.75
457.717	456.75
457.937	458.75
458.157	487.75
458.377	462.75
458.598	499.75
458.818	546.75
459.038	616.75
459.258	634.75
459.478	568.75
459.698	508.75
459.918	523.75
460.138	557.75
460.358	542.75
460.578	520.75
460.798	546.75
461.018	560.75
461.238	558.75
461.458	556.75
461.678	551.75
461.898	556.75
462.118	556.75
462.338	567.75
462.558	579.75
462.777	565.75
462.997	618.75
463.217	615.75
463.437	636.75
463.657	605.75
463.876	600.75
464.096	593.75
464.316	606.75
464.536	611.75
464.755	582.75
464.975	586.75
465.195	607.75
465.414	659.75
465.634	583.75
465.854	555.75
466.073	549.75
466.293	538.75
466.512	505.75
466.732	506.75
466.951	500.75
467.171	503.75
467.391	509.75
467.61	499.75
467.829	503.75
468.049	485.75
468.268	518.75
468.488	489.75
468.707	484.75
468.927	500.75
469.146	477.75
469.365	504.75
469.585	471.75
469.804	511.75
470.023	533.75
470.243	498.75
470.462	531.75
470.681	538.75
470.901	525.75
471.12	501.75
471.339	518.75
471.558	519.75
471.777	513.75
471.997	511.75
472.216	510.75
472.435	531.75
472.654	526.75
472.873	509.75
473.092	502.75
473.311	502.75
473.53	502.75
473.749	507.75
473.968	541.75
474.187	656.75
474.406	661.75
474.625	552.75
474.844	558.75
475.063	492.75
475.282	489.75
475.501	504.75
475.72	544.75
475.939	525.75
476.158	494.75
476.377	524.75
476.596	518.75
476.814	547.75
477.033	552.75
477.252	543.75
477.471	533.75
477.69	551.75
477.908	556.75
478.127	554.75
478.346	584.75
478.564	570.75
478.783	591.75
479.002	606.75
479.22	583.75
479.439	585.75
479.658	609.75
479.876	628.75
480.095	641.75
480.313	636.75
480.532	667.75
480.751	659.75
480.969	654.75
481.188	671.75
481.406	697.75
481.624	645.75
481.843	591.75
482.061	598.75
482.28	597.75
482.498	604.75
482.717	593.75
482.935	581.75
483.153	601.75
483.372	595.75
483.59	592.75
483.808	605.75
484.027	612.75
484.245	588.75
484.463	595.75
484.681	615.75
484.9	598.75
485.118	601.75
485.336	602.75
485.554	589.75
485.772	610.75
485.99	627.75
486.209	629.75
486.427	615.75
486.645	641.75
486.863	635.75
487.081	648.75
487.299	647.75
487.517	649.75
487.735	632.75
487.953	649.75
488.171	662.75
488.389	629.75
488.607	649.75
488.825	647.75
489.043	634.75
489.261	642.75
489.479	655.75
489.696	667.75
489.914	665.75
490.132	691.75
490.35	673.75
490.568	653.75
490.786	691.75
491.003	697.75
491.221	700.75
491.439	706.75
491.657	712.75
491.874	708.75
492.092	735.75
492.31	745.75
492.527	715.75
492.745	723.75
492.963	761.75
493.18	716.75
493.398	732.75
493.615	740.75
493.833	747.75
494.05	736.75
494.268	740.75
494.485	747.75
494.703	741.75
494.92	772.75
495.138	734.75
495.355	744.75
495.573	756.75
495.79	751.75
496.008	776.75
496.225	753.75
496.442	745.75
496.66	757.75
496.877	775.75
497.094	735.75
497.312	771.75
497.529	805.75
497.746	800.75
497.963	814.75
498.181	822.75
498.398	845.75
498.615	841.75
498.832	853.75
499.049	887.75
499.267	900.75
499.484	978.75
499.701	1023.75
499.918	1047.75
500.135	1111.75
500.352	1193.75
500.569	1188.75
500.786	1212.75
501.003	1171.75
501.22	1135.75
501.437	1084.75
501.654	1047.75
501.871	1014.75
502.088	957.75
502.305	966.75
502.522	870.75
502.739	886.75
502.956	814.75
503.172	826.75
503.389	798.75
503.606	806.75
503.823	774.75
504.04	797.75
504.256	771.75
504.473	756.75
504.69	791.75
504.907	772.75
505.123	758.75
505.34	735.75
505.557	750.75
505.773	710.75
505.99	731.75
506.207	717.75
506.423	724.75
506.64	707.75
506.856	715.75
507.073	706.75
507.289	681.75
507.506	706.75
507.722	670.75
507.939	700.75
508.155	682.75
508.372	664.75
508.588	660.75
508.805	662.75
509.021	659.75
509.238	693.75
509.454	684.75
509.67	682.75
509.887	680.75
510.103	667.75
510.319	697.75
510.536	758.75
510.752	1133.75
510.968	923.75
511.184	658.75
511.401	636.75
511.617	654.75
511.833	603.75
512.049	636.75
512.265	611.75
512.481	630.75
512.698	639.75
512.914	622.75
513.13	626.75
513.346	631.75
513.562	626.75
513.778	621.75
513.994	639.75
514.21	625.75
514.426	651.75
514.642	663.75
514.858	718.75
515.074	730.75
515.29	844.75
515.506	1115.75
515.721	964.75
515.937	731.75
516.153	693.75
516.369	667.75
516.585	687.75
516.801	669.75
517.016	649.75
517.232	673.75
517.448	683.75
517.664	669.75
517.879	650.75
518.095	675.75
518.311	680.75
518.527	658.75
518.742	654.75
518.958	654.75
519.173	637.75
519.389	637.75
519.605	638.75
519.82	622.75
520.036	636.75
520.251	639.75
520.467	689.75
520.682	665.75
520.898	677.75
521.113	685.75
521.329	693.75
521.544	777.75
521.76	911.75
521.975	1366.75
522.19	1350.75
522.406	818.75
522.621	659.75
522.836	589.75
523.052	582.75
523.267	597.75
523.482	582.75
523.698	559.75
523.913	546.75
524.128	573.75
524.343	549.75
524.559	551.75
524.774	522.75
524.989	549.75
525.204	547.75
525.419	543.75
525.634	540.75
525.849	543.75
526.064	548.75
526.28	504.75
526.495	526.75
526.71	522.75
526.925	542.75
527.14	521.75
527.355	526.75
527.57	510.75
527.785	505.75
527.999	510.75
528.214	543.75
528.429	529.75
528.644	522.75
528.859	527.75
529.074	515.75
529.289	549.75
529.503	589.75
529.718	586.75
529.933	555.75
530.148	538.75
530.363	526.75
530.577	519.75
530.792	500.75
531.007	513.75
531.221	502.75
531.436	501.75
531.651	501.75
531.865	504.75
532.08	501.75
532.295	510.75
532.509	493.75
532.724	488.75
532.938	524.75
533.153	521.75
533.367	503.75
533.582	508.75
533.796	504.75
534.011	493.75
534.225	495.75
534.44	492.75
534.654	495.75
534.868	511.75
535.083	489.75
535.297	488.75
535.511	491.75
535.726	509.75
535.94	488.75
536.154	493.75
536.369	497.75
536.583	490.75
536.797	474.75
537.011	484.75
537.225	489.75
537.44	472.75
537.654	473.75
537.868	473.75
538.082	494.75
538.296	491.75
538.51	506.75
538.724	479.75
538.938	477.75
539.153	499.75
539.367	497.75
539.581	498.75
539.795	484.75
540.009	465.75
540.222	471.75
540.436	481.75
540.65	484.75
540.864	493.75
541.078	501.75
541.292	491.75
541.506	481.75
541.72	472.75
541.934	479.75
542.147	482.75
542.361	470.75
542.575	471.75
542.789	475.75
543.002	460.75
543.216	459.75
543.43	484.75
543.644	465.75
543.857	474.75
544.071	472.75
544.285	477.75
544.498	468.75
544.712	464.75
544.925	455.75
545.139	462.75
545.352	471.75
545.566	481.75
545.779	468.75
545.993	499.75
546.206	477.75
546.42	471.75
546.633	481.75
546.847	469.75
547.06	484.75
547.274	481.75
547.487	463.75
547.7	455.75
547.914	442.75
548.127	474.75
548.34	476.75
548.554	470.75
548.767	457.75
548.98	450.75
549.193	466.75
549.407	447.75
549.62	467.75
549.833	464.75
550.046	454.75
550.259	446.75
550.473	467.75
550.686	474.75
550.899	462.75
551.112	461.75
551.325	460.75
551.538	447.75
551.751	467.75
551.964	456.75
552.177	476.75
552.39	451.75
552.603	453.75
552.816	462.75
553.029	471.75
553.242	474.75
553.455	481.75
553.667	491.75
553.88	502.75
554.093	460.75
554.306	481.75
554.519	461.75
554.732	458.75
554.944	461.75
555.157	445.75
555.37	445.75
555.583	443.75
555.795	444.75
556.008	428.75
556.221	431.75
556.433	421.75
556.646	408.75
556.859	428.75
557.071	404.75
557.284	405.75
557.496	413.75
557.709	417.75
557.921	446.75
558.134	427.75
558.346	415.75
558.559	417.75
558.771	409.75
558.984	427.75
559.196	411.75
559.409	417.75
559.621	410.75
559.833	410.75
560.046	405.75
560.258	419.75
560.47	403.75
560.683	410.75
560.895	399.75
561.107	426.75
561.32	389.75
561.532	410.75
561.744	383.75
561.956	414.75
562.168	410.75
562.381	410.75
562.593	408.75
562.805	412.75
563.017	414.75
563.229	426.75
563.441	399.75
563.653	385.75
563.865	420.75
564.077	425.75
564.289	436.75
564.501	409.75
564.713	437.75
564.925	445.75
565.137	450.75
565.349	437.75
565.561	474.75
565.773	475.75
565.985	473.75
566.197	468.75
566.408	476.75
566.62	508.75
566.832	515.75
567.044	507.75
567.255	531.75
567.467	550.75
567.679	586.75
567.891	588.75
568.102	564.75
568.314	558.75
568.526	531.75
568.737	503.75
568.949	478.75
569.161	465.75
569.372	452.75
569.584	447.75
569.795	419.75
570.007	439.75
570.218	452.75
570.43	450.75
570.641	411.75
570.853	413.75
571.064	431.75
571.276	421.75
571.487	396.75
571.698	392.75
571.91	400.75
572.121	382.75
572.333	373.75
572.544	393.75
572.755	405.75
572.966	358.75
573.178	357.75
573.389	358.75
573.6	376.75
573.811	372.75
574.023	362.75
574.234	383.75
574.445	378.75
574.656	362.75
574.867	365.75
575.078	359.75
575.289	373.75
575.501	361.75
575.712	331.75
575.923	335.75
576.134	362.75
576.345	357.75
576.556	349.75
576.767	354.75
576.978	327.75
577.188	337.75
577.399	350.75
577.61	349.75
577.821	335.75
578.032	363.75
578.243	359.75
578.454	536.75
578.665	405.75
578.875	349.75
579.086	335.75
579.297	332.75
579.508	328.75
579.718	332.75
579.929	334.75
580.14	326.75
580.35	323.75
580.561	345.75
580.772	326.75
580.982	328.75
581.193	325.75
581.403	315.75
581.614	301.75
581.825	313.75
582.035	322.75
582.246	323.75
582.456	328.75
582.667	305.75
582.877	311.75
583.087	338.75
583.298	322.75
583.508	321.75
583.719	313.75
583.929	339.75
584.139	333.75
584.35	315.75
584.56	298.75
584.77	314.75
584.981	303.75
585.191	300.75
585.401	319.75
585.611	317.75
585.821	323.75
586.032	315.75
586.242	292.75
586.452	319.75
586.662	299.75
586.872	305.75
587.082	312.75
587.292	298.75
587.502	315.75
587.713	311.75
587.923	316.75
588.133	318.75
588.343	312.75
588.553	315.75
588.762	300.75
588.972	308.75
589.182	314.75
589.392	310.75
589.602	313.75
589.812	315.75
590.022	290.75
590.232	311.75
590.441	302.75
590.651	302.75
590.861	302.75
591.071	305.75
591.281	306.75
591.49	322.75
591.7	312.75
591.91	301.75
592.119	310.75
592.329	339.75
592.539	347.75
592.748	339.75
592.958	352.75
593.167	341.75
593.377	326.75
593.587	338.75
593.796	363.75
594.006	352.75
594.215	339.75
594.424	345.75
594.634	327.75
594.843	320.75
595.053	315.75
595.262	316.75
595.472	333.75
595.681	303.75
595.89	323.75
596.1	308.75
596.309	310.75
596.518	310.75
596.727	290.75
596.937	296.75
597.146	287.75
597.355	293.75
597.564	299.75
597.774	294.75
597.983	293.75
598.192	279.75
598.401	301.75
598.61	275.75
598.819	289.75
599.028	277.75
599.237	280.75
599.446	281.75
599.655	276.75
599.864	289.75
600.073	277.75
600.282	263.75
600.491	268.75
600.7	260.75
600.909	275.75
601.118	270.75
601.327	269.75
601.536	275.75
601.745	283.75
601.953	260.75
602.162	267.75
602.371	255.75
602.58	267.75
602.789	275.75
602.997	274.75
603.206	269.75
603.415	271.75
603.623	271.75
603.832	278.75
604.041	270.75
604.249	263.75
604.458	270.75
604.666	251.75
604.875	257.75
605.084	269.75
605.292	266.75
605.501	272.75
605.709	255.75
605.918	236.75
606.126	269.75
606.334	275.75
606.543	252.75
606.751	251.75
606.96	244.75
607.168	251.75
607.376	258.75
607.585	252.75
607.793	262.75
608.001	253.75
608.21	257.75
608.418	249.75
608.626	246.75
608.834	260.75
609.043	243.75
609.251	266.75
609.459	256.75
609.667	253.75
609.875	246.75
610.083	265.75
610.291	258.75
610.499	257.75
610.707	268.75
610.916	247.75
611.124	249.75
611.332	271.75
611.54	262.75
611.748	249.75
611.955	263.75
612.163	267.75
612.371	251.75
612.579	235.75
612.787	246.75
612.995	242.75
613.203	261.75
613.411	250.75
613.618	261.75
613.826	235.75
614.034	235.75
614.242	252.75
614.449	252.75
614.657	257.75
614.865	263.75
615.072	254.75
615.28	246.75
615.488	239.75
615.695	240.75
615.903	263.75
616.111	245.75
616.318	255.75
616.526	234.75
616.733	247.75
616.941	243.75
617.148	240.75
617.356	251.75
617.563	248.75
617.771	241.75
617.978	229.75
618.185	232.75
618.393	263.75
618.6	255.75
618.807	229.75
619.015	238.75
619.222	250.75
619.429	253.75
619.637	269.75
619.844	236.75
620.051	238.75
620.258	242.75
620.466	236.75
620.673	223.75
620.88	228.75
621.087	231.75
621.294	253.75
621.501	241.75
621.708	232.75
621.915	241.75
622.122	243.75
622.329	218.75
622.536	218.75
622.743	221.75
622.95	238.75
623.157	232.75
623.364	237.75
623.571	238.75
623.778	230.75
623.985	233.75
624.192	236.75
624.399	218.75
624.606	221.75
624.812	233.75
625.019	219.75
625.226	233.75
625.433	221.75
625.639	219.75
625.846	222.75
626.053	225.75
626.259	225.75
626.466	223.75
626.673	233.75
626.879	207.75
627.086	216.75
627.293	205.75
627.499	216.75
627.706	223.75
627.912	222.75
628.119	199.75
628.325	219.75
628.532	220.75
628.738	211.75
628.945	215.75
629.151	191.75
629.357	210.75
629.564	218.75
629.77	206.75
629.976	197.75
630.183	194.75
630.389	190.75
630.595	212.75
630.802	195.75
631.008	201.75
631.214	193.75
631.42	205.75
631.627	200.75
631.833	201.75
632.039	202.75
632.245	196.75
632.451	191.75
632.657	191.75
632.863	193.75
633.069	201.75
633.275	194.75
633.481	203.75
633.688	202.75
633.893	193.75
634.099	193.75
634.305	189.75
634.511	195.75
634.717	204.75
634.923	189.75
635.129	186.75
635.335	187.75
635.541	197.75
635.747	195.75
635.952	183.75
636.158	193.75
636.364	211.75
636.57	195.75
636.775	198.75
636.981	181.75
637.187	213.75
637.392	186.75
637.598	186.75
637.804	178.75
638.009	190.75
638.215	173.75
638.421	195.75
638.626	169.75
638.832	185.75
639.037	195.75
639.243	170.75
639.448	188.75
639.654	171.75
639.859	169.75
640.065	185.75
640.27	205.75
640.475	179.75
640.681	180.75
640.886	177.75
641.091	166.75
641.297	187.75
641.502	182.75
641.707	178.75
641.913	186.75
642.118	172.75
642.323	168.75
642.528	181.75
642.733	173.75
642.939	204.75
643.144	166.75
643.349	179.75
643.554	163.75
643.759	156.75
643.964	157.75
644.169	193.75
644.374	173.75
644.579	184.75
644.784	166.75
644.989	193.75
645.194	165.75
645.399	171.75
645.604	169.75
645.809	162.75
646.014	166.75
646.219	165.75
646.423	189.75
646.628	185.75
646.833	173.75
647.038	175.75
647.243	179.75
647.447	162.75
647.652	168.75
647.857	175.75
648.062	161.75
648.266	187.75
648.471	173.75
648.676	180.75
648.88	183.75
649.085	175.75
649.289	188.75
649.494	166.75
649.698	201.75
649.903	191.75
650.107	178.75
650.312	167.75
650.516	162.75
650.721	158.75
650.925	162.75
651.13	149.75
651.334	163.75
651.539	149.75
651.743	143.75
651.947	153.75
652.152	142.75
652.356	157.75
652.56	162.75
652.764	151.75
652.969	151.75
653.173	150.75
653.377	131.75
653.581	141.75
653.785	145.75
653.99	153.75
654.194	134.75
654.398	136.75
654.602	140.75
654.806	157.75
655.01	130.75
655.214	163.75
655.418	140.75
655.622	151.75
655.826	143.75
656.03	153.75
656.234	153.75
656.438	137.75
656.642	143.75
656.846	135.75
657.049	140.75
657.253	117.75
657.457	131.75
657.661	137.75
657.865	126.75
658.068	117.75
658.272	121.75
658.476	120.75
658.68	113.75
658.883	100.75
659.087	102.75
659.291	96.75
659.494	100.75
659.698	103.75
659.901	94.75
660.105	106.75
660.309	106.75
660.512	102.75
660.716	89.75
660.919	98.75
661.123	108.75
661.326	109.75
661.53	82.75
661.733	99.75
661.936	101.75
662.14	83.75
662.343	79.75
662.546	92.75
662.75	94.75
662.953	97.75
663.156	85.75
663.36	74.75
663.563	87.75
663.766	77.75
663.969	85.75
664.173	72.75
664.376	92.75
664.579	90.75
664.782	98.75
664.985	93.75
665.188	88.75
665.391	88.75
665.594	99.75
665.797	91.75
666	86.75
666.203	74.75
666.406	83.75
666.609	79.75
666.812	73.75
667.015	86.75
667.218	90.75
667.421	77.75
667.624	84.75
667.827	83.75
668.03	83.75
668.232	80.75
668.435	82.75
668.638	85.75
668.841	95.75
669.043	87.75
669.246	87.75
669.449	91.75
669.651	90.75
669.854	82.75
670.057	92.75
670.259	69.75
670.462	95.75
670.665	91.75
670.867	83.75
671.07	95.75
671.272	81.75
671.475	96.75
671.677	88.75
671.88	75.75
672.082	71.75
672.284	90.75
672.487	70.75
672.689	77.75
672.892	85.75
