Data from 1976.PennyLincolnUp.Lamp.En5.5.200Scan.071719.P1.Changed Mount._HRD10591_16-01-55-861.txt Node
Date: Thu Jul 18 16:01:55 EDT 2019
User: cochatt
Spectrometer: HR+D1059
Trigger mode: 1
Integration Time (sec): 1.000000E-1
Scans to average: 1
Electric dark correction enabled: true
Nonlinearity correction enabled: false
Boxcar width: 0
XAxis mode: Wavelengths
Number of Pixels in Spectrum: 2048
>>>>>Begin Spectral Data<<<<<
223.165	-13.06
223.4	-13.06
223.635	-13.06
223.869	-12.06
224.104	-17.06
224.338	-22.06
224.573	-8.06
224.808	-12.06
225.042	-24.06
225.277	-2.06
225.511	-0.06
225.746	-3.06
225.98	11.94
226.215	5.94
226.449	29.94
226.683	10.94
226.918	26.94
227.152	27.94
227.387	44.94
227.621	28.94
227.856	47.94
228.09	43.94
228.324	32.94
228.559	35.94
228.793	74.94
229.027	88.94
229.262	98.94
229.496	111.94
229.73	130.94
229.964	166.94
230.199	125.94
230.433	109.94
230.667	109.94
230.901	115.94
231.136	108.94
231.37	120.94
231.604	109.94
231.838	107.94
232.072	110.94
232.306	118.94
232.541	109.94
232.775	119.94
233.009	121.94
233.243	110.94
233.477	111.94
233.711	111.94
233.945	112.94
234.179	122.94
234.413	118.94
234.647	115.94
234.881	118.94
235.115	119.94
235.349	112.94
235.583	134.94
235.817	128.94
236.051	122.94
236.285	123.94
236.519	120.94
236.753	140.94
236.987	151.94
237.221	166.94
237.455	243.94
237.689	202.94
237.922	154.94
238.156	140.94
238.39	138.94
238.624	125.94
238.858	111.94
239.091	126.94
239.325	133.94
239.559	135.94
239.793	132.94
240.027	118.94
240.26	145.94
240.494	155.94
240.728	174.94
240.961	151.94
241.195	159.94
241.429	146.94
241.662	157.94
241.896	138.94
242.13	135.94
242.363	138.94
242.597	157.94
242.83	144.94
243.064	141.94
243.298	134.94
243.531	139.94
243.765	137.94
243.998	145.94
244.232	142.94
244.465	154.94
244.699	144.94
244.932	166.94
245.166	152.94
245.399	150.94
245.633	160.94
245.866	140.94
246.099	148.94
246.333	144.94
246.566	162.94
246.8	164.94
247.033	151.94
247.266	184.94
247.5	159.94
247.733	184.94
247.966	157.94
248.2	175.94
248.433	177.94
248.666	187.94
248.899	183.94
249.133	177.94
249.366	218.94
249.599	206.94
249.832	192.94
250.066	180.94
250.299	181.94
250.532	186.94
250.765	214.94
250.998	222.94
251.231	237.94
251.465	224.94
251.698	221.94
251.931	198.94
252.164	210.94
252.397	196.94
252.63	218.94
252.863	198.94
253.096	209.94
253.329	224.94
253.562	238.94
253.795	207.94
254.028	232.94
254.261	242.94
254.494	242.94
254.727	281.94
254.96	282.94
255.193	269.94
255.426	272.94
255.659	248.94
255.892	227.94
256.124	234.94
256.357	226.94
256.59	238.94
256.823	212.94
257.056	213.94
257.289	208.94
257.521	220.94
257.754	208.94
257.987	221.94
258.22	226.94
258.452	221.94
258.685	205.94
258.918	217.94
259.151	212.94
259.383	244.94
259.616	227.94
259.849	229.94
260.081	246.94
260.314	261.94
260.547	264.94
260.779	238.94
261.012	254.94
261.244	240.94
261.477	230.94
261.71	220.94
261.942	229.94
262.175	251.94
262.407	221.94
262.64	224.94
262.872	229.94
263.105	234.94
263.337	226.94
263.57	242.94
263.802	205.94
264.035	219.94
264.267	213.94
264.499	229.94
264.732	235.94
264.964	230.94
265.197	216.94
265.429	234.94
265.661	232.94
265.894	250.94
266.126	226.94
266.358	220.94
266.591	225.94
266.823	234.94
267.055	248.94
267.287	245.94
267.52	230.94
267.752	218.94
267.984	232.94
268.216	241.94
268.448	238.94
268.681	249.94
268.913	263.94
269.145	280.94
269.377	300.94
269.609	282.94
269.841	290.94
270.073	292.94
270.306	306.94
270.538	334.94
270.77	318.94
271.002	321.94
271.234	321.94
271.466	300.94
271.698	330.94
271.93	316.94
272.162	321.94
272.394	324.94
272.626	319.94
272.858	303.94
273.09	294.94
273.322	297.94
273.553	310.94
273.785	302.94
274.017	282.94
274.249	295.94
274.481	284.94
274.713	266.94
274.945	279.94
275.176	255.94
275.408	280.94
275.64	285.94
275.872	264.94
276.104	304.94
276.335	285.94
276.567	267.94
276.799	295.94
277.031	314.94
277.262	339.94
277.494	332.94
277.726	318.94
277.957	285.94
278.189	284.94
278.421	294.94
278.652	290.94
278.884	284.94
279.115	299.94
279.347	288.94
279.579	277.94
279.81	302.94
280.042	284.94
280.273	282.94
280.505	276.94
280.736	300.94
280.968	279.94
281.199	290.94
281.431	297.94
281.662	297.94
281.894	292.94
282.125	293.94
282.356	302.94
282.588	319.94
282.819	317.94
283.051	291.94
283.282	292.94
283.513	292.94
283.745	309.94
283.976	296.94
284.207	296.94
284.439	319.94
284.67	292.94
284.901	304.94
285.132	301.94
285.364	313.94
285.595	315.94
285.826	299.94
286.057	309.94
286.288	303.94
286.52	310.94
286.751	308.94
286.982	302.94
287.213	298.94
287.444	300.94
287.675	298.94
287.906	327.94
288.138	341.94
288.369	314.94
288.6	322.94
288.831	317.94
289.062	311.94
289.293	340.94
289.524	333.94
289.755	310.94
289.986	310.94
290.217	309.94
290.448	316.94
290.679	295.94
290.91	318.94
291.141	318.94
291.371	315.94
291.602	326.94
291.833	310.94
292.064	326.94
292.295	333.94
292.526	318.94
292.757	312.94
292.987	319.94
293.218	307.94
293.449	318.94
293.68	319.94
293.91	329.94
294.141	312.94
294.372	324.94
294.603	322.94
294.833	317.94
295.064	316.94
295.295	302.94
295.525	325.94
295.756	319.94
295.987	340.94
296.217	357.94
296.448	368.94
296.679	315.94
296.909	309.94
297.14	323.94
297.37	331.94
297.601	340.94
297.831	324.94
298.062	319.94
298.292	343.94
298.523	332.94
298.753	353.94
298.984	325.94
299.214	344.94
299.445	328.94
299.675	363.94
299.905	333.94
300.136	337.94
300.366	345.94
300.597	333.94
300.827	361.94
301.057	337.94
301.288	367.94
301.518	342.94
301.748	359.94
301.979	372.94
302.209	350.94
302.439	378.94
302.669	355.94
302.9	351.94
303.13	346.94
303.36	339.94
303.59	361.94
303.82	371.94
304.051	359.94
304.281	350.94
304.511	358.94
304.741	354.94
304.971	358.94
305.201	356.94
305.431	349.94
305.661	347.94
305.891	356.94
306.121	361.94
306.352	351.94
306.582	363.94
306.812	368.94
307.042	364.94
307.272	349.94
307.502	355.94
307.731	373.94
307.961	376.94
308.191	361.94
308.421	365.94
308.651	351.94
308.881	356.94
309.111	373.94
309.341	366.94
309.571	381.94
309.8	383.94
310.03	398.94
310.26	392.94
310.49	375.94
310.72	401.94
310.949	390.94
311.179	417.94
311.409	390.94
311.639	388.94
311.868	391.94
312.098	395.94
312.328	398.94
312.557	406.94
312.787	413.94
313.017	428.94
313.246	406.94
313.476	398.94
313.706	407.94
313.935	406.94
314.165	407.94
314.394	444.94
314.624	400.94
314.853	428.94
315.083	414.94
315.312	399.94
315.542	423.94
315.771	399.94
316.001	399.94
316.23	407.94
316.46	388.94
316.689	397.94
316.919	404.94
317.148	416.94
317.377	405.94
317.607	401.94
317.836	419.94
318.065	404.94
318.295	408.94
318.524	399.94
318.753	406.94
318.983	382.94
319.212	399.94
319.441	407.94
319.67	406.94
319.9	422.94
320.129	404.94
320.358	428.94
320.587	424.94
320.816	415.94
321.046	423.94
321.275	404.94
321.504	399.94
321.733	416.94
321.962	421.94
322.191	430.94
322.42	448.94
322.649	454.94
322.878	452.94
323.108	472.94
323.337	469.94
323.566	490.94
323.795	519.94
324.024	536.94
324.253	643.94
324.482	874.94
324.71	1382.94
324.939	2042.94
325.168	1756.94
325.397	894.94
325.626	618.94
325.855	525.94
326.084	515.94
326.313	495.94
326.542	513.94
326.77	564.94
326.999	622.94
327.228	807.94
327.457	1210.94
327.686	1571.94
327.914	1037.94
328.143	680.94
328.372	606.94
328.6	587.94
328.829	572.94
329.058	561.94
329.287	555.94
329.515	544.94
329.744	500.94
329.972	522.94
330.201	536.94
330.43	562.94
330.658	582.94
330.887	595.94
331.115	588.94
331.344	534.94
331.572	520.94
331.801	489.94
332.03	526.94
332.258	518.94
332.486	480.94
332.715	468.94
332.943	493.94
333.172	495.94
333.4	507.94
333.629	521.94
333.857	536.94
334.085	537.94
334.314	543.94
334.542	568.94
334.771	571.94
334.999	521.94
335.227	519.94
335.455	483.94
335.684	490.94
335.912	470.94
336.14	458.94
336.369	475.94
336.597	472.94
336.825	486.94
337.053	482.94
337.281	467.94
337.51	463.94
337.738	465.94
337.966	466.94
338.194	469.94
338.422	474.94
338.65	455.94
338.878	454.94
339.106	428.94
339.334	467.94
339.562	436.94
339.79	442.94
340.018	459.94
340.246	465.94
340.474	465.94
340.702	458.94
340.93	446.94
341.158	437.94
341.386	443.94
341.614	459.94
341.842	443.94
342.07	446.94
342.298	469.94
342.526	427.94
342.754	440.94
342.981	424.94
343.209	444.94
343.437	468.94
343.665	469.94
343.893	477.94
344.12	460.94
344.348	482.94
344.576	486.94
344.804	476.94
345.031	447.94
345.259	469.94
345.487	474.94
345.714	462.94
345.942	445.94
346.17	439.94
346.397	449.94
346.625	426.94
346.853	436.94
347.08	450.94
347.308	450.94
347.535	458.94
347.763	449.94
347.99	452.94
348.218	451.94
348.445	433.94
348.673	428.94
348.9	427.94
349.128	436.94
349.355	436.94
349.583	410.94
349.81	424.94
350.037	429.94
350.265	412.94
350.492	426.94
350.72	431.94
350.947	415.94
351.174	440.94
351.402	439.94
351.629	445.94
351.856	447.94
352.083	455.94
352.311	455.94
352.538	462.94
352.765	434.94
352.992	446.94
353.22	437.94
353.447	450.94
353.674	434.94
353.901	431.94
354.128	406.94
354.355	396.94
354.583	410.94
354.81	434.94
355.037	415.94
355.264	392.94
355.491	402.94
355.718	406.94
355.945	417.94
356.172	406.94
356.399	428.94
356.626	411.94
356.853	408.94
357.08	418.94
357.307	422.94
357.534	430.94
357.761	414.94
357.988	427.94
358.215	411.94
358.441	395.94
358.668	412.94
358.895	428.94
359.122	413.94
359.349	438.94
359.576	451.94
359.802	446.94
360.029	473.94
360.256	478.94
360.483	465.94
360.709	428.94
360.936	436.94
361.163	408.94
361.39	444.94
361.616	443.94
361.843	449.94
362.07	423.94
362.296	455.94
362.523	436.94
362.749	454.94
362.976	418.94
363.203	430.94
363.429	430.94
363.656	430.94
363.882	425.94
364.109	431.94
364.335	440.94
364.562	416.94
364.788	401.94
365.015	418.94
365.241	414.94
365.468	411.94
365.694	438.94
365.92	421.94
366.147	418.94
366.373	430.94
366.599	442.94
366.826	426.94
367.052	413.94
367.278	440.94
367.505	406.94
367.731	420.94
367.957	415.94
368.184	417.94
368.41	442.94
368.636	429.94
368.862	451.94
369.089	459.94
369.315	418.94
369.541	410.94
369.767	432.94
369.993	407.94
370.219	435.94
370.445	430.94
370.672	414.94
370.898	427.94
371.124	415.94
371.35	439.94
371.576	421.94
371.802	430.94
372.028	429.94
372.254	430.94
372.48	431.94
372.706	439.94
372.932	437.94
373.158	451.94
373.384	430.94
373.61	412.94
373.835	428.94
374.061	407.94
374.287	421.94
374.513	460.94
374.739	459.94
374.965	449.94
375.191	440.94
375.416	438.94
375.642	431.94
375.868	441.94
376.094	425.94
376.319	441.94
376.545	446.94
376.771	424.94
376.997	453.94
377.222	428.94
377.448	422.94
377.674	435.94
377.899	420.94
378.125	424.94
378.35	423.94
378.576	431.94
378.802	418.94
379.027	428.94
379.253	419.94
379.478	431.94
379.704	429.94
379.929	430.94
380.155	422.94
380.38	432.94
380.606	442.94
380.831	406.94
381.057	449.94
381.282	422.94
381.507	456.94
381.733	447.94
381.958	429.94
382.184	437.94
382.409	423.94
382.634	454.94
382.86	458.94
383.085	428.94
383.31	451.94
383.535	442.94
383.761	443.94
383.986	437.94
384.211	441.94
384.436	442.94
384.662	456.94
384.887	461.94
385.112	464.94
385.337	476.94
385.562	453.94
385.787	457.94
386.013	508.94
386.238	477.94
386.463	514.94
386.688	494.94
386.913	478.94
387.138	462.94
387.363	483.94
387.588	470.94
387.813	480.94
388.038	478.94
388.263	466.94
388.488	472.94
388.713	467.94
388.938	484.94
389.163	480.94
389.387	484.94
389.612	474.94
389.837	483.94
390.062	476.94
390.287	465.94
390.512	470.94
390.736	474.94
390.961	482.94
391.186	498.94
391.411	514.94
391.636	478.94
391.86	507.94
392.085	493.94
392.31	495.94
392.534	489.94
392.759	506.94
392.984	474.94
393.208	496.94
393.433	473.94
393.658	463.94
393.882	455.94
394.107	485.94
394.331	485.94
394.556	483.94
394.78	489.94
395.005	471.94
395.229	473.94
395.454	499.94
395.678	499.94
395.903	502.94
396.127	520.94
396.352	534.94
396.576	503.94
396.801	499.94
397.025	495.94
397.249	495.94
397.474	525.94
397.698	504.94
397.922	530.94
398.147	523.94
398.371	540.94
398.595	548.94
398.82	550.94
399.044	570.94
399.268	581.94
399.492	631.94
399.717	657.94
399.941	700.94
400.165	702.94
400.389	711.94
400.613	623.94
400.837	604.94
401.062	572.94
401.286	550.94
401.51	552.94
401.734	547.94
401.958	556.94
402.182	553.94
402.406	572.94
402.63	556.94
402.854	565.94
403.078	567.94
403.302	547.94
403.526	585.94
403.75	558.94
403.974	540.94
404.198	554.94
404.422	580.94
404.645	576.94
404.869	588.94
405.093	636.94
405.317	698.94
405.541	688.94
405.765	653.94
405.988	604.94
406.212	598.94
406.436	628.94
406.66	644.94
406.883	628.94
407.107	669.94
407.331	685.94
407.555	743.94
407.778	741.94
408.002	684.94
408.226	641.94
408.449	648.94
408.673	644.94
408.896	650.94
409.12	711.94
409.344	684.94
409.567	597.94
409.791	598.94
410.014	571.94
410.238	581.94
410.461	571.94
410.685	569.94
410.908	591.94
411.132	642.94
411.355	632.94
411.578	629.94
411.802	581.94
412.025	563.94
412.249	572.94
412.472	602.94
412.695	635.94
412.919	627.94
413.142	583.94
413.365	551.94
413.589	560.94
413.812	557.94
414.035	547.94
414.258	537.94
414.482	526.94
414.705	545.94
414.928	563.94
415.151	575.94
415.374	541.94
415.597	543.94
415.821	517.94
416.044	552.94
416.267	556.94
416.49	548.94
416.713	526.94
416.936	539.94
417.159	536.94
417.382	543.94
417.605	547.94
417.828	549.94
418.051	540.94
418.274	571.94
418.497	538.94
418.72	567.94
418.943	520.94
419.166	554.94
419.389	588.94
419.611	591.94
419.834	592.94
420.057	587.94
420.28	551.94
420.503	561.94
420.726	555.94
420.948	575.94
421.171	591.94
421.394	654.94
421.617	588.94
421.839	577.94
422.062	568.94
422.285	575.94
422.507	632.94
422.73	720.94
422.953	680.94
423.175	615.94
423.398	575.94
423.621	567.94
423.843	610.94
424.066	611.94
424.288	615.94
424.511	607.94
424.733	667.94
424.956	774.94
425.178	718.94
425.401	707.94
425.623	722.94
425.846	629.94
426.068	595.94
426.291	599.94
426.513	601.94
426.735	614.94
426.958	656.94
427.18	725.94
427.402	858.94
427.625	944.94
427.847	802.94
428.069	711.94
428.292	638.94
428.514	576.94
428.736	584.94
428.958	568.94
429.181	546.94
429.403	544.94
429.625	572.94
429.847	598.94
430.069	642.94
430.292	653.94
430.514	577.94
430.736	556.94
430.958	540.94
431.18	525.94
431.402	517.94
431.624	542.94
431.846	525.94
432.068	520.94
432.29	529.94
432.512	513.94
432.734	525.94
432.956	540.94
433.178	526.94
433.4	552.94
433.622	542.94
433.844	543.94
434.066	533.94
434.287	527.94
434.509	527.94
434.731	540.94
434.953	542.94
435.175	557.94
435.397	591.94
435.618	583.94
435.84	618.94
436.062	721.94
436.284	818.94
436.505	661.94
436.727	602.94
436.949	532.94
437.17	570.94
437.392	557.94
437.614	560.94
437.835	592.94
438.057	687.94
438.278	771.94
438.5	812.94
438.721	871.94
438.943	851.94
439.165	672.94
439.386	590.94
439.608	568.94
439.829	599.94
440.05	616.94
440.272	688.94
440.493	614.94
440.715	600.94
440.936	583.94
441.158	562.94
441.379	563.94
441.6	562.94
441.822	576.94
442.043	615.94
442.264	709.94
442.486	772.94
442.707	653.94
442.928	636.94
443.149	626.94
443.371	645.94
443.592	696.94
443.813	797.94
444.034	857.94
444.255	711.94
444.476	632.94
444.698	611.94
444.919	621.94
445.14	712.94
445.361	692.94
445.582	638.94
445.803	711.94
446.024	824.94
446.245	820.94
446.466	741.94
446.687	622.94
446.908	592.94
447.129	556.94
447.35	552.94
447.571	542.94
447.792	533.94
448.013	538.94
448.234	563.94
448.455	605.94
448.675	726.94
448.896	846.94
449.117	740.94
449.338	666.94
449.559	779.94
449.779	898.94
450	707.94
450.221	594.94
450.442	558.94
450.662	518.94
450.883	523.94
451.104	549.94
451.324	531.94
451.545	503.94
451.766	512.94
451.986	498.94
452.207	466.94
452.428	483.94
452.648	493.94
452.869	478.94
453.089	478.94
453.31	504.94
453.53	486.94
453.751	498.94
453.971	491.94
454.192	497.94
454.412	472.94
454.633	499.94
454.853	488.94
455.073	474.94
455.294	495.94
455.514	569.94
455.734	566.94
455.955	478.94
456.175	485.94
456.395	463.94
456.616	456.94
456.836	462.94
457.056	458.94
457.276	440.94
457.497	461.94
457.717	455.94
457.937	461.94
458.157	456.94
458.377	486.94
458.598	495.94
458.818	517.94
459.038	608.94
459.258	642.94
459.478	570.94
459.698	527.94
459.918	503.94
460.138	526.94
460.358	536.94
460.578	552.94
460.798	532.94
461.018	536.94
461.238	526.94
461.458	542.94
461.678	535.94
461.898	556.94
462.118	539.94
462.338	545.94
462.558	563.94
462.777	588.94
462.997	608.94
463.217	627.94
463.437	614.94
463.657	616.94
463.876	591.94
464.096	599.94
464.316	592.94
464.536	606.94
464.755	554.94
464.975	586.94
465.195	606.94
465.414	670.94
465.634	590.94
465.854	558.94
466.073	517.94
466.293	527.94
466.512	516.94
466.732	516.94
466.951	522.94
467.171	502.94
467.391	501.94
467.61	506.94
467.829	514.94
468.049	513.94
468.268	503.94
468.488	490.94
468.707	491.94
468.927	515.94
469.146	471.94
469.365	470.94
469.585	488.94
469.804	499.94
470.023	525.94
470.243	504.94
470.462	517.94
470.681	540.94
470.901	526.94
471.12	501.94
471.339	501.94
471.558	527.94
471.777	506.94
471.997	490.94
472.216	503.94
472.435	527.94
472.654	500.94
472.873	493.94
473.092	502.94
473.311	499.94
473.53	502.94
473.749	530.94
473.968	569.94
474.187	631.94
474.406	660.94
474.625	560.94
474.844	522.94
475.063	507.94
475.282	513.94
475.501	527.94
475.72	512.94
475.939	528.94
476.158	526.94
476.377	523.94
476.596	505.94
476.814	559.94
477.033	546.94
477.252	541.94
477.471	540.94
477.69	548.94
477.908	554.94
478.127	550.94
478.346	546.94
478.564	576.94
478.783	564.94
479.002	583.94
479.22	609.94
479.439	591.94
479.658	619.94
479.876	606.94
480.095	611.94
480.313	650.94
480.532	653.94
480.751	641.94
480.969	634.94
481.188	676.94
481.406	710.94
481.624	618.94
481.843	613.94
482.061	590.94
482.28	584.94
482.498	584.94
482.717	579.94
482.935	589.94
483.153	589.94
483.372	586.94
483.59	588.94
483.808	586.94
484.027	597.94
484.245	593.94
484.463	594.94
484.681	616.94
484.9	607.94
485.118	616.94
485.336	588.94
485.554	600.94
485.772	594.94
485.99	622.94
486.209	615.94
486.427	616.94
486.645	621.94
486.863	631.94
487.081	634.94
487.299	613.94
487.517	621.94
487.735	633.94
487.953	621.94
488.171	620.94
488.389	629.94
488.607	615.94
488.825	635.94
489.043	631.94
489.261	649.94
489.479	627.94
489.696	673.94
489.914	630.94
490.132	636.94
490.35	639.94
490.568	684.94
490.786	685.94
491.003	702.94
491.221	686.94
491.439	696.94
491.657	706.94
491.874	730.94
492.092	719.94
492.31	713.94
492.527	741.94
492.745	731.94
492.963	704.94
493.18	746.94
493.398	712.94
493.615	733.94
493.833	760.94
494.05	751.94
494.268	749.94
494.485	734.94
494.703	751.94
494.92	724.94
495.138	732.94
495.355	742.94
495.573	752.94
495.79	716.94
496.008	734.94
496.225	763.94
496.442	750.94
496.66	769.94
496.877	732.94
497.094	770.94
497.312	762.94
497.529	778.94
497.746	774.94
497.963	807.94
498.181	833.94
498.398	850.94
498.615	843.94
498.832	873.94
499.049	893.94
499.267	936.94
499.484	972.94
499.701	972.94
499.918	1040.94
500.135	1168.94
500.352	1166.94
500.569	1216.94
500.786	1194.94
501.003	1157.94
501.22	1123.94
501.437	1102.94
501.654	1031.94
501.871	1019.94
502.088	972.94
502.305	906.94
502.522	882.94
502.739	861.94
502.956	826.94
503.172	809.94
503.389	772.94
503.606	770.94
503.823	790.94
504.04	761.94
504.256	764.94
504.473	749.94
504.69	716.94
504.907	752.94
505.123	741.94
505.34	731.94
505.557	706.94
505.773	714.94
505.99	726.94
506.207	720.94
506.423	708.94
506.64	701.94
506.856	696.94
507.073	692.94
507.289	663.94
507.506	674.94
507.722	690.94
507.939	683.94
508.155	674.94
508.372	664.94
508.588	656.94
508.805	662.94
509.021	651.94
509.238	684.94
509.454	676.94
509.67	656.94
509.887	664.94
510.103	655.94
510.319	651.94
510.536	734.94
510.752	1062.94
510.968	914.94
511.184	639.94
511.401	627.94
511.617	616.94
511.833	642.94
512.049	632.94
512.265	609.94
512.481	628.94
512.698	619.94
512.914	612.94
513.13	630.94
513.346	582.94
513.562	613.94
513.778	610.94
513.994	619.94
514.21	632.94
514.426	650.94
514.642	683.94
514.858	690.94
515.074	704.94
515.29	816.94
515.506	1066.94
515.721	942.94
515.937	730.94
516.153	682.94
516.369	656.94
516.585	676.94
516.801	655.94
517.016	652.94
517.232	639.94
517.448	670.94
517.664	698.94
517.879	684.94
518.095	656.94
518.311	660.94
518.527	664.94
518.742	656.94
518.958	632.94
519.173	638.94
519.389	600.94
519.605	609.94
519.82	619.94
520.036	618.94
520.251	634.94
520.467	662.94
520.682	646.94
520.898	657.94
521.113	657.94
521.329	692.94
521.544	743.94
521.76	904.94
521.975	1350.94
522.19	1343.94
522.406	807.94
522.621	636.94
522.836	624.94
523.052	588.94
523.267	579.94
523.482	554.94
523.698	544.94
523.913	556.94
524.128	562.94
524.343	560.94
524.559	564.94
524.774	530.94
524.989	550.94
525.204	545.94
525.419	551.94
525.634	547.94
525.849	493.94
526.064	518.94
526.28	534.94
526.495	523.94
526.71	518.94
526.925	520.94
527.14	515.94
527.355	531.94
527.57	500.94
527.785	512.94
527.999	524.94
528.214	534.94
528.429	526.94
528.644	515.94
528.859	530.94
529.074	515.94
529.289	543.94
529.503	606.94
529.718	554.94
529.933	559.94
530.148	531.94
530.363	528.94
530.577	510.94
530.792	511.94
531.007	520.94
531.221	503.94
531.436	505.94
531.651	500.94
531.865	504.94
532.08	492.94
532.295	477.94
532.509	489.94
532.724	496.94
532.938	503.94
533.153	501.94
533.367	491.94
533.582	504.94
533.796	491.94
534.011	501.94
534.225	472.94
534.44	470.94
534.654	500.94
534.868	500.94
535.083	490.94
535.297	479.94
535.511	493.94
535.726	485.94
535.94	498.94
536.154	510.94
536.369	498.94
536.583	491.94
536.797	470.94
537.011	483.94
537.225	463.94
537.44	477.94
537.654	471.94
537.868	490.94
538.082	464.94
538.296	472.94
538.51	473.94
538.724	453.94
538.938	464.94
539.153	475.94
539.367	487.94
539.581	501.94
539.795	486.94
540.009	487.94
540.222	488.94
540.436	472.94
540.65	476.94
540.864	468.94
541.078	493.94
541.292	495.94
541.506	491.94
541.72	472.94
541.934	477.94
542.147	472.94
542.361	456.94
542.575	464.94
542.789	462.94
543.002	438.94
543.216	456.94
543.43	471.94
543.644	468.94
543.857	483.94
544.071	496.94
544.285	471.94
544.498	469.94
544.712	489.94
544.925	468.94
545.139	474.94
545.352	480.94
545.566	486.94
545.779	458.94
545.993	482.94
546.206	470.94
546.42	495.94
546.633	467.94
546.847	447.94
547.06	461.94
547.274	435.94
547.487	461.94
547.7	480.94
547.914	467.94
548.127	456.94
548.34	467.94
548.554	452.94
548.767	482.94
548.98	476.94
549.193	459.94
549.407	473.94
549.62	480.94
549.833	470.94
550.046	471.94
550.259	475.94
550.473	455.94
550.686	447.94
550.899	458.94
551.112	441.94
551.325	457.94
551.538	445.94
551.751	456.94
551.964	464.94
552.177	465.94
552.39	456.94
552.603	452.94
552.816	452.94
553.029	462.94
553.242	477.94
553.455	482.94
553.667	479.94
553.88	469.94
554.093	477.94
554.306	464.94
554.519	459.94
554.732	475.94
554.944	462.94
555.157	434.94
555.37	452.94
555.583	454.94
555.795	438.94
556.008	436.94
556.221	391.94
556.433	410.94
556.646	436.94
556.859	419.94
557.071	438.94
557.284	429.94
557.496	429.94
557.709	414.94
557.921	403.94
558.134	411.94
558.346	407.94
558.559	422.94
558.771	396.94
558.984	411.94
559.196	404.94
559.409	404.94
559.621	384.94
559.833	418.94
560.046	404.94
560.258	410.94
560.47	404.94
560.683	398.94
560.895	399.94
561.107	402.94
561.32	400.94
561.532	407.94
561.744	407.94
561.956	403.94
562.168	419.94
562.381	404.94
562.593	401.94
562.805	406.94
563.017	403.94
563.229	414.94
563.441	400.94
563.653	402.94
563.865	421.94
564.077	395.94
564.289	427.94
564.501	426.94
564.713	430.94
564.925	438.94
565.137	439.94
565.349	455.94
565.561	458.94
565.773	425.94
565.985	462.94
566.197	471.94
566.408	501.94
566.62	497.94
566.832	509.94
567.044	514.94
567.255	538.94
567.467	550.94
567.679	549.94
567.891	582.94
568.102	554.94
568.314	572.94
568.526	542.94
568.737	524.94
568.949	491.94
569.161	463.94
569.372	452.94
569.584	456.94
569.795	439.94
570.007	464.94
570.218	472.94
570.43	459.94
570.641	424.94
570.853	426.94
571.064	416.94
571.276	407.94
571.487	419.94
571.698	398.94
571.91	380.94
572.121	396.94
572.333	389.94
572.544	382.94
572.755	373.94
572.966	378.94
573.178	371.94
573.389	371.94
573.6	361.94
573.811	344.94
574.023	353.94
574.234	346.94
574.445	342.94
574.656	358.94
574.867	363.94
575.078	356.94
575.289	354.94
575.501	363.94
575.712	368.94
575.923	355.94
576.134	349.94
576.345	363.94
576.556	344.94
576.767	341.94
576.978	356.94
577.188	348.94
577.399	353.94
577.61	335.94
577.821	333.94
578.032	324.94
578.243	340.94
578.454	504.94
578.665	398.94
578.875	347.94
579.086	336.94
579.297	335.94
579.508	339.94
579.718	352.94
579.929	340.94
580.14	328.94
580.35	312.94
580.561	326.94
580.772	322.94
580.982	320.94
581.193	326.94
581.403	313.94
581.614	326.94
581.825	328.94
582.035	311.94
582.246	335.94
582.456	326.94
582.667	310.94
582.877	306.94
583.087	322.94
583.298	311.94
583.508	306.94
583.719	316.94
583.929	313.94
584.139	314.94
584.35	320.94
584.56	308.94
584.77	300.94
584.981	322.94
585.191	306.94
585.401	308.94
585.611	301.94
585.821	310.94
586.032	312.94
586.242	316.94
586.452	299.94
586.662	317.94
586.872	310.94
587.082	292.94
587.292	302.94
587.502	324.94
587.713	309.94
587.923	322.94
588.133	310.94
588.343	317.94
588.553	317.94
588.762	330.94
588.972	320.94
589.182	338.94
589.392	303.94
589.602	307.94
589.812	311.94
590.022	326.94
590.232	309.94
590.441	300.94
590.651	313.94
590.861	306.94
591.071	298.94
591.281	316.94
591.49	328.94
591.7	302.94
591.91	314.94
592.119	300.94
592.329	333.94
592.539	339.94
592.748	326.94
592.958	316.94
593.167	323.94
593.377	316.94
593.587	331.94
593.796	331.94
594.006	350.94
594.215	341.94
594.424	353.94
594.634	348.94
594.843	334.94
595.053	342.94
595.262	309.94
595.472	325.94
595.681	316.94
595.89	313.94
596.1	301.94
596.309	307.94
596.518	299.94
596.727	295.94
596.937	301.94
597.146	285.94
597.355	283.94
597.564	290.94
597.774	310.94
597.983	295.94
598.192	287.94
598.401	291.94
598.61	278.94
598.819	279.94
599.028	267.94
599.237	281.94
599.446	265.94
599.655	266.94
599.864	276.94
600.073	287.94
600.282	283.94
600.491	292.94
600.7	270.94
600.909	262.94
601.118	262.94
601.327	282.94
601.536	286.94
601.745	277.94
601.953	268.94
602.162	266.94
602.371	255.94
602.58	266.94
602.789	242.94
602.997	267.94
603.206	273.94
603.415	262.94
603.623	278.94
603.832	267.94
604.041	260.94
604.249	265.94
604.458	275.94
604.666	255.94
604.875	244.94
605.084	256.94
605.292	253.94
605.501	266.94
605.709	286.94
605.918	242.94
606.126	264.94
606.334	240.94
606.543	259.94
606.751	267.94
606.96	262.94
607.168	268.94
607.376	249.94
607.585	266.94
607.793	248.94
608.001	254.94
608.21	271.94
608.418	252.94
608.626	255.94
608.834	251.94
609.043	261.94
609.251	268.94
609.459	260.94
609.667	248.94
609.875	258.94
610.083	249.94
610.291	250.94
610.499	242.94
610.707	253.94
610.916	271.94
611.124	276.94
611.332	266.94
611.54	260.94
611.748	263.94
611.955	255.94
612.163	263.94
612.371	252.94
612.579	249.94
612.787	237.94
612.995	247.94
613.203	255.94
613.411	260.94
613.618	256.94
613.826	259.94
614.034	247.94
614.242	256.94
614.449	240.94
614.657	242.94
614.865	239.94
615.072	262.94
615.28	247.94
615.488	264.94
615.695	232.94
615.903	251.94
616.111	244.94
616.318	246.94
616.526	252.94
616.733	249.94
616.941	251.94
617.148	246.94
617.356	252.94
617.563	265.94
617.771	264.94
617.978	244.94
618.185	232.94
618.393	228.94
618.6	242.94
618.807	237.94
619.015	227.94
619.222	243.94
619.429	242.94
619.637	239.94
619.844	250.94
620.051	244.94
620.258	220.94
620.466	227.94
620.673	246.94
620.88	228.94
621.087	237.94
621.294	236.94
621.501	222.94
621.708	245.94
621.915	228.94
622.122	240.94
622.329	244.94
622.536	232.94
622.743	232.94
622.95	216.94
623.157	224.94
623.364	226.94
623.571	232.94
623.778	227.94
623.985	244.94
624.192	228.94
624.399	224.94
624.606	217.94
624.812	226.94
625.019	240.94
625.226	213.94
625.433	215.94
625.639	232.94
625.846	214.94
626.053	223.94
626.259	223.94
626.466	227.94
626.673	221.94
626.879	216.94
627.086	212.94
627.293	229.94
627.499	216.94
627.706	212.94
627.912	224.94
628.119	211.94
628.325	219.94
628.532	219.94
628.738	225.94
628.945	210.94
629.151	223.94
629.357	218.94
629.564	215.94
629.77	198.94
629.976	202.94
630.183	208.94
630.389	201.94
630.595	212.94
630.802	220.94
631.008	202.94
631.214	198.94
631.42	204.94
631.627	213.94
631.833	196.94
632.039	199.94
632.245	168.94
632.451	192.94
632.657	193.94
632.863	200.94
633.069	198.94
633.275	199.94
633.481	186.94
633.688	194.94
633.893	202.94
634.099	184.94
634.305	194.94
634.511	187.94
634.717	195.94
634.923	194.94
635.129	192.94
635.335	186.94
635.541	197.94
635.747	182.94
635.952	196.94
636.158	185.94
636.364	200.94
636.57	194.94
636.775	200.94
636.981	190.94
637.187	208.94
637.392	205.94
637.598	184.94
637.804	190.94
638.009	187.94
638.215	203.94
638.421	204.94
638.626	191.94
638.832	201.94
639.037	185.94
639.243	195.94
639.448	182.94
639.654	183.94
639.859	174.94
640.065	186.94
640.27	205.94
640.475	187.94
640.681	194.94
640.886	195.94
641.091	190.94
641.297	196.94
641.502	170.94
641.707	183.94
641.913	201.94
642.118	174.94
642.323	176.94
642.528	160.94
642.733	168.94
642.939	169.94
643.144	170.94
643.349	174.94
643.554	176.94
643.759	186.94
643.964	178.94
644.169	190.94
644.374	189.94
644.579	180.94
644.784	173.94
644.989	189.94
645.194	176.94
645.399	171.94
645.604	175.94
645.809	170.94
646.014	174.94
646.219	179.94
646.423	171.94
646.628	181.94
646.833	160.94
647.038	169.94
647.243	183.94
647.447	175.94
647.652	167.94
647.857	178.94
648.062	173.94
648.266	180.94
648.471	191.94
648.676	191.94
648.88	184.94
649.085	178.94
649.289	168.94
649.494	181.94
649.698	192.94
649.903	195.94
650.107	182.94
650.312	183.94
650.516	172.94
650.721	154.94
650.925	158.94
651.13	165.94
651.334	165.94
651.539	158.94
651.743	143.94
651.947	164.94
652.152	163.94
652.356	165.94
652.56	154.94
652.764	157.94
652.969	150.94
653.173	138.94
653.377	150.94
653.581	142.94
653.785	148.94
653.99	155.94
654.194	139.94
654.398	138.94
654.602	138.94
654.806	150.94
655.01	137.94
655.214	154.94
655.418	144.94
655.622	144.94
655.826	139.94
656.03	149.94
656.234	152.94
656.438	136.94
656.642	158.94
656.846	140.94
657.049	151.94
657.253	144.94
657.457	131.94
657.661	115.94
657.865	120.94
658.068	126.94
658.272	111.94
658.476	97.94
658.68	106.94
658.883	115.94
659.087	114.94
659.291	105.94
659.494	95.94
659.698	105.94
659.901	99.94
660.105	116.94
660.309	101.94
660.512	99.94
660.716	85.94
660.919	104.94
661.123	106.94
661.326	93.94
661.53	102.94
661.733	93.94
661.936	98.94
662.14	93.94
662.343	96.94
662.546	97.94
662.75	75.94
662.953	93.94
663.156	87.94
663.36	91.94
663.563	86.94
663.766	75.94
663.969	88.94
664.173	82.94
664.376	94.94
664.579	84.94
664.782	98.94
664.985	63.94
665.188	87.94
665.391	100.94
665.594	82.94
665.797	88.94
666	89.94
666.203	88.94
666.406	82.94
666.609	75.94
666.812	95.94
667.015	75.94
667.218	90.94
667.421	87.94
667.624	84.94
667.827	98.94
668.03	86.94
668.232	84.94
668.435	86.94
668.638	84.94
668.841	85.94
669.043	86.94
669.246	74.94
669.449	89.94
669.651	75.94
669.854	79.94
670.057	92.94
670.259	74.94
670.462	87.94
670.665	94.94
670.867	84.94
671.07	90.94
671.272	70.94
671.475	80.94
671.677	90.94
671.88	93.94
672.082	94.94
672.284	85.94
672.487	92.94
672.689	78.94
672.892	95.94
