Data from 1976.PennyLincolnUp.Lamp.En5.5.200Scan.071719.P1.Changed Mount._HRD10591_16-00-38-861.txt Node
Date: Thu Jul 18 16:00:38 EDT 2019
User: cochatt
Spectrometer: HR+D1059
Trigger mode: 1
Integration Time (sec): 1.000000E-1
Scans to average: 1
Electric dark correction enabled: true
Nonlinearity correction enabled: false
Boxcar width: 0
XAxis mode: Wavelengths
Number of Pixels in Spectrum: 2048
>>>>>Begin Spectral Data<<<<<
223.165	-18.06
223.4	-18.06
223.635	-18.06
223.869	-17.06
224.104	-29.06
224.338	-27.06
224.573	-9.06
224.808	-18.06
225.042	-8.06
225.277	-3.06
225.511	-8.06
225.746	1.94
225.98	14.94
226.215	9.94
226.449	16.94
226.683	29.94
226.918	22.94
227.152	40.94
227.387	30.94
227.621	33.94
227.856	48.94
228.09	36.94
228.324	36.94
228.559	52.94
228.793	75.94
229.027	95.94
229.262	98.94
229.496	106.94
229.73	124.94
229.964	151.94
230.199	127.94
230.433	109.94
230.667	122.94
230.901	113.94
231.136	99.94
231.37	112.94
231.604	114.94
231.838	103.94
232.072	109.94
232.306	111.94
232.541	119.94
232.775	112.94
233.009	113.94
233.243	125.94
233.477	123.94
233.711	118.94
233.945	107.94
234.179	121.94
234.413	119.94
234.647	108.94
234.881	113.94
235.115	131.94
235.349	118.94
235.583	117.94
235.817	124.94
236.051	120.94
236.285	120.94
236.519	134.94
236.753	106.94
236.987	131.94
237.221	178.94
237.455	239.94
237.689	179.94
237.922	149.94
238.156	129.94
238.39	138.94
238.624	124.94
238.858	130.94
239.091	127.94
239.325	137.94
239.559	127.94
239.793	134.94
240.027	131.94
240.26	142.94
240.494	165.94
240.728	155.94
240.961	149.94
241.195	123.94
241.429	145.94
241.662	131.94
241.896	132.94
242.13	135.94
242.363	131.94
242.597	136.94
242.83	140.94
243.064	140.94
243.298	135.94
243.531	138.94
243.765	140.94
243.998	142.94
244.232	153.94
244.465	148.94
244.699	152.94
244.932	147.94
245.166	147.94
245.399	149.94
245.633	132.94
245.866	146.94
246.099	159.94
246.333	149.94
246.566	155.94
246.8	149.94
247.033	164.94
247.266	172.94
247.5	156.94
247.733	164.94
247.966	162.94
248.2	158.94
248.433	163.94
248.666	175.94
248.899	189.94
249.133	194.94
249.366	187.94
249.599	196.94
249.832	169.94
250.066	172.94
250.299	169.94
250.532	200.94
250.765	199.94
250.998	204.94
251.231	227.94
251.465	208.94
251.698	204.94
251.931	209.94
252.164	208.94
252.397	195.94
252.63	193.94
252.863	193.94
253.096	214.94
253.329	233.94
253.562	235.94
253.795	219.94
254.028	225.94
254.261	211.94
254.494	203.94
254.727	251.94
254.96	271.94
255.193	265.94
255.426	243.94
255.659	225.94
255.892	231.94
256.124	246.94
256.357	257.94
256.59	241.94
256.823	232.94
257.056	207.94
257.289	208.94
257.521	203.94
257.754	212.94
257.987	197.94
258.22	212.94
258.452	212.94
258.685	211.94
258.918	209.94
259.151	227.94
259.383	212.94
259.616	222.94
259.849	236.94
260.081	241.94
260.314	258.94
260.547	263.94
260.779	257.94
261.012	224.94
261.244	232.94
261.477	246.94
261.71	223.94
261.942	229.94
262.175	233.94
262.407	230.94
262.64	226.94
262.872	220.94
263.105	195.94
263.337	225.94
263.57	232.94
263.802	209.94
264.035	217.94
264.267	205.94
264.499	231.94
264.732	223.94
264.964	212.94
265.197	225.94
265.429	224.94
265.661	218.94
265.894	233.94
266.126	220.94
266.358	227.94
266.591	231.94
266.823	242.94
267.055	239.94
267.287	244.94
267.52	229.94
267.752	231.94
267.984	241.94
268.216	245.94
268.448	248.94
268.681	259.94
268.913	273.94
269.145	264.94
269.377	269.94
269.609	270.94
269.841	273.94
270.073	274.94
270.306	295.94
270.538	323.94
270.77	340.94
271.002	291.94
271.234	296.94
271.466	295.94
271.698	306.94
271.93	321.94
272.162	334.94
272.394	322.94
272.626	319.94
272.858	292.94
273.09	303.94
273.322	274.94
273.553	260.94
273.785	260.94
274.017	274.94
274.249	282.94
274.481	288.94
274.713	287.94
274.945	284.94
275.176	284.94
275.408	292.94
275.64	282.94
275.872	269.94
276.104	269.94
276.335	277.94
276.567	290.94
276.799	322.94
277.031	311.94
277.262	328.94
277.494	319.94
277.726	319.94
277.957	298.94
278.189	287.94
278.421	263.94
278.652	288.94
278.884	300.94
279.115	278.94
279.347	279.94
279.579	283.94
279.81	270.94
280.042	290.94
280.273	282.94
280.505	276.94
280.736	292.94
280.968	264.94
281.199	282.94
281.431	274.94
281.662	290.94
281.894	287.94
282.125	287.94
282.356	312.94
282.588	315.94
282.819	316.94
283.051	287.94
283.282	278.94
283.513	296.94
283.745	281.94
283.976	290.94
284.207	305.94
284.439	296.94
284.67	305.94
284.901	285.94
285.132	306.94
285.364	277.94
285.595	312.94
285.826	298.94
286.057	307.94
286.288	289.94
286.52	296.94
286.751	297.94
286.982	305.94
287.213	297.94
287.444	315.94
287.675	316.94
287.906	300.94
288.138	329.94
288.369	313.94
288.6	320.94
288.831	312.94
289.062	326.94
289.293	322.94
289.524	324.94
289.755	299.94
289.986	317.94
290.217	294.94
290.448	291.94
290.679	307.94
290.91	316.94
291.141	319.94
291.371	325.94
291.602	320.94
291.833	303.94
292.064	312.94
292.295	317.94
292.526	304.94
292.757	324.94
292.987	309.94
293.218	312.94
293.449	314.94
293.68	314.94
293.91	324.94
294.141	313.94
294.372	305.94
294.603	315.94
294.833	319.94
295.064	316.94
295.295	308.94
295.525	310.94
295.756	313.94
295.987	339.94
296.217	348.94
296.448	329.94
296.679	323.94
296.909	299.94
297.14	315.94
297.37	329.94
297.601	331.94
297.831	313.94
298.062	328.94
298.292	331.94
298.523	317.94
298.753	345.94
298.984	328.94
299.214	320.94
299.445	345.94
299.675	333.94
299.905	340.94
300.136	340.94
300.366	331.94
300.597	320.94
300.827	328.94
301.057	344.94
301.288	341.94
301.518	353.94
301.748	343.94
301.979	340.94
302.209	363.94
302.439	335.94
302.669	358.94
302.9	355.94
303.13	331.94
303.36	360.94
303.59	345.94
303.82	370.94
304.051	357.94
304.281	350.94
304.511	343.94
304.741	369.94
304.971	346.94
305.201	343.94
305.431	354.94
305.661	348.94
305.891	328.94
306.121	361.94
306.352	357.94
306.582	359.94
306.812	349.94
307.042	336.94
307.272	364.94
307.502	359.94
307.731	369.94
307.961	367.94
308.191	341.94
308.421	334.94
308.651	349.94
308.881	388.94
309.111	356.94
309.341	351.94
309.571	383.94
309.8	388.94
310.03	393.94
310.26	396.94
310.49	393.94
310.72	394.94
310.949	396.94
311.179	418.94
311.409	387.94
311.639	407.94
311.868	405.94
312.098	409.94
312.328	415.94
312.557	408.94
312.787	433.94
313.017	401.94
313.246	409.94
313.476	411.94
313.706	388.94
313.935	403.94
314.165	403.94
314.394	424.94
314.624	416.94
314.853	399.94
315.083	376.94
315.312	384.94
315.542	409.94
315.771	374.94
316.001	377.94
316.23	416.94
316.46	404.94
316.689	375.94
316.919	417.94
317.148	409.94
317.377	419.94
317.607	404.94
317.836	403.94
318.065	410.94
318.295	398.94
318.524	387.94
318.753	378.94
318.983	385.94
319.212	389.94
319.441	403.94
319.67	412.94
319.9	388.94
320.129	407.94
320.358	411.94
320.587	398.94
320.816	406.94
321.046	417.94
321.275	425.94
321.504	433.94
321.733	416.94
321.962	408.94
322.191	425.94
322.42	416.94
322.649	436.94
322.878	439.94
323.108	443.94
323.337	468.94
323.566	479.94
323.795	500.94
324.024	556.94
324.253	619.94
324.482	867.94
324.71	1318.94
324.939	1894.94
325.168	1625.94
325.397	839.94
325.626	572.94
325.855	531.94
326.084	478.94
326.313	485.94
326.542	496.94
326.77	516.94
326.999	616.94
327.228	772.94
327.457	1171.94
327.686	1461.94
327.914	1002.94
328.143	691.94
328.372	594.94
328.6	585.94
328.829	556.94
329.058	537.94
329.287	557.94
329.515	527.94
329.744	524.94
329.972	520.94
330.201	519.94
330.43	544.94
330.658	565.94
330.887	575.94
331.115	564.94
331.344	507.94
331.572	459.94
331.801	485.94
332.03	475.94
332.258	481.94
332.486	481.94
332.715	468.94
332.943	500.94
333.172	477.94
333.4	479.94
333.629	511.94
333.857	495.94
334.085	529.94
334.314	516.94
334.542	563.94
334.771	566.94
334.999	538.94
335.227	505.94
335.455	507.94
335.684	505.94
335.912	495.94
336.14	473.94
336.369	480.94
336.597	486.94
336.825	472.94
337.053	482.94
337.281	461.94
337.51	443.94
337.738	469.94
337.966	464.94
338.194	449.94
338.422	474.94
338.65	469.94
338.878	452.94
339.106	461.94
339.334	463.94
339.562	427.94
339.79	446.94
340.018	471.94
340.246	453.94
340.474	448.94
340.702	453.94
340.93	448.94
341.158	446.94
341.386	462.94
341.614	472.94
341.842	439.94
342.07	450.94
342.298	451.94
342.526	401.94
342.754	444.94
342.981	416.94
343.209	439.94
343.437	453.94
343.665	467.94
343.893	446.94
344.12	469.94
344.348	485.94
344.576	459.94
344.804	482.94
345.031	459.94
345.259	480.94
345.487	447.94
345.714	451.94
345.942	420.94
346.17	445.94
346.397	427.94
346.625	448.94
346.853	421.94
347.08	422.94
347.308	452.94
347.535	437.94
347.763	440.94
347.99	433.94
348.218	434.94
348.445	449.94
348.673	415.94
348.9	439.94
349.128	427.94
349.355	411.94
349.583	435.94
349.81	423.94
350.037	411.94
350.265	424.94
350.492	405.94
350.72	414.94
350.947	432.94
351.174	419.94
351.402	427.94
351.629	436.94
351.856	431.94
352.083	428.94
352.311	441.94
352.538	454.94
352.765	435.94
352.992	424.94
353.22	423.94
353.447	428.94
353.674	426.94
353.901	422.94
354.128	413.94
354.355	420.94
354.583	411.94
354.81	424.94
355.037	405.94
355.264	403.94
355.491	401.94
355.718	382.94
355.945	412.94
356.172	400.94
356.399	403.94
356.626	404.94
356.853	413.94
357.08	412.94
357.307	401.94
357.534	410.94
357.761	412.94
357.988	401.94
358.215	407.94
358.441	412.94
358.668	421.94
358.895	417.94
359.122	411.94
359.349	425.94
359.576	439.94
359.802	456.94
360.029	455.94
360.256	447.94
360.483	453.94
360.709	416.94
360.936	435.94
361.163	421.94
361.39	426.94
361.616	448.94
361.843	440.94
362.07	440.94
362.296	429.94
362.523	449.94
362.749	425.94
362.976	422.94
363.203	441.94
363.429	421.94
363.656	395.94
363.882	408.94
364.109	424.94
364.335	381.94
364.562	423.94
364.788	405.94
365.015	417.94
365.241	425.94
365.468	424.94
365.694	407.94
365.92	428.94
366.147	432.94
366.373	407.94
366.599	413.94
366.826	401.94
367.052	412.94
367.278	395.94
367.505	408.94
367.731	417.94
367.957	425.94
368.184	401.94
368.41	410.94
368.636	411.94
368.862	420.94
369.089	444.94
369.315	411.94
369.541	415.94
369.767	424.94
369.993	415.94
370.219	417.94
370.445	410.94
370.672	398.94
370.898	427.94
371.124	419.94
371.35	416.94
371.576	422.94
371.802	424.94
372.028	440.94
372.254	441.94
372.48	397.94
372.706	407.94
372.932	425.94
373.158	419.94
373.384	422.94
373.61	433.94
373.835	429.94
374.061	445.94
374.287	437.94
374.513	444.94
374.739	448.94
374.965	441.94
375.191	446.94
375.416	424.94
375.642	433.94
375.868	438.94
376.094	445.94
376.319	437.94
376.545	427.94
376.771	439.94
376.997	413.94
377.222	403.94
377.448	419.94
377.674	410.94
377.899	412.94
378.125	427.94
378.35	419.94
378.576	416.94
378.802	393.94
379.027	435.94
379.253	415.94
379.478	416.94
379.704	420.94
379.929	421.94
380.155	415.94
380.38	402.94
380.606	437.94
380.831	441.94
381.057	433.94
381.282	425.94
381.507	429.94
381.733	427.94
381.958	418.94
382.184	444.94
382.409	437.94
382.634	422.94
382.86	458.94
383.085	447.94
383.31	461.94
383.535	442.94
383.761	457.94
383.986	451.94
384.211	445.94
384.436	451.94
384.662	453.94
384.887	470.94
385.112	459.94
385.337	454.94
385.562	464.94
385.787	479.94
386.013	479.94
386.238	462.94
386.463	469.94
386.688	475.94
386.913	459.94
387.138	486.94
387.363	490.94
387.588	451.94
387.813	492.94
388.038	470.94
388.263	476.94
388.488	468.94
388.713	484.94
388.938	448.94
389.163	471.94
389.387	484.94
389.612	457.94
389.837	471.94
390.062	461.94
390.287	459.94
390.512	480.94
390.736	478.94
390.961	487.94
391.186	467.94
391.411	472.94
391.636	469.94
391.86	487.94
392.085	456.94
392.31	485.94
392.534	482.94
392.759	490.94
392.984	476.94
393.208	466.94
393.433	468.94
393.658	464.94
393.882	471.94
394.107	484.94
394.331	479.94
394.556	451.94
394.78	485.94
395.005	467.94
395.229	453.94
395.454	497.94
395.678	496.94
395.903	504.94
396.127	525.94
396.352	534.94
396.576	495.94
396.801	483.94
397.025	496.94
397.249	488.94
397.474	513.94
397.698	513.94
397.922	519.94
398.147	524.94
398.371	571.94
398.595	544.94
398.82	571.94
399.044	569.94
399.268	581.94
399.492	611.94
399.717	654.94
399.941	685.94
400.165	701.94
400.389	689.94
400.613	629.94
400.837	577.94
401.062	551.94
401.286	549.94
401.51	567.94
401.734	562.94
401.958	570.94
402.182	553.94
402.406	541.94
402.63	555.94
402.854	572.94
403.078	541.94
403.302	572.94
403.526	577.94
403.75	565.94
403.974	586.94
404.198	580.94
404.422	584.94
404.645	578.94
404.869	577.94
405.093	630.94
405.317	647.94
405.541	684.94
405.765	615.94
405.988	594.94
406.212	622.94
406.436	599.94
406.66	632.94
406.883	629.94
407.107	646.94
407.331	693.94
407.555	761.94
407.778	746.94
408.002	680.94
408.226	630.94
408.449	614.94
408.673	633.94
408.896	644.94
409.12	685.94
409.344	639.94
409.567	624.94
409.791	584.94
410.014	586.94
410.238	578.94
410.461	564.94
410.685	575.94
410.908	576.94
411.132	635.94
411.355	644.94
411.578	633.94
411.802	582.94
412.025	553.94
412.249	589.94
412.472	608.94
412.695	610.94
412.919	617.94
413.142	567.94
413.365	539.94
413.589	564.94
413.812	540.94
414.035	523.94
414.258	565.94
414.482	545.94
414.705	530.94
414.928	533.94
415.151	535.94
415.374	552.94
415.597	529.94
415.821	564.94
416.044	518.94
416.267	541.94
416.49	537.94
416.713	536.94
416.936	547.94
417.159	538.94
417.382	534.94
417.605	528.94
417.828	542.94
418.051	560.94
418.274	560.94
418.497	541.94
418.72	531.94
418.943	538.94
419.166	560.94
419.389	585.94
419.611	564.94
419.834	568.94
420.057	575.94
420.28	578.94
420.503	562.94
420.726	575.94
420.948	575.94
421.171	584.94
421.394	641.94
421.617	596.94
421.839	560.94
422.062	564.94
422.285	561.94
422.507	617.94
422.73	710.94
422.953	695.94
423.175	603.94
423.398	591.94
423.621	586.94
423.843	595.94
424.066	599.94
424.288	591.94
424.511	603.94
424.733	668.94
424.956	767.94
425.178	696.94
425.401	717.94
425.623	739.94
425.846	639.94
426.068	577.94
426.291	577.94
426.513	567.94
426.735	578.94
426.958	616.94
427.18	709.94
427.402	847.94
427.625	907.94
427.847	781.94
428.069	691.94
428.292	631.94
428.514	583.94
428.736	575.94
428.958	548.94
429.181	548.94
429.403	560.94
429.625	541.94
429.847	574.94
430.069	659.94
430.292	652.94
430.514	559.94
430.736	543.94
430.958	535.94
431.18	518.94
431.402	527.94
431.624	514.94
431.846	496.94
432.068	492.94
432.29	503.94
432.512	538.94
432.734	529.94
432.956	545.94
433.178	518.94
433.4	523.94
433.622	531.94
433.844	546.94
434.066	515.94
434.287	509.94
434.509	532.94
434.731	535.94
434.953	552.94
435.175	564.94
435.397	595.94
435.618	589.94
435.84	601.94
436.062	710.94
436.284	756.94
436.505	667.94
436.727	609.94
436.949	570.94
437.17	544.94
437.392	540.94
437.614	552.94
437.835	577.94
438.057	650.94
438.278	774.94
438.5	748.94
438.721	861.94
438.943	810.94
439.165	643.94
439.386	610.94
439.608	593.94
439.829	566.94
440.05	623.94
440.272	637.94
440.493	630.94
440.715	556.94
440.936	557.94
441.158	540.94
441.379	553.94
441.6	548.94
441.822	593.94
442.043	625.94
442.264	709.94
442.486	745.94
442.707	626.94
442.928	583.94
443.149	609.94
443.371	650.94
443.592	640.94
443.813	767.94
444.034	826.94
444.255	692.94
444.476	623.94
444.698	631.94
444.919	609.94
445.14	732.94
445.361	665.94
445.582	645.94
445.803	672.94
446.024	779.94
446.245	777.94
446.466	713.94
446.687	630.94
446.908	584.94
447.129	567.94
447.35	544.94
447.571	547.94
447.792	517.94
448.013	525.94
448.234	544.94
448.455	608.94
448.675	721.94
448.896	832.94
449.117	708.94
449.338	634.94
449.559	757.94
449.779	887.94
450	709.94
450.221	586.94
450.442	529.94
450.662	514.94
450.883	529.94
451.104	529.94
451.324	512.94
451.545	507.94
451.766	490.94
451.986	486.94
452.207	501.94
452.428	463.94
452.648	477.94
452.869	477.94
453.089	479.94
453.31	480.94
453.53	482.94
453.751	489.94
453.971	473.94
454.192	508.94
454.412	495.94
454.633	466.94
454.853	451.94
455.073	449.94
455.294	497.94
455.514	567.94
455.734	549.94
455.955	458.94
456.175	458.94
456.395	443.94
456.616	459.94
456.836	458.94
457.056	462.94
457.276	457.94
457.497	439.94
457.717	452.94
457.937	463.94
458.157	460.94
458.377	466.94
458.598	497.94
458.818	525.94
459.038	604.94
459.258	623.94
459.478	552.94
459.698	505.94
459.918	529.94
460.138	521.94
460.358	549.94
460.578	531.94
460.798	540.94
461.018	573.94
461.238	556.94
461.458	557.94
461.678	565.94
461.898	534.94
462.118	536.94
462.338	540.94
462.558	550.94
462.777	579.94
462.997	606.94
463.217	609.94
463.437	597.94
463.657	565.94
463.876	561.94
464.096	594.94
464.316	581.94
464.536	581.94
464.755	585.94
464.975	575.94
465.195	586.94
465.414	617.94
465.634	570.94
465.854	534.94
466.073	536.94
466.293	521.94
466.512	504.94
466.732	491.94
466.951	482.94
467.171	472.94
467.391	487.94
467.61	495.94
467.829	521.94
468.049	491.94
468.268	499.94
468.488	484.94
468.707	499.94
468.927	479.94
469.146	473.94
469.365	490.94
469.585	483.94
469.804	487.94
470.023	491.94
470.243	495.94
470.462	492.94
470.681	519.94
470.901	515.94
471.12	510.94
471.339	480.94
471.558	519.94
471.777	481.94
471.997	485.94
472.216	516.94
472.435	521.94
472.654	535.94
472.873	473.94
473.092	492.94
473.311	489.94
473.53	493.94
473.749	526.94
473.968	543.94
474.187	632.94
474.406	657.94
474.625	555.94
474.844	503.94
475.063	511.94
475.282	510.94
475.501	496.94
475.72	501.94
475.939	512.94
476.158	495.94
476.377	506.94
476.596	516.94
476.814	515.94
477.033	528.94
477.252	514.94
477.471	535.94
477.69	545.94
477.908	524.94
478.127	563.94
478.346	551.94
478.564	559.94
478.783	548.94
479.002	591.94
479.22	557.94
479.439	569.94
479.658	587.94
479.876	607.94
480.095	609.94
480.313	649.94
480.532	625.94
480.751	629.94
480.969	635.94
481.188	645.94
481.406	669.94
481.624	640.94
481.843	614.94
482.061	596.94
482.28	590.94
482.498	585.94
482.717	591.94
482.935	588.94
483.153	579.94
483.372	577.94
483.59	579.94
483.808	578.94
484.027	572.94
484.245	600.94
484.463	576.94
484.681	587.94
484.9	579.94
485.118	575.94
485.336	597.94
485.554	599.94
485.772	590.94
485.99	586.94
486.209	601.94
486.427	588.94
486.645	602.94
486.863	623.94
487.081	635.94
487.299	608.94
487.517	600.94
487.735	598.94
487.953	614.94
488.171	636.94
488.389	625.94
488.607	641.94
488.825	624.94
489.043	611.94
489.261	620.94
489.479	632.94
489.696	627.94
489.914	647.94
490.132	648.94
490.35	626.94
490.568	659.94
490.786	649.94
491.003	663.94
491.221	693.94
491.439	677.94
491.657	716.94
491.874	674.94
492.092	709.94
492.31	728.94
492.527	714.94
492.745	717.94
492.963	723.94
493.18	723.94
493.398	715.94
493.615	726.94
493.833	736.94
494.05	703.94
494.268	739.94
494.485	723.94
494.703	711.94
494.92	743.94
495.138	694.94
495.355	725.94
495.573	732.94
495.79	746.94
496.008	729.94
496.225	738.94
496.442	707.94
496.66	739.94
496.877	706.94
497.094	745.94
497.312	769.94
497.529	781.94
497.746	782.94
497.963	775.94
498.181	812.94
498.398	813.94
498.615	849.94
498.832	895.94
499.049	893.94
499.267	892.94
499.484	955.94
499.701	973.94
499.918	1054.94
500.135	1120.94
500.352	1141.94
500.569	1197.94
500.786	1175.94
501.003	1154.94
501.22	1101.94
501.437	1055.94
501.654	1057.94
501.871	1002.94
502.088	935.94
502.305	899.94
502.522	875.94
502.739	871.94
502.956	800.94
503.172	765.94
503.389	790.94
503.606	787.94
503.823	800.94
504.04	747.94
504.256	772.94
504.473	774.94
504.69	747.94
504.907	741.94
505.123	739.94
505.34	716.94
505.557	709.94
505.773	724.94
505.99	681.94
506.207	670.94
506.423	711.94
506.64	688.94
506.856	666.94
507.073	687.94
507.289	676.94
507.506	649.94
507.722	660.94
507.939	687.94
508.155	664.94
508.372	660.94
508.588	664.94
508.805	651.94
509.021	649.94
509.238	653.94
509.454	672.94
509.67	649.94
509.887	641.94
510.103	631.94
510.319	641.94
510.536	680.94
510.752	1071.94
510.968	872.94
511.184	647.94
511.401	641.94
511.617	603.94
511.833	609.94
512.049	611.94
512.265	620.94
512.481	628.94
512.698	623.94
512.914	612.94
513.13	619.94
513.346	624.94
513.562	615.94
513.778	625.94
513.994	625.94
514.21	609.94
514.426	643.94
514.642	653.94
514.858	669.94
515.074	691.94
515.29	803.94
515.506	1045.94
515.721	910.94
515.937	674.94
516.153	668.94
516.369	662.94
516.585	620.94
516.801	643.94
517.016	637.94
517.232	645.94
517.448	658.94
517.664	666.94
517.879	669.94
518.095	640.94
518.311	671.94
518.527	670.94
518.742	659.94
518.958	627.94
519.173	640.94
519.389	615.94
519.605	621.94
519.82	619.94
520.036	607.94
520.251	629.94
520.467	644.94
520.682	619.94
520.898	655.94
521.113	640.94
521.329	672.94
521.544	723.94
521.76	869.94
521.975	1334.94
522.19	1297.94
522.406	793.94
522.621	663.94
522.836	589.94
523.052	585.94
523.267	580.94
523.482	550.94
523.698	586.94
523.913	543.94
524.128	548.94
524.343	533.94
524.559	515.94
524.774	541.94
524.989	542.94
525.204	561.94
525.419	532.94
525.634	544.94
525.849	520.94
526.064	522.94
526.28	522.94
526.495	519.94
526.71	532.94
526.925	513.94
527.14	505.94
527.355	517.94
527.57	510.94
527.785	522.94
527.999	488.94
528.214	490.94
528.429	530.94
528.644	523.94
528.859	506.94
529.074	513.94
529.289	538.94
529.503	569.94
529.718	591.94
529.933	498.94
530.148	527.94
530.363	517.94
530.577	501.94
530.792	491.94
531.007	515.94
531.221	483.94
531.436	527.94
531.651	483.94
531.865	487.94
532.08	484.94
532.295	503.94
532.509	463.94
532.724	480.94
532.938	499.94
533.153	513.94
533.367	481.94
533.582	501.94
533.796	493.94
534.011	506.94
534.225	485.94
534.44	465.94
534.654	467.94
534.868	492.94
535.083	480.94
535.297	511.94
535.511	502.94
535.726	518.94
535.94	481.94
536.154	489.94
536.369	495.94
536.583	480.94
536.797	467.94
537.011	463.94
537.225	454.94
537.44	473.94
537.654	477.94
537.868	455.94
538.082	469.94
538.296	474.94
538.51	490.94
538.724	479.94
538.938	479.94
539.153	450.94
539.367	477.94
539.581	457.94
539.795	459.94
540.009	479.94
540.222	455.94
540.436	464.94
540.65	476.94
540.864	493.94
541.078	492.94
541.292	476.94
541.506	459.94
541.72	460.94
541.934	483.94
542.147	482.94
542.361	470.94
542.575	467.94
542.789	461.94
543.002	470.94
543.216	452.94
543.43	464.94
543.644	455.94
543.857	460.94
544.071	466.94
544.285	467.94
544.498	483.94
544.712	457.94
544.925	469.94
545.139	474.94
545.352	465.94
545.566	485.94
545.779	458.94
545.993	449.94
546.206	467.94
546.42	474.94
546.633	468.94
546.847	451.94
547.06	458.94
547.274	443.94
547.487	461.94
547.7	467.94
547.914	439.94
548.127	458.94
548.34	472.94
548.554	477.94
548.767	492.94
548.98	477.94
549.193	460.94
549.407	456.94
549.62	477.94
549.833	475.94
550.046	466.94
550.259	454.94
550.473	475.94
550.686	444.94
550.899	463.94
551.112	459.94
551.325	445.94
551.538	452.94
551.751	441.94
551.964	464.94
552.177	449.94
552.39	462.94
552.603	467.94
552.816	455.94
553.029	444.94
553.242	466.94
553.455	484.94
553.667	477.94
553.88	463.94
554.093	456.94
554.306	474.94
554.519	461.94
554.732	452.94
554.944	451.94
555.157	435.94
555.37	436.94
555.583	429.94
555.795	436.94
556.008	414.94
556.221	428.94
556.433	424.94
556.646	406.94
556.859	425.94
557.071	417.94
557.284	408.94
557.496	405.94
557.709	402.94
557.921	426.94
558.134	428.94
558.346	397.94
558.559	417.94
558.771	405.94
558.984	408.94
559.196	397.94
559.409	401.94
559.621	411.94
559.833	400.94
560.046	391.94
560.258	415.94
560.47	405.94
560.683	409.94
560.895	400.94
561.107	426.94
561.32	395.94
561.532	380.94
561.744	409.94
561.956	420.94
562.168	419.94
562.381	398.94
562.593	402.94
562.805	420.94
563.017	402.94
563.229	391.94
563.441	413.94
563.653	425.94
563.865	404.94
564.077	416.94
564.289	417.94
564.501	435.94
564.713	431.94
564.925	442.94
565.137	459.94
565.349	455.94
565.561	443.94
565.773	433.94
565.985	456.94
566.197	475.94
566.408	477.94
566.62	519.94
566.832	506.94
567.044	529.94
567.255	537.94
567.467	551.94
567.679	544.94
567.891	581.94
568.102	548.94
568.314	550.94
568.526	533.94
568.737	518.94
568.949	481.94
569.161	480.94
569.372	457.94
569.584	440.94
569.795	434.94
570.007	433.94
570.218	465.94
570.43	446.94
570.641	413.94
570.853	403.94
571.064	415.94
571.276	397.94
571.487	401.94
571.698	387.94
571.91	391.94
572.121	374.94
572.333	369.94
572.544	373.94
572.755	377.94
572.966	373.94
573.178	341.94
573.389	335.94
573.6	374.94
573.811	342.94
574.023	351.94
574.234	352.94
574.445	355.94
574.656	345.94
574.867	361.94
575.078	360.94
575.289	315.94
575.501	365.94
575.712	357.94
575.923	351.94
576.134	360.94
576.345	353.94
576.556	357.94
576.767	333.94
576.978	349.94
577.188	336.94
577.399	344.94
577.61	329.94
577.821	335.94
578.032	331.94
578.243	362.94
578.454	509.94
578.665	407.94
578.875	324.94
579.086	332.94
579.297	330.94
579.508	313.94
579.718	320.94
579.929	322.94
580.14	322.94
580.35	313.94
580.561	332.94
580.772	326.94
580.982	339.94
581.193	317.94
581.403	310.94
581.614	316.94
581.825	321.94
582.035	317.94
582.246	318.94
582.456	312.94
582.667	293.94
582.877	328.94
583.087	309.94
583.298	320.94
583.508	318.94
583.719	312.94
583.929	313.94
584.139	321.94
584.35	312.94
584.56	310.94
584.77	322.94
584.981	318.94
585.191	319.94
585.401	321.94
585.611	301.94
585.821	315.94
586.032	313.94
586.242	279.94
586.452	304.94
586.662	305.94
586.872	313.94
587.082	304.94
587.292	297.94
587.502	295.94
587.713	307.94
587.923	303.94
588.133	298.94
588.343	298.94
588.553	318.94
588.762	305.94
588.972	309.94
589.182	294.94
589.392	300.94
589.602	288.94
589.812	308.94
590.022	303.94
590.232	281.94
590.441	293.94
590.651	306.94
590.861	299.94
591.071	307.94
591.281	321.94
591.49	305.94
591.7	319.94
591.91	331.94
592.119	321.94
592.329	315.94
592.539	332.94
592.748	313.94
592.958	327.94
593.167	348.94
593.377	337.94
593.587	338.94
593.796	342.94
594.006	356.94
594.215	337.94
594.424	329.94
594.634	333.94
594.843	356.94
595.053	331.94
595.262	332.94
595.472	322.94
595.681	316.94
595.89	307.94
596.1	303.94
596.309	279.94
596.518	295.94
596.727	279.94
596.937	290.94
597.146	288.94
597.355	275.94
597.564	309.94
597.774	282.94
597.983	281.94
598.192	284.94
598.401	276.94
598.61	258.94
598.819	291.94
599.028	274.94
599.237	262.94
599.446	257.94
599.655	289.94
599.864	275.94
600.073	276.94
600.282	282.94
600.491	265.94
600.7	260.94
600.909	258.94
601.118	260.94
601.327	269.94
601.536	261.94
601.745	267.94
601.953	288.94
602.162	269.94
602.371	268.94
602.58	254.94
602.789	268.94
602.997	268.94
603.206	252.94
603.415	260.94
603.623	277.94
603.832	251.94
604.041	237.94
604.249	239.94
604.458	271.94
604.666	257.94
604.875	230.94
605.084	232.94
605.292	247.94
605.501	241.94
605.709	260.94
605.918	264.94
606.126	273.94
606.334	244.94
606.543	244.94
606.751	256.94
606.96	256.94
607.168	251.94
607.376	267.94
607.585	246.94
607.793	245.94
608.001	253.94
608.21	267.94
608.418	259.94
608.626	244.94
608.834	243.94
609.043	247.94
609.251	253.94
609.459	231.94
609.667	245.94
609.875	257.94
610.083	256.94
610.291	231.94
610.499	261.94
610.707	241.94
610.916	264.94
611.124	267.94
611.332	259.94
611.54	241.94
611.748	268.94
611.955	255.94
612.163	264.94
612.371	249.94
612.579	237.94
612.787	248.94
612.995	227.94
613.203	275.94
613.411	236.94
613.618	263.94
613.826	261.94
614.034	235.94
614.242	251.94
614.449	262.94
614.657	250.94
614.865	237.94
615.072	250.94
615.28	264.94
615.488	260.94
615.695	244.94
615.903	244.94
616.111	245.94
616.318	246.94
616.526	231.94
616.733	249.94
616.941	234.94
617.148	244.94
617.356	220.94
617.563	251.94
617.771	247.94
617.978	223.94
618.185	226.94
618.393	247.94
618.6	245.94
618.807	249.94
619.015	259.94
619.222	258.94
619.429	221.94
619.637	241.94
619.844	227.94
620.051	228.94
620.258	239.94
620.466	229.94
620.673	243.94
620.88	213.94
621.087	208.94
621.294	233.94
621.501	232.94
621.708	250.94
621.915	228.94
622.122	234.94
622.329	248.94
622.536	239.94
622.743	242.94
622.95	228.94
623.157	220.94
623.364	226.94
623.571	223.94
623.778	214.94
623.985	220.94
624.192	225.94
624.399	222.94
624.606	229.94
624.812	239.94
625.019	207.94
625.226	223.94
625.433	231.94
625.639	207.94
625.846	216.94
626.053	210.94
626.259	211.94
626.466	220.94
626.673	197.94
626.879	217.94
627.086	221.94
627.293	223.94
627.499	217.94
627.706	218.94
627.912	208.94
628.119	217.94
628.325	225.94
628.532	209.94
628.738	197.94
628.945	209.94
629.151	212.94
629.357	205.94
629.564	212.94
629.77	198.94
629.976	215.94
630.183	210.94
630.389	211.94
630.595	196.94
630.802	199.94
631.008	208.94
631.214	188.94
631.42	197.94
631.627	195.94
631.833	189.94
632.039	210.94
632.245	199.94
632.451	199.94
632.657	186.94
632.863	204.94
633.069	191.94
633.275	208.94
633.481	191.94
633.688	181.94
633.893	202.94
634.099	187.94
634.305	191.94
634.511	197.94
634.717	183.94
634.923	192.94
635.129	192.94
635.335	192.94
635.541	171.94
635.747	189.94
635.952	189.94
636.158	192.94
636.364	187.94
636.57	185.94
636.775	190.94
636.981	175.94
637.187	190.94
637.392	181.94
637.598	181.94
637.804	192.94
638.009	184.94
638.215	192.94
638.421	195.94
638.626	196.94
638.832	176.94
639.037	182.94
639.243	187.94
639.448	188.94
639.654	184.94
639.859	172.94
640.065	186.94
640.27	187.94
640.475	181.94
640.681	177.94
640.886	185.94
641.091	176.94
641.297	168.94
641.502	160.94
641.707	184.94
641.913	168.94
642.118	173.94
642.323	167.94
642.528	183.94
642.733	170.94
642.939	177.94
643.144	176.94
643.349	168.94
643.554	170.94
643.759	178.94
643.964	191.94
644.169	160.94
644.374	175.94
644.579	173.94
644.784	172.94
644.989	183.94
645.194	163.94
645.399	163.94
645.604	175.94
645.809	168.94
646.014	151.94
646.219	179.94
646.423	147.94
646.628	163.94
646.833	161.94
647.038	150.94
647.243	167.94
647.447	181.94
647.652	181.94
647.857	160.94
648.062	179.94
648.266	196.94
648.471	194.94
648.676	189.94
648.88	183.94
649.085	169.94
649.289	182.94
649.494	174.94
649.698	199.94
649.903	186.94
650.107	185.94
650.312	178.94
650.516	166.94
650.721	180.94
650.925	143.94
651.13	152.94
651.334	151.94
651.539	159.94
651.743	154.94
651.947	136.94
652.152	145.94
652.356	156.94
652.56	142.94
652.764	135.94
652.969	161.94
653.173	150.94
653.377	139.94
653.581	140.94
653.785	161.94
653.99	143.94
654.194	147.94
654.398	149.94
654.602	146.94
654.806	145.94
655.01	146.94
655.214	147.94
655.418	132.94
655.622	123.94
655.826	124.94
656.03	148.94
656.234	146.94
656.438	156.94
656.642	137.94
656.846	133.94
657.049	139.94
657.253	135.94
657.457	111.94
657.661	119.94
657.865	113.94
658.068	102.94
658.272	121.94
658.476	125.94
658.68	123.94
658.883	93.94
659.087	99.94
659.291	102.94
659.494	96.94
659.698	91.94
659.901	96.94
660.105	99.94
660.309	104.94
660.512	92.94
660.716	105.94
660.919	85.94
661.123	102.94
661.326	96.94
661.53	88.94
661.733	88.94
661.936	98.94
662.14	81.94
662.343	73.94
662.546	97.94
662.75	88.94
662.953	86.94
663.156	77.94
663.36	93.94
663.563	96.94
663.766	67.94
663.969	79.94
664.173	79.94
664.376	85.94
664.579	83.94
664.782	87.94
664.985	80.94
665.188	76.94
665.391	74.94
665.594	74.94
665.797	90.94
666	87.94
666.203	81.94
666.406	79.94
666.609	94.94
666.812	84.94
667.015	93.94
667.218	79.94
667.421	81.94
667.624	85.94
667.827	82.94
668.03	74.94
668.232	72.94
668.435	103.94
668.638	80.94
668.841	75.94
669.043	70.94
669.246	92.94
669.449	86.94
669.651	85.94
669.854	89.94
670.057	69.94
670.259	73.94
670.462	84.94
670.665	91.94
670.867	85.94
671.07	81.94
671.272	78.94
671.475	80.94
671.677	88.94
671.88	91.94
672.082	83.94
672.284	77.94
672.487	91.94
672.689	81.94
672.892	68.94
