Data from 1976.PennyLincolnUp.Lamp.En5.5.200Scan.071719.P1.Changed Mount._HRD10591_16-01-05-862.txt Node
Date: Thu Jul 18 16:01:05 EDT 2019
User: cochatt
Spectrometer: HR+D1059
Trigger mode: 1
Integration Time (sec): 1.000000E-1
Scans to average: 1
Electric dark correction enabled: true
Nonlinearity correction enabled: false
Boxcar width: 0
XAxis mode: Wavelengths
Number of Pixels in Spectrum: 2048
>>>>>Begin Spectral Data<<<<<
223.165	-14.62
223.4	-14.62
223.635	-14.62
223.869	-17.62
224.104	-18.62
224.338	-17.62
224.573	-11.62
224.808	-8.62
225.042	-4.62
225.277	-4.62
225.511	4.38
225.746	-1.62
225.98	-0.62
226.215	9.38
226.449	25.38
226.683	20.38
226.918	10.38
227.152	30.38
227.387	19.38
227.621	17.38
227.856	34.38
228.09	45.38
228.324	41.38
228.559	46.38
228.793	59.38
229.027	92.38
229.262	104.38
229.496	104.38
229.73	124.38
229.964	131.38
230.199	127.38
230.433	105.38
230.667	108.38
230.901	122.38
231.136	113.38
231.37	113.38
231.604	102.38
231.838	114.38
232.072	113.38
232.306	117.38
232.541	103.38
232.775	114.38
233.009	121.38
233.243	114.38
233.477	108.38
233.711	110.38
233.945	124.38
234.179	127.38
234.413	126.38
234.647	119.38
234.881	119.38
235.115	135.38
235.349	138.38
235.583	130.38
235.817	145.38
236.051	139.38
236.285	124.38
236.519	127.38
236.753	132.38
236.987	154.38
237.221	179.38
237.455	238.38
237.689	179.38
237.922	139.38
238.156	132.38
238.39	122.38
238.624	129.38
238.858	124.38
239.091	133.38
239.325	139.38
239.559	143.38
239.793	131.38
240.027	142.38
240.26	148.38
240.494	153.38
240.728	157.38
240.961	156.38
241.195	149.38
241.429	131.38
241.662	142.38
241.896	129.38
242.13	141.38
242.363	149.38
242.597	131.38
242.83	131.38
243.064	136.38
243.298	129.38
243.531	141.38
243.765	142.38
243.998	154.38
244.232	149.38
244.465	143.38
244.699	137.38
244.932	149.38
245.166	147.38
245.399	153.38
245.633	161.38
245.866	157.38
246.099	141.38
246.333	149.38
246.566	147.38
246.8	167.38
247.033	151.38
247.266	163.38
247.5	161.38
247.733	167.38
247.966	155.38
248.2	187.38
248.433	159.38
248.666	165.38
248.899	203.38
249.133	202.38
249.366	203.38
249.599	194.38
249.832	190.38
250.066	190.38
250.299	192.38
250.532	187.38
250.765	206.38
250.998	223.38
251.231	232.38
251.465	211.38
251.698	201.38
251.931	191.38
252.164	201.38
252.397	193.38
252.63	202.38
252.863	218.38
253.096	216.38
253.329	242.38
253.562	238.38
253.795	218.38
254.028	196.38
254.261	211.38
254.494	234.38
254.727	262.38
254.96	299.38
255.193	256.38
255.426	243.38
255.659	231.38
255.892	237.38
256.124	236.38
256.357	227.38
256.59	210.38
256.823	215.38
257.056	206.38
257.289	213.38
257.521	226.38
257.754	226.38
257.987	216.38
258.22	208.38
258.452	198.38
258.685	212.38
258.918	214.38
259.151	217.38
259.383	210.38
259.616	230.38
259.849	231.38
260.081	234.38
260.314	261.38
260.547	270.38
260.779	263.38
261.012	252.38
261.244	251.38
261.477	234.38
261.71	218.38
261.942	220.38
262.175	225.38
262.407	231.38
262.64	236.38
262.872	226.38
263.105	214.38
263.337	205.38
263.57	225.38
263.802	222.38
264.035	235.38
264.267	221.38
264.499	211.38
264.732	217.38
264.964	229.38
265.197	224.38
265.429	220.38
265.661	219.38
265.894	214.38
266.126	227.38
266.358	228.38
266.591	218.38
266.823	231.38
267.055	233.38
267.287	232.38
267.52	215.38
267.752	234.38
267.984	247.38
268.216	241.38
268.448	237.38
268.681	243.38
268.913	279.38
269.145	247.38
269.377	278.38
269.609	283.38
269.841	274.38
270.073	269.38
270.306	307.38
270.538	303.38
270.77	306.38
271.002	307.38
271.234	301.38
271.466	311.38
271.698	303.38
271.93	332.38
272.162	313.38
272.394	317.38
272.626	295.38
272.858	299.38
273.09	284.38
273.322	257.38
273.553	280.38
273.785	287.38
274.017	268.38
274.249	271.38
274.481	288.38
274.713	278.38
274.945	298.38
275.176	271.38
275.408	276.38
275.64	286.38
275.872	269.38
276.104	289.38
276.335	280.38
276.567	270.38
276.799	281.38
277.031	296.38
277.262	323.38
277.494	352.38
277.726	333.38
277.957	308.38
278.189	304.38
278.421	287.38
278.652	305.38
278.884	275.38
279.115	282.38
279.347	273.38
279.579	279.38
279.81	285.38
280.042	271.38
280.273	285.38
280.505	301.38
280.736	277.38
280.968	292.38
281.199	290.38
281.431	288.38
281.662	286.38
281.894	287.38
282.125	281.38
282.356	302.38
282.588	321.38
282.819	333.38
283.051	297.38
283.282	268.38
283.513	282.38
283.745	289.38
283.976	318.38
284.207	307.38
284.439	300.38
284.67	311.38
284.901	307.38
285.132	295.38
285.364	307.38
285.595	303.38
285.826	291.38
286.057	314.38
286.288	305.38
286.52	297.38
286.751	282.38
286.982	296.38
287.213	285.38
287.444	308.38
287.675	317.38
287.906	309.38
288.138	330.38
288.369	326.38
288.6	315.38
288.831	315.38
289.062	294.38
289.293	315.38
289.524	321.38
289.755	289.38
289.986	295.38
290.217	309.38
290.448	295.38
290.679	305.38
290.91	319.38
291.141	331.38
291.371	319.38
291.602	309.38
291.833	324.38
292.064	328.38
292.295	296.38
292.526	319.38
292.757	286.38
292.987	295.38
293.218	322.38
293.449	305.38
293.68	303.38
293.91	330.38
294.141	311.38
294.372	313.38
294.603	297.38
294.833	319.38
295.064	317.38
295.295	332.38
295.525	319.38
295.756	323.38
295.987	301.38
296.217	324.38
296.448	348.38
296.679	328.38
296.909	298.38
297.14	331.38
297.37	329.38
297.601	322.38
297.831	316.38
298.062	317.38
298.292	318.38
298.523	330.38
298.753	314.38
298.984	313.38
299.214	316.38
299.445	334.38
299.675	350.38
299.905	355.38
300.136	339.38
300.366	313.38
300.597	331.38
300.827	334.38
301.057	340.38
301.288	337.38
301.518	348.38
301.748	337.38
301.979	341.38
302.209	359.38
302.439	351.38
302.669	339.38
302.9	340.38
303.13	352.38
303.36	350.38
303.59	354.38
303.82	351.38
304.051	345.38
304.281	354.38
304.511	359.38
304.741	348.38
304.971	349.38
305.201	343.38
305.431	355.38
305.661	348.38
305.891	349.38
306.121	336.38
306.352	336.38
306.582	351.38
306.812	375.38
307.042	342.38
307.272	355.38
307.502	358.38
307.731	341.38
307.961	339.38
308.191	334.38
308.421	327.38
308.651	340.38
308.881	353.38
309.111	336.38
309.341	359.38
309.571	369.38
309.8	381.38
310.03	378.38
310.26	390.38
310.49	405.38
310.72	391.38
310.949	400.38
311.179	419.38
311.409	393.38
311.639	379.38
311.868	377.38
312.098	397.38
312.328	376.38
312.557	405.38
312.787	408.38
313.017	411.38
313.246	400.38
313.476	415.38
313.706	405.38
313.935	391.38
314.165	387.38
314.394	436.38
314.624	412.38
314.853	404.38
315.083	383.38
315.312	392.38
315.542	385.38
315.771	373.38
316.001	363.38
316.23	356.38
316.46	394.38
316.689	385.38
316.919	391.38
317.148	404.38
317.377	387.38
317.607	412.38
317.836	389.38
318.065	385.38
318.295	393.38
318.524	379.38
318.753	381.38
318.983	390.38
319.212	394.38
319.441	389.38
319.67	421.38
319.9	393.38
320.129	391.38
320.358	393.38
320.587	402.38
320.816	402.38
321.046	405.38
321.275	421.38
321.504	391.38
321.733	413.38
321.962	423.38
322.191	393.38
322.42	444.38
322.649	450.38
322.878	444.38
323.108	455.38
323.337	459.38
323.566	492.38
323.795	494.38
324.024	535.38
324.253	620.38
324.482	886.38
324.71	1323.38
324.939	1939.38
325.168	1637.38
325.397	824.38
325.626	598.38
325.855	526.38
326.084	461.38
326.313	470.38
326.542	475.38
326.77	508.38
326.999	581.38
327.228	797.38
327.457	1189.38
327.686	1455.38
327.914	967.38
328.143	662.38
328.372	581.38
328.6	561.38
328.829	539.38
329.058	562.38
329.287	577.38
329.515	531.38
329.744	488.38
329.972	487.38
330.201	510.38
330.43	569.38
330.658	574.38
330.887	591.38
331.115	573.38
331.344	525.38
331.572	481.38
331.801	499.38
332.03	500.38
332.258	482.38
332.486	482.38
332.715	476.38
332.943	461.38
333.172	470.38
333.4	483.38
333.629	492.38
333.857	524.38
334.085	527.38
334.314	526.38
334.542	545.38
334.771	549.38
334.999	524.38
335.227	502.38
335.455	483.38
335.684	459.38
335.912	490.38
336.14	458.38
336.369	485.38
336.597	445.38
336.825	481.38
337.053	463.38
337.281	442.38
337.51	444.38
337.738	455.38
337.966	472.38
338.194	473.38
338.422	450.38
338.65	446.38
338.878	454.38
339.106	458.38
339.334	437.38
339.562	439.38
339.79	442.38
340.018	451.38
340.246	425.38
340.474	451.38
340.702	435.38
340.93	452.38
341.158	435.38
341.386	459.38
341.614	447.38
341.842	448.38
342.07	441.38
342.298	451.38
342.526	425.38
342.754	430.38
342.981	439.38
343.209	430.38
343.437	430.38
343.665	455.38
343.893	463.38
344.12	457.38
344.348	466.38
344.576	461.38
344.804	471.38
345.031	478.38
345.259	472.38
345.487	469.38
345.714	437.38
345.942	419.38
346.17	438.38
346.397	445.38
346.625	419.38
346.853	439.38
347.08	419.38
347.308	417.38
347.535	427.38
347.763	420.38
347.99	445.38
348.218	452.38
348.445	434.38
348.673	443.38
348.9	438.38
349.128	431.38
349.355	417.38
349.583	431.38
349.81	422.38
350.037	416.38
350.265	413.38
350.492	417.38
350.72	442.38
350.947	386.38
351.174	423.38
351.402	443.38
351.629	423.38
351.856	427.38
352.083	422.38
352.311	436.38
352.538	443.38
352.765	423.38
352.992	435.38
353.22	403.38
353.447	407.38
353.674	417.38
353.901	418.38
354.128	406.38
354.355	414.38
354.583	400.38
354.81	377.38
355.037	398.38
355.264	382.38
355.491	407.38
355.718	409.38
355.945	395.38
356.172	420.38
356.399	407.38
356.626	413.38
356.853	390.38
357.08	400.38
357.307	405.38
357.534	401.38
357.761	399.38
357.988	414.38
358.215	405.38
358.441	419.38
358.668	403.38
358.895	418.38
359.122	401.38
359.349	427.38
359.576	435.38
359.802	450.38
360.029	459.38
360.256	454.38
360.483	439.38
360.709	406.38
360.936	452.38
361.163	417.38
361.39	427.38
361.616	462.38
361.843	419.38
362.07	419.38
362.296	418.38
362.523	412.38
362.749	448.38
362.976	437.38
363.203	408.38
363.429	415.38
363.656	415.38
363.882	398.38
364.109	419.38
364.335	402.38
364.562	407.38
364.788	396.38
365.015	420.38
365.241	380.38
365.468	411.38
365.694	407.38
365.92	404.38
366.147	389.38
366.373	407.38
366.599	399.38
366.826	398.38
367.052	420.38
367.278	424.38
367.505	411.38
367.731	419.38
367.957	407.38
368.184	413.38
368.41	421.38
368.636	438.38
368.862	433.38
369.089	430.38
369.315	409.38
369.541	394.38
369.767	391.38
369.993	422.38
370.219	417.38
370.445	436.38
370.672	393.38
370.898	413.38
371.124	410.38
371.35	408.38
371.576	406.38
371.802	426.38
372.028	403.38
372.254	408.38
372.48	420.38
372.706	439.38
372.932	422.38
373.158	413.38
373.384	421.38
373.61	410.38
373.835	420.38
374.061	428.38
374.287	424.38
374.513	438.38
374.739	413.38
374.965	415.38
375.191	440.38
375.416	446.38
375.642	441.38
375.868	434.38
376.094	392.38
376.319	420.38
376.545	420.38
376.771	417.38
376.997	421.38
377.222	423.38
377.448	409.38
377.674	407.38
377.899	413.38
378.125	416.38
378.35	419.38
378.576	429.38
378.802	407.38
379.027	397.38
379.253	405.38
379.478	406.38
379.704	402.38
379.929	408.38
380.155	399.38
380.38	405.38
380.606	420.38
380.831	423.38
381.057	410.38
381.282	410.38
381.507	422.38
381.733	410.38
381.958	432.38
382.184	395.38
382.409	434.38
382.634	424.38
382.86	409.38
383.085	423.38
383.31	436.38
383.535	423.38
383.761	431.38
383.986	415.38
384.211	447.38
384.436	445.38
384.662	439.38
384.887	447.38
385.112	450.38
385.337	451.38
385.562	468.38
385.787	463.38
386.013	461.38
386.238	466.38
386.463	463.38
386.688	453.38
386.913	451.38
387.138	475.38
387.363	468.38
387.588	468.38
387.813	456.38
388.038	445.38
388.263	474.38
388.488	451.38
388.713	453.38
388.938	469.38
389.163	436.38
389.387	469.38
389.612	458.38
389.837	448.38
390.062	449.38
390.287	433.38
390.512	456.38
390.736	455.38
390.961	464.38
391.186	475.38
391.411	481.38
391.636	473.38
391.86	472.38
392.085	503.38
392.31	481.38
392.534	481.38
392.759	490.38
392.984	502.38
393.208	471.38
393.433	454.38
393.658	466.38
393.882	451.38
394.107	465.38
394.331	451.38
394.556	467.38
394.78	474.38
395.005	486.38
395.229	464.38
395.454	486.38
395.678	497.38
395.903	494.38
396.127	513.38
396.352	517.38
396.576	492.38
396.801	491.38
397.025	497.38
397.249	505.38
397.474	495.38
397.698	492.38
397.922	534.38
398.147	517.38
398.371	525.38
398.595	521.38
398.82	527.38
399.044	563.38
399.268	573.38
399.492	602.38
399.717	662.38
399.941	659.38
400.165	682.38
400.389	673.38
400.613	622.38
400.837	578.38
401.062	551.38
401.286	533.38
401.51	537.38
401.734	532.38
401.958	541.38
402.182	533.38
402.406	546.38
402.63	541.38
402.854	546.38
403.078	561.38
403.302	554.38
403.526	549.38
403.75	563.38
403.974	578.38
404.198	565.38
404.422	577.38
404.645	554.38
404.869	583.38
405.093	588.38
405.317	646.38
405.541	705.38
405.765	633.38
405.988	586.38
406.212	608.38
406.436	619.38
406.66	642.38
406.883	586.38
407.107	625.38
407.331	683.38
407.555	737.38
407.778	729.38
408.002	663.38
408.226	629.38
408.449	612.38
408.673	633.38
408.896	639.38
409.12	691.38
409.344	633.38
409.567	589.38
409.791	570.38
410.014	572.38
410.238	549.38
410.461	566.38
410.685	555.38
410.908	558.38
411.132	586.38
411.355	622.38
411.578	612.38
411.802	573.38
412.025	562.38
412.249	568.38
412.472	597.38
412.695	622.38
412.919	608.38
413.142	571.38
413.365	556.38
413.589	537.38
413.812	529.38
414.035	539.38
414.258	524.38
414.482	541.38
414.705	525.38
414.928	524.38
415.151	529.38
415.374	537.38
415.597	534.38
415.821	522.38
416.044	514.38
416.267	546.38
416.49	534.38
416.713	513.38
416.936	531.38
417.159	510.38
417.382	534.38
417.605	538.38
417.828	531.38
418.051	569.38
418.274	533.38
418.497	525.38
418.72	541.38
418.943	517.38
419.166	560.38
419.389	574.38
419.611	578.38
419.834	551.38
420.057	548.38
420.28	561.38
420.503	546.38
420.726	561.38
420.948	570.38
421.171	587.38
421.394	610.38
421.617	570.38
421.839	543.38
422.062	547.38
422.285	568.38
422.507	635.38
422.73	696.38
422.953	664.38
423.175	606.38
423.398	586.38
423.621	574.38
423.843	601.38
424.066	591.38
424.288	604.38
424.511	602.38
424.733	651.38
424.956	733.38
425.178	702.38
425.401	693.38
425.623	723.38
425.846	643.38
426.068	586.38
426.291	560.38
426.513	561.38
426.735	566.38
426.958	622.38
427.18	728.38
427.402	845.38
427.625	925.38
427.847	761.38
428.069	694.38
428.292	610.38
428.514	581.38
428.736	555.38
428.958	548.38
429.181	540.38
429.403	528.38
429.625	526.38
429.847	586.38
430.069	653.38
430.292	653.38
430.514	567.38
430.736	539.38
430.958	521.38
431.18	511.38
431.402	499.38
431.624	527.38
431.846	494.38
432.068	505.38
432.29	510.38
432.512	509.38
432.734	509.38
432.956	502.38
433.178	529.38
433.4	511.38
433.622	524.38
433.844	514.38
434.066	529.38
434.287	518.38
434.509	515.38
434.731	564.38
434.953	563.38
435.175	536.38
435.397	565.38
435.618	594.38
435.84	631.38
436.062	676.38
436.284	755.38
436.505	637.38
436.727	596.38
436.949	551.38
437.17	544.38
437.392	528.38
437.614	554.38
437.835	569.38
438.057	651.38
438.278	763.38
438.5	743.38
438.721	821.38
438.943	809.38
439.165	625.38
439.386	607.38
439.608	577.38
439.829	590.38
440.05	631.38
440.272	622.38
440.493	591.38
440.715	572.38
440.936	539.38
441.158	525.38
441.379	533.38
441.6	574.38
441.822	578.38
442.043	607.38
442.264	700.38
442.486	726.38
442.707	652.38
442.928	592.38
443.149	613.38
443.371	618.38
443.592	646.38
443.813	750.38
444.034	857.38
444.255	683.38
444.476	651.38
444.698	621.38
444.919	607.38
445.14	712.38
445.361	673.38
445.582	636.38
445.803	681.38
446.024	798.38
446.245	799.38
446.466	703.38
446.687	642.38
446.908	583.38
447.129	552.38
447.35	519.38
447.571	539.38
447.792	530.38
448.013	509.38
448.234	535.38
448.455	605.38
448.675	709.38
448.896	827.38
449.117	699.38
449.338	650.38
449.559	762.38
449.779	878.38
450	718.38
450.221	596.38
450.442	527.38
450.662	510.38
450.883	498.38
451.104	514.38
451.324	504.38
451.545	499.38
451.766	472.38
451.986	470.38
452.207	469.38
452.428	488.38
452.648	466.38
452.869	464.38
453.089	473.38
453.31	487.38
453.53	476.38
453.751	472.38
453.971	466.38
454.192	493.38
454.412	454.38
454.633	478.38
454.853	457.38
455.073	483.38
455.294	484.38
455.514	568.38
455.734	548.38
455.955	492.38
456.175	475.38
456.395	456.38
456.616	471.38
456.836	434.38
457.056	447.38
457.276	423.38
457.497	459.38
457.717	451.38
457.937	453.38
458.157	477.38
458.377	470.38
458.598	487.38
458.818	511.38
459.038	583.38
459.258	619.38
459.478	557.38
459.698	518.38
459.918	513.38
460.138	506.38
460.358	530.38
460.578	543.38
460.798	530.38
461.018	543.38
461.238	541.38
461.458	520.38
461.678	526.38
461.898	538.38
462.118	528.38
462.338	545.38
462.558	547.38
462.777	552.38
462.997	579.38
463.217	591.38
463.437	596.38
463.657	576.38
463.876	574.38
464.096	575.38
464.316	601.38
464.536	585.38
464.755	582.38
464.975	571.38
465.195	589.38
465.414	650.38
465.634	593.38
465.854	523.38
466.073	511.38
466.293	504.38
466.512	508.38
466.732	502.38
466.951	497.38
467.171	470.38
467.391	492.38
467.61	475.38
467.829	519.38
468.049	509.38
468.268	477.38
468.488	478.38
468.707	480.38
468.927	470.38
469.146	487.38
469.365	498.38
469.585	478.38
469.804	494.38
470.023	497.38
470.243	502.38
470.462	511.38
470.681	509.38
470.901	527.38
471.12	502.38
471.339	503.38
471.558	510.38
471.777	498.38
471.997	477.38
472.216	500.38
472.435	513.38
472.654	507.38
472.873	502.38
473.092	489.38
473.311	477.38
473.53	496.38
473.749	490.38
473.968	513.38
474.187	599.38
474.406	640.38
474.625	537.38
474.844	519.38
475.063	467.38
475.282	490.38
475.501	505.38
475.72	492.38
475.939	501.38
476.158	499.38
476.377	508.38
476.596	491.38
476.814	503.38
477.033	512.38
477.252	511.38
477.471	531.38
477.69	543.38
477.908	536.38
478.127	555.38
478.346	569.38
478.564	544.38
478.783	551.38
479.002	577.38
479.22	574.38
479.439	579.38
479.658	582.38
479.876	601.38
480.095	590.38
480.313	628.38
480.532	609.38
480.751	621.38
480.969	621.38
481.188	642.38
481.406	636.38
481.624	604.38
481.843	595.38
482.061	564.38
482.28	554.38
482.498	569.38
482.717	545.38
482.935	588.38
483.153	562.38
483.372	569.38
483.59	570.38
483.808	577.38
484.027	581.38
484.245	585.38
484.463	594.38
484.681	603.38
484.9	585.38
485.118	576.38
485.336	568.38
485.554	581.38
485.772	565.38
485.99	582.38
486.209	611.38
486.427	596.38
486.645	590.38
486.863	621.38
487.081	606.38
487.299	629.38
487.517	608.38
487.735	622.38
487.953	605.38
488.171	610.38
488.389	605.38
488.607	599.38
488.825	635.38
489.043	621.38
489.261	620.38
489.479	603.38
489.696	619.38
489.914	629.38
490.132	619.38
490.35	617.38
490.568	657.38
490.786	659.38
491.003	656.38
491.221	669.38
491.439	660.38
491.657	697.38
491.874	705.38
492.092	694.38
492.31	709.38
492.527	699.38
492.745	709.38
492.963	685.38
493.18	699.38
493.398	713.38
493.615	718.38
493.833	717.38
494.05	717.38
494.268	725.38
494.485	733.38
494.703	723.38
494.92	729.38
495.138	705.38
495.355	715.38
495.573	745.38
495.79	727.38
496.008	741.38
496.225	724.38
496.442	735.38
496.66	730.38
496.877	723.38
497.094	737.38
497.312	728.38
497.529	755.38
497.746	787.38
497.963	790.38
498.181	788.38
498.398	814.38
498.615	820.38
498.832	830.38
499.049	863.38
499.267	898.38
499.484	931.38
499.701	985.38
499.918	1028.38
500.135	1088.38
500.352	1140.38
500.569	1159.38
500.786	1161.38
501.003	1125.38
501.22	1102.38
501.437	1068.38
501.654	1027.38
501.871	953.38
502.088	912.38
502.305	900.38
502.522	873.38
502.739	850.38
502.956	789.38
503.172	776.38
503.389	765.38
503.606	781.38
503.823	743.38
504.04	763.38
504.256	740.38
504.473	723.38
504.69	742.38
504.907	739.38
505.123	713.38
505.34	700.38
505.557	691.38
505.773	693.38
505.99	671.38
506.207	684.38
506.423	682.38
506.64	699.38
506.856	666.38
507.073	659.38
507.289	671.38
507.506	665.38
507.722	664.38
507.939	680.38
508.155	649.38
508.372	655.38
508.588	657.38
508.805	639.38
509.021	643.38
509.238	664.38
509.454	637.38
509.67	650.38
509.887	622.38
510.103	616.38
510.319	650.38
510.536	719.38
510.752	1047.38
510.968	889.38
511.184	647.38
511.401	624.38
511.617	601.38
511.833	589.38
512.049	623.38
512.265	588.38
512.481	611.38
512.698	611.38
512.914	594.38
513.13	591.38
513.346	612.38
513.562	605.38
513.778	627.38
513.994	617.38
514.21	625.38
514.426	629.38
514.642	638.38
514.858	684.38
515.074	698.38
515.29	773.38
515.506	1078.38
515.721	899.38
515.937	687.38
516.153	655.38
516.369	670.38
516.585	650.38
516.801	635.38
517.016	653.38
517.232	653.38
517.448	653.38
517.664	645.38
517.879	661.38
518.095	651.38
518.311	661.38
518.527	645.38
518.742	620.38
518.958	621.38
519.173	626.38
519.389	611.38
519.605	604.38
519.82	613.38
520.036	602.38
520.251	639.38
520.467	658.38
520.682	665.38
520.898	649.38
521.113	657.38
521.329	682.38
521.544	754.38
521.76	880.38
521.975	1341.38
522.19	1297.38
522.406	800.38
522.621	632.38
522.836	587.38
523.052	588.38
523.267	563.38
523.482	539.38
523.698	558.38
523.913	546.38
524.128	562.38
524.343	529.38
524.559	533.38
524.774	518.38
524.989	533.38
525.204	537.38
525.419	532.38
525.634	543.38
525.849	490.38
526.064	522.38
526.28	478.38
526.495	510.38
526.71	518.38
526.925	504.38
527.14	506.38
527.355	495.38
527.57	521.38
527.785	525.38
527.999	511.38
528.214	484.38
528.429	509.38
528.644	508.38
528.859	506.38
529.074	534.38
529.289	525.38
529.503	585.38
529.718	570.38
529.933	527.38
530.148	509.38
530.363	508.38
530.577	489.38
530.792	482.38
531.007	489.38
531.221	476.38
531.436	482.38
531.651	488.38
531.865	480.38
532.08	493.38
532.295	505.38
532.509	497.38
532.724	474.38
532.938	452.38
533.153	481.38
533.367	494.38
533.582	497.38
533.796	491.38
534.011	499.38
534.225	475.38
534.44	475.38
534.654	477.38
534.868	468.38
535.083	483.38
535.297	489.38
535.511	467.38
535.726	529.38
535.94	499.38
536.154	484.38
536.369	475.38
536.583	468.38
536.797	456.38
537.011	461.38
537.225	454.38
537.44	475.38
537.654	463.38
537.868	466.38
538.082	473.38
538.296	454.38
538.51	484.38
538.724	464.38
538.938	473.38
539.153	471.38
539.367	470.38
539.581	463.38
539.795	474.38
540.009	475.38
540.222	468.38
540.436	457.38
540.65	458.38
540.864	487.38
541.078	477.38
541.292	476.38
541.506	487.38
541.72	466.38
541.934	451.38
542.147	476.38
542.361	451.38
542.575	454.38
542.789	451.38
543.002	478.38
543.216	475.38
543.43	466.38
543.644	457.38
543.857	452.38
544.071	432.38
544.285	487.38
544.498	466.38
544.712	465.38
544.925	454.38
545.139	458.38
545.352	469.38
545.566	447.38
545.779	437.38
545.993	463.38
546.206	470.38
546.42	465.38
546.633	448.38
546.847	447.38
547.06	443.38
547.274	456.38
547.487	460.38
547.7	442.38
547.914	462.38
548.127	462.38
548.34	449.38
548.554	462.38
548.767	451.38
548.98	452.38
549.193	445.38
549.407	462.38
549.62	461.38
549.833	461.38
550.046	455.38
550.259	433.38
550.473	451.38
550.686	452.38
550.899	434.38
551.112	437.38
551.325	438.38
551.538	468.38
551.751	446.38
551.964	448.38
552.177	453.38
552.39	445.38
552.603	455.38
552.816	461.38
553.029	480.38
553.242	448.38
553.455	465.38
553.667	469.38
553.88	482.38
554.093	472.38
554.306	459.38
554.519	455.38
554.732	445.38
554.944	445.38
555.157	440.38
555.37	441.38
555.583	447.38
555.795	451.38
556.008	411.38
556.221	409.38
556.433	418.38
556.646	407.38
556.859	420.38
557.071	426.38
557.284	405.38
557.496	403.38
557.709	411.38
557.921	393.38
558.134	388.38
558.346	406.38
558.559	395.38
558.771	386.38
558.984	401.38
559.196	392.38
559.409	397.38
559.621	404.38
559.833	393.38
560.046	391.38
560.258	400.38
560.47	400.38
560.683	396.38
560.895	396.38
561.107	391.38
561.32	407.38
561.532	396.38
561.744	395.38
561.956	391.38
562.168	392.38
562.381	407.38
562.593	410.38
562.805	408.38
563.017	394.38
563.229	400.38
563.441	403.38
563.653	395.38
563.865	422.38
564.077	411.38
564.289	411.38
564.501	417.38
564.713	407.38
564.925	412.38
565.137	426.38
565.349	424.38
565.561	437.38
565.773	436.38
565.985	469.38
566.197	455.38
566.408	487.38
566.62	506.38
566.832	534.38
567.044	499.38
567.255	535.38
567.467	541.38
567.679	538.38
567.891	552.38
568.102	557.38
568.314	550.38
568.526	538.38
568.737	477.38
568.949	478.38
569.161	452.38
569.372	447.38
569.584	429.38
569.795	438.38
570.007	441.38
570.218	441.38
570.43	432.38
570.641	405.38
570.853	400.38
571.064	396.38
571.276	395.38
571.487	403.38
571.698	389.38
571.91	375.38
572.121	377.38
572.333	385.38
572.544	360.38
572.755	349.38
572.966	354.38
573.178	363.38
573.389	342.38
573.6	348.38
573.811	373.38
574.023	382.38
574.234	354.38
574.445	346.38
574.656	350.38
574.867	343.38
575.078	355.38
575.289	354.38
575.501	338.38
575.712	331.38
575.923	341.38
576.134	345.38
576.345	333.38
576.556	335.38
576.767	329.38
576.978	334.38
577.188	334.38
577.399	344.38
577.61	347.38
577.821	322.38
578.032	321.38
578.243	343.38
578.454	503.38
578.665	400.38
578.875	342.38
579.086	323.38
579.297	334.38
579.508	326.38
579.718	314.38
579.929	321.38
580.14	309.38
580.35	319.38
580.561	321.38
580.772	305.38
580.982	326.38
581.193	310.38
581.403	316.38
581.614	306.38
581.825	325.38
582.035	306.38
582.246	332.38
582.456	301.38
582.667	312.38
582.877	308.38
583.087	303.38
583.298	315.38
583.508	305.38
583.719	317.38
583.929	319.38
584.139	320.38
584.35	313.38
584.56	302.38
584.77	313.38
584.981	319.38
585.191	298.38
585.401	286.38
585.611	314.38
585.821	298.38
586.032	308.38
586.242	313.38
586.452	290.38
586.662	296.38
586.872	290.38
587.082	290.38
587.292	310.38
587.502	320.38
587.713	311.38
587.923	313.38
588.133	297.38
588.343	319.38
588.553	297.38
588.762	317.38
588.972	305.38
589.182	326.38
589.392	307.38
589.602	295.38
589.812	294.38
590.022	296.38
590.232	298.38
590.441	300.38
590.651	303.38
590.861	322.38
591.071	313.38
591.281	302.38
591.49	297.38
591.7	295.38
591.91	299.38
592.119	320.38
592.329	328.38
592.539	316.38
592.748	327.38
592.958	325.38
593.167	323.38
593.377	349.38
593.587	339.38
593.796	334.38
594.006	329.38
594.215	336.38
594.424	339.38
594.634	331.38
594.843	326.38
595.053	326.38
595.262	317.38
595.472	316.38
595.681	317.38
595.89	325.38
596.1	292.38
596.309	298.38
596.518	305.38
596.727	277.38
596.937	284.38
597.146	294.38
597.355	284.38
597.564	289.38
597.774	286.38
597.983	281.38
598.192	279.38
598.401	269.38
598.61	276.38
598.819	268.38
599.028	269.38
599.237	273.38
599.446	277.38
599.655	288.38
599.864	261.38
600.073	263.38
600.282	270.38
600.491	273.38
600.7	273.38
600.909	245.38
601.118	263.38
601.327	251.38
601.536	259.38
601.745	269.38
601.953	282.38
602.162	265.38
602.371	271.38
602.58	274.38
602.789	268.38
602.997	268.38
603.206	266.38
603.415	249.38
603.623	262.38
603.832	248.38
604.041	257.38
604.249	267.38
604.458	251.38
604.666	265.38
604.875	253.38
605.084	262.38
605.292	259.38
605.501	246.38
605.709	248.38
605.918	258.38
606.126	258.38
606.334	254.38
606.543	250.38
606.751	238.38
606.96	257.38
607.168	253.38
607.376	247.38
607.585	246.38
607.793	265.38
608.001	251.38
608.21	270.38
608.418	247.38
608.626	262.38
608.834	264.38
609.043	267.38
609.251	238.38
609.459	238.38
609.667	233.38
609.875	254.38
610.083	246.38
610.291	241.38
610.499	246.38
610.707	242.38
610.916	250.38
611.124	246.38
611.332	260.38
611.54	275.38
611.748	254.38
611.955	261.38
612.163	241.38
612.371	249.38
612.579	274.38
612.787	249.38
612.995	246.38
613.203	223.38
613.411	246.38
613.618	248.38
613.826	244.38
614.034	248.38
614.242	243.38
614.449	257.38
614.657	238.38
614.865	245.38
615.072	255.38
615.28	254.38
615.488	253.38
615.695	259.38
615.903	248.38
616.111	247.38
616.318	242.38
616.526	253.38
616.733	250.38
616.941	226.38
617.148	242.38
617.356	250.38
617.563	238.38
617.771	244.38
617.978	258.38
618.185	249.38
618.393	247.38
618.6	256.38
618.807	257.38
619.015	242.38
619.222	231.38
619.429	227.38
619.637	233.38
619.844	220.38
620.051	239.38
620.258	233.38
620.466	228.38
620.673	215.38
620.88	216.38
621.087	224.38
621.294	224.38
621.501	222.38
621.708	230.38
621.915	228.38
622.122	233.38
622.329	226.38
622.536	225.38
622.743	238.38
622.95	216.38
623.157	219.38
623.364	241.38
623.571	218.38
623.778	221.38
623.985	222.38
624.192	203.38
624.399	214.38
624.606	219.38
624.812	222.38
625.019	217.38
625.226	217.38
625.433	205.38
625.639	231.38
625.846	215.38
626.053	207.38
626.259	222.38
626.466	208.38
626.673	219.38
626.879	202.38
627.086	195.38
627.293	209.38
627.499	226.38
627.706	233.38
627.912	217.38
628.119	224.38
628.325	215.38
628.532	211.38
628.738	210.38
628.945	190.38
629.151	211.38
629.357	212.38
629.564	199.38
629.77	212.38
629.976	199.38
630.183	205.38
630.389	219.38
630.595	191.38
630.802	195.38
631.008	205.38
631.214	207.38
631.42	189.38
631.627	197.38
631.833	207.38
632.039	197.38
632.245	198.38
632.451	196.38
632.657	202.38
632.863	187.38
633.069	182.38
633.275	191.38
633.481	196.38
633.688	191.38
633.893	209.38
634.099	205.38
634.305	195.38
634.511	205.38
634.717	204.38
634.923	191.38
635.129	187.38
635.335	177.38
635.541	177.38
635.747	195.38
635.952	177.38
636.158	182.38
636.364	189.38
636.57	177.38
636.775	198.38
636.981	181.38
637.187	187.38
637.392	210.38
637.598	182.38
637.804	185.38
638.009	210.38
638.215	189.38
638.421	179.38
638.626	199.38
638.832	188.38
639.037	198.38
639.243	181.38
639.448	168.38
639.654	182.38
639.859	179.38
640.065	186.38
640.27	172.38
640.475	181.38
640.681	170.38
640.886	178.38
641.091	176.38
641.297	180.38
641.502	185.38
641.707	190.38
641.913	185.38
642.118	175.38
642.323	169.38
642.528	172.38
642.733	185.38
642.939	162.38
643.144	172.38
643.349	167.38
643.554	194.38
643.759	165.38
643.964	167.38
644.169	158.38
644.374	168.38
644.579	173.38
644.784	179.38
644.989	163.38
645.194	159.38
645.399	175.38
645.604	174.38
645.809	167.38
646.014	153.38
646.219	180.38
646.423	171.38
646.628	177.38
646.833	182.38
647.038	172.38
647.243	179.38
647.447	165.38
647.652	184.38
647.857	185.38
648.062	175.38
648.266	179.38
648.471	170.38
648.676	192.38
648.88	174.38
649.085	181.38
649.289	175.38
649.494	155.38
649.698	193.38
649.903	193.38
650.107	172.38
650.312	179.38
650.516	169.38
650.721	165.38
650.925	169.38
651.13	162.38
651.334	162.38
651.539	156.38
651.743	165.38
651.947	147.38
652.152	163.38
652.356	140.38
652.56	160.38
652.764	154.38
652.969	143.38
653.173	144.38
653.377	160.38
653.581	149.38
653.785	165.38
653.99	141.38
654.194	136.38
654.398	115.38
654.602	125.38
654.806	131.38
655.01	150.38
655.214	134.38
655.418	141.38
655.622	141.38
655.826	148.38
656.03	133.38
656.234	142.38
656.438	133.38
656.642	130.38
656.846	147.38
657.049	132.38
657.253	145.38
657.457	120.38
657.661	110.38
657.865	117.38
658.068	114.38
658.272	105.38
658.476	118.38
658.68	129.38
658.883	96.38
659.087	110.38
659.291	100.38
659.494	108.38
659.698	95.38
659.901	102.38
660.105	100.38
660.309	84.38
660.512	102.38
660.716	100.38
660.919	91.38
661.123	84.38
661.326	83.38
661.53	89.38
661.733	83.38
661.936	98.38
662.14	84.38
662.343	88.38
662.546	79.38
662.75	76.38
662.953	98.38
663.156	91.38
663.36	91.38
663.563	101.38
663.766	83.38
663.969	74.38
664.173	89.38
664.376	91.38
664.579	73.38
664.782	86.38
664.985	71.38
665.188	75.38
665.391	81.38
665.594	91.38
665.797	84.38
666	105.38
666.203	89.38
666.406	98.38
666.609	85.38
666.812	77.38
667.015	86.38
667.218	88.38
667.421	84.38
667.624	77.38
667.827	80.38
668.03	73.38
668.232	85.38
668.435	88.38
668.638	94.38
668.841	91.38
669.043	74.38
669.246	82.38
669.449	88.38
669.651	92.38
669.854	90.38
670.057	77.38
670.259	83.38
670.462	81.38
670.665	77.38
670.867	77.38
671.07	101.38
671.272	88.38
671.475	86.38
671.677	79.38
671.88	87.38
672.082	67.38
672.284	80.38
672.487	75.38
672.689	81.38
672.892	81.38
