Data from 1976.PennyLincolnUp.Lamp.En5.5.200Scan.071719.P1.Changed Mount._HRD10591_16-00-37-860.txt Node
Date: Thu Jul 18 16:00:37 EDT 2019
User: cochatt
Spectrometer: HR+D1059
Trigger mode: 1
Integration Time (sec): 1.000000E-1
Scans to average: 1
Electric dark correction enabled: true
Nonlinearity correction enabled: false
Boxcar width: 0
XAxis mode: Wavelengths
Number of Pixels in Spectrum: 2048
>>>>>Begin Spectral Data<<<<<
223.165	-12.44
223.4	-12.44
223.635	-12.44
223.869	-21.44
224.104	-18.44
224.338	1.56
224.573	-14.44
224.808	-18.44
225.042	-11.44
225.277	-9.44
225.511	-4.44
225.746	4.56
225.98	2.56
226.215	5.56
226.449	15.56
226.683	22.56
226.918	18.56
227.152	39.56
227.387	36.56
227.621	40.56
227.856	47.56
228.09	53.56
228.324	52.56
228.559	62.56
228.793	62.56
229.027	88.56
229.262	95.56
229.496	108.56
229.73	113.56
229.964	145.56
230.199	121.56
230.433	123.56
230.667	104.56
230.901	104.56
231.136	122.56
231.37	127.56
231.604	110.56
231.838	118.56
232.072	113.56
232.306	114.56
232.541	118.56
232.775	115.56
233.009	113.56
233.243	94.56
233.477	100.56
233.711	116.56
233.945	129.56
234.179	129.56
234.413	103.56
234.647	125.56
234.881	117.56
235.115	119.56
235.349	112.56
235.583	118.56
235.817	126.56
236.051	141.56
236.285	129.56
236.519	124.56
236.753	141.56
236.987	145.56
237.221	164.56
237.455	212.56
237.689	177.56
237.922	145.56
238.156	141.56
238.39	129.56
238.624	141.56
238.858	117.56
239.091	141.56
239.325	121.56
239.559	124.56
239.793	107.56
240.027	124.56
240.26	132.56
240.494	150.56
240.728	157.56
240.961	147.56
241.195	154.56
241.429	143.56
241.662	148.56
241.896	135.56
242.13	126.56
242.363	127.56
242.597	144.56
242.83	149.56
243.064	136.56
243.298	139.56
243.531	164.56
243.765	131.56
243.998	147.56
244.232	152.56
244.465	137.56
244.699	147.56
244.932	146.56
245.166	142.56
245.399	147.56
245.633	163.56
245.866	148.56
246.099	169.56
246.333	164.56
246.566	158.56
246.8	151.56
247.033	151.56
247.266	160.56
247.5	165.56
247.733	168.56
247.966	174.56
248.2	173.56
248.433	173.56
248.666	184.56
248.899	187.56
249.133	188.56
249.366	212.56
249.599	189.56
249.832	205.56
250.066	186.56
250.299	186.56
250.532	194.56
250.765	206.56
250.998	216.56
251.231	239.56
251.465	221.56
251.698	215.56
251.931	207.56
252.164	196.56
252.397	184.56
252.63	186.56
252.863	211.56
253.096	226.56
253.329	218.56
253.562	212.56
253.795	213.56
254.028	212.56
254.261	229.56
254.494	228.56
254.727	234.56
254.96	283.56
255.193	292.56
255.426	242.56
255.659	207.56
255.892	226.56
256.124	236.56
256.357	235.56
256.59	225.56
256.823	231.56
257.056	212.56
257.289	216.56
257.521	233.56
257.754	206.56
257.987	205.56
258.22	210.56
258.452	220.56
258.685	226.56
258.918	203.56
259.151	204.56
259.383	204.56
259.616	216.56
259.849	220.56
260.081	230.56
260.314	257.56
260.547	247.56
260.779	259.56
261.012	261.56
261.244	230.56
261.477	238.56
261.71	214.56
261.942	229.56
262.175	226.56
262.407	216.56
262.64	225.56
262.872	221.56
263.105	185.56
263.337	210.56
263.57	219.56
263.802	229.56
264.035	230.56
264.267	223.56
264.499	217.56
264.732	227.56
264.964	205.56
265.197	222.56
265.429	224.56
265.661	237.56
265.894	238.56
266.126	239.56
266.358	231.56
266.591	237.56
266.823	224.56
267.055	221.56
267.287	228.56
267.52	222.56
267.752	245.56
267.984	230.56
268.216	250.56
268.448	237.56
268.681	237.56
268.913	256.56
269.145	261.56
269.377	286.56
269.609	283.56
269.841	275.56
270.073	263.56
270.306	318.56
270.538	323.56
270.77	332.56
271.002	289.56
271.234	295.56
271.466	318.56
271.698	298.56
271.93	307.56
272.162	329.56
272.394	327.56
272.626	316.56
272.858	303.56
273.09	288.56
273.322	279.56
273.553	266.56
273.785	274.56
274.017	277.56
274.249	268.56
274.481	266.56
274.713	277.56
274.945	275.56
275.176	286.56
275.408	284.56
275.64	278.56
275.872	260.56
276.104	250.56
276.335	269.56
276.567	285.56
276.799	292.56
277.031	292.56
277.262	310.56
277.494	333.56
277.726	304.56
277.957	294.56
278.189	308.56
278.421	289.56
278.652	294.56
278.884	266.56
279.115	269.56
279.347	281.56
279.579	293.56
279.81	286.56
280.042	276.56
280.273	290.56
280.505	290.56
280.736	254.56
280.968	281.56
281.199	294.56
281.431	289.56
281.662	284.56
281.894	291.56
282.125	285.56
282.356	303.56
282.588	307.56
282.819	316.56
283.051	314.56
283.282	298.56
283.513	302.56
283.745	299.56
283.976	298.56
284.207	294.56
284.439	304.56
284.67	285.56
284.901	298.56
285.132	296.56
285.364	289.56
285.595	298.56
285.826	290.56
286.057	294.56
286.288	298.56
286.52	298.56
286.751	299.56
286.982	300.56
287.213	317.56
287.444	289.56
287.675	310.56
287.906	310.56
288.138	313.56
288.369	311.56
288.6	333.56
288.831	305.56
289.062	294.56
289.293	301.56
289.524	298.56
289.755	302.56
289.986	291.56
290.217	312.56
290.448	289.56
290.679	311.56
290.91	311.56
291.141	307.56
291.371	294.56
291.602	319.56
291.833	306.56
292.064	327.56
292.295	317.56
292.526	303.56
292.757	322.56
292.987	302.56
293.218	319.56
293.449	311.56
293.68	307.56
293.91	313.56
294.141	332.56
294.372	311.56
294.603	305.56
294.833	319.56
295.064	295.56
295.295	321.56
295.525	311.56
295.756	323.56
295.987	316.56
296.217	337.56
296.448	320.56
296.679	328.56
296.909	305.56
297.14	325.56
297.37	322.56
297.601	330.56
297.831	321.56
298.062	324.56
298.292	311.56
298.523	322.56
298.753	335.56
298.984	320.56
299.214	321.56
299.445	336.56
299.675	314.56
299.905	326.56
300.136	319.56
300.366	331.56
300.597	345.56
300.827	339.56
301.057	341.56
301.288	336.56
301.518	336.56
301.748	328.56
301.979	365.56
302.209	333.56
302.439	344.56
302.669	347.56
302.9	343.56
303.13	341.56
303.36	335.56
303.59	348.56
303.82	339.56
304.051	350.56
304.281	347.56
304.511	356.56
304.741	365.56
304.971	340.56
305.201	348.56
305.431	339.56
305.661	339.56
305.891	356.56
306.121	346.56
306.352	358.56
306.582	338.56
306.812	356.56
307.042	363.56
307.272	353.56
307.502	351.56
307.731	355.56
307.961	370.56
308.191	329.56
308.421	356.56
308.651	362.56
308.881	354.56
309.111	341.56
309.341	336.56
309.571	361.56
309.8	370.56
310.03	376.56
310.26	386.56
310.49	380.56
310.72	389.56
310.949	399.56
311.179	404.56
311.409	380.56
311.639	376.56
311.868	386.56
312.098	417.56
312.328	390.56
312.557	425.56
312.787	424.56
313.017	413.56
313.246	398.56
313.476	391.56
313.706	395.56
313.935	407.56
314.165	384.56
314.394	419.56
314.624	403.56
314.853	409.56
315.083	380.56
315.312	388.56
315.542	376.56
315.771	370.56
316.001	399.56
316.23	379.56
316.46	397.56
316.689	398.56
316.919	390.56
317.148	389.56
317.377	389.56
317.607	414.56
317.836	405.56
318.065	386.56
318.295	373.56
318.524	373.56
318.753	391.56
318.983	393.56
319.212	387.56
319.441	385.56
319.67	412.56
319.9	379.56
320.129	379.56
320.358	366.56
320.587	382.56
320.816	405.56
321.046	414.56
321.275	406.56
321.504	380.56
321.733	389.56
321.962	393.56
322.191	418.56
322.42	419.56
322.649	435.56
322.878	442.56
323.108	444.56
323.337	455.56
323.566	482.56
323.795	491.56
324.024	524.56
324.253	602.56
324.482	844.56
324.71	1257.56
324.939	1881.56
325.168	1669.56
325.397	851.56
325.626	573.56
325.855	515.56
326.084	490.56
326.313	479.56
326.542	474.56
326.77	536.56
326.999	594.56
327.228	782.56
327.457	1171.56
327.686	1431.56
327.914	954.56
328.143	653.56
328.372	569.56
328.6	524.56
328.829	519.56
329.058	523.56
329.287	550.56
329.515	516.56
329.744	501.56
329.972	466.56
330.201	507.56
330.43	535.56
330.658	563.56
330.887	589.56
331.115	561.56
331.344	516.56
331.572	477.56
331.801	487.56
332.03	489.56
332.258	485.56
332.486	439.56
332.715	469.56
332.943	475.56
333.172	476.56
333.4	467.56
333.629	478.56
333.857	486.56
334.085	504.56
334.314	523.56
334.542	538.56
334.771	565.56
334.999	500.56
335.227	489.56
335.455	497.56
335.684	464.56
335.912	488.56
336.14	464.56
336.369	474.56
336.597	460.56
336.825	455.56
337.053	462.56
337.281	445.56
337.51	458.56
337.738	444.56
337.966	454.56
338.194	446.56
338.422	463.56
338.65	429.56
338.878	445.56
339.106	444.56
339.334	453.56
339.562	444.56
339.79	445.56
340.018	455.56
340.246	447.56
340.474	443.56
340.702	451.56
340.93	446.56
341.158	457.56
341.386	441.56
341.614	433.56
341.842	421.56
342.07	446.56
342.298	445.56
342.526	409.56
342.754	431.56
342.981	420.56
343.209	416.56
343.437	441.56
343.665	469.56
343.893	485.56
344.12	468.56
344.348	485.56
344.576	454.56
344.804	439.56
345.031	477.56
345.259	469.56
345.487	429.56
345.714	427.56
345.942	461.56
346.17	435.56
346.397	413.56
346.625	412.56
346.853	423.56
347.08	419.56
347.308	439.56
347.535	450.56
347.763	446.56
347.99	427.56
348.218	443.56
348.445	429.56
348.673	447.56
348.9	413.56
349.128	407.56
349.355	418.56
349.583	407.56
349.81	413.56
350.037	414.56
350.265	426.56
350.492	429.56
350.72	412.56
350.947	416.56
351.174	426.56
351.402	434.56
351.629	427.56
351.856	423.56
352.083	441.56
352.311	429.56
352.538	437.56
352.765	437.56
352.992	437.56
353.22	413.56
353.447	414.56
353.674	422.56
353.901	434.56
354.128	401.56
354.355	409.56
354.583	392.56
354.81	378.56
355.037	419.56
355.264	401.56
355.491	400.56
355.718	398.56
355.945	411.56
356.172	397.56
356.399	417.56
356.626	403.56
356.853	408.56
357.08	395.56
357.307	389.56
357.534	396.56
357.761	407.56
357.988	405.56
358.215	399.56
358.441	417.56
358.668	402.56
358.895	421.56
359.122	405.56
359.349	419.56
359.576	410.56
359.802	428.56
360.029	450.56
360.256	456.56
360.483	469.56
360.709	434.56
360.936	402.56
361.163	437.56
361.39	399.56
361.616	413.56
361.843	400.56
362.07	410.56
362.296	429.56
362.523	437.56
362.749	412.56
362.976	399.56
363.203	409.56
363.429	395.56
363.656	399.56
363.882	398.56
364.109	397.56
364.335	396.56
364.562	415.56
364.788	409.56
365.015	402.56
365.241	406.56
365.468	401.56
365.694	406.56
365.92	410.56
366.147	397.56
366.373	414.56
366.599	398.56
366.826	424.56
367.052	404.56
367.278	417.56
367.505	412.56
367.731	405.56
367.957	417.56
368.184	417.56
368.41	426.56
368.636	414.56
368.862	421.56
369.089	405.56
369.315	426.56
369.541	396.56
369.767	406.56
369.993	413.56
370.219	419.56
370.445	424.56
370.672	423.56
370.898	405.56
371.124	433.56
371.35	434.56
371.576	412.56
371.802	410.56
372.028	415.56
372.254	405.56
372.48	391.56
372.706	400.56
372.932	383.56
373.158	427.56
373.384	425.56
373.61	399.56
373.835	418.56
374.061	407.56
374.287	418.56
374.513	435.56
374.739	412.56
374.965	438.56
375.191	399.56
375.416	429.56
375.642	409.56
375.868	423.56
376.094	423.56
376.319	387.56
376.545	417.56
376.771	438.56
376.997	419.56
377.222	416.56
377.448	396.56
377.674	406.56
377.899	423.56
378.125	381.56
378.35	428.56
378.576	413.56
378.802	423.56
379.027	414.56
379.253	412.56
379.478	406.56
379.704	407.56
379.929	415.56
380.155	399.56
380.38	406.56
380.606	410.56
380.831	392.56
381.057	396.56
381.282	402.56
381.507	410.56
381.733	419.56
381.958	423.56
382.184	416.56
382.409	442.56
382.634	425.56
382.86	414.56
383.085	436.56
383.31	426.56
383.535	431.56
383.761	424.56
383.986	437.56
384.211	413.56
384.436	432.56
384.662	436.56
384.887	465.56
385.112	458.56
385.337	453.56
385.562	484.56
385.787	459.56
386.013	466.56
386.238	469.56
386.463	466.56
386.688	465.56
386.913	457.56
387.138	467.56
387.363	435.56
387.588	467.56
387.813	452.56
388.038	463.56
388.263	449.56
388.488	454.56
388.713	469.56
388.938	456.56
389.163	473.56
389.387	467.56
389.612	455.56
389.837	448.56
390.062	443.56
390.287	457.56
390.512	434.56
390.736	459.56
390.961	485.56
391.186	470.56
391.411	478.56
391.636	460.56
391.86	466.56
392.085	475.56
392.31	480.56
392.534	477.56
392.759	479.56
392.984	469.56
393.208	452.56
393.433	470.56
393.658	450.56
393.882	463.56
394.107	468.56
394.331	460.56
394.556	461.56
394.78	465.56
395.005	470.56
395.229	476.56
395.454	472.56
395.678	470.56
395.903	483.56
396.127	518.56
396.352	526.56
396.576	499.56
396.801	489.56
397.025	476.56
397.249	502.56
397.474	491.56
397.698	503.56
397.922	516.56
398.147	504.56
398.371	528.56
398.595	522.56
398.82	528.56
399.044	555.56
399.268	578.56
399.492	590.56
399.717	662.56
399.941	656.56
400.165	699.56
400.389	687.56
400.613	613.56
400.837	575.56
401.062	556.56
401.286	537.56
401.51	544.56
401.734	520.56
401.958	536.56
402.182	562.56
402.406	547.56
402.63	544.56
402.854	542.56
403.078	547.56
403.302	560.56
403.526	567.56
403.75	578.56
403.974	537.56
404.198	546.56
404.422	577.56
404.645	583.56
404.869	561.56
405.093	594.56
405.317	650.56
405.541	643.56
405.765	603.56
405.988	587.56
406.212	622.56
406.436	611.56
406.66	603.56
406.883	605.56
407.107	615.56
407.331	661.56
407.555	735.56
407.778	736.56
408.002	679.56
408.226	635.56
408.449	617.56
408.673	607.56
408.896	638.56
409.12	678.56
409.344	647.56
409.567	577.56
409.791	578.56
410.014	554.56
410.238	561.56
410.461	551.56
410.685	554.56
410.908	566.56
411.132	607.56
411.355	653.56
411.578	594.56
411.802	553.56
412.025	525.56
412.249	553.56
412.472	620.56
412.695	620.56
412.919	623.56
413.142	575.56
413.365	553.56
413.589	572.56
413.812	546.56
414.035	524.56
414.258	526.56
414.482	517.56
414.705	525.56
414.928	522.56
415.151	520.56
415.374	530.56
415.597	549.56
415.821	527.56
416.044	532.56
416.267	533.56
416.49	520.56
416.713	503.56
416.936	539.56
417.159	528.56
417.382	523.56
417.605	546.56
417.828	544.56
418.051	549.56
418.274	548.56
418.497	548.56
418.72	515.56
418.943	531.56
419.166	562.56
419.389	577.56
419.611	577.56
419.834	568.56
420.057	579.56
420.28	575.56
420.503	551.56
420.726	527.56
420.948	545.56
421.171	589.56
421.394	630.56
421.617	547.56
421.839	549.56
422.062	542.56
422.285	561.56
422.507	594.56
422.73	691.56
422.953	688.56
423.175	595.56
423.398	580.56
423.621	586.56
423.843	605.56
424.066	602.56
424.288	609.56
424.511	618.56
424.733	666.56
424.956	727.56
425.178	695.56
425.401	695.56
425.623	705.56
425.846	629.56
426.068	580.56
426.291	587.56
426.513	579.56
426.735	576.56
426.958	620.56
427.18	684.56
427.402	813.56
427.625	886.56
427.847	765.56
428.069	656.56
428.292	601.56
428.514	557.56
428.736	532.56
428.958	554.56
429.181	528.56
429.403	529.56
429.625	541.56
429.847	558.56
430.069	636.56
430.292	635.56
430.514	557.56
430.736	535.56
430.958	541.56
431.18	522.56
431.402	513.56
431.624	520.56
431.846	500.56
432.068	497.56
432.29	511.56
432.512	489.56
432.734	542.56
432.956	518.56
433.178	505.56
433.4	492.56
433.622	509.56
433.844	503.56
434.066	511.56
434.287	522.56
434.509	535.56
434.731	529.56
434.953	531.56
435.175	553.56
435.397	570.56
435.618	570.56
435.84	623.56
436.062	710.56
436.284	781.56
436.505	620.56
436.727	567.56
436.949	541.56
437.17	549.56
437.392	518.56
437.614	550.56
437.835	557.56
438.057	675.56
438.278	760.56
438.5	752.56
438.721	839.56
438.943	831.56
439.165	635.56
439.386	586.56
439.608	565.56
439.829	573.56
440.05	585.56
440.272	636.56
440.493	596.56
440.715	556.56
440.936	530.56
441.158	544.56
441.379	543.56
441.6	563.56
441.822	531.56
442.043	610.56
442.264	679.56
442.486	743.56
442.707	660.56
442.928	574.56
443.149	609.56
443.371	594.56
443.592	638.56
443.813	731.56
444.034	797.56
444.255	684.56
444.476	611.56
444.698	588.56
444.919	593.56
445.14	745.56
445.361	670.56
445.582	615.56
445.803	700.56
446.024	765.56
446.245	783.56
446.466	687.56
446.687	599.56
446.908	538.56
447.129	541.56
447.35	525.56
447.571	531.56
447.792	529.56
448.013	524.56
448.234	535.56
448.455	594.56
448.675	681.56
448.896	813.56
449.117	676.56
449.338	616.56
449.559	757.56
449.779	846.56
450	666.56
450.221	570.56
450.442	539.56
450.662	517.56
450.883	533.56
451.104	521.56
451.324	519.56
451.545	505.56
451.766	482.56
451.986	477.56
452.207	453.56
452.428	454.56
452.648	457.56
452.869	476.56
453.089	475.56
453.31	480.56
453.53	469.56
453.751	449.56
453.971	470.56
454.192	473.56
454.412	470.56
454.633	460.56
454.853	444.56
455.073	479.56
455.294	491.56
455.514	570.56
455.734	563.56
455.955	453.56
456.175	457.56
456.395	440.56
456.616	422.56
456.836	445.56
457.056	443.56
457.276	441.56
457.497	443.56
457.717	446.56
457.937	447.56
458.157	440.56
458.377	451.56
458.598	460.56
458.818	517.56
459.038	588.56
459.258	630.56
459.478	556.56
459.698	522.56
459.918	505.56
460.138	519.56
460.358	527.56
460.578	523.56
460.798	490.56
461.018	525.56
461.238	508.56
461.458	523.56
461.678	531.56
461.898	547.56
462.118	531.56
462.338	553.56
462.558	545.56
462.777	563.56
462.997	574.56
463.217	601.56
463.437	607.56
463.657	573.56
463.876	554.56
464.096	591.56
464.316	583.56
464.536	566.56
464.755	563.56
464.975	550.56
465.195	575.56
465.414	602.56
465.634	567.56
465.854	542.56
466.073	515.56
466.293	505.56
466.512	503.56
466.732	493.56
466.951	474.56
467.171	472.56
467.391	478.56
467.61	486.56
467.829	486.56
468.049	481.56
468.268	504.56
468.488	509.56
468.707	471.56
468.927	473.56
469.146	453.56
469.365	476.56
469.585	487.56
469.804	467.56
470.023	492.56
470.243	493.56
470.462	489.56
470.681	519.56
470.901	516.56
471.12	488.56
471.339	492.56
471.558	481.56
471.777	483.56
471.997	471.56
472.216	502.56
472.435	519.56
472.654	502.56
472.873	478.56
473.092	472.56
473.311	445.56
473.53	474.56
473.749	505.56
473.968	519.56
474.187	620.56
474.406	646.56
474.625	540.56
474.844	513.56
475.063	487.56
475.282	480.56
475.501	472.56
475.72	490.56
475.939	508.56
476.158	511.56
476.377	530.56
476.596	513.56
476.814	502.56
477.033	523.56
477.252	517.56
477.471	519.56
477.69	524.56
477.908	535.56
478.127	537.56
478.346	541.56
478.564	545.56
478.783	549.56
479.002	574.56
479.22	563.56
479.439	570.56
479.658	601.56
479.876	578.56
480.095	604.56
480.313	625.56
480.532	625.56
480.751	609.56
480.969	628.56
481.188	665.56
481.406	654.56
481.624	590.56
481.843	591.56
482.061	605.56
482.28	580.56
482.498	538.56
482.717	557.56
482.935	565.56
483.153	581.56
483.372	559.56
483.59	580.56
483.808	568.56
484.027	566.56
484.245	567.56
484.463	580.56
484.681	594.56
484.9	581.56
485.118	573.56
485.336	591.56
485.554	598.56
485.772	584.56
485.99	567.56
486.209	582.56
486.427	580.56
486.645	600.56
486.863	613.56
487.081	598.56
487.299	594.56
487.517	609.56
487.735	614.56
487.953	625.56
488.171	611.56
488.389	609.56
488.607	603.56
488.825	597.56
489.043	587.56
489.261	613.56
489.479	626.56
489.696	618.56
489.914	621.56
490.132	635.56
490.35	629.56
490.568	638.56
490.786	650.56
491.003	644.56
491.221	679.56
491.439	700.56
491.657	686.56
491.874	679.56
492.092	696.56
492.31	695.56
492.527	713.56
492.745	701.56
492.963	711.56
493.18	732.56
493.398	689.56
493.615	717.56
493.833	702.56
494.05	705.56
494.268	708.56
494.485	697.56
494.703	715.56
494.92	704.56
495.138	711.56
495.355	693.56
495.573	721.56
495.79	726.56
496.008	729.56
496.225	753.56
496.442	735.56
496.66	727.56
496.877	717.56
497.094	724.56
497.312	734.56
497.529	731.56
497.746	736.56
497.963	748.56
498.181	770.56
498.398	808.56
498.615	824.56
498.832	835.56
499.049	846.56
499.267	894.56
499.484	935.56
499.701	994.56
499.918	1004.56
500.135	1077.56
500.352	1124.56
500.569	1141.56
500.786	1147.56
501.003	1117.56
501.22	1107.56
501.437	1019.56
501.654	993.56
501.871	964.56
502.088	916.56
502.305	860.56
502.522	832.56
502.739	812.56
502.956	812.56
503.172	748.56
503.389	731.56
503.606	761.56
503.823	726.56
504.04	741.56
504.256	718.56
504.473	732.56
504.69	732.56
504.907	726.56
505.123	710.56
505.34	714.56
505.557	690.56
505.773	703.56
505.99	697.56
506.207	710.56
506.423	670.56
506.64	676.56
506.856	685.56
507.073	652.56
507.289	658.56
507.506	673.56
507.722	679.56
507.939	652.56
508.155	673.56
508.372	643.56
508.588	633.56
508.805	627.56
509.021	646.56
509.238	640.56
509.454	671.56
509.67	643.56
509.887	641.56
510.103	608.56
510.319	629.56
510.536	676.56
510.752	1040.56
510.968	867.56
511.184	645.56
511.401	606.56
511.617	594.56
511.833	609.56
512.049	602.56
512.265	606.56
512.481	582.56
512.698	589.56
512.914	598.56
513.13	611.56
513.346	581.56
513.562	597.56
513.778	602.56
513.994	585.56
514.21	607.56
514.426	651.56
514.642	645.56
514.858	633.56
515.074	678.56
515.29	767.56
515.506	1057.56
515.721	910.56
515.937	672.56
516.153	647.56
516.369	636.56
516.585	645.56
516.801	638.56
517.016	654.56
517.232	641.56
517.448	630.56
517.664	667.56
517.879	658.56
518.095	647.56
518.311	647.56
518.527	630.56
518.742	627.56
518.958	634.56
519.173	604.56
519.389	617.56
519.605	597.56
519.82	606.56
520.036	611.56
520.251	608.56
520.467	647.56
520.682	647.56
520.898	619.56
521.113	643.56
521.329	667.56
521.544	718.56
521.76	817.56
521.975	1311.56
522.19	1299.56
522.406	783.56
522.621	651.56
522.836	601.56
523.052	567.56
523.267	578.56
523.482	565.56
523.698	567.56
523.913	540.56
524.128	549.56
524.343	543.56
524.559	561.56
524.774	531.56
524.989	527.56
525.204	518.56
525.419	536.56
525.634	531.56
525.849	520.56
526.064	530.56
526.28	498.56
526.495	515.56
526.71	499.56
526.925	494.56
527.14	507.56
527.355	503.56
527.57	494.56
527.785	519.56
527.999	498.56
528.214	494.56
528.429	504.56
528.644	499.56
528.859	510.56
529.074	520.56
529.289	521.56
529.503	557.56
529.718	543.56
529.933	517.56
530.148	509.56
530.363	498.56
530.577	504.56
530.792	494.56
531.007	487.56
531.221	481.56
531.436	491.56
531.651	485.56
531.865	485.56
532.08	482.56
532.295	470.56
532.509	489.56
532.724	481.56
532.938	474.56
533.153	485.56
533.367	478.56
533.582	471.56
533.796	471.56
534.011	466.56
534.225	462.56
534.44	463.56
534.654	471.56
534.868	485.56
535.083	476.56
535.297	466.56
535.511	472.56
535.726	471.56
535.94	465.56
536.154	472.56
536.369	477.56
536.583	454.56
536.797	460.56
537.011	473.56
537.225	478.56
537.44	447.56
537.654	459.56
537.868	481.56
538.082	462.56
538.296	462.56
538.51	457.56
538.724	453.56
538.938	469.56
539.153	468.56
539.367	486.56
539.581	459.56
539.795	472.56
540.009	450.56
540.222	445.56
540.436	444.56
540.65	453.56
540.864	481.56
541.078	461.56
541.292	472.56
541.506	477.56
541.72	463.56
541.934	467.56
542.147	468.56
542.361	455.56
542.575	463.56
542.789	456.56
543.002	456.56
543.216	481.56
543.43	474.56
543.644	464.56
543.857	446.56
544.071	463.56
544.285	469.56
544.498	446.56
544.712	463.56
544.925	459.56
545.139	470.56
545.352	446.56
545.566	468.56
545.779	429.56
545.993	440.56
546.206	476.56
546.42	455.56
546.633	477.56
546.847	465.56
547.06	466.56
547.274	463.56
547.487	442.56
547.7	456.56
547.914	451.56
548.127	441.56
548.34	455.56
548.554	446.56
548.767	431.56
548.98	474.56
549.193	476.56
549.407	455.56
549.62	454.56
549.833	454.56
550.046	455.56
550.259	426.56
550.473	439.56
550.686	435.56
550.899	455.56
551.112	463.56
551.325	437.56
551.538	460.56
551.751	423.56
551.964	442.56
552.177	438.56
552.39	437.56
552.603	436.56
552.816	467.56
553.029	438.56
553.242	469.56
553.455	475.56
553.667	485.56
553.88	466.56
554.093	476.56
554.306	478.56
554.519	437.56
554.732	428.56
554.944	448.56
555.157	461.56
555.37	409.56
555.583	423.56
555.795	420.56
556.008	430.56
556.221	411.56
556.433	405.56
556.646	426.56
556.859	387.56
557.071	430.56
557.284	395.56
557.496	418.56
557.709	393.56
557.921	409.56
558.134	402.56
558.346	403.56
558.559	397.56
558.771	423.56
558.984	398.56
559.196	387.56
559.409	403.56
559.621	407.56
559.833	407.56
560.046	408.56
560.258	407.56
560.47	376.56
560.683	393.56
560.895	393.56
561.107	395.56
561.32	382.56
561.532	395.56
561.744	405.56
561.956	406.56
562.168	397.56
562.381	413.56
562.593	396.56
562.805	391.56
563.017	413.56
563.229	420.56
563.441	404.56
563.653	398.56
563.865	397.56
564.077	406.56
564.289	409.56
564.501	414.56
564.713	427.56
564.925	413.56
565.137	422.56
565.349	430.56
565.561	431.56
565.773	441.56
565.985	443.56
566.197	456.56
566.408	480.56
566.62	476.56
566.832	519.56
567.044	531.56
567.255	543.56
567.467	516.56
567.679	524.56
567.891	559.56
568.102	567.56
568.314	537.56
568.526	515.56
568.737	483.56
568.949	500.56
569.161	461.56
569.372	442.56
569.584	436.56
569.795	444.56
570.007	431.56
570.218	450.56
570.43	422.56
570.641	398.56
570.853	402.56
571.064	402.56
571.276	374.56
571.487	399.56
571.698	402.56
571.91	385.56
572.121	375.56
572.333	361.56
572.544	343.56
572.755	365.56
572.966	359.56
573.178	369.56
573.389	357.56
573.6	362.56
573.811	350.56
574.023	364.56
574.234	352.56
574.445	342.56
574.656	347.56
574.867	338.56
575.078	353.56
575.289	348.56
575.501	353.56
575.712	357.56
575.923	355.56
576.134	330.56
576.345	342.56
576.556	351.56
576.767	343.56
576.978	339.56
577.188	331.56
577.399	324.56
577.61	337.56
577.821	336.56
578.032	325.56
578.243	361.56
578.454	513.56
578.665	403.56
578.875	324.56
579.086	330.56
579.297	334.56
579.508	331.56
579.718	317.56
579.929	318.56
580.14	306.56
580.35	308.56
580.561	310.56
580.772	308.56
580.982	310.56
581.193	298.56
581.403	337.56
581.614	317.56
581.825	319.56
582.035	313.56
582.246	297.56
582.456	305.56
582.667	309.56
582.877	289.56
583.087	322.56
583.298	314.56
583.508	317.56
583.719	302.56
583.929	305.56
584.139	293.56
584.35	310.56
584.56	305.56
584.77	313.56
584.981	296.56
585.191	326.56
585.401	301.56
585.611	285.56
585.821	302.56
586.032	304.56
586.242	311.56
586.452	300.56
586.662	293.56
586.872	289.56
587.082	292.56
587.292	304.56
587.502	313.56
587.713	286.56
587.923	298.56
588.133	281.56
588.343	307.56
588.553	292.56
588.762	299.56
588.972	294.56
589.182	313.56
589.392	321.56
589.602	307.56
589.812	313.56
590.022	309.56
590.232	297.56
590.441	289.56
590.651	307.56
590.861	298.56
591.071	314.56
591.281	301.56
591.49	299.56
591.7	305.56
591.91	309.56
592.119	309.56
592.329	330.56
592.539	334.56
592.748	337.56
592.958	328.56
593.167	331.56
593.377	337.56
593.587	347.56
593.796	363.56
594.006	334.56
594.215	327.56
594.424	340.56
594.634	345.56
594.843	327.56
595.053	325.56
595.262	310.56
595.472	325.56
595.681	283.56
595.89	307.56
596.1	285.56
596.309	300.56
596.518	278.56
596.727	282.56
596.937	304.56
597.146	289.56
597.355	285.56
597.564	264.56
597.774	286.56
597.983	291.56
598.192	298.56
598.401	286.56
598.61	267.56
598.819	262.56
599.028	260.56
599.237	274.56
599.446	276.56
599.655	283.56
599.864	271.56
600.073	271.56
600.282	282.56
600.491	280.56
600.7	270.56
600.909	264.56
601.118	280.56
601.327	276.56
601.536	262.56
601.745	271.56
601.953	267.56
602.162	262.56
602.371	254.56
602.58	249.56
602.789	270.56
602.997	254.56
603.206	269.56
603.415	250.56
603.623	258.56
603.832	257.56
604.041	259.56
604.249	266.56
604.458	264.56
604.666	255.56
604.875	271.56
605.084	241.56
605.292	251.56
605.501	225.56
605.709	247.56
605.918	265.56
606.126	260.56
606.334	250.56
606.543	265.56
606.751	265.56
606.96	252.56
607.168	260.56
607.376	257.56
607.585	259.56
607.793	263.56
608.001	248.56
608.21	254.56
608.418	263.56
608.626	232.56
608.834	260.56
609.043	261.56
609.251	258.56
609.459	238.56
609.667	258.56
609.875	241.56
610.083	245.56
610.291	238.56
610.499	256.56
610.707	249.56
610.916	240.56
611.124	250.56
611.332	259.56
611.54	262.56
611.748	267.56
611.955	244.56
612.163	262.56
612.371	246.56
612.579	255.56
612.787	258.56
612.995	239.56
613.203	258.56
613.411	234.56
613.618	230.56
613.826	244.56
614.034	239.56
614.242	224.56
614.449	228.56
614.657	256.56
614.865	240.56
615.072	242.56
615.28	239.56
615.488	240.56
615.695	251.56
615.903	230.56
616.111	250.56
616.318	230.56
616.526	246.56
616.733	241.56
616.941	225.56
617.148	259.56
617.356	232.56
617.563	229.56
617.771	256.56
617.978	240.56
618.185	241.56
618.393	233.56
618.6	218.56
618.807	242.56
619.015	227.56
619.222	242.56
619.429	243.56
619.637	239.56
619.844	220.56
620.051	233.56
620.258	240.56
620.466	233.56
620.673	247.56
620.88	223.56
621.087	220.56
621.294	233.56
621.501	229.56
621.708	214.56
621.915	216.56
622.122	229.56
622.329	223.56
622.536	221.56
622.743	209.56
622.95	235.56
623.157	221.56
623.364	233.56
623.571	222.56
623.778	225.56
623.985	219.56
624.192	207.56
624.399	212.56
624.606	219.56
624.812	221.56
625.019	228.56
625.226	217.56
625.433	223.56
625.639	216.56
625.846	216.56
626.053	195.56
626.259	220.56
626.466	206.56
626.673	228.56
626.879	218.56
627.086	204.56
627.293	222.56
627.499	206.56
627.706	201.56
627.912	202.56
628.119	207.56
628.325	208.56
628.532	217.56
628.738	208.56
628.945	197.56
629.151	195.56
629.357	208.56
629.564	202.56
629.77	208.56
629.976	206.56
630.183	215.56
630.389	209.56
630.595	199.56
630.802	215.56
631.008	199.56
631.214	188.56
631.42	201.56
631.627	190.56
631.833	193.56
632.039	191.56
632.245	208.56
632.451	194.56
632.657	193.56
632.863	180.56
633.069	174.56
633.275	190.56
633.481	189.56
633.688	197.56
633.893	193.56
634.099	185.56
634.305	204.56
634.511	186.56
634.717	173.56
634.923	170.56
635.129	187.56
635.335	187.56
635.541	197.56
635.747	196.56
635.952	191.56
636.158	193.56
636.364	190.56
636.57	202.56
636.775	179.56
636.981	174.56
637.187	181.56
637.392	192.56
637.598	193.56
637.804	173.56
638.009	183.56
638.215	163.56
638.421	190.56
638.626	173.56
638.832	171.56
639.037	171.56
639.243	189.56
639.448	180.56
639.654	193.56
639.859	189.56
640.065	184.56
640.27	181.56
640.475	181.56
640.681	167.56
640.886	179.56
641.091	184.56
641.297	181.56
641.502	183.56
641.707	180.56
641.913	169.56
642.118	173.56
642.323	179.56
642.528	185.56
642.733	191.56
642.939	178.56
643.144	165.56
643.349	192.56
643.554	174.56
643.759	153.56
643.964	180.56
644.169	181.56
644.374	166.56
644.579	175.56
644.784	185.56
644.989	187.56
645.194	171.56
645.399	168.56
645.604	173.56
645.809	160.56
646.014	156.56
646.219	171.56
646.423	171.56
646.628	166.56
646.833	170.56
647.038	169.56
647.243	175.56
647.447	166.56
647.652	179.56
647.857	166.56
648.062	166.56
648.266	170.56
648.471	188.56
648.676	170.56
648.88	179.56
649.085	179.56
649.289	179.56
649.494	191.56
649.698	197.56
649.903	206.56
650.107	162.56
650.312	175.56
650.516	170.56
650.721	169.56
650.925	153.56
651.13	154.56
651.334	172.56
651.539	157.56
651.743	155.56
651.947	147.56
652.152	159.56
652.356	156.56
652.56	151.56
652.764	141.56
652.969	144.56
653.173	129.56
653.377	135.56
653.581	133.56
653.785	150.56
653.99	137.56
654.194	128.56
654.398	143.56
654.602	154.56
654.806	143.56
655.01	137.56
655.214	156.56
655.418	155.56
655.622	143.56
655.826	125.56
656.03	139.56
656.234	140.56
656.438	151.56
656.642	150.56
656.846	151.56
657.049	140.56
657.253	147.56
657.457	135.56
657.661	126.56
657.865	125.56
658.068	111.56
658.272	93.56
658.476	118.56
658.68	101.56
658.883	113.56
659.087	104.56
659.291	107.56
659.494	115.56
659.698	101.56
659.901	91.56
660.105	106.56
660.309	111.56
660.512	98.56
660.716	94.56
660.919	85.56
661.123	94.56
661.326	89.56
661.53	92.56
661.733	83.56
661.936	92.56
662.14	86.56
662.343	84.56
662.546	92.56
662.75	98.56
662.953	67.56
663.156	84.56
663.36	79.56
663.563	94.56
663.766	83.56
663.969	82.56
664.173	72.56
664.376	76.56
664.579	89.56
664.782	88.56
664.985	84.56
665.188	83.56
665.391	94.56
665.594	87.56
665.797	85.56
666	78.56
666.203	87.56
666.406	81.56
666.609	76.56
666.812	81.56
667.015	78.56
667.218	91.56
667.421	95.56
667.624	88.56
667.827	93.56
668.03	85.56
668.232	83.56
668.435	78.56
668.638	76.56
668.841	98.56
669.043	80.56
669.246	74.56
669.449	79.56
669.651	87.56
669.854	69.56
670.057	78.56
670.259	79.56
670.462	97.56
670.665	74.56
670.867	79.56
671.07	82.56
671.272	83.56
671.475	93.56
671.677	78.56
671.88	67.56
672.082	86.56
672.284	84.56
672.487	73.56
672.689	74.56
672.892	77.56
