Data from 1976.PennyLincolnUp.Lamp.En5.5.200Scan.071719.P1.Changed Mount._HRD10591_16-02-28-861.txt Node
Date: Thu Jul 18 16:02:28 EDT 2019
User: cochatt
Spectrometer: HR+D1059
Trigger mode: 1
Integration Time (sec): 1.000000E-1
Scans to average: 1
Electric dark correction enabled: true
Nonlinearity correction enabled: false
Boxcar width: 0
XAxis mode: Wavelengths
Number of Pixels in Spectrum: 2048
>>>>>Begin Spectral Data<<<<<
223.165	-19.5
223.4	-19.5
223.635	-19.5
223.869	-17.5
224.104	-19.5
224.338	-14.5
224.573	-9.5
224.808	-13.5
225.042	-2.5
225.277	-1.5
225.511	4.5
225.746	1.5
225.98	-16.5
226.215	16.5
226.449	6.5
226.683	23.5
226.918	21.5
227.152	40.5
227.387	53.5
227.621	39.5
227.856	45.5
228.09	47.5
228.324	59.5
228.559	52.5
228.793	69.5
229.027	94.5
229.262	106.5
229.496	118.5
229.73	126.5
229.964	140.5
230.199	133.5
230.433	108.5
230.667	113.5
230.901	121.5
231.136	99.5
231.37	117.5
231.604	123.5
231.838	119.5
232.072	106.5
232.306	120.5
232.541	129.5
232.775	127.5
233.009	113.5
233.243	115.5
233.477	126.5
233.711	109.5
233.945	128.5
234.179	123.5
234.413	122.5
234.647	118.5
234.881	119.5
235.115	112.5
235.349	120.5
235.583	113.5
235.817	126.5
236.051	111.5
236.285	126.5
236.519	134.5
236.753	151.5
236.987	142.5
237.221	188.5
237.455	241.5
237.689	214.5
237.922	149.5
238.156	149.5
238.39	143.5
238.624	143.5
238.858	131.5
239.091	136.5
239.325	136.5
239.559	142.5
239.793	127.5
240.027	140.5
240.26	163.5
240.494	168.5
240.728	159.5
240.961	156.5
241.195	151.5
241.429	146.5
241.662	144.5
241.896	141.5
242.13	144.5
242.363	139.5
242.597	147.5
242.83	145.5
243.064	145.5
243.298	148.5
243.531	137.5
243.765	159.5
243.998	169.5
244.232	161.5
244.465	156.5
244.699	145.5
244.932	144.5
245.166	167.5
245.399	153.5
245.633	152.5
245.866	147.5
246.099	158.5
246.333	159.5
246.566	173.5
246.8	167.5
247.033	172.5
247.266	152.5
247.5	163.5
247.733	161.5
247.966	191.5
248.2	200.5
248.433	189.5
248.666	169.5
248.899	185.5
249.133	218.5
249.366	215.5
249.599	194.5
249.832	193.5
250.066	192.5
250.299	203.5
250.532	197.5
250.765	211.5
250.998	267.5
251.231	235.5
251.465	233.5
251.698	217.5
251.931	212.5
252.164	218.5
252.397	201.5
252.63	212.5
252.863	222.5
253.096	227.5
253.329	238.5
253.562	230.5
253.795	247.5
254.028	244.5
254.261	235.5
254.494	245.5
254.727	273.5
254.96	291.5
255.193	293.5
255.426	265.5
255.659	252.5
255.892	238.5
256.124	263.5
256.357	259.5
256.59	232.5
256.823	230.5
257.056	234.5
257.289	223.5
257.521	235.5
257.754	228.5
257.987	222.5
258.22	211.5
258.452	225.5
258.685	209.5
258.918	234.5
259.151	245.5
259.383	240.5
259.616	238.5
259.849	248.5
260.081	249.5
260.314	263.5
260.547	257.5
260.779	265.5
261.012	267.5
261.244	230.5
261.477	256.5
261.71	240.5
261.942	241.5
262.175	248.5
262.407	237.5
262.64	240.5
262.872	244.5
263.105	237.5
263.337	244.5
263.57	242.5
263.802	238.5
264.035	216.5
264.267	233.5
264.499	241.5
264.732	257.5
264.964	221.5
265.197	244.5
265.429	223.5
265.661	220.5
265.894	238.5
266.126	236.5
266.358	236.5
266.591	240.5
266.823	259.5
267.055	253.5
267.287	240.5
267.52	251.5
267.752	240.5
267.984	243.5
268.216	249.5
268.448	255.5
268.681	265.5
268.913	279.5
269.145	287.5
269.377	291.5
269.609	311.5
269.841	290.5
270.073	279.5
270.306	321.5
270.538	319.5
270.77	352.5
271.002	327.5
271.234	318.5
271.466	312.5
271.698	350.5
271.93	344.5
272.162	336.5
272.394	341.5
272.626	326.5
272.858	312.5
273.09	316.5
273.322	303.5
273.553	295.5
273.785	298.5
274.017	293.5
274.249	312.5
274.481	287.5
274.713	287.5
274.945	298.5
275.176	289.5
275.408	312.5
275.64	281.5
275.872	281.5
276.104	287.5
276.335	304.5
276.567	310.5
276.799	324.5
277.031	333.5
277.262	343.5
277.494	358.5
277.726	340.5
277.957	304.5
278.189	328.5
278.421	300.5
278.652	302.5
278.884	294.5
279.115	306.5
279.347	304.5
279.579	298.5
279.81	297.5
280.042	318.5
280.273	299.5
280.505	295.5
280.736	309.5
280.968	289.5
281.199	283.5
281.431	317.5
281.662	289.5
281.894	288.5
282.125	307.5
282.356	318.5
282.588	320.5
282.819	339.5
283.051	328.5
283.282	319.5
283.513	294.5
283.745	311.5
283.976	311.5
284.207	321.5
284.439	343.5
284.67	311.5
284.901	316.5
285.132	318.5
285.364	328.5
285.595	316.5
285.826	324.5
286.057	319.5
286.288	309.5
286.52	301.5
286.751	316.5
286.982	309.5
287.213	305.5
287.444	318.5
287.675	321.5
287.906	341.5
288.138	347.5
288.369	334.5
288.6	327.5
288.831	365.5
289.062	340.5
289.293	332.5
289.524	326.5
289.755	337.5
289.986	313.5
290.217	325.5
290.448	323.5
290.679	328.5
290.91	303.5
291.141	337.5
291.371	322.5
291.602	318.5
291.833	332.5
292.064	311.5
292.295	314.5
292.526	327.5
292.757	331.5
292.987	334.5
293.218	320.5
293.449	335.5
293.68	335.5
293.91	337.5
294.141	341.5
294.372	343.5
294.603	327.5
294.833	324.5
295.064	344.5
295.295	331.5
295.525	342.5
295.756	330.5
295.987	351.5
296.217	369.5
296.448	368.5
296.679	350.5
296.909	340.5
297.14	334.5
297.37	340.5
297.601	343.5
297.831	339.5
298.062	324.5
298.292	345.5
298.523	346.5
298.753	360.5
298.984	350.5
299.214	352.5
299.445	342.5
299.675	342.5
299.905	354.5
300.136	361.5
300.366	341.5
300.597	348.5
300.827	378.5
301.057	357.5
301.288	361.5
301.518	375.5
301.748	368.5
301.979	379.5
302.209	387.5
302.439	364.5
302.669	383.5
302.9	371.5
303.13	353.5
303.36	377.5
303.59	387.5
303.82	381.5
304.051	393.5
304.281	356.5
304.511	363.5
304.741	348.5
304.971	368.5
305.201	372.5
305.431	371.5
305.661	376.5
305.891	365.5
306.121	372.5
306.352	365.5
306.582	368.5
306.812	374.5
307.042	351.5
307.272	364.5
307.502	373.5
307.731	390.5
307.961	379.5
308.191	382.5
308.421	366.5
308.651	385.5
308.881	399.5
309.111	369.5
309.341	398.5
309.571	413.5
309.8	385.5
310.03	420.5
310.26	413.5
310.49	399.5
310.72	421.5
310.949	418.5
311.179	422.5
311.409	426.5
311.639	421.5
311.868	418.5
312.098	422.5
312.328	423.5
312.557	451.5
312.787	450.5
313.017	455.5
313.246	429.5
313.476	419.5
313.706	427.5
313.935	409.5
314.165	449.5
314.394	447.5
314.624	430.5
314.853	416.5
315.083	428.5
315.312	417.5
315.542	398.5
315.771	407.5
316.001	397.5
316.23	405.5
316.46	409.5
316.689	432.5
316.919	425.5
317.148	436.5
317.377	420.5
317.607	420.5
317.836	431.5
318.065	420.5
318.295	404.5
318.524	419.5
318.753	423.5
318.983	407.5
319.212	429.5
319.441	411.5
319.67	425.5
319.9	421.5
320.129	409.5
320.358	409.5
320.587	421.5
320.816	410.5
321.046	432.5
321.275	443.5
321.504	441.5
321.733	426.5
321.962	460.5
322.191	460.5
322.42	467.5
322.649	474.5
322.878	479.5
323.108	481.5
323.337	511.5
323.566	524.5
323.795	556.5
324.024	591.5
324.253	701.5
324.482	949.5
324.71	1485.5
324.939	2222.5
325.168	1916.5
325.397	1002.5
325.626	663.5
325.855	586.5
326.084	547.5
326.313	517.5
326.542	529.5
326.77	567.5
326.999	652.5
327.228	896.5
327.457	1333.5
327.686	1670.5
327.914	1128.5
328.143	719.5
328.372	618.5
328.6	612.5
328.829	595.5
329.058	575.5
329.287	619.5
329.515	569.5
329.744	540.5
329.972	529.5
330.201	557.5
330.43	600.5
330.658	612.5
330.887	637.5
331.115	626.5
331.344	572.5
331.572	527.5
331.801	529.5
332.03	538.5
332.258	527.5
332.486	517.5
332.715	505.5
332.943	495.5
333.172	537.5
333.4	523.5
333.629	527.5
333.857	566.5
334.085	539.5
334.314	584.5
334.542	601.5
334.771	620.5
334.999	565.5
335.227	541.5
335.455	515.5
335.684	523.5
335.912	507.5
336.14	496.5
336.369	499.5
336.597	509.5
336.825	509.5
337.053	515.5
337.281	488.5
337.51	487.5
337.738	502.5
337.966	518.5
338.194	493.5
338.422	477.5
338.65	484.5
338.878	481.5
339.106	495.5
339.334	479.5
339.562	484.5
339.79	454.5
340.018	473.5
340.246	483.5
340.474	471.5
340.702	470.5
340.93	469.5
341.158	454.5
341.386	454.5
341.614	465.5
341.842	476.5
342.07	483.5
342.298	473.5
342.526	473.5
342.754	460.5
342.981	450.5
343.209	464.5
343.437	466.5
343.665	488.5
343.893	487.5
344.12	518.5
344.348	485.5
344.576	493.5
344.804	492.5
345.031	481.5
345.259	492.5
345.487	474.5
345.714	471.5
345.942	454.5
346.17	452.5
346.397	447.5
346.625	467.5
346.853	469.5
347.08	470.5
347.308	477.5
347.535	463.5
347.763	477.5
347.99	458.5
348.218	450.5
348.445	465.5
348.673	453.5
348.9	467.5
349.128	446.5
349.355	422.5
349.583	442.5
349.81	449.5
350.037	420.5
350.265	429.5
350.492	454.5
350.72	445.5
350.947	450.5
351.174	461.5
351.402	462.5
351.629	453.5
351.856	468.5
352.083	467.5
352.311	447.5
352.538	479.5
352.765	450.5
352.992	472.5
353.22	446.5
353.447	455.5
353.674	444.5
353.901	439.5
354.128	428.5
354.355	431.5
354.583	407.5
354.81	430.5
355.037	424.5
355.264	438.5
355.491	418.5
355.718	435.5
355.945	441.5
356.172	440.5
356.399	423.5
356.626	425.5
356.853	412.5
357.08	396.5
357.307	435.5
357.534	427.5
357.761	426.5
357.988	455.5
358.215	441.5
358.441	423.5
358.668	451.5
358.895	429.5
359.122	448.5
359.349	453.5
359.576	435.5
359.802	475.5
360.029	511.5
360.256	489.5
360.483	490.5
360.709	453.5
360.936	456.5
361.163	439.5
361.39	459.5
361.616	455.5
361.843	433.5
362.07	462.5
362.296	465.5
362.523	466.5
362.749	468.5
362.976	436.5
363.203	436.5
363.429	433.5
363.656	449.5
363.882	441.5
364.109	445.5
364.335	449.5
364.562	444.5
364.788	460.5
365.015	451.5
365.241	443.5
365.468	450.5
365.694	452.5
365.92	457.5
366.147	424.5
366.373	424.5
366.599	436.5
366.826	435.5
367.052	444.5
367.278	419.5
367.505	439.5
367.731	453.5
367.957	431.5
368.184	432.5
368.41	441.5
368.636	473.5
368.862	447.5
369.089	439.5
369.315	439.5
369.541	431.5
369.767	441.5
369.993	446.5
370.219	429.5
370.445	440.5
370.672	432.5
370.898	445.5
371.124	427.5
371.35	448.5
371.576	433.5
371.802	464.5
372.028	445.5
372.254	425.5
372.48	446.5
372.706	445.5
372.932	422.5
373.158	437.5
373.384	447.5
373.61	467.5
373.835	455.5
374.061	445.5
374.287	445.5
374.513	444.5
374.739	428.5
374.965	452.5
375.191	440.5
375.416	447.5
375.642	468.5
375.868	470.5
376.094	451.5
376.319	423.5
376.545	446.5
376.771	439.5
376.997	463.5
377.222	442.5
377.448	426.5
377.674	420.5
377.899	433.5
378.125	454.5
378.35	439.5
378.576	446.5
378.802	419.5
379.027	435.5
379.253	458.5
379.478	439.5
379.704	448.5
379.929	448.5
380.155	473.5
380.38	442.5
380.606	448.5
380.831	446.5
381.057	460.5
381.282	429.5
381.507	445.5
381.733	464.5
381.958	434.5
382.184	453.5
382.409	468.5
382.634	463.5
382.86	451.5
383.085	454.5
383.31	449.5
383.535	480.5
383.761	461.5
383.986	477.5
384.211	465.5
384.436	465.5
384.662	475.5
384.887	469.5
385.112	468.5
385.337	491.5
385.562	475.5
385.787	496.5
386.013	502.5
386.238	488.5
386.463	499.5
386.688	492.5
386.913	480.5
387.138	495.5
387.363	506.5
387.588	501.5
387.813	496.5
388.038	483.5
388.263	485.5
388.488	492.5
388.713	501.5
388.938	496.5
389.163	489.5
389.387	504.5
389.612	501.5
389.837	484.5
390.062	488.5
390.287	485.5
390.512	479.5
390.736	480.5
390.961	483.5
391.186	492.5
391.411	489.5
391.636	510.5
391.86	537.5
392.085	512.5
392.31	487.5
392.534	527.5
392.759	517.5
392.984	498.5
393.208	495.5
393.433	495.5
393.658	500.5
393.882	499.5
394.107	506.5
394.331	480.5
394.556	490.5
394.78	521.5
395.005	506.5
395.229	507.5
395.454	501.5
395.678	525.5
395.903	534.5
396.127	569.5
396.352	547.5
396.576	526.5
396.801	533.5
397.025	516.5
397.249	515.5
397.474	528.5
397.698	521.5
397.922	553.5
398.147	568.5
398.371	556.5
398.595	558.5
398.82	578.5
399.044	579.5
399.268	617.5
399.492	657.5
399.717	683.5
399.941	727.5
400.165	707.5
400.389	734.5
400.613	649.5
400.837	614.5
401.062	605.5
401.286	591.5
401.51	577.5
401.734	559.5
401.958	590.5
402.182	579.5
402.406	573.5
402.63	583.5
402.854	602.5
403.078	610.5
403.302	584.5
403.526	621.5
403.75	625.5
403.974	606.5
404.198	597.5
404.422	624.5
404.645	625.5
404.869	613.5
405.093	664.5
405.317	701.5
405.541	755.5
405.765	653.5
405.988	647.5
406.212	624.5
406.436	636.5
406.66	691.5
406.883	651.5
407.107	678.5
407.331	705.5
407.555	771.5
407.778	767.5
408.002	728.5
408.226	677.5
408.449	651.5
408.673	667.5
408.896	685.5
409.12	735.5
409.344	687.5
409.567	640.5
409.791	612.5
410.014	603.5
410.238	609.5
410.461	606.5
410.685	629.5
410.908	628.5
411.132	651.5
411.355	679.5
411.578	650.5
411.802	618.5
412.025	592.5
412.249	611.5
412.472	613.5
412.695	651.5
412.919	639.5
413.142	596.5
413.365	581.5
413.589	568.5
413.812	584.5
414.035	572.5
414.258	548.5
414.482	560.5
414.705	563.5
414.928	561.5
415.151	556.5
415.374	557.5
415.597	561.5
415.821	574.5
416.044	552.5
416.267	576.5
416.49	551.5
416.713	549.5
416.936	564.5
417.159	565.5
417.382	551.5
417.605	560.5
417.828	586.5
418.051	612.5
418.274	596.5
418.497	564.5
418.72	563.5
418.943	571.5
419.166	589.5
419.389	604.5
419.611	631.5
419.834	585.5
420.057	598.5
420.28	598.5
420.503	569.5
420.726	576.5
420.948	613.5
421.171	659.5
421.394	687.5
421.617	608.5
421.839	583.5
422.062	605.5
422.285	592.5
422.507	649.5
422.73	723.5
422.953	725.5
423.175	622.5
423.398	612.5
423.621	635.5
423.843	649.5
424.066	648.5
424.288	608.5
424.511	671.5
424.733	726.5
424.956	822.5
425.178	757.5
425.401	746.5
425.623	792.5
425.846	667.5
426.068	638.5
426.291	619.5
426.513	607.5
426.735	625.5
426.958	641.5
427.18	761.5
427.402	883.5
427.625	979.5
427.847	840.5
428.069	743.5
428.292	681.5
428.514	609.5
428.736	581.5
428.958	588.5
429.181	584.5
429.403	580.5
429.625	579.5
429.847	617.5
430.069	679.5
430.292	696.5
430.514	593.5
430.736	545.5
430.958	568.5
431.18	537.5
431.402	552.5
431.624	526.5
431.846	544.5
432.068	535.5
432.29	557.5
432.512	567.5
432.734	563.5
432.956	555.5
433.178	550.5
433.4	553.5
433.622	545.5
433.844	551.5
434.066	555.5
434.287	532.5
434.509	536.5
434.731	540.5
434.953	573.5
435.175	603.5
435.397	601.5
435.618	635.5
435.84	671.5
436.062	776.5
436.284	823.5
436.505	671.5
436.727	592.5
436.949	589.5
437.17	566.5
437.392	570.5
437.614	569.5
437.835	601.5
438.057	733.5
438.278	829.5
438.5	811.5
438.721	913.5
438.943	881.5
439.165	683.5
439.386	640.5
439.608	632.5
439.829	644.5
440.05	665.5
440.272	684.5
440.493	671.5
440.715	621.5
440.936	599.5
441.158	584.5
441.379	568.5
441.6	611.5
441.822	623.5
442.043	664.5
442.264	762.5
442.486	790.5
442.707	677.5
442.928	637.5
443.149	635.5
443.371	686.5
443.592	713.5
443.813	804.5
444.034	895.5
444.255	725.5
444.476	653.5
444.698	647.5
444.919	667.5
445.14	747.5
445.361	697.5
445.582	655.5
445.803	732.5
446.024	819.5
446.245	847.5
446.466	775.5
446.687	671.5
446.908	621.5
447.129	602.5
447.35	579.5
447.571	583.5
447.792	564.5
448.013	587.5
448.234	571.5
448.455	638.5
448.675	743.5
448.896	883.5
449.117	753.5
449.338	689.5
449.559	785.5
449.779	944.5
450	732.5
450.221	608.5
450.442	564.5
450.662	558.5
450.883	570.5
451.104	566.5
451.324	529.5
451.545	526.5
451.766	507.5
451.986	515.5
452.207	509.5
452.428	507.5
452.648	484.5
452.869	515.5
453.089	489.5
453.31	535.5
453.53	498.5
453.751	506.5
453.971	517.5
454.192	527.5
454.412	518.5
454.633	507.5
454.853	502.5
455.073	502.5
455.294	525.5
455.514	584.5
455.734	594.5
455.955	505.5
456.175	471.5
456.395	481.5
456.616	477.5
456.836	456.5
457.056	480.5
457.276	463.5
457.497	475.5
457.717	491.5
457.937	473.5
458.157	486.5
458.377	501.5
458.598	525.5
458.818	555.5
459.038	654.5
459.258	654.5
459.478	583.5
459.698	544.5
459.918	548.5
460.138	567.5
460.358	563.5
460.578	568.5
460.798	548.5
461.018	552.5
461.238	553.5
461.458	551.5
461.678	560.5
461.898	561.5
462.118	567.5
462.338	590.5
462.558	596.5
462.777	611.5
462.997	622.5
463.217	625.5
463.437	640.5
463.657	623.5
463.876	627.5
464.096	635.5
464.316	609.5
464.536	613.5
464.755	590.5
464.975	616.5
465.195	634.5
465.414	693.5
465.634	612.5
465.854	593.5
466.073	544.5
466.293	538.5
466.512	529.5
466.732	529.5
466.951	528.5
467.171	529.5
467.391	535.5
467.61	521.5
467.829	551.5
468.049	519.5
468.268	517.5
468.488	542.5
468.707	506.5
468.927	493.5
469.146	499.5
469.365	491.5
469.585	521.5
469.804	531.5
470.023	543.5
470.243	552.5
470.462	543.5
470.681	539.5
470.901	538.5
471.12	568.5
471.339	525.5
471.558	526.5
471.777	526.5
471.997	534.5
472.216	519.5
472.435	544.5
472.654	560.5
472.873	520.5
473.092	511.5
473.311	510.5
473.53	520.5
473.749	535.5
473.968	574.5
474.187	658.5
474.406	696.5
474.625	584.5
474.844	525.5
475.063	514.5
475.282	508.5
475.501	519.5
475.72	530.5
475.939	539.5
476.158	545.5
476.377	522.5
476.596	554.5
476.814	551.5
477.033	548.5
477.252	563.5
477.471	551.5
477.69	565.5
477.908	575.5
478.127	597.5
478.346	559.5
478.564	597.5
478.783	597.5
479.002	614.5
479.22	599.5
479.439	607.5
479.658	631.5
479.876	636.5
480.095	639.5
480.313	692.5
480.532	648.5
480.751	640.5
480.969	668.5
481.188	705.5
481.406	710.5
481.624	676.5
481.843	627.5
482.061	633.5
482.28	593.5
482.498	581.5
482.717	600.5
482.935	618.5
483.153	620.5
483.372	605.5
483.59	623.5
483.808	603.5
484.027	630.5
484.245	597.5
484.463	609.5
484.681	639.5
484.9	633.5
485.118	619.5
485.336	635.5
485.554	620.5
485.772	640.5
485.99	626.5
486.209	637.5
486.427	633.5
486.645	659.5
486.863	656.5
487.081	660.5
487.299	636.5
487.517	656.5
487.735	641.5
487.953	650.5
488.171	653.5
488.389	635.5
488.607	634.5
488.825	644.5
489.043	658.5
489.261	641.5
489.479	659.5
489.696	669.5
489.914	665.5
490.132	665.5
490.35	682.5
490.568	676.5
490.786	694.5
491.003	734.5
491.221	745.5
491.439	718.5
491.657	762.5
491.874	742.5
492.092	734.5
492.31	729.5
492.527	760.5
492.745	761.5
492.963	753.5
493.18	750.5
493.398	772.5
493.615	767.5
493.833	771.5
494.05	784.5
494.268	755.5
494.485	781.5
494.703	780.5
494.92	758.5
495.138	786.5
495.355	768.5
495.573	787.5
495.79	764.5
496.008	762.5
496.225	748.5
496.442	776.5
496.66	767.5
496.877	789.5
497.094	805.5
497.312	795.5
497.529	816.5
497.746	825.5
497.963	823.5
498.181	836.5
498.398	871.5
498.615	887.5
498.832	914.5
499.049	948.5
499.267	939.5
499.484	1004.5
499.701	1053.5
499.918	1087.5
500.135	1169.5
500.352	1211.5
500.569	1227.5
500.786	1255.5
501.003	1239.5
501.22	1180.5
501.437	1107.5
501.654	1079.5
501.871	1056.5
502.088	979.5
502.305	950.5
502.522	908.5
502.739	868.5
502.956	867.5
503.172	848.5
503.389	820.5
503.606	812.5
503.823	808.5
504.04	790.5
504.256	799.5
504.473	809.5
504.69	783.5
504.907	779.5
505.123	758.5
505.34	752.5
505.557	736.5
505.773	764.5
505.99	730.5
506.207	742.5
506.423	721.5
506.64	728.5
506.856	717.5
507.073	725.5
507.289	702.5
507.506	695.5
507.722	735.5
507.939	720.5
508.155	691.5
508.372	704.5
508.588	685.5
508.805	685.5
509.021	679.5
509.238	698.5
509.454	669.5
509.67	701.5
509.887	687.5
510.103	682.5
510.319	705.5
510.536	767.5
510.752	1183.5
510.968	952.5
511.184	673.5
511.401	657.5
511.617	649.5
511.833	649.5
512.049	638.5
512.265	661.5
512.481	647.5
512.698	625.5
512.914	659.5
513.13	637.5
513.346	637.5
513.562	628.5
513.778	638.5
513.994	645.5
514.21	657.5
514.426	685.5
514.642	725.5
514.858	730.5
515.074	741.5
515.29	850.5
515.506	1174.5
515.721	983.5
515.937	746.5
516.153	697.5
516.369	695.5
516.585	671.5
516.801	677.5
517.016	687.5
517.232	707.5
517.448	717.5
517.664	712.5
517.879	687.5
518.095	697.5
518.311	708.5
518.527	679.5
518.742	668.5
518.958	665.5
519.173	655.5
519.389	656.5
519.605	662.5
519.82	645.5
520.036	661.5
520.251	670.5
520.467	697.5
520.682	693.5
520.898	694.5
521.113	687.5
521.329	735.5
521.544	819.5
521.76	934.5
521.975	1491.5
522.19	1449.5
522.406	860.5
522.621	700.5
522.836	647.5
523.052	634.5
523.267	584.5
523.482	583.5
523.698	603.5
523.913	587.5
524.128	585.5
524.343	580.5
524.559	554.5
524.774	566.5
524.989	571.5
525.204	578.5
525.419	581.5
525.634	564.5
525.849	543.5
526.064	535.5
526.28	531.5
526.495	535.5
526.71	539.5
526.925	544.5
527.14	505.5
527.355	524.5
527.57	551.5
527.785	541.5
527.999	541.5
528.214	521.5
528.429	524.5
528.644	526.5
528.859	557.5
529.074	547.5
529.289	543.5
529.503	630.5
529.718	587.5
529.933	570.5
530.148	534.5
530.363	537.5
530.577	538.5
530.792	526.5
531.007	523.5
531.221	507.5
531.436	512.5
531.651	529.5
531.865	503.5
532.08	520.5
532.295	521.5
532.509	514.5
532.724	523.5
532.938	516.5
533.153	519.5
533.367	504.5
533.582	499.5
533.796	519.5
534.011	507.5
534.225	506.5
534.44	513.5
534.654	502.5
534.868	514.5
535.083	503.5
535.297	504.5
535.511	489.5
535.726	527.5
535.94	523.5
536.154	475.5
536.369	507.5
536.583	476.5
536.797	491.5
537.011	479.5
537.225	476.5
537.44	495.5
537.654	511.5
537.868	488.5
538.082	501.5
538.296	485.5
538.51	476.5
538.724	488.5
538.938	484.5
539.153	488.5
539.367	499.5
539.581	489.5
539.795	496.5
540.009	492.5
540.222	493.5
540.436	476.5
540.65	482.5
540.864	506.5
541.078	507.5
541.292	512.5
541.506	494.5
541.72	524.5
541.934	493.5
542.147	485.5
542.361	461.5
542.575	509.5
542.789	480.5
543.002	468.5
543.216	478.5
543.43	480.5
543.644	505.5
543.857	490.5
544.071	486.5
544.285	517.5
544.498	497.5
544.712	503.5
544.925	487.5
545.139	489.5
545.352	497.5
545.566	496.5
545.779	484.5
545.993	506.5
546.206	493.5
546.42	507.5
546.633	460.5
546.847	492.5
547.06	490.5
547.274	456.5
547.487	479.5
547.7	485.5
547.914	483.5
548.127	466.5
548.34	491.5
548.554	485.5
548.767	468.5
548.98	491.5
549.193	467.5
549.407	486.5
549.62	478.5
549.833	485.5
550.046	480.5
550.259	498.5
550.473	466.5
550.686	489.5
550.899	486.5
551.112	475.5
551.325	474.5
551.538	482.5
551.751	474.5
551.964	471.5
552.177	469.5
552.39	465.5
552.603	469.5
552.816	487.5
553.029	464.5
553.242	490.5
553.455	492.5
553.667	502.5
553.88	495.5
554.093	483.5
554.306	495.5
554.519	486.5
554.732	472.5
554.944	448.5
555.157	453.5
555.37	471.5
555.583	459.5
555.795	462.5
556.008	447.5
556.221	416.5
556.433	427.5
556.646	427.5
556.859	427.5
557.071	440.5
557.284	451.5
557.496	425.5
557.709	439.5
557.921	425.5
558.134	453.5
558.346	421.5
558.559	450.5
558.771	437.5
558.984	410.5
559.196	425.5
559.409	417.5
559.621	424.5
559.833	426.5
560.046	411.5
560.258	415.5
560.47	409.5
560.683	429.5
560.895	402.5
561.107	418.5
561.32	406.5
561.532	413.5
561.744	427.5
561.956	408.5
562.168	414.5
562.381	441.5
562.593	425.5
562.805	416.5
563.017	425.5
563.229	436.5
563.441	397.5
563.653	422.5
563.865	413.5
564.077	414.5
564.289	430.5
564.501	424.5
564.713	421.5
564.925	452.5
565.137	470.5
565.349	478.5
565.561	467.5
565.773	475.5
565.985	485.5
566.197	494.5
566.408	501.5
566.62	517.5
566.832	540.5
567.044	570.5
567.255	554.5
567.467	560.5
567.679	586.5
567.891	593.5
568.102	593.5
568.314	583.5
568.526	552.5
568.737	541.5
568.949	510.5
569.161	479.5
569.372	440.5
569.584	463.5
569.795	452.5
570.007	459.5
570.218	469.5
570.43	454.5
570.641	412.5
570.853	433.5
571.064	437.5
571.276	419.5
571.487	415.5
571.698	408.5
571.91	401.5
572.121	393.5
572.333	410.5
572.544	389.5
572.755	396.5
572.966	383.5
573.178	378.5
573.389	372.5
573.6	357.5
573.811	372.5
574.023	391.5
574.234	373.5
574.445	380.5
574.656	365.5
574.867	359.5
575.078	381.5
575.289	363.5
575.501	355.5
575.712	348.5
575.923	360.5
576.134	355.5
576.345	367.5
576.556	355.5
576.767	346.5
576.978	372.5
577.188	362.5
577.399	357.5
577.61	355.5
577.821	361.5
578.032	341.5
578.243	384.5
578.454	563.5
578.665	431.5
578.875	327.5
579.086	357.5
579.297	371.5
579.508	346.5
579.718	366.5
579.929	337.5
580.14	345.5
580.35	337.5
580.561	357.5
580.772	333.5
580.982	340.5
581.193	347.5
581.403	353.5
581.614	329.5
581.825	328.5
582.035	313.5
582.246	344.5
582.456	323.5
582.667	336.5
582.877	307.5
583.087	338.5
583.298	328.5
583.508	329.5
583.719	341.5
583.929	333.5
584.139	318.5
584.35	325.5
584.56	327.5
584.77	337.5
584.981	317.5
585.191	319.5
585.401	315.5
585.611	327.5
585.821	307.5
586.032	335.5
586.242	331.5
586.452	313.5
586.662	325.5
586.872	334.5
587.082	316.5
587.292	333.5
587.502	318.5
587.713	312.5
587.923	335.5
588.133	323.5
588.343	335.5
588.553	289.5
588.762	318.5
588.972	307.5
589.182	307.5
589.392	312.5
589.602	317.5
589.812	307.5
590.022	331.5
590.232	330.5
590.441	333.5
590.651	316.5
590.861	340.5
591.071	312.5
591.281	304.5
591.49	305.5
591.7	319.5
591.91	331.5
592.119	324.5
592.329	343.5
592.539	351.5
592.748	341.5
592.958	351.5
593.167	345.5
593.377	350.5
593.587	358.5
593.796	364.5
594.006	368.5
594.215	348.5
594.424	360.5
594.634	353.5
594.843	358.5
595.053	336.5
595.262	320.5
595.472	317.5
595.681	327.5
595.89	331.5
596.1	306.5
596.309	279.5
596.518	312.5
596.727	317.5
596.937	295.5
597.146	318.5
597.355	310.5
597.564	302.5
597.774	311.5
597.983	297.5
598.192	307.5
598.401	297.5
598.61	277.5
598.819	288.5
599.028	282.5
599.237	286.5
599.446	288.5
599.655	270.5
599.864	278.5
600.073	270.5
600.282	283.5
600.491	285.5
600.7	279.5
600.909	268.5
601.118	267.5
601.327	269.5
601.536	281.5
601.745	281.5
601.953	287.5
602.162	276.5
602.371	289.5
602.58	282.5
602.789	283.5
602.997	277.5
603.206	258.5
603.415	267.5
603.623	277.5
603.832	287.5
604.041	245.5
604.249	256.5
604.458	243.5
604.666	253.5
604.875	263.5
605.084	269.5
605.292	266.5
605.501	256.5
605.709	248.5
605.918	272.5
606.126	252.5
606.334	292.5
606.543	280.5
606.751	260.5
606.96	259.5
607.168	268.5
607.376	261.5
607.585	280.5
607.793	256.5
608.001	269.5
608.21	270.5
608.418	256.5
608.626	253.5
608.834	265.5
609.043	257.5
609.251	264.5
609.459	257.5
609.667	281.5
609.875	232.5
610.083	257.5
610.291	258.5
610.499	254.5
610.707	265.5
610.916	268.5
611.124	255.5
611.332	271.5
611.54	267.5
611.748	272.5
611.955	272.5
612.163	247.5
612.371	263.5
612.579	246.5
612.787	268.5
612.995	251.5
613.203	258.5
613.411	269.5
613.618	273.5
613.826	237.5
614.034	258.5
614.242	243.5
614.449	250.5
614.657	257.5
614.865	277.5
615.072	246.5
615.28	252.5
615.488	255.5
615.695	254.5
615.903	261.5
616.111	261.5
616.318	260.5
616.526	256.5
616.733	266.5
616.941	263.5
617.148	253.5
617.356	269.5
617.563	239.5
617.771	267.5
617.978	260.5
618.185	252.5
618.393	265.5
618.6	244.5
618.807	252.5
619.015	260.5
619.222	256.5
619.429	270.5
619.637	230.5
619.844	257.5
620.051	260.5
620.258	241.5
620.466	226.5
620.673	248.5
620.88	256.5
621.087	237.5
621.294	251.5
621.501	240.5
621.708	220.5
621.915	231.5
622.122	243.5
622.329	227.5
622.536	229.5
622.743	247.5
622.95	235.5
623.157	219.5
623.364	228.5
623.571	235.5
623.778	237.5
623.985	227.5
624.192	238.5
624.399	236.5
624.606	229.5
624.812	226.5
625.019	218.5
625.226	227.5
625.433	220.5
625.639	227.5
625.846	224.5
626.053	230.5
626.259	221.5
626.466	218.5
626.673	211.5
626.879	221.5
627.086	215.5
627.293	220.5
627.499	208.5
627.706	211.5
627.912	225.5
628.119	209.5
628.325	214.5
628.532	202.5
628.738	216.5
628.945	218.5
629.151	230.5
629.357	204.5
629.564	211.5
629.77	216.5
629.976	214.5
630.183	214.5
630.389	214.5
630.595	199.5
630.802	205.5
631.008	214.5
631.214	200.5
631.42	192.5
631.627	199.5
631.833	207.5
632.039	209.5
632.245	197.5
632.451	194.5
632.657	199.5
632.863	205.5
633.069	200.5
633.275	191.5
633.481	209.5
633.688	207.5
633.893	199.5
634.099	203.5
634.305	191.5
634.511	198.5
634.717	191.5
634.923	201.5
635.129	192.5
635.335	199.5
635.541	185.5
635.747	194.5
635.952	193.5
636.158	191.5
636.364	203.5
636.57	198.5
636.775	198.5
636.981	194.5
637.187	197.5
637.392	180.5
637.598	172.5
637.804	188.5
638.009	197.5
638.215	200.5
638.421	183.5
638.626	185.5
638.832	183.5
639.037	190.5
639.243	189.5
639.448	187.5
639.654	196.5
639.859	169.5
640.065	171.5
640.27	207.5
640.475	174.5
640.681	188.5
640.886	183.5
641.091	188.5
641.297	183.5
641.502	173.5
641.707	191.5
641.913	191.5
642.118	188.5
642.323	190.5
642.528	181.5
642.733	175.5
642.939	191.5
643.144	179.5
643.349	191.5
643.554	173.5
643.759	177.5
643.964	174.5
644.169	183.5
644.374	174.5
644.579	177.5
644.784	183.5
644.989	181.5
645.194	185.5
645.399	187.5
645.604	187.5
645.809	180.5
646.014	180.5
646.219	197.5
646.423	174.5
646.628	182.5
646.833	189.5
647.038	175.5
647.243	169.5
647.447	178.5
647.652	179.5
647.857	183.5
648.062	179.5
648.266	170.5
648.471	194.5
648.676	192.5
648.88	196.5
649.085	171.5
649.289	177.5
649.494	188.5
649.698	207.5
649.903	206.5
650.107	192.5
650.312	164.5
650.516	190.5
650.721	147.5
650.925	156.5
651.13	149.5
651.334	158.5
651.539	160.5
651.743	166.5
651.947	152.5
652.152	142.5
652.356	156.5
652.56	165.5
652.764	152.5
652.969	131.5
653.173	158.5
653.377	138.5
653.581	157.5
653.785	143.5
653.99	153.5
654.194	151.5
654.398	127.5
654.602	146.5
654.806	125.5
655.01	143.5
655.214	135.5
655.418	155.5
655.622	157.5
655.826	143.5
656.03	141.5
656.234	150.5
656.438	131.5
656.642	160.5
656.846	129.5
657.049	139.5
657.253	131.5
657.457	124.5
657.661	135.5
657.865	122.5
658.068	119.5
658.272	116.5
658.476	121.5
658.68	108.5
658.883	103.5
659.087	108.5
659.291	102.5
659.494	106.5
659.698	116.5
659.901	107.5
660.105	106.5
660.309	93.5
660.512	99.5
660.716	93.5
660.919	111.5
661.123	95.5
661.326	99.5
661.53	85.5
661.733	106.5
661.936	85.5
662.14	79.5
662.343	88.5
662.546	88.5
662.75	97.5
662.953	99.5
663.156	104.5
663.36	85.5
663.563	78.5
663.766	89.5
663.969	80.5
664.173	90.5
664.376	81.5
664.579	81.5
664.782	73.5
664.985	85.5
665.188	84.5
665.391	88.5
665.594	90.5
665.797	82.5
666	80.5
666.203	90.5
666.406	76.5
666.609	88.5
666.812	91.5
667.015	85.5
667.218	69.5
667.421	72.5
667.624	83.5
667.827	99.5
668.03	99.5
668.232	87.5
668.435	88.5
668.638	72.5
668.841	84.5
669.043	80.5
669.246	89.5
669.449	87.5
669.651	90.5
669.854	87.5
670.057	87.5
670.259	85.5
670.462	86.5
670.665	80.5
670.867	100.5
671.07	84.5
671.272	84.5
671.475	90.5
671.677	81.5
671.88	87.5
672.082	84.5
672.284	85.5
672.487	79.5
672.689	86.5
672.892	84.5
