Data from 1976.PennyLincolnUp.Lamp.En5.5.200Scan.071719.P1.Changed Mount._HRD10591_16-02-06-871.txt Node
Date: Thu Jul 18 16:02:06 EDT 2019
User: cochatt
Spectrometer: HR+D1059
Trigger mode: 1
Integration Time (sec): 1.000000E-1
Scans to average: 1
Electric dark correction enabled: true
Nonlinearity correction enabled: false
Boxcar width: 0
XAxis mode: Wavelengths
Number of Pixels in Spectrum: 2048
>>>>>Begin Spectral Data<<<<<
223.165	-3.44
223.4	-3.44
223.635	-3.44
223.869	-16.44
224.104	-11.44
224.338	-12.44
224.573	-30.44
224.808	-10.44
225.042	-1.44
225.277	-9.44
225.511	14.56
225.746	18.56
225.98	5.56
226.215	15.56
226.449	-7.44
226.683	14.56
226.918	17.56
227.152	16.56
227.387	26.56
227.621	34.56
227.856	49.56
228.09	49.56
228.324	58.56
228.559	57.56
228.793	57.56
229.027	87.56
229.262	100.56
229.496	97.56
229.73	117.56
229.964	137.56
230.199	116.56
230.433	110.56
230.667	107.56
230.901	115.56
231.136	105.56
231.37	110.56
231.604	113.56
231.838	119.56
232.072	107.56
232.306	112.56
232.541	97.56
232.775	107.56
233.009	101.56
233.243	92.56
233.477	110.56
233.711	107.56
233.945	116.56
234.179	120.56
234.413	119.56
234.647	125.56
234.881	130.56
235.115	125.56
235.349	110.56
235.583	116.56
235.817	118.56
236.051	118.56
236.285	124.56
236.519	120.56
236.753	127.56
236.987	139.56
237.221	187.56
237.455	254.56
237.689	199.56
237.922	138.56
238.156	124.56
238.39	131.56
238.624	110.56
238.858	126.56
239.091	123.56
239.325	103.56
239.559	132.56
239.793	120.56
240.027	128.56
240.26	151.56
240.494	145.56
240.728	165.56
240.961	149.56
241.195	147.56
241.429	131.56
241.662	141.56
241.896	146.56
242.13	151.56
242.363	134.56
242.597	144.56
242.83	134.56
243.064	162.56
243.298	155.56
243.531	149.56
243.765	136.56
243.998	134.56
244.232	148.56
244.465	130.56
244.699	148.56
244.932	136.56
245.166	155.56
245.399	155.56
245.633	154.56
245.866	158.56
246.099	133.56
246.333	153.56
246.566	155.56
246.8	149.56
247.033	153.56
247.266	176.56
247.5	166.56
247.733	150.56
247.966	163.56
248.2	168.56
248.433	183.56
248.666	178.56
248.899	204.56
249.133	201.56
249.366	211.56
249.599	199.56
249.832	182.56
250.066	172.56
250.299	176.56
250.532	189.56
250.765	203.56
250.998	212.56
251.231	220.56
251.465	210.56
251.698	216.56
251.931	202.56
252.164	210.56
252.397	203.56
252.63	204.56
252.863	207.56
253.096	214.56
253.329	204.56
253.562	238.56
253.795	220.56
254.028	224.56
254.261	216.56
254.494	211.56
254.727	260.56
254.96	285.56
255.193	266.56
255.426	247.56
255.659	231.56
255.892	233.56
256.124	238.56
256.357	224.56
256.59	222.56
256.823	231.56
257.056	230.56
257.289	217.56
257.521	214.56
257.754	209.56
257.987	227.56
258.22	215.56
258.452	200.56
258.685	205.56
258.918	194.56
259.151	228.56
259.383	219.56
259.616	210.56
259.849	227.56
260.081	238.56
260.314	275.56
260.547	275.56
260.779	252.56
261.012	257.56
261.244	249.56
261.477	226.56
261.71	224.56
261.942	216.56
262.175	233.56
262.407	244.56
262.64	226.56
262.872	220.56
263.105	239.56
263.337	224.56
263.57	208.56
263.802	228.56
264.035	219.56
264.267	227.56
264.499	214.56
264.732	218.56
264.964	215.56
265.197	216.56
265.429	209.56
265.661	226.56
265.894	231.56
266.126	224.56
266.358	240.56
266.591	216.56
266.823	241.56
267.055	254.56
267.287	242.56
267.52	242.56
267.752	242.56
267.984	238.56
268.216	243.56
268.448	249.56
268.681	258.56
268.913	253.56
269.145	275.56
269.377	270.56
269.609	303.56
269.841	296.56
270.073	299.56
270.306	308.56
270.538	322.56
270.77	329.56
271.002	319.56
271.234	296.56
271.466	313.56
271.698	316.56
271.93	331.56
272.162	330.56
272.394	322.56
272.626	301.56
272.858	307.56
273.09	292.56
273.322	292.56
273.553	280.56
273.785	283.56
274.017	280.56
274.249	286.56
274.481	291.56
274.713	286.56
274.945	290.56
275.176	296.56
275.408	276.56
275.64	279.56
275.872	264.56
276.104	267.56
276.335	272.56
276.567	302.56
276.799	295.56
277.031	320.56
277.262	334.56
277.494	328.56
277.726	318.56
277.957	304.56
278.189	288.56
278.421	300.56
278.652	259.56
278.884	280.56
279.115	294.56
279.347	307.56
279.579	302.56
279.81	290.56
280.042	274.56
280.273	305.56
280.505	275.56
280.736	273.56
280.968	280.56
281.199	277.56
281.431	293.56
281.662	283.56
281.894	274.56
282.125	287.56
282.356	298.56
282.588	307.56
282.819	321.56
283.051	308.56
283.282	305.56
283.513	290.56
283.745	281.56
283.976	304.56
284.207	299.56
284.439	294.56
284.67	298.56
284.901	316.56
285.132	302.56
285.364	283.56
285.595	321.56
285.826	296.56
286.057	299.56
286.288	296.56
286.52	308.56
286.751	305.56
286.982	318.56
287.213	319.56
287.444	311.56
287.675	322.56
287.906	323.56
288.138	336.56
288.369	344.56
288.6	320.56
288.831	320.56
289.062	311.56
289.293	318.56
289.524	296.56
289.755	309.56
289.986	312.56
290.217	310.56
290.448	308.56
290.679	318.56
290.91	293.56
291.141	303.56
291.371	316.56
291.602	326.56
291.833	298.56
292.064	323.56
292.295	318.56
292.526	307.56
292.757	327.56
292.987	333.56
293.218	325.56
293.449	315.56
293.68	314.56
293.91	336.56
294.141	312.56
294.372	330.56
294.603	316.56
294.833	310.56
295.064	337.56
295.295	319.56
295.525	316.56
295.756	329.56
295.987	333.56
296.217	322.56
296.448	338.56
296.679	330.56
296.909	331.56
297.14	319.56
297.37	325.56
297.601	303.56
297.831	315.56
298.062	315.56
298.292	327.56
298.523	349.56
298.753	339.56
298.984	328.56
299.214	325.56
299.445	318.56
299.675	313.56
299.905	321.56
300.136	331.56
300.366	333.56
300.597	347.56
300.827	338.56
301.057	349.56
301.288	351.56
301.518	353.56
301.748	349.56
301.979	364.56
302.209	361.56
302.439	381.56
302.669	369.56
302.9	343.56
303.13	326.56
303.36	362.56
303.59	359.56
303.82	348.56
304.051	352.56
304.281	346.56
304.511	347.56
304.741	370.56
304.971	361.56
305.201	361.56
305.431	330.56
305.661	346.56
305.891	360.56
306.121	350.56
306.352	370.56
306.582	360.56
306.812	362.56
307.042	361.56
307.272	354.56
307.502	351.56
307.731	359.56
307.961	366.56
308.191	360.56
308.421	355.56
308.651	376.56
308.881	378.56
309.111	359.56
309.341	361.56
309.571	367.56
309.8	394.56
310.03	374.56
310.26	378.56
310.49	372.56
310.72	412.56
310.949	415.56
311.179	412.56
311.409	390.56
311.639	385.56
311.868	384.56
312.098	404.56
312.328	378.56
312.557	431.56
312.787	418.56
313.017	424.56
313.246	422.56
313.476	411.56
313.706	422.56
313.935	397.56
314.165	415.56
314.394	423.56
314.624	412.56
314.853	432.56
315.083	400.56
315.312	411.56
315.542	372.56
315.771	383.56
316.001	393.56
316.23	382.56
316.46	390.56
316.689	390.56
316.919	400.56
317.148	395.56
317.377	420.56
317.607	393.56
317.836	403.56
318.065	394.56
318.295	384.56
318.524	392.56
318.753	392.56
318.983	393.56
319.212	386.56
319.441	423.56
319.67	380.56
319.9	395.56
320.129	394.56
320.358	412.56
320.587	403.56
320.816	408.56
321.046	411.56
321.275	439.56
321.504	408.56
321.733	397.56
321.962	436.56
322.191	430.56
322.42	438.56
322.649	456.56
322.878	458.56
323.108	466.56
323.337	474.56
323.566	498.56
323.795	522.56
324.024	539.56
324.253	638.56
324.482	866.56
324.71	1367.56
324.939	2044.56
325.168	1778.56
325.397	902.56
325.626	615.56
325.855	530.56
326.084	482.56
326.313	486.56
326.542	515.56
326.77	518.56
326.999	608.56
327.228	840.56
327.457	1243.56
327.686	1560.56
327.914	1027.56
328.143	670.56
328.372	610.56
328.6	569.56
328.829	570.56
329.058	534.56
329.287	566.56
329.515	550.56
329.744	525.56
329.972	519.56
330.201	539.56
330.43	560.56
330.658	581.56
330.887	610.56
331.115	603.56
331.344	514.56
331.572	505.56
331.801	512.56
332.03	511.56
332.258	488.56
332.486	500.56
332.715	486.56
332.943	498.56
333.172	485.56
333.4	460.56
333.629	504.56
333.857	522.56
334.085	543.56
334.314	532.56
334.542	560.56
334.771	571.56
334.999	547.56
335.227	517.56
335.455	491.56
335.684	484.56
335.912	506.56
336.14	482.56
336.369	475.56
336.597	479.56
336.825	505.56
337.053	484.56
337.281	461.56
337.51	464.56
337.738	483.56
337.966	467.56
338.194	473.56
338.422	491.56
338.65	485.56
338.878	472.56
339.106	467.56
339.334	469.56
339.562	468.56
339.79	462.56
340.018	464.56
340.246	437.56
340.474	460.56
340.702	473.56
340.93	454.56
341.158	440.56
341.386	449.56
341.614	474.56
341.842	449.56
342.07	465.56
342.298	454.56
342.526	440.56
342.754	423.56
342.981	455.56
343.209	452.56
343.437	450.56
343.665	463.56
343.893	471.56
344.12	482.56
344.348	461.56
344.576	465.56
344.804	467.56
345.031	454.56
345.259	487.56
345.487	478.56
345.714	472.56
345.942	444.56
346.17	462.56
346.397	425.56
346.625	427.56
346.853	418.56
347.08	414.56
347.308	449.56
347.535	432.56
347.763	454.56
347.99	466.56
348.218	462.56
348.445	453.56
348.673	454.56
348.9	419.56
349.128	421.56
349.355	419.56
349.583	411.56
349.81	405.56
350.037	433.56
350.265	409.56
350.492	434.56
350.72	465.56
350.947	434.56
351.174	441.56
351.402	442.56
351.629	443.56
351.856	422.56
352.083	446.56
352.311	432.56
352.538	443.56
352.765	458.56
352.992	444.56
353.22	423.56
353.447	414.56
353.674	412.56
353.901	427.56
354.128	410.56
354.355	408.56
354.583	436.56
354.81	424.56
355.037	442.56
355.264	407.56
355.491	403.56
355.718	411.56
355.945	412.56
356.172	406.56
356.399	428.56
356.626	408.56
356.853	397.56
357.08	391.56
357.307	411.56
357.534	421.56
357.761	396.56
357.988	430.56
358.215	401.56
358.441	423.56
358.668	405.56
358.895	420.56
359.122	428.56
359.349	419.56
359.576	444.56
359.802	466.56
360.029	458.56
360.256	483.56
360.483	449.56
360.709	443.56
360.936	436.56
361.163	423.56
361.39	450.56
361.616	432.56
361.843	425.56
362.07	424.56
362.296	404.56
362.523	436.56
362.749	432.56
362.976	433.56
363.203	435.56
363.429	420.56
363.656	447.56
363.882	420.56
364.109	436.56
364.335	412.56
364.562	421.56
364.788	422.56
365.015	411.56
365.241	432.56
365.468	426.56
365.694	418.56
365.92	432.56
366.147	416.56
366.373	397.56
366.599	421.56
366.826	412.56
367.052	402.56
367.278	406.56
367.505	412.56
367.731	432.56
367.957	435.56
368.184	439.56
368.41	422.56
368.636	439.56
368.862	433.56
369.089	444.56
369.315	449.56
369.541	408.56
369.767	415.56
369.993	422.56
370.219	418.56
370.445	415.56
370.672	418.56
370.898	427.56
371.124	432.56
371.35	427.56
371.576	426.56
371.802	411.56
372.028	425.56
372.254	443.56
372.48	445.56
372.706	410.56
372.932	425.56
373.158	436.56
373.384	426.56
373.61	430.56
373.835	422.56
374.061	419.56
374.287	433.56
374.513	424.56
374.739	440.56
374.965	420.56
375.191	435.56
375.416	421.56
375.642	444.56
375.868	432.56
376.094	432.56
376.319	424.56
376.545	409.56
376.771	439.56
376.997	414.56
377.222	439.56
377.448	432.56
377.674	420.56
377.899	394.56
378.125	426.56
378.35	428.56
378.576	416.56
378.802	412.56
379.027	424.56
379.253	410.56
379.478	415.56
379.704	405.56
379.929	427.56
380.155	420.56
380.38	417.56
380.606	410.56
380.831	425.56
381.057	433.56
381.282	422.56
381.507	418.56
381.733	424.56
381.958	418.56
382.184	436.56
382.409	458.56
382.634	459.56
382.86	446.56
383.085	442.56
383.31	434.56
383.535	436.56
383.761	439.56
383.986	446.56
384.211	448.56
384.436	426.56
384.662	462.56
384.887	456.56
385.112	443.56
385.337	466.56
385.562	474.56
385.787	472.56
386.013	456.56
386.238	489.56
386.463	480.56
386.688	480.56
386.913	462.56
387.138	482.56
387.363	467.56
387.588	469.56
387.813	479.56
388.038	470.56
388.263	478.56
388.488	494.56
388.713	496.56
388.938	474.56
389.163	482.56
389.387	448.56
389.612	458.56
389.837	481.56
390.062	478.56
390.287	486.56
390.512	472.56
390.736	459.56
390.961	467.56
391.186	487.56
391.411	481.56
391.636	481.56
391.86	485.56
392.085	498.56
392.31	497.56
392.534	483.56
392.759	491.56
392.984	481.56
393.208	464.56
393.433	498.56
393.658	458.56
393.882	466.56
394.107	462.56
394.331	465.56
394.556	484.56
394.78	486.56
395.005	464.56
395.229	478.56
395.454	488.56
395.678	474.56
395.903	513.56
396.127	525.56
396.352	519.56
396.576	526.56
396.801	508.56
397.025	486.56
397.249	510.56
397.474	515.56
397.698	538.56
397.922	544.56
398.147	542.56
398.371	562.56
398.595	518.56
398.82	559.56
399.044	578.56
399.268	578.56
399.492	623.56
399.717	651.56
399.941	711.56
400.165	698.56
400.389	686.56
400.613	625.56
400.837	574.56
401.062	559.56
401.286	548.56
401.51	534.56
401.734	545.56
401.958	577.56
402.182	578.56
402.406	596.56
402.63	556.56
402.854	556.56
403.078	566.56
403.302	586.56
403.526	588.56
403.75	590.56
403.974	598.56
404.198	592.56
404.422	583.56
404.645	575.56
404.869	581.56
405.093	628.56
405.317	683.56
405.541	694.56
405.765	632.56
405.988	607.56
406.212	595.56
406.436	613.56
406.66	649.56
406.883	611.56
407.107	643.56
407.331	692.56
407.555	768.56
407.778	784.56
408.002	707.56
408.226	634.56
408.449	650.56
408.673	628.56
408.896	668.56
409.12	696.56
409.344	672.56
409.567	624.56
409.791	604.56
410.014	591.56
410.238	555.56
410.461	604.56
410.685	584.56
410.908	591.56
411.132	634.56
411.355	672.56
411.578	638.56
411.802	603.56
412.025	577.56
412.249	582.56
412.472	586.56
412.695	634.56
412.919	632.56
413.142	607.56
413.365	557.56
413.589	554.56
413.812	567.56
414.035	538.56
414.258	540.56
414.482	537.56
414.705	553.56
414.928	544.56
415.151	551.56
415.374	543.56
415.597	545.56
415.821	551.56
416.044	523.56
416.267	543.56
416.49	528.56
416.713	544.56
416.936	539.56
417.159	538.56
417.382	543.56
417.605	562.56
417.828	564.56
418.051	539.56
418.274	550.56
418.497	546.56
418.72	539.56
418.943	545.56
419.166	589.56
419.389	580.56
419.611	580.56
419.834	571.56
420.057	583.56
420.28	569.56
420.503	578.56
420.726	546.56
420.948	603.56
421.171	615.56
421.394	649.56
421.617	588.56
421.839	578.56
422.062	577.56
422.285	580.56
422.507	624.56
422.73	719.56
422.953	705.56
423.175	611.56
423.398	578.56
423.621	572.56
423.843	605.56
424.066	617.56
424.288	596.56
424.511	632.56
424.733	664.56
424.956	742.56
425.178	682.56
425.401	693.56
425.623	722.56
425.846	645.56
426.068	596.56
426.291	591.56
426.513	574.56
426.735	605.56
426.958	599.56
427.18	726.56
427.402	878.56
427.625	933.56
427.847	786.56
428.069	699.56
428.292	642.56
428.514	604.56
428.736	572.56
428.958	555.56
429.181	545.56
429.403	530.56
429.625	560.56
429.847	599.56
430.069	665.56
430.292	642.56
430.514	550.56
430.736	544.56
430.958	533.56
431.18	549.56
431.402	512.56
431.624	543.56
431.846	510.56
432.068	484.56
432.29	519.56
432.512	530.56
432.734	544.56
432.956	531.56
433.178	530.56
433.4	549.56
433.622	548.56
433.844	506.56
434.066	520.56
434.287	543.56
434.509	544.56
434.731	538.56
434.953	559.56
435.175	543.56
435.397	579.56
435.618	601.56
435.84	631.56
436.062	716.56
436.284	786.56
436.505	674.56
436.727	595.56
436.949	574.56
437.17	552.56
437.392	549.56
437.614	576.56
437.835	568.56
438.057	684.56
438.278	782.56
438.5	759.56
438.721	882.56
438.943	836.56
439.165	653.56
439.386	611.56
439.608	597.56
439.829	571.56
440.05	611.56
440.272	650.56
440.493	610.56
440.715	571.56
440.936	563.56
441.158	566.56
441.379	571.56
441.6	571.56
441.822	588.56
442.043	638.56
442.264	729.56
442.486	740.56
442.707	634.56
442.928	595.56
443.149	611.56
443.371	638.56
443.592	674.56
443.813	801.56
444.034	851.56
444.255	707.56
444.476	647.56
444.698	614.56
444.919	612.56
445.14	713.56
445.361	686.56
445.582	642.56
445.803	709.56
446.024	801.56
446.245	819.56
446.466	750.56
446.687	652.56
446.908	572.56
447.129	547.56
447.35	512.56
447.571	561.56
447.792	540.56
448.013	550.56
448.234	551.56
448.455	616.56
448.675	715.56
448.896	836.56
449.117	733.56
449.338	686.56
449.559	757.56
449.779	868.56
450	710.56
450.221	600.56
450.442	545.56
450.662	535.56
450.883	542.56
451.104	539.56
451.324	528.56
451.545	526.56
451.766	513.56
451.986	487.56
452.207	469.56
452.428	489.56
452.648	456.56
452.869	479.56
453.089	484.56
453.31	503.56
453.53	476.56
453.751	479.56
453.971	471.56
454.192	509.56
454.412	477.56
454.633	467.56
454.853	472.56
455.073	476.56
455.294	523.56
455.514	563.56
455.734	569.56
455.955	490.56
456.175	479.56
456.395	462.56
456.616	487.56
456.836	440.56
457.056	446.56
457.276	443.56
457.497	474.56
457.717	465.56
457.937	466.56
458.157	458.56
458.377	474.56
458.598	481.56
458.818	529.56
459.038	599.56
459.258	625.56
459.478	539.56
459.698	550.56
459.918	524.56
460.138	531.56
460.358	544.56
460.578	534.56
460.798	555.56
461.018	558.56
461.238	516.56
461.458	536.56
461.678	547.56
461.898	547.56
462.118	550.56
462.338	562.56
462.558	536.56
462.777	586.56
462.997	597.56
463.217	619.56
463.437	628.56
463.657	598.56
463.876	594.56
464.096	605.56
464.316	606.56
464.536	586.56
464.755	582.56
464.975	589.56
465.195	594.56
465.414	636.56
465.634	579.56
465.854	537.56
466.073	528.56
466.293	512.56
466.512	514.56
466.732	497.56
466.951	487.56
467.171	496.56
467.391	483.56
467.61	510.56
467.829	522.56
468.049	512.56
468.268	505.56
468.488	489.56
468.707	488.56
468.927	476.56
469.146	483.56
469.365	492.56
469.585	494.56
469.804	530.56
470.023	512.56
470.243	516.56
470.462	522.56
470.681	528.56
470.901	520.56
471.12	500.56
471.339	489.56
471.558	475.56
471.777	501.56
471.997	517.56
472.216	500.56
472.435	536.56
472.654	522.56
472.873	503.56
473.092	482.56
473.311	500.56
473.53	496.56
473.749	529.56
473.968	559.56
474.187	636.56
474.406	674.56
474.625	562.56
474.844	525.56
475.063	522.56
475.282	502.56
475.501	505.56
475.72	522.56
475.939	509.56
476.158	520.56
476.377	524.56
476.596	527.56
476.814	542.56
477.033	520.56
477.252	528.56
477.471	534.56
477.69	539.56
477.908	551.56
478.127	563.56
478.346	556.56
478.564	559.56
478.783	583.56
479.002	580.56
479.22	570.56
479.439	602.56
479.658	599.56
479.876	616.56
480.095	609.56
480.313	648.56
480.532	635.56
480.751	617.56
480.969	598.56
481.188	694.56
481.406	686.56
481.624	618.56
481.843	598.56
482.061	587.56
482.28	584.56
482.498	606.56
482.717	576.56
482.935	592.56
483.153	584.56
483.372	576.56
483.59	589.56
483.808	580.56
484.027	600.56
484.245	571.56
484.463	584.56
484.681	606.56
484.9	603.56
485.118	615.56
485.336	604.56
485.554	606.56
485.772	596.56
485.99	614.56
486.209	612.56
486.427	602.56
486.645	610.56
486.863	627.56
487.081	630.56
487.299	620.56
487.517	620.56
487.735	622.56
487.953	660.56
488.171	626.56
488.389	641.56
488.607	637.56
488.825	651.56
489.043	635.56
489.261	643.56
489.479	620.56
489.696	638.56
489.914	642.56
490.132	649.56
490.35	653.56
490.568	650.56
490.786	664.56
491.003	680.56
491.221	708.56
491.439	691.56
491.657	721.56
491.874	709.56
492.092	711.56
492.31	735.56
492.527	720.56
492.745	727.56
492.963	715.56
493.18	719.56
493.398	738.56
493.615	739.56
493.833	736.56
494.05	745.56
494.268	730.56
494.485	722.56
494.703	704.56
494.92	734.56
495.138	734.56
495.355	752.56
495.573	762.56
495.79	738.56
496.008	758.56
496.225	739.56
496.442	726.56
496.66	759.56
496.877	731.56
497.094	755.56
497.312	760.56
497.529	769.56
497.746	788.56
497.963	812.56
498.181	809.56
498.398	857.56
498.615	851.56
498.832	888.56
499.049	894.56
499.267	917.56
499.484	958.56
499.701	1003.56
499.918	1035.56
500.135	1103.56
500.352	1174.56
500.569	1189.56
500.786	1204.56
501.003	1198.56
501.22	1167.56
501.437	1087.56
501.654	1010.56
501.871	1010.56
502.088	937.56
502.305	902.56
502.522	882.56
502.739	855.56
502.956	836.56
503.172	811.56
503.389	789.56
503.606	788.56
503.823	781.56
504.04	788.56
504.256	774.56
504.473	743.56
504.69	755.56
504.907	781.56
505.123	754.56
505.34	723.56
505.557	727.56
505.773	698.56
505.99	711.56
506.207	695.56
506.423	688.56
506.64	712.56
506.856	691.56
507.073	686.56
507.289	678.56
507.506	676.56
507.722	705.56
507.939	710.56
508.155	680.56
508.372	622.56
508.588	656.56
508.805	658.56
509.021	654.56
509.238	699.56
509.454	668.56
509.67	686.56
509.887	660.56
510.103	648.56
510.319	636.56
510.536	704.56
510.752	1060.56
510.968	930.56
511.184	641.56
511.401	627.56
511.617	633.56
511.833	628.56
512.049	623.56
512.265	628.56
512.481	631.56
512.698	632.56
512.914	623.56
513.13	622.56
513.346	619.56
513.562	624.56
513.778	599.56
513.994	612.56
514.21	611.56
514.426	651.56
514.642	668.56
514.858	690.56
515.074	705.56
515.29	804.56
515.506	1075.56
515.721	935.56
515.937	703.56
516.153	704.56
516.369	660.56
516.585	660.56
516.801	642.56
517.016	648.56
517.232	670.56
517.448	676.56
517.664	690.56
517.879	682.56
518.095	674.56
518.311	650.56
518.527	643.56
518.742	619.56
518.958	638.56
519.173	613.56
519.389	652.56
519.605	626.56
519.82	638.56
520.036	638.56
520.251	641.56
520.467	684.56
520.682	659.56
520.898	668.56
521.113	669.56
521.329	698.56
521.544	743.56
521.76	879.56
521.975	1375.56
522.19	1344.56
522.406	831.56
522.621	655.56
522.836	643.56
523.052	596.56
523.267	584.56
523.482	553.56
523.698	591.56
523.913	551.56
524.128	574.56
524.343	549.56
524.559	546.56
524.774	554.56
524.989	527.56
525.204	562.56
525.419	566.56
525.634	542.56
525.849	531.56
526.064	534.56
526.28	517.56
526.495	505.56
526.71	524.56
526.925	528.56
527.14	509.56
527.355	504.56
527.57	538.56
527.785	507.56
527.999	522.56
528.214	515.56
528.429	522.56
528.644	522.56
528.859	529.56
529.074	503.56
529.289	509.56
529.503	603.56
529.718	565.56
529.933	544.56
530.148	517.56
530.363	512.56
530.577	509.56
530.792	485.56
531.007	485.56
531.221	497.56
531.436	479.56
531.651	479.56
531.865	507.56
532.08	479.56
532.295	480.56
532.509	490.56
532.724	507.56
532.938	518.56
533.153	510.56
533.367	513.56
533.582	478.56
533.796	487.56
534.011	492.56
534.225	480.56
534.44	495.56
534.654	480.56
534.868	488.56
535.083	489.56
535.297	489.56
535.511	505.56
535.726	487.56
535.94	488.56
536.154	479.56
536.369	463.56
536.583	471.56
536.797	482.56
537.011	486.56
537.225	497.56
537.44	481.56
537.654	483.56
537.868	464.56
538.082	475.56
538.296	467.56
538.51	476.56
538.724	466.56
538.938	459.56
539.153	462.56
539.367	487.56
539.581	460.56
539.795	479.56
540.009	497.56
540.222	455.56
540.436	478.56
540.65	453.56
540.864	475.56
541.078	483.56
541.292	497.56
541.506	470.56
541.72	466.56
541.934	468.56
542.147	466.56
542.361	469.56
542.575	467.56
542.789	485.56
543.002	496.56
543.216	466.56
543.43	488.56
543.644	486.56
543.857	467.56
544.071	472.56
544.285	482.56
544.498	470.56
544.712	479.56
544.925	472.56
545.139	478.56
545.352	447.56
545.566	461.56
545.779	464.56
545.993	478.56
546.206	482.56
546.42	462.56
546.633	464.56
546.847	479.56
547.06	468.56
547.274	458.56
547.487	472.56
547.7	472.56
547.914	464.56
548.127	457.56
548.34	466.56
548.554	463.56
548.767	467.56
548.98	458.56
549.193	479.56
549.407	488.56
549.62	458.56
549.833	466.56
550.046	453.56
550.259	462.56
550.473	455.56
550.686	450.56
550.899	458.56
551.112	459.56
551.325	447.56
551.538	459.56
551.751	456.56
551.964	450.56
552.177	438.56
552.39	427.56
552.603	466.56
552.816	440.56
553.029	458.56
553.242	461.56
553.455	479.56
553.667	474.56
553.88	474.56
554.093	465.56
554.306	475.56
554.519	463.56
554.732	457.56
554.944	434.56
555.157	450.56
555.37	434.56
555.583	441.56
555.795	437.56
556.008	437.56
556.221	423.56
556.433	442.56
556.646	405.56
556.859	410.56
557.071	429.56
557.284	418.56
557.496	409.56
557.709	417.56
557.921	401.56
558.134	414.56
558.346	388.56
558.559	420.56
558.771	404.56
558.984	405.56
559.196	407.56
559.409	435.56
559.621	404.56
559.833	408.56
560.046	402.56
560.258	404.56
560.47	396.56
560.683	406.56
560.895	382.56
561.107	396.56
561.32	405.56
561.532	407.56
561.744	411.56
561.956	412.56
562.168	401.56
562.381	403.56
562.593	410.56
562.805	415.56
563.017	406.56
563.229	402.56
563.441	384.56
563.653	404.56
563.865	416.56
564.077	411.56
564.289	408.56
564.501	434.56
564.713	423.56
564.925	442.56
565.137	458.56
565.349	444.56
565.561	448.56
565.773	452.56
565.985	460.56
566.197	476.56
566.408	485.56
566.62	504.56
566.832	522.56
567.044	522.56
567.255	545.56
567.467	553.56
567.679	544.56
567.891	575.56
568.102	572.56
568.314	561.56
568.526	535.56
568.737	512.56
568.949	496.56
569.161	464.56
569.372	459.56
569.584	437.56
569.795	420.56
570.007	431.56
570.218	457.56
570.43	426.56
570.641	404.56
570.853	409.56
571.064	416.56
571.276	410.56
571.487	406.56
571.698	408.56
571.91	370.56
572.121	393.56
572.333	378.56
572.544	369.56
572.755	376.56
572.966	374.56
573.178	368.56
573.389	354.56
573.6	365.56
573.811	366.56
574.023	331.56
574.234	345.56
574.445	346.56
574.656	369.56
574.867	347.56
575.078	334.56
575.289	363.56
575.501	363.56
575.712	346.56
575.923	344.56
576.134	347.56
576.345	357.56
576.556	327.56
576.767	340.56
576.978	338.56
577.188	345.56
577.399	348.56
577.61	332.56
577.821	338.56
578.032	342.56
578.243	355.56
578.454	475.56
578.665	417.56
578.875	348.56
579.086	322.56
579.297	353.56
579.508	317.56
579.718	340.56
579.929	332.56
580.14	321.56
580.35	334.56
580.561	320.56
580.772	336.56
580.982	305.56
581.193	319.56
581.403	336.56
581.614	311.56
581.825	306.56
582.035	313.56
582.246	314.56
582.456	317.56
582.667	331.56
582.877	320.56
583.087	311.56
583.298	307.56
583.508	319.56
583.719	300.56
583.929	304.56
584.139	295.56
584.35	292.56
584.56	298.56
584.77	337.56
584.981	313.56
585.191	321.56
585.401	297.56
585.611	305.56
585.821	298.56
586.032	286.56
586.242	296.56
586.452	300.56
586.662	305.56
586.872	283.56
587.082	310.56
587.292	314.56
587.502	312.56
587.713	296.56
587.923	314.56
588.133	304.56
588.343	300.56
588.553	308.56
588.762	306.56
588.972	304.56
589.182	283.56
589.392	314.56
589.602	303.56
589.812	308.56
590.022	298.56
590.232	307.56
590.441	300.56
590.651	324.56
590.861	293.56
591.071	304.56
591.281	303.56
591.49	311.56
591.7	313.56
591.91	324.56
592.119	322.56
592.329	323.56
592.539	319.56
592.748	332.56
592.958	335.56
593.167	336.56
593.377	339.56
593.587	326.56
593.796	343.56
594.006	344.56
594.215	340.56
594.424	344.56
594.634	350.56
594.843	332.56
595.053	321.56
595.262	335.56
595.472	334.56
595.681	331.56
595.89	294.56
596.1	287.56
596.309	303.56
596.518	305.56
596.727	294.56
596.937	289.56
597.146	294.56
597.355	284.56
597.564	303.56
597.774	294.56
597.983	286.56
598.192	279.56
598.401	265.56
598.61	278.56
598.819	292.56
599.028	275.56
599.237	288.56
599.446	280.56
599.655	265.56
599.864	262.56
600.073	263.56
600.282	276.56
600.491	257.56
600.7	263.56
600.909	259.56
601.118	266.56
601.327	265.56
601.536	273.56
601.745	268.56
601.953	277.56
602.162	277.56
602.371	267.56
602.58	265.56
602.789	261.56
602.997	249.56
603.206	259.56
603.415	272.56
603.623	261.56
603.832	277.56
604.041	259.56
604.249	263.56
604.458	248.56
604.666	260.56
604.875	243.56
605.084	247.56
605.292	252.56
605.501	249.56
605.709	254.56
605.918	254.56
606.126	254.56
606.334	262.56
606.543	259.56
606.751	246.56
606.96	244.56
607.168	238.56
607.376	242.56
607.585	233.56
607.793	247.56
608.001	240.56
608.21	244.56
608.418	231.56
608.626	254.56
608.834	256.56
609.043	262.56
609.251	242.56
609.459	248.56
609.667	243.56
609.875	259.56
610.083	246.56
610.291	246.56
610.499	254.56
610.707	261.56
610.916	266.56
611.124	266.56
611.332	259.56
611.54	256.56
611.748	267.56
611.955	248.56
612.163	247.56
612.371	258.56
612.579	241.56
612.787	246.56
612.995	249.56
613.203	251.56
613.411	238.56
613.618	242.56
613.826	249.56
614.034	245.56
614.242	264.56
614.449	234.56
614.657	241.56
614.865	254.56
615.072	254.56
615.28	240.56
615.488	242.56
615.695	232.56
615.903	242.56
616.111	250.56
616.318	243.56
616.526	256.56
616.733	236.56
616.941	226.56
617.148	236.56
617.356	233.56
617.563	235.56
617.771	242.56
617.978	237.56
618.185	239.56
618.393	227.56
618.6	242.56
618.807	228.56
619.015	239.56
619.222	255.56
619.429	239.56
619.637	248.56
619.844	238.56
620.051	228.56
620.258	223.56
620.466	230.56
620.673	229.56
620.88	226.56
621.087	226.56
621.294	217.56
621.501	222.56
621.708	227.56
621.915	231.56
622.122	246.56
622.329	245.56
622.536	230.56
622.743	230.56
622.95	217.56
623.157	220.56
623.364	219.56
623.571	227.56
623.778	228.56
623.985	210.56
624.192	225.56
624.399	231.56
624.606	223.56
624.812	206.56
625.019	226.56
625.226	199.56
625.433	204.56
625.639	222.56
625.846	201.56
626.053	219.56
626.259	222.56
626.466	206.56
626.673	204.56
626.879	187.56
627.086	215.56
627.293	225.56
627.499	219.56
627.706	226.56
627.912	231.56
628.119	204.56
628.325	224.56
628.532	216.56
628.738	203.56
628.945	218.56
629.151	214.56
629.357	194.56
629.564	198.56
629.77	215.56
629.976	198.56
630.183	205.56
630.389	202.56
630.595	191.56
630.802	211.56
631.008	230.56
631.214	212.56
631.42	191.56
631.627	203.56
631.833	191.56
632.039	180.56
632.245	186.56
632.451	200.56
632.657	194.56
632.863	190.56
633.069	192.56
633.275	196.56
633.481	184.56
633.688	192.56
633.893	199.56
634.099	181.56
634.305	184.56
634.511	189.56
634.717	194.56
634.923	183.56
635.129	190.56
635.335	190.56
635.541	197.56
635.747	209.56
635.952	182.56
636.158	184.56
636.364	174.56
636.57	176.56
636.775	187.56
636.981	181.56
637.187	190.56
637.392	193.56
637.598	174.56
637.804	175.56
638.009	178.56
638.215	186.56
638.421	174.56
638.626	187.56
638.832	175.56
639.037	177.56
639.243	191.56
639.448	161.56
639.654	181.56
639.859	179.56
640.065	188.56
640.27	178.56
640.475	175.56
640.681	184.56
640.886	190.56
641.091	192.56
641.297	185.56
641.502	166.56
641.707	183.56
641.913	169.56
642.118	163.56
642.323	165.56
642.528	168.56
642.733	174.56
642.939	180.56
643.144	170.56
643.349	185.56
643.554	170.56
643.759	170.56
643.964	157.56
644.169	167.56
644.374	163.56
644.579	170.56
644.784	171.56
644.989	175.56
645.194	179.56
645.399	170.56
645.604	172.56
645.809	182.56
646.014	168.56
646.219	142.56
646.423	179.56
646.628	175.56
646.833	171.56
647.038	166.56
647.243	167.56
647.447	185.56
647.652	164.56
647.857	178.56
648.062	177.56
648.266	164.56
648.471	166.56
648.676	166.56
648.88	169.56
649.085	174.56
649.289	167.56
649.494	161.56
649.698	191.56
649.903	199.56
650.107	179.56
650.312	175.56
650.516	169.56
650.721	161.56
650.925	160.56
651.13	159.56
651.334	161.56
651.539	148.56
651.743	163.56
651.947	156.56
652.152	174.56
652.356	150.56
652.56	154.56
652.764	145.56
652.969	151.56
653.173	157.56
653.377	148.56
653.581	132.56
653.785	159.56
653.99	136.56
654.194	146.56
654.398	142.56
654.602	130.56
654.806	137.56
655.01	144.56
655.214	147.56
655.418	152.56
655.622	130.56
655.826	132.56
656.03	151.56
656.234	148.56
656.438	126.56
656.642	132.56
656.846	134.56
657.049	135.56
657.253	133.56
657.457	123.56
657.661	127.56
657.865	121.56
658.068	93.56
658.272	91.56
658.476	112.56
658.68	119.56
658.883	111.56
659.087	93.56
659.291	106.56
659.494	87.56
659.698	93.56
659.901	90.56
660.105	98.56
660.309	90.56
660.512	85.56
660.716	91.56
660.919	95.56
661.123	86.56
661.326	86.56
661.53	83.56
661.733	94.56
661.936	81.56
662.14	80.56
662.343	78.56
662.546	95.56
662.75	79.56
662.953	77.56
663.156	93.56
663.36	91.56
663.563	84.56
663.766	84.56
663.969	91.56
664.173	84.56
664.376	79.56
664.579	63.56
664.782	69.56
664.985	92.56
665.188	77.56
665.391	83.56
665.594	93.56
665.797	86.56
666	70.56
666.203	73.56
666.406	76.56
666.609	68.56
666.812	74.56
667.015	69.56
667.218	88.56
667.421	91.56
667.624	87.56
667.827	82.56
668.03	78.56
668.232	74.56
668.435	75.56
668.638	81.56
668.841	75.56
669.043	78.56
669.246	88.56
669.449	76.56
669.651	83.56
669.854	78.56
670.057	83.56
670.259	82.56
670.462	102.56
670.665	84.56
670.867	79.56
671.07	65.56
671.272	90.56
671.475	87.56
671.677	87.56
671.88	70.56
672.082	84.56
672.284	83.56
672.487	81.56
672.689	76.56
672.892	73.56
