Data from 1976.PennyLincolnUp.Lamp.En5.5.200Scan.071719.P1.Changed Mount._HRD10591_16-01-28-862.txt Node
Date: Thu Jul 18 16:01:28 EDT 2019
User: cochatt
Spectrometer: HR+D1059
Trigger mode: 1
Integration Time (sec): 1.000000E-1
Scans to average: 1
Electric dark correction enabled: true
Nonlinearity correction enabled: false
Boxcar width: 0
XAxis mode: Wavelengths
Number of Pixels in Spectrum: 2048
>>>>>Begin Spectral Data<<<<<
223.165	-24.62
223.4	-24.62
223.635	-24.62
223.869	-20.62
224.104	-13.62
224.338	-8.62
224.573	-12.62
224.808	-3.62
225.042	-8.62
225.277	-8.62
225.511	-4.62
225.746	0.38
225.98	5.38
226.215	18.38
226.449	15.38
226.683	13.38
226.918	27.38
227.152	25.38
227.387	35.38
227.621	49.38
227.856	33.38
228.09	42.38
228.324	29.38
228.559	53.38
228.793	71.38
229.027	99.38
229.262	127.38
229.496	101.38
229.73	125.38
229.964	154.38
230.199	121.38
230.433	125.38
230.667	100.38
230.901	115.38
231.136	105.38
231.37	96.38
231.604	107.38
231.838	129.38
232.072	109.38
232.306	117.38
232.541	123.38
232.775	106.38
233.009	113.38
233.243	122.38
233.477	117.38
233.711	135.38
233.945	120.38
234.179	117.38
234.413	118.38
234.647	128.38
234.881	124.38
235.115	113.38
235.349	127.38
235.583	112.38
235.817	119.38
236.051	121.38
236.285	123.38
236.519	141.38
236.753	121.38
236.987	141.38
237.221	171.38
237.455	222.38
237.689	188.38
237.922	151.38
238.156	130.38
238.39	139.38
238.624	122.38
238.858	142.38
239.091	126.38
239.325	138.38
239.559	124.38
239.793	131.38
240.027	137.38
240.26	133.38
240.494	150.38
240.728	151.38
240.961	153.38
241.195	153.38
241.429	147.38
241.662	137.38
241.896	159.38
242.13	130.38
242.363	137.38
242.597	139.38
242.83	153.38
243.064	156.38
243.298	135.38
243.531	142.38
243.765	135.38
243.998	146.38
244.232	158.38
244.465	147.38
244.699	124.38
244.932	131.38
245.166	156.38
245.399	152.38
245.633	159.38
245.866	170.38
246.099	153.38
246.333	139.38
246.566	150.38
246.8	171.38
247.033	167.38
247.266	146.38
247.5	175.38
247.733	173.38
247.966	183.38
248.2	174.38
248.433	170.38
248.666	179.38
248.899	193.38
249.133	205.38
249.366	209.38
249.599	189.38
249.832	195.38
250.066	174.38
250.299	198.38
250.532	185.38
250.765	207.38
250.998	234.38
251.231	232.38
251.465	226.38
251.698	222.38
251.931	221.38
252.164	206.38
252.397	216.38
252.63	213.38
252.863	201.38
253.096	214.38
253.329	242.38
253.562	225.38
253.795	219.38
254.028	238.38
254.261	214.38
254.494	246.38
254.727	255.38
254.96	281.38
255.193	276.38
255.426	267.38
255.659	243.38
255.892	253.38
256.124	228.38
256.357	236.38
256.59	219.38
256.823	217.38
257.056	223.38
257.289	224.38
257.521	227.38
257.754	228.38
257.987	219.38
258.22	224.38
258.452	217.38
258.685	225.38
258.918	224.38
259.151	229.38
259.383	210.38
259.616	224.38
259.849	241.38
260.081	246.38
260.314	245.38
260.547	279.38
260.779	253.38
261.012	240.38
261.244	241.38
261.477	244.38
261.71	237.38
261.942	246.38
262.175	247.38
262.407	252.38
262.64	232.38
262.872	216.38
263.105	218.38
263.337	237.38
263.57	233.38
263.802	224.38
264.035	229.38
264.267	226.38
264.499	234.38
264.732	213.38
264.964	233.38
265.197	237.38
265.429	223.38
265.661	222.38
265.894	243.38
266.126	239.38
266.358	212.38
266.591	232.38
266.823	253.38
267.055	241.38
267.287	245.38
267.52	235.38
267.752	245.38
267.984	259.38
268.216	234.38
268.448	234.38
268.681	267.38
268.913	274.38
269.145	295.38
269.377	308.38
269.609	279.38
269.841	291.38
270.073	289.38
270.306	325.38
270.538	321.38
270.77	338.38
271.002	319.38
271.234	305.38
271.466	293.38
271.698	331.38
271.93	346.38
272.162	327.38
272.394	315.38
272.626	320.38
272.858	311.38
273.09	292.38
273.322	298.38
273.553	273.38
273.785	283.38
274.017	280.38
274.249	283.38
274.481	284.38
274.713	287.38
274.945	293.38
275.176	284.38
275.408	286.38
275.64	276.38
275.872	293.38
276.104	294.38
276.335	264.38
276.567	277.38
276.799	319.38
277.031	321.38
277.262	330.38
277.494	336.38
277.726	339.38
277.957	323.38
278.189	320.38
278.421	297.38
278.652	313.38
278.884	300.38
279.115	307.38
279.347	309.38
279.579	288.38
279.81	290.38
280.042	303.38
280.273	300.38
280.505	294.38
280.736	295.38
280.968	285.38
281.199	302.38
281.431	290.38
281.662	279.38
281.894	294.38
282.125	306.38
282.356	315.38
282.588	328.38
282.819	335.38
283.051	297.38
283.282	299.38
283.513	293.38
283.745	278.38
283.976	317.38
284.207	305.38
284.439	302.38
284.67	294.38
284.901	316.38
285.132	307.38
285.364	297.38
285.595	300.38
285.826	287.38
286.057	308.38
286.288	313.38
286.52	318.38
286.751	323.38
286.982	305.38
287.213	332.38
287.444	305.38
287.675	319.38
287.906	337.38
288.138	346.38
288.369	323.38
288.6	339.38
288.831	346.38
289.062	334.38
289.293	317.38
289.524	322.38
289.755	309.38
289.986	337.38
290.217	345.38
290.448	318.38
290.679	305.38
290.91	318.38
291.141	312.38
291.371	339.38
291.602	327.38
291.833	321.38
292.064	329.38
292.295	323.38
292.526	325.38
292.757	309.38
292.987	332.38
293.218	320.38
293.449	325.38
293.68	321.38
293.91	310.38
294.141	343.38
294.372	314.38
294.603	300.38
294.833	313.38
295.064	339.38
295.295	335.38
295.525	338.38
295.756	342.38
295.987	342.38
296.217	348.38
296.448	363.38
296.679	353.38
296.909	346.38
297.14	328.38
297.37	335.38
297.601	327.38
297.831	345.38
298.062	347.38
298.292	335.38
298.523	332.38
298.753	329.38
298.984	337.38
299.214	364.38
299.445	334.38
299.675	363.38
299.905	339.38
300.136	349.38
300.366	333.38
300.597	342.38
300.827	334.38
301.057	346.38
301.288	355.38
301.518	351.38
301.748	352.38
301.979	349.38
302.209	362.38
302.439	365.38
302.669	368.38
302.9	358.38
303.13	353.38
303.36	359.38
303.59	363.38
303.82	374.38
304.051	378.38
304.281	345.38
304.511	351.38
304.741	361.38
304.971	333.38
305.201	364.38
305.431	353.38
305.661	374.38
305.891	348.38
306.121	353.38
306.352	373.38
306.582	359.38
306.812	359.38
307.042	357.38
307.272	350.38
307.502	371.38
307.731	362.38
307.961	360.38
308.191	357.38
308.421	348.38
308.651	357.38
308.881	362.38
309.111	360.38
309.341	377.38
309.571	369.38
309.8	401.38
310.03	391.38
310.26	382.38
310.49	388.38
310.72	397.38
310.949	420.38
311.179	427.38
311.409	409.38
311.639	432.38
311.868	410.38
312.098	403.38
312.328	413.38
312.557	415.38
312.787	430.38
313.017	408.38
313.246	411.38
313.476	425.38
313.706	415.38
313.935	393.38
314.165	420.38
314.394	417.38
314.624	426.38
314.853	445.38
315.083	415.38
315.312	410.38
315.542	402.38
315.771	402.38
316.001	382.38
316.23	412.38
316.46	402.38
316.689	413.38
316.919	406.38
317.148	422.38
317.377	412.38
317.607	432.38
317.836	405.38
318.065	421.38
318.295	411.38
318.524	390.38
318.753	396.38
318.983	427.38
319.212	405.38
319.441	402.38
319.67	391.38
319.9	411.38
320.129	403.38
320.358	402.38
320.587	425.38
320.816	409.38
321.046	428.38
321.275	429.38
321.504	423.38
321.733	441.38
321.962	431.38
322.191	448.38
322.42	439.38
322.649	461.38
322.878	459.38
323.108	477.38
323.337	494.38
323.566	518.38
323.795	520.38
324.024	572.38
324.253	640.38
324.482	877.38
324.71	1405.38
324.939	2039.38
325.168	1784.38
325.397	917.38
325.626	626.38
325.855	533.38
326.084	511.38
326.313	521.38
326.542	494.38
326.77	545.38
326.999	641.38
327.228	828.38
327.457	1265.38
327.686	1523.38
327.914	1002.38
328.143	671.38
328.372	609.38
328.6	567.38
328.829	541.38
329.058	547.38
329.287	567.38
329.515	545.38
329.744	493.38
329.972	521.38
330.201	547.38
330.43	573.38
330.658	581.38
330.887	615.38
331.115	626.38
331.344	547.38
331.572	537.38
331.801	532.38
332.03	547.38
332.258	518.38
332.486	496.38
332.715	497.38
332.943	504.38
333.172	481.38
333.4	492.38
333.629	526.38
333.857	533.38
334.085	524.38
334.314	545.38
334.542	556.38
334.771	595.38
334.999	545.38
335.227	522.38
335.455	535.38
335.684	472.38
335.912	472.38
336.14	497.38
336.369	484.38
336.597	487.38
336.825	509.38
337.053	497.38
337.281	461.38
337.51	478.38
337.738	476.38
337.966	466.38
338.194	494.38
338.422	470.38
338.65	479.38
338.878	475.38
339.106	460.38
339.334	480.38
339.562	475.38
339.79	484.38
340.018	459.38
340.246	468.38
340.474	467.38
340.702	467.38
340.93	471.38
341.158	446.38
341.386	471.38
341.614	454.38
341.842	463.38
342.07	458.38
342.298	457.38
342.526	427.38
342.754	444.38
342.981	446.38
343.209	447.38
343.437	457.38
343.665	465.38
343.893	479.38
344.12	473.38
344.348	493.38
344.576	492.38
344.804	481.38
345.031	467.38
345.259	492.38
345.487	471.38
345.714	449.38
345.942	452.38
346.17	446.38
346.397	437.38
346.625	429.38
346.853	467.38
347.08	464.38
347.308	450.38
347.535	471.38
347.763	455.38
347.99	453.38
348.218	468.38
348.445	446.38
348.673	459.38
348.9	451.38
349.128	425.38
349.355	446.38
349.583	428.38
349.81	419.38
350.037	439.38
350.265	444.38
350.492	440.38
350.72	442.38
350.947	452.38
351.174	434.38
351.402	444.38
351.629	446.38
351.856	444.38
352.083	440.38
352.311	459.38
352.538	455.38
352.765	432.38
352.992	456.38
353.22	438.38
353.447	421.38
353.674	434.38
353.901	413.38
354.128	443.38
354.355	420.38
354.583	413.38
354.81	424.38
355.037	420.38
355.264	435.38
355.491	417.38
355.718	422.38
355.945	412.38
356.172	417.38
356.399	435.38
356.626	404.38
356.853	440.38
357.08	421.38
357.307	409.38
357.534	414.38
357.761	413.38
357.988	427.38
358.215	398.38
358.441	416.38
358.668	432.38
358.895	436.38
359.122	433.38
359.349	415.38
359.576	433.38
359.802	453.38
360.029	469.38
360.256	481.38
360.483	485.38
360.709	446.38
360.936	461.38
361.163	444.38
361.39	444.38
361.616	457.38
361.843	429.38
362.07	443.38
362.296	436.38
362.523	452.38
362.749	445.38
362.976	427.38
363.203	441.38
363.429	426.38
363.656	449.38
363.882	403.38
364.109	421.38
364.335	427.38
364.562	451.38
364.788	426.38
365.015	433.38
365.241	437.38
365.468	418.38
365.694	441.38
365.92	441.38
366.147	426.38
366.373	429.38
366.599	426.38
366.826	433.38
367.052	421.38
367.278	417.38
367.505	420.38
367.731	435.38
367.957	414.38
368.184	426.38
368.41	436.38
368.636	437.38
368.862	431.38
369.089	446.38
369.315	432.38
369.541	431.38
369.767	430.38
369.993	415.38
370.219	407.38
370.445	436.38
370.672	419.38
370.898	407.38
371.124	426.38
371.35	445.38
371.576	430.38
371.802	427.38
372.028	406.38
372.254	421.38
372.48	424.38
372.706	437.38
372.932	432.38
373.158	435.38
373.384	415.38
373.61	427.38
373.835	433.38
374.061	439.38
374.287	438.38
374.513	427.38
374.739	447.38
374.965	446.38
375.191	452.38
375.416	430.38
375.642	447.38
375.868	426.38
376.094	425.38
376.319	434.38
376.545	421.38
376.771	428.38
376.997	452.38
377.222	434.38
377.448	428.38
377.674	433.38
377.899	443.38
378.125	453.38
378.35	435.38
378.576	417.38
378.802	429.38
379.027	429.38
379.253	434.38
379.478	446.38
379.704	442.38
379.929	448.38
380.155	438.38
380.38	441.38
380.606	435.38
380.831	443.38
381.057	445.38
381.282	434.38
381.507	438.38
381.733	443.38
381.958	433.38
382.184	445.38
382.409	430.38
382.634	454.38
382.86	465.38
383.085	447.38
383.31	458.38
383.535	473.38
383.761	424.38
383.986	453.38
384.211	472.38
384.436	468.38
384.662	471.38
384.887	474.38
385.112	461.38
385.337	455.38
385.562	478.38
385.787	484.38
386.013	514.38
386.238	475.38
386.463	487.38
386.688	466.38
386.913	468.38
387.138	472.38
387.363	493.38
387.588	497.38
387.813	478.38
388.038	490.38
388.263	497.38
388.488	473.38
388.713	471.38
388.938	486.38
389.163	496.38
389.387	487.38
389.612	467.38
389.837	473.38
390.062	480.38
390.287	462.38
390.512	484.38
390.736	499.38
390.961	490.38
391.186	480.38
391.411	511.38
391.636	478.38
391.86	486.38
392.085	501.38
392.31	513.38
392.534	498.38
392.759	499.38
392.984	498.38
393.208	485.38
393.433	486.38
393.658	488.38
393.882	481.38
394.107	485.38
394.331	483.38
394.556	483.38
394.78	494.38
395.005	509.38
395.229	505.38
395.454	512.38
395.678	499.38
395.903	524.38
396.127	549.38
396.352	540.38
396.576	501.38
396.801	536.38
397.025	526.38
397.249	520.38
397.474	515.38
397.698	524.38
397.922	527.38
398.147	563.38
398.371	547.38
398.595	579.38
398.82	545.38
399.044	554.38
399.268	599.38
399.492	634.38
399.717	673.38
399.941	722.38
400.165	718.38
400.389	726.38
400.613	643.38
400.837	588.38
401.062	582.38
401.286	549.38
401.51	548.38
401.734	565.38
401.958	544.38
402.182	580.38
402.406	537.38
402.63	577.38
402.854	561.38
403.078	574.38
403.302	604.38
403.526	592.38
403.75	573.38
403.974	589.38
404.198	571.38
404.422	595.38
404.645	618.38
404.869	602.38
405.093	640.38
405.317	666.38
405.541	696.38
405.765	632.38
405.988	599.38
406.212	645.38
406.436	607.38
406.66	653.38
406.883	637.38
407.107	645.38
407.331	687.38
407.555	759.38
407.778	764.38
408.002	715.38
408.226	635.38
408.449	654.38
408.673	644.38
408.896	673.38
409.12	711.38
409.344	661.38
409.567	645.38
409.791	592.38
410.014	590.38
410.238	595.38
410.461	579.38
410.685	599.38
410.908	629.38
411.132	640.38
411.355	662.38
411.578	651.38
411.802	618.38
412.025	576.38
412.249	588.38
412.472	609.38
412.695	659.38
412.919	639.38
413.142	591.38
413.365	584.38
413.589	562.38
413.812	580.38
414.035	568.38
414.258	555.38
414.482	557.38
414.705	551.38
414.928	543.38
415.151	549.38
415.374	555.38
415.597	532.38
415.821	531.38
416.044	567.38
416.267	566.38
416.49	548.38
416.713	535.38
416.936	561.38
417.159	553.38
417.382	535.38
417.605	590.38
417.828	558.38
418.051	584.38
418.274	566.38
418.497	558.38
418.72	559.38
418.943	569.38
419.166	583.38
419.389	611.38
419.611	610.38
419.834	581.38
420.057	592.38
420.28	597.38
420.503	597.38
420.726	576.38
420.948	567.38
421.171	621.38
421.394	672.38
421.617	586.38
421.839	559.38
422.062	573.38
422.285	575.38
422.507	629.38
422.73	729.38
422.953	720.38
423.175	633.38
423.398	599.38
423.621	610.38
423.843	634.38
424.066	632.38
424.288	638.38
424.511	616.38
424.733	693.38
424.956	771.38
425.178	760.38
425.401	723.38
425.623	747.38
425.846	648.38
426.068	610.38
426.291	608.38
426.513	601.38
426.735	600.38
426.958	639.38
427.18	726.38
427.402	844.38
427.625	984.38
427.847	831.38
428.069	712.38
428.292	643.38
428.514	602.38
428.736	563.38
428.958	579.38
429.181	566.38
429.403	534.38
429.625	551.38
429.847	602.38
430.069	651.38
430.292	669.38
430.514	572.38
430.736	557.38
430.958	552.38
431.18	562.38
431.402	531.38
431.624	541.38
431.846	547.38
432.068	541.38
432.29	524.38
432.512	523.38
432.734	529.38
432.956	534.38
433.178	541.38
433.4	539.38
433.622	539.38
433.844	536.38
434.066	537.38
434.287	539.38
434.509	543.38
434.731	560.38
434.953	564.38
435.175	579.38
435.397	605.38
435.618	604.38
435.84	660.38
436.062	735.38
436.284	797.38
436.505	699.38
436.727	609.38
436.949	579.38
437.17	582.38
437.392	551.38
437.614	587.38
437.835	599.38
438.057	681.38
438.278	789.38
438.5	769.38
438.721	877.38
438.943	825.38
439.165	687.38
439.386	625.38
439.608	598.38
439.829	609.38
440.05	635.38
440.272	679.38
440.493	635.38
440.715	610.38
440.936	591.38
441.158	568.38
441.379	574.38
441.6	574.38
441.822	608.38
442.043	646.38
442.264	743.38
442.486	798.38
442.707	703.38
442.928	626.38
443.149	627.38
443.371	620.38
443.592	689.38
443.813	776.38
444.034	839.38
444.255	708.38
444.476	646.38
444.698	643.38
444.919	630.38
445.14	748.38
445.361	723.38
445.582	670.38
445.803	724.38
446.024	829.38
446.245	818.38
446.466	751.38
446.687	663.38
446.908	599.38
447.129	569.38
447.35	563.38
447.571	557.38
447.792	565.38
448.013	547.38
448.234	569.38
448.455	635.38
448.675	738.38
448.896	854.38
449.117	707.38
449.338	670.38
449.559	803.38
449.779	917.38
450	707.38
450.221	590.38
450.442	557.38
450.662	538.38
450.883	552.38
451.104	553.38
451.324	548.38
451.545	511.38
451.766	521.38
451.986	505.38
452.207	476.38
452.428	490.38
452.648	491.38
452.869	483.38
453.089	506.38
453.31	522.38
453.53	487.38
453.751	489.38
453.971	507.38
454.192	499.38
454.412	483.38
454.633	477.38
454.853	463.38
455.073	495.38
455.294	528.38
455.514	579.38
455.734	573.38
455.955	493.38
456.175	456.38
456.395	451.38
456.616	461.38
456.836	472.38
457.056	458.38
457.276	457.38
457.497	477.38
457.717	460.38
457.937	470.38
458.157	482.38
458.377	467.38
458.598	483.38
458.818	553.38
459.038	635.38
459.258	663.38
459.478	589.38
459.698	539.38
459.918	545.38
460.138	532.38
460.358	572.38
460.578	541.38
460.798	555.38
461.018	583.38
461.238	547.38
461.458	555.38
461.678	541.38
461.898	538.38
462.118	552.38
462.338	586.38
462.558	612.38
462.777	589.38
462.997	627.38
463.217	638.38
463.437	632.38
463.657	631.38
463.876	608.38
464.096	609.38
464.316	590.38
464.536	607.38
464.755	605.38
464.975	587.38
465.195	609.38
465.414	660.38
465.634	593.38
465.854	557.38
466.073	535.38
466.293	534.38
466.512	490.38
466.732	502.38
466.951	521.38
467.171	532.38
467.391	532.38
467.61	489.38
467.829	511.38
468.049	490.38
468.268	524.38
468.488	471.38
468.707	487.38
468.927	489.38
469.146	497.38
469.365	492.38
469.585	501.38
469.804	506.38
470.023	503.38
470.243	530.38
470.462	517.38
470.681	524.38
470.901	542.38
471.12	528.38
471.339	538.38
471.558	526.38
471.777	507.38
471.997	497.38
472.216	499.38
472.435	532.38
472.654	517.38
472.873	514.38
473.092	506.38
473.311	504.38
473.53	521.38
473.749	516.38
473.968	552.38
474.187	662.38
474.406	652.38
474.625	561.38
474.844	517.38
475.063	521.38
475.282	522.38
475.501	511.38
475.72	534.38
475.939	552.38
476.158	514.38
476.377	527.38
476.596	541.38
476.814	541.38
477.033	547.38
477.252	557.38
477.471	548.38
477.69	577.38
477.908	548.38
478.127	554.38
478.346	565.38
478.564	571.38
478.783	576.38
479.002	590.38
479.22	598.38
479.439	632.38
479.658	623.38
479.876	623.38
480.095	622.38
480.313	631.38
480.532	623.38
480.751	613.38
480.969	652.38
481.188	653.38
481.406	709.38
481.624	656.38
481.843	628.38
482.061	615.38
482.28	600.38
482.498	597.38
482.717	590.38
482.935	618.38
483.153	581.38
483.372	617.38
483.59	592.38
483.808	602.38
484.027	617.38
484.245	603.38
484.463	590.38
484.681	620.38
484.9	602.38
485.118	610.38
485.336	615.38
485.554	627.38
485.772	614.38
485.99	607.38
486.209	599.38
486.427	610.38
486.645	622.38
486.863	620.38
487.081	628.38
487.299	647.38
487.517	659.38
487.735	641.38
487.953	632.38
488.171	631.38
488.389	637.38
488.607	637.38
488.825	634.38
489.043	629.38
489.261	647.38
489.479	656.38
489.696	667.38
489.914	661.38
490.132	652.38
490.35	698.38
490.568	662.38
490.786	677.38
491.003	697.38
491.221	699.38
491.439	702.38
491.657	698.38
491.874	717.38
492.092	732.38
492.31	746.38
492.527	725.38
492.745	729.38
492.963	740.38
493.18	736.38
493.398	755.38
493.615	765.38
493.833	768.38
494.05	738.38
494.268	756.38
494.485	727.38
494.703	790.38
494.92	765.38
495.138	739.38
495.355	746.38
495.573	769.38
495.79	751.38
496.008	750.38
496.225	747.38
496.442	752.38
496.66	768.38
496.877	754.38
497.094	751.38
497.312	777.38
497.529	778.38
497.746	758.38
497.963	792.38
498.181	846.38
498.398	863.38
498.615	875.38
498.832	873.38
499.049	883.38
499.267	941.38
499.484	969.38
499.701	1034.38
499.918	1063.38
500.135	1141.38
500.352	1197.38
500.569	1275.38
500.786	1243.38
501.003	1199.38
501.22	1182.38
501.437	1067.38
501.654	1056.38
501.871	1025.38
502.088	968.38
502.305	938.38
502.522	885.38
502.739	867.38
502.956	831.38
503.172	791.38
503.389	819.38
503.606	799.38
503.823	781.38
504.04	802.38
504.256	784.38
504.473	767.38
504.69	780.38
504.907	791.38
505.123	763.38
505.34	758.38
505.557	731.38
505.773	730.38
505.99	728.38
506.207	755.38
506.423	731.38
506.64	707.38
506.856	716.38
507.073	711.38
507.289	719.38
507.506	694.38
507.722	707.38
507.939	707.38
508.155	651.38
508.372	686.38
508.588	675.38
508.805	675.38
509.021	687.38
509.238	693.38
509.454	696.38
509.67	681.38
509.887	684.38
510.103	638.38
510.319	698.38
510.536	714.38
510.752	1109.38
510.968	917.38
511.184	675.38
511.401	665.38
511.617	614.38
511.833	633.38
512.049	641.38
512.265	641.38
512.481	621.38
512.698	629.38
512.914	630.38
513.13	632.38
513.346	638.38
513.562	623.38
513.778	621.38
513.994	629.38
514.21	645.38
514.426	646.38
514.642	677.38
514.858	700.38
515.074	744.38
515.29	814.38
515.506	1124.38
515.721	960.38
515.937	735.38
516.153	675.38
516.369	686.38
516.585	691.38
516.801	669.38
517.016	656.38
517.232	682.38
517.448	688.38
517.664	695.38
517.879	689.38
518.095	687.38
518.311	682.38
518.527	665.38
518.742	672.38
518.958	644.38
519.173	641.38
519.389	646.38
519.605	615.38
519.82	639.38
520.036	633.38
520.251	659.38
520.467	662.38
520.682	668.38
520.898	678.38
521.113	693.38
521.329	713.38
521.544	789.38
521.76	916.38
521.975	1420.38
522.19	1373.38
522.406	819.38
522.621	651.38
522.836	625.38
523.052	622.38
523.267	597.38
523.482	574.38
523.698	549.38
523.913	565.38
524.128	569.38
524.343	551.38
524.559	549.38
524.774	564.38
524.989	543.38
525.204	550.38
525.419	556.38
525.634	571.38
525.849	551.38
526.064	531.38
526.28	550.38
526.495	517.38
526.71	523.38
526.925	516.38
527.14	513.38
527.355	508.38
527.57	525.38
527.785	520.38
527.999	518.38
528.214	536.38
528.429	550.38
528.644	531.38
528.859	540.38
529.074	542.38
529.289	571.38
529.503	602.38
529.718	574.38
529.933	563.38
530.148	515.38
530.363	543.38
530.577	538.38
530.792	523.38
531.007	530.38
531.221	507.38
531.436	502.38
531.651	491.38
531.865	489.38
532.08	494.38
532.295	501.38
532.509	500.38
532.724	501.38
532.938	518.38
533.153	532.38
533.367	483.38
533.582	511.38
533.796	517.38
534.011	490.38
534.225	530.38
534.44	508.38
534.654	505.38
534.868	495.38
535.083	491.38
535.297	516.38
535.511	513.38
535.726	526.38
535.94	501.38
536.154	488.38
536.369	494.38
536.583	488.38
536.797	487.38
537.011	496.38
537.225	487.38
537.44	503.38
537.654	477.38
537.868	477.38
538.082	492.38
538.296	484.38
538.51	505.38
538.724	506.38
538.938	490.38
539.153	486.38
539.367	490.38
539.581	486.38
539.795	468.38
540.009	460.38
540.222	455.38
540.436	473.38
540.65	491.38
540.864	499.38
541.078	488.38
541.292	495.38
541.506	477.38
541.72	485.38
541.934	493.38
542.147	467.38
542.361	474.38
542.575	476.38
542.789	474.38
543.002	485.38
543.216	489.38
543.43	487.38
543.644	506.38
543.857	471.38
544.071	490.38
544.285	481.38
544.498	470.38
544.712	486.38
544.925	481.38
545.139	495.38
545.352	491.38
545.566	465.38
545.779	469.38
545.993	493.38
546.206	482.38
546.42	481.38
546.633	469.38
546.847	487.38
547.06	468.38
547.274	484.38
547.487	467.38
547.7	467.38
547.914	469.38
548.127	482.38
548.34	482.38
548.554	475.38
548.767	456.38
548.98	482.38
549.193	484.38
549.407	466.38
549.62	489.38
549.833	470.38
550.046	467.38
550.259	470.38
550.473	473.38
550.686	462.38
550.899	464.38
551.112	455.38
551.325	467.38
551.538	443.38
551.751	467.38
551.964	484.38
552.177	483.38
552.39	470.38
552.603	468.38
552.816	479.38
553.029	478.38
553.242	483.38
553.455	475.38
553.667	493.38
553.88	488.38
554.093	490.38
554.306	472.38
554.519	479.38
554.732	473.38
554.944	459.38
555.157	447.38
555.37	462.38
555.583	456.38
555.795	458.38
556.008	449.38
556.221	443.38
556.433	417.38
556.646	409.38
556.859	426.38
557.071	423.38
557.284	430.38
557.496	434.38
557.709	435.38
557.921	415.38
558.134	420.38
558.346	440.38
558.559	408.38
558.771	412.38
558.984	410.38
559.196	404.38
559.409	405.38
559.621	421.38
559.833	415.38
560.046	407.38
560.258	412.38
560.47	418.38
560.683	407.38
560.895	412.38
561.107	413.38
561.32	401.38
561.532	419.38
561.744	422.38
561.956	418.38
562.168	415.38
562.381	413.38
562.593	407.38
562.805	434.38
563.017	435.38
563.229	433.38
563.441	422.38
563.653	415.38
563.865	422.38
564.077	409.38
564.289	428.38
564.501	418.38
564.713	422.38
564.925	429.38
565.137	441.38
565.349	457.38
565.561	452.38
565.773	461.38
565.985	472.38
566.197	484.38
566.408	515.38
566.62	500.38
566.832	526.38
567.044	533.38
567.255	543.38
567.467	558.38
567.679	550.38
567.891	582.38
568.102	584.38
568.314	565.38
568.526	551.38
568.737	521.38
568.949	496.38
569.161	467.38
569.372	451.38
569.584	442.38
569.795	433.38
570.007	431.38
570.218	451.38
570.43	455.38
570.641	414.38
570.853	433.38
571.064	428.38
571.276	408.38
571.487	402.38
571.698	412.38
571.91	392.38
572.121	382.38
572.333	370.38
572.544	379.38
572.755	371.38
572.966	366.38
573.178	365.38
573.389	378.38
573.6	375.38
573.811	365.38
574.023	367.38
574.234	355.38
574.445	361.38
574.656	361.38
574.867	371.38
575.078	349.38
575.289	369.38
575.501	373.38
575.712	353.38
575.923	360.38
576.134	347.38
576.345	362.38
576.556	347.38
576.767	336.38
576.978	354.38
577.188	347.38
577.399	346.38
577.61	358.38
577.821	353.38
578.032	343.38
578.243	381.38
578.454	523.38
578.665	395.38
578.875	324.38
579.086	339.38
579.297	354.38
579.508	331.38
579.718	328.38
579.929	324.38
580.14	320.38
580.35	317.38
580.561	325.38
580.772	337.38
580.982	323.38
581.193	341.38
581.403	336.38
581.614	331.38
581.825	341.38
582.035	320.38
582.246	317.38
582.456	322.38
582.667	319.38
582.877	330.38
583.087	315.38
583.298	315.38
583.508	327.38
583.719	319.38
583.929	318.38
584.139	340.38
584.35	337.38
584.56	334.38
584.77	319.38
584.981	324.38
585.191	316.38
585.401	297.38
585.611	317.38
585.821	321.38
586.032	330.38
586.242	309.38
586.452	322.38
586.662	303.38
586.872	316.38
587.082	289.38
587.292	317.38
587.502	315.38
587.713	304.38
587.923	302.38
588.133	321.38
588.343	311.38
588.553	310.38
588.762	303.38
588.972	307.38
589.182	318.38
589.392	313.38
589.602	312.38
589.812	312.38
590.022	310.38
590.232	322.38
590.441	320.38
590.651	301.38
590.861	317.38
591.071	324.38
591.281	302.38
591.49	300.38
591.7	323.38
591.91	326.38
592.119	313.38
592.329	329.38
592.539	342.38
592.748	347.38
592.958	332.38
593.167	339.38
593.377	341.38
593.587	359.38
593.796	357.38
594.006	356.38
594.215	357.38
594.424	352.38
594.634	349.38
594.843	333.38
595.053	328.38
595.262	325.38
595.472	325.38
595.681	333.38
595.89	306.38
596.1	309.38
596.309	303.38
596.518	284.38
596.727	319.38
596.937	297.38
597.146	279.38
597.355	299.38
597.564	277.38
597.774	274.38
597.983	293.38
598.192	289.38
598.401	285.38
598.61	285.38
598.819	289.38
599.028	261.38
599.237	279.38
599.446	260.38
599.655	279.38
599.864	280.38
600.073	285.38
600.282	288.38
600.491	287.38
600.7	282.38
600.909	281.38
601.118	271.38
601.327	269.38
601.536	289.38
601.745	263.38
601.953	258.38
602.162	274.38
602.371	269.38
602.58	259.38
602.789	271.38
602.997	273.38
603.206	269.38
603.415	264.38
603.623	274.38
603.832	277.38
604.041	249.38
604.249	248.38
604.458	269.38
604.666	256.38
604.875	257.38
605.084	246.38
605.292	271.38
605.501	277.38
605.709	272.38
605.918	261.38
606.126	263.38
606.334	254.38
606.543	285.38
606.751	270.38
606.96	261.38
607.168	277.38
607.376	247.38
607.585	266.38
607.793	261.38
608.001	266.38
608.21	253.38
608.418	261.38
608.626	263.38
608.834	274.38
609.043	265.38
609.251	271.38
609.459	248.38
609.667	245.38
609.875	267.38
610.083	262.38
610.291	245.38
610.499	246.38
610.707	259.38
610.916	262.38
611.124	269.38
611.332	257.38
611.54	267.38
611.748	253.38
611.955	234.38
612.163	261.38
612.371	261.38
612.579	249.38
612.787	249.38
612.995	250.38
613.203	266.38
613.411	256.38
613.618	234.38
613.826	260.38
614.034	256.38
614.242	255.38
614.449	251.38
614.657	251.38
614.865	235.38
615.072	251.38
615.28	259.38
615.488	246.38
615.695	250.38
615.903	246.38
616.111	243.38
616.318	232.38
616.526	247.38
616.733	253.38
616.941	257.38
617.148	241.38
617.356	243.38
617.563	247.38
617.771	253.38
617.978	237.38
618.185	257.38
618.393	252.38
618.6	242.38
618.807	228.38
619.015	247.38
619.222	241.38
619.429	243.38
619.637	243.38
619.844	260.38
620.051	249.38
620.258	253.38
620.466	237.38
620.673	246.38
620.88	227.38
621.087	234.38
621.294	236.38
621.501	222.38
621.708	222.38
621.915	211.38
622.122	229.38
622.329	234.38
622.536	252.38
622.743	229.38
622.95	221.38
623.157	225.38
623.364	234.38
623.571	249.38
623.778	240.38
623.985	238.38
624.192	223.38
624.399	234.38
624.606	230.38
624.812	227.38
625.019	238.38
625.226	219.38
625.433	206.38
625.639	229.38
625.846	217.38
626.053	211.38
626.259	219.38
626.466	215.38
626.673	223.38
626.879	208.38
627.086	214.38
627.293	222.38
627.499	207.38
627.706	191.38
627.912	217.38
628.119	205.38
628.325	219.38
628.532	212.38
628.738	223.38
628.945	217.38
629.151	210.38
629.357	213.38
629.564	222.38
629.77	207.38
629.976	202.38
630.183	202.38
630.389	198.38
630.595	214.38
630.802	212.38
631.008	199.38
631.214	201.38
631.42	193.38
631.627	210.38
631.833	201.38
632.039	211.38
632.245	179.38
632.451	189.38
632.657	193.38
632.863	187.38
633.069	197.38
633.275	212.38
633.481	196.38
633.688	203.38
633.893	211.38
634.099	193.38
634.305	185.38
634.511	204.38
634.717	215.38
634.923	193.38
635.129	197.38
635.335	187.38
635.541	186.38
635.747	184.38
635.952	182.38
636.158	186.38
636.364	197.38
636.57	196.38
636.775	203.38
636.981	191.38
637.187	200.38
637.392	206.38
637.598	190.38
637.804	198.38
638.009	186.38
638.215	185.38
638.421	168.38
638.626	188.38
638.832	187.38
639.037	180.38
639.243	186.38
639.448	186.38
639.654	176.38
639.859	189.38
640.065	168.38
640.27	191.38
640.475	183.38
640.681	180.38
640.886	188.38
641.091	185.38
641.297	187.38
641.502	175.38
641.707	178.38
641.913	184.38
642.118	174.38
642.323	185.38
642.528	166.38
642.733	173.38
642.939	169.38
643.144	189.38
643.349	177.38
643.554	174.38
643.759	165.38
643.964	159.38
644.169	194.38
644.374	181.38
644.579	174.38
644.784	166.38
644.989	181.38
645.194	189.38
645.399	169.38
645.604	170.38
645.809	167.38
646.014	188.38
646.219	182.38
646.423	170.38
646.628	165.38
646.833	189.38
647.038	169.38
647.243	184.38
647.447	166.38
647.652	179.38
647.857	175.38
648.062	183.38
648.266	185.38
648.471	162.38
648.676	183.38
648.88	159.38
649.085	167.38
649.289	186.38
649.494	185.38
649.698	203.38
649.903	198.38
650.107	161.38
650.312	177.38
650.516	161.38
650.721	155.38
650.925	154.38
651.13	158.38
651.334	138.38
651.539	154.38
651.743	167.38
651.947	150.38
652.152	149.38
652.356	148.38
652.56	154.38
652.764	151.38
652.969	150.38
653.173	155.38
653.377	160.38
653.581	157.38
653.785	151.38
653.99	144.38
654.194	146.38
654.398	143.38
654.602	151.38
654.806	135.38
655.01	151.38
655.214	156.38
655.418	156.38
655.622	125.38
655.826	136.38
656.03	151.38
656.234	140.38
656.438	147.38
656.642	156.38
656.846	131.38
657.049	127.38
657.253	147.38
657.457	140.38
657.661	130.38
657.865	125.38
658.068	110.38
658.272	119.38
658.476	125.38
658.68	104.38
658.883	100.38
659.087	100.38
659.291	109.38
659.494	97.38
659.698	101.38
659.901	82.38
660.105	88.38
660.309	105.38
660.512	95.38
660.716	89.38
660.919	97.38
661.123	97.38
661.326	91.38
661.53	85.38
661.733	102.38
661.936	84.38
662.14	93.38
662.343	94.38
662.546	76.38
662.75	106.38
662.953	85.38
663.156	86.38
663.36	75.38
663.563	102.38
663.766	94.38
663.969	86.38
664.173	75.38
664.376	93.38
664.579	87.38
664.782	79.38
664.985	84.38
665.188	74.38
665.391	74.38
665.594	82.38
665.797	80.38
666	70.38
666.203	84.38
666.406	92.38
666.609	83.38
666.812	83.38
667.015	80.38
667.218	88.38
667.421	86.38
667.624	81.38
667.827	79.38
668.03	84.38
668.232	87.38
668.435	75.38
668.638	85.38
668.841	68.38
669.043	67.38
669.246	94.38
669.449	97.38
669.651	94.38
669.854	76.38
670.057	84.38
670.259	90.38
670.462	82.38
670.665	82.38
670.867	82.38
671.07	83.38
671.272	98.38
671.475	102.38
671.677	72.38
671.88	71.38
672.082	93.38
672.284	86.38
672.487	79.38
672.689	82.38
672.892	85.38
