Data from 1976.PennyLincolnUp.Lamp.En5.5.200Scan.071719.P1.Changed Mount._HRD10591_16-02-35-862.txt Node
Date: Thu Jul 18 16:02:35 EDT 2019
User: cochatt
Spectrometer: HR+D1059
Trigger mode: 1
Integration Time (sec): 1.000000E-1
Scans to average: 1
Electric dark correction enabled: true
Nonlinearity correction enabled: false
Boxcar width: 0
XAxis mode: Wavelengths
Number of Pixels in Spectrum: 2048
>>>>>Begin Spectral Data<<<<<
223.165	-0.44
223.4	-0.44
223.635	-0.44
223.869	-14.44
224.104	-27.44
224.338	-12.44
224.573	-13.44
224.808	-14.44
225.042	-13.44
225.277	-10.44
225.511	-12.44
225.746	-2.44
225.98	7.56
226.215	6.56
226.449	30.56
226.683	27.56
226.918	14.56
227.152	34.56
227.387	25.56
227.621	17.56
227.856	53.56
228.09	55.56
228.324	57.56
228.559	55.56
228.793	81.56
229.027	93.56
229.262	90.56
229.496	125.56
229.73	137.56
229.964	156.56
230.199	123.56
230.433	109.56
230.667	108.56
230.901	116.56
231.136	113.56
231.37	109.56
231.604	122.56
231.838	102.56
232.072	109.56
232.306	118.56
232.541	112.56
232.775	108.56
233.009	122.56
233.243	122.56
233.477	108.56
233.711	106.56
233.945	119.56
234.179	112.56
234.413	128.56
234.647	126.56
234.881	121.56
235.115	117.56
235.349	116.56
235.583	114.56
235.817	118.56
236.051	125.56
236.285	122.56
236.519	129.56
236.753	124.56
236.987	134.56
237.221	173.56
237.455	214.56
237.689	190.56
237.922	145.56
238.156	136.56
238.39	139.56
238.624	142.56
238.858	126.56
239.091	120.56
239.325	135.56
239.559	133.56
239.793	129.56
240.027	132.56
240.26	129.56
240.494	157.56
240.728	157.56
240.961	148.56
241.195	145.56
241.429	136.56
241.662	145.56
241.896	139.56
242.13	129.56
242.363	138.56
242.597	128.56
242.83	136.56
243.064	153.56
243.298	156.56
243.531	137.56
243.765	142.56
243.998	135.56
244.232	148.56
244.465	143.56
244.699	151.56
244.932	149.56
245.166	144.56
245.399	140.56
245.633	140.56
245.866	143.56
246.099	141.56
246.333	170.56
246.566	177.56
246.8	151.56
247.033	155.56
247.266	142.56
247.5	148.56
247.733	167.56
247.966	161.56
248.2	160.56
248.433	178.56
248.666	169.56
248.899	202.56
249.133	196.56
249.366	211.56
249.599	208.56
249.832	181.56
250.066	186.56
250.299	172.56
250.532	209.56
250.765	205.56
250.998	228.56
251.231	218.56
251.465	231.56
251.698	212.56
251.931	194.56
252.164	194.56
252.397	211.56
252.63	222.56
252.863	219.56
253.096	213.56
253.329	230.56
253.562	230.56
253.795	240.56
254.028	204.56
254.261	212.56
254.494	217.56
254.727	260.56
254.96	293.56
255.193	266.56
255.426	262.56
255.659	243.56
255.892	225.56
256.124	232.56
256.357	243.56
256.59	237.56
256.823	224.56
257.056	219.56
257.289	217.56
257.521	217.56
257.754	224.56
257.987	197.56
258.22	226.56
258.452	227.56
258.685	195.56
258.918	207.56
259.151	219.56
259.383	217.56
259.616	216.56
259.849	233.56
260.081	235.56
260.314	252.56
260.547	247.56
260.779	261.56
261.012	233.56
261.244	237.56
261.477	236.56
261.71	240.56
261.942	221.56
262.175	237.56
262.407	249.56
262.64	225.56
262.872	237.56
263.105	214.56
263.337	216.56
263.57	227.56
263.802	214.56
264.035	213.56
264.267	232.56
264.499	233.56
264.732	214.56
264.964	240.56
265.197	212.56
265.429	226.56
265.661	236.56
265.894	229.56
266.126	202.56
266.358	220.56
266.591	222.56
266.823	237.56
267.055	240.56
267.287	249.56
267.52	234.56
267.752	229.56
267.984	228.56
268.216	243.56
268.448	244.56
268.681	244.56
268.913	245.56
269.145	272.56
269.377	298.56
269.609	288.56
269.841	278.56
270.073	273.56
270.306	308.56
270.538	328.56
270.77	321.56
271.002	315.56
271.234	304.56
271.466	305.56
271.698	322.56
271.93	332.56
272.162	326.56
272.394	342.56
272.626	312.56
272.858	317.56
273.09	279.56
273.322	293.56
273.553	271.56
273.785	279.56
274.017	267.56
274.249	274.56
274.481	279.56
274.713	277.56
274.945	305.56
275.176	271.56
275.408	293.56
275.64	295.56
275.872	275.56
276.104	282.56
276.335	273.56
276.567	288.56
276.799	281.56
277.031	326.56
277.262	336.56
277.494	336.56
277.726	315.56
277.957	297.56
278.189	300.56
278.421	293.56
278.652	294.56
278.884	303.56
279.115	296.56
279.347	292.56
279.579	284.56
279.81	292.56
280.042	281.56
280.273	271.56
280.505	286.56
280.736	281.56
280.968	289.56
281.199	274.56
281.431	288.56
281.662	269.56
281.894	290.56
282.125	294.56
282.356	316.56
282.588	325.56
282.819	308.56
283.051	296.56
283.282	285.56
283.513	316.56
283.745	293.56
283.976	304.56
284.207	312.56
284.439	309.56
284.67	299.56
284.901	306.56
285.132	292.56
285.364	310.56
285.595	326.56
285.826	304.56
286.057	310.56
286.288	300.56
286.52	306.56
286.751	282.56
286.982	308.56
287.213	314.56
287.444	324.56
287.675	310.56
287.906	304.56
288.138	332.56
288.369	325.56
288.6	321.56
288.831	331.56
289.062	304.56
289.293	304.56
289.524	315.56
289.755	320.56
289.986	324.56
290.217	312.56
290.448	323.56
290.679	314.56
290.91	325.56
291.141	310.56
291.371	335.56
291.602	327.56
291.833	306.56
292.064	314.56
292.295	319.56
292.526	332.56
292.757	311.56
292.987	320.56
293.218	304.56
293.449	292.56
293.68	304.56
293.91	329.56
294.141	336.56
294.372	340.56
294.603	321.56
294.833	338.56
295.064	320.56
295.295	321.56
295.525	328.56
295.756	324.56
295.987	306.56
296.217	325.56
296.448	348.56
296.679	306.56
296.909	339.56
297.14	308.56
297.37	334.56
297.601	327.56
297.831	332.56
298.062	310.56
298.292	335.56
298.523	313.56
298.753	330.56
298.984	324.56
299.214	343.56
299.445	320.56
299.675	339.56
299.905	340.56
300.136	330.56
300.366	338.56
300.597	341.56
300.827	342.56
301.057	355.56
301.288	364.56
301.518	355.56
301.748	348.56
301.979	372.56
302.209	354.56
302.439	343.56
302.669	350.56
302.9	348.56
303.13	350.56
303.36	346.56
303.59	368.56
303.82	350.56
304.051	357.56
304.281	354.56
304.511	338.56
304.741	347.56
304.971	348.56
305.201	363.56
305.431	328.56
305.661	346.56
305.891	356.56
306.121	355.56
306.352	355.56
306.582	356.56
306.812	345.56
307.042	340.56
307.272	355.56
307.502	353.56
307.731	380.56
307.961	374.56
308.191	350.56
308.421	364.56
308.651	349.56
308.881	360.56
309.111	370.56
309.341	354.56
309.571	376.56
309.8	377.56
310.03	375.56
310.26	399.56
310.49	385.56
310.72	424.56
310.949	409.56
311.179	426.56
311.409	400.56
311.639	394.56
311.868	391.56
312.098	401.56
312.328	396.56
312.557	413.56
312.787	414.56
313.017	437.56
313.246	393.56
313.476	386.56
313.706	400.56
313.935	398.56
314.165	413.56
314.394	405.56
314.624	434.56
314.853	401.56
315.083	411.56
315.312	394.56
315.542	395.56
315.771	378.56
316.001	401.56
316.23	403.56
316.46	411.56
316.689	412.56
316.919	396.56
317.148	409.56
317.377	410.56
317.607	392.56
317.836	412.56
318.065	382.56
318.295	393.56
318.524	392.56
318.753	398.56
318.983	399.56
319.212	390.56
319.441	423.56
319.67	427.56
319.9	408.56
320.129	398.56
320.358	419.56
320.587	406.56
320.816	397.56
321.046	424.56
321.275	413.56
321.504	418.56
321.733	418.56
321.962	419.56
322.191	430.56
322.42	434.56
322.649	445.56
322.878	473.56
323.108	461.56
323.337	475.56
323.566	489.56
323.795	523.56
324.024	557.56
324.253	675.56
324.482	911.56
324.71	1357.56
324.939	2028.56
325.168	1763.56
325.397	888.56
325.626	605.56
325.855	530.56
326.084	504.56
326.313	499.56
326.542	492.56
326.77	550.56
326.999	629.56
327.228	865.56
327.457	1244.56
327.686	1578.56
327.914	1021.56
328.143	668.56
328.372	609.56
328.6	569.56
328.829	563.56
329.058	601.56
329.287	557.56
329.515	531.56
329.744	529.56
329.972	520.56
330.201	528.56
330.43	565.56
330.658	574.56
330.887	600.56
331.115	579.56
331.344	512.56
331.572	497.56
331.801	508.56
332.03	514.56
332.258	512.56
332.486	490.56
332.715	460.56
332.943	484.56
333.172	492.56
333.4	473.56
333.629	483.56
333.857	502.56
334.085	533.56
334.314	541.56
334.542	540.56
334.771	580.56
334.999	530.56
335.227	494.56
335.455	500.56
335.684	502.56
335.912	481.56
336.14	473.56
336.369	463.56
336.597	501.56
336.825	478.56
337.053	466.56
337.281	462.56
337.51	453.56
337.738	496.56
337.966	462.56
338.194	483.56
338.422	462.56
338.65	476.56
338.878	458.56
339.106	470.56
339.334	450.56
339.562	468.56
339.79	448.56
340.018	460.56
340.246	452.56
340.474	467.56
340.702	480.56
340.93	441.56
341.158	459.56
341.386	444.56
341.614	457.56
341.842	446.56
342.07	449.56
342.298	436.56
342.526	427.56
342.754	442.56
342.981	448.56
343.209	447.56
343.437	468.56
343.665	469.56
343.893	485.56
344.12	491.56
344.348	479.56
344.576	470.56
344.804	454.56
345.031	445.56
345.259	456.56
345.487	457.56
345.714	452.56
345.942	451.56
346.17	434.56
346.397	445.56
346.625	449.56
346.853	442.56
347.08	452.56
347.308	447.56
347.535	452.56
347.763	428.56
347.99	444.56
348.218	441.56
348.445	424.56
348.673	452.56
348.9	446.56
349.128	436.56
349.355	421.56
349.583	414.56
349.81	445.56
350.037	452.56
350.265	422.56
350.492	411.56
350.72	419.56
350.947	424.56
351.174	443.56
351.402	431.56
351.629	459.56
351.856	437.56
352.083	440.56
352.311	429.56
352.538	432.56
352.765	467.56
352.992	426.56
353.22	429.56
353.447	444.56
353.674	428.56
353.901	417.56
354.128	416.56
354.355	430.56
354.583	431.56
354.81	438.56
355.037	408.56
355.264	416.56
355.491	398.56
355.718	412.56
355.945	386.56
356.172	410.56
356.399	404.56
356.626	409.56
356.853	429.56
357.08	416.56
357.307	413.56
357.534	406.56
357.761	420.56
357.988	399.56
358.215	409.56
358.441	406.56
358.668	409.56
358.895	412.56
359.122	417.56
359.349	422.56
359.576	429.56
359.802	450.56
360.029	454.56
360.256	469.56
360.483	463.56
360.709	441.56
360.936	429.56
361.163	433.56
361.39	439.56
361.616	447.56
361.843	450.56
362.07	446.56
362.296	428.56
362.523	435.56
362.749	420.56
362.976	404.56
363.203	417.56
363.429	424.56
363.656	418.56
363.882	430.56
364.109	424.56
364.335	426.56
364.562	413.56
364.788	418.56
365.015	420.56
365.241	422.56
365.468	436.56
365.694	421.56
365.92	424.56
366.147	398.56
366.373	418.56
366.599	403.56
366.826	427.56
367.052	426.56
367.278	418.56
367.505	438.56
367.731	412.56
367.957	427.56
368.184	440.56
368.41	412.56
368.636	420.56
368.862	462.56
369.089	424.56
369.315	419.56
369.541	427.56
369.767	422.56
369.993	405.56
370.219	418.56
370.445	416.56
370.672	426.56
370.898	434.56
371.124	413.56
371.35	408.56
371.576	406.56
371.802	426.56
372.028	416.56
372.254	407.56
372.48	428.56
372.706	436.56
372.932	441.56
373.158	445.56
373.384	430.56
373.61	438.56
373.835	444.56
374.061	418.56
374.287	429.56
374.513	423.56
374.739	408.56
374.965	440.56
375.191	439.56
375.416	440.56
375.642	423.56
375.868	452.56
376.094	437.56
376.319	424.56
376.545	422.56
376.771	420.56
376.997	405.56
377.222	436.56
377.448	430.56
377.674	429.56
377.899	425.56
378.125	422.56
378.35	412.56
378.576	428.56
378.802	427.56
379.027	439.56
379.253	425.56
379.478	419.56
379.704	419.56
379.929	412.56
380.155	433.56
380.38	426.56
380.606	444.56
380.831	436.56
381.057	444.56
381.282	451.56
381.507	428.56
381.733	426.56
381.958	428.56
382.184	422.56
382.409	432.56
382.634	426.56
382.86	448.56
383.085	452.56
383.31	464.56
383.535	448.56
383.761	433.56
383.986	465.56
384.211	451.56
384.436	429.56
384.662	455.56
384.887	462.56
385.112	457.56
385.337	457.56
385.562	493.56
385.787	480.56
386.013	473.56
386.238	450.56
386.463	456.56
386.688	471.56
386.913	451.56
387.138	493.56
387.363	455.56
387.588	446.56
387.813	495.56
388.038	470.56
388.263	483.56
388.488	479.56
388.713	483.56
388.938	466.56
389.163	485.56
389.387	480.56
389.612	460.56
389.837	482.56
390.062	471.56
390.287	451.56
390.512	466.56
390.736	453.56
390.961	472.56
391.186	466.56
391.411	453.56
391.636	461.56
391.86	494.56
392.085	497.56
392.31	496.56
392.534	483.56
392.759	483.56
392.984	506.56
393.208	456.56
393.433	481.56
393.658	466.56
393.882	449.56
394.107	493.56
394.331	476.56
394.556	480.56
394.78	486.56
395.005	480.56
395.229	486.56
395.454	487.56
395.678	511.56
395.903	506.56
396.127	522.56
396.352	537.56
396.576	500.56
396.801	492.56
397.025	505.56
397.249	503.56
397.474	505.56
397.698	516.56
397.922	532.56
398.147	519.56
398.371	547.56
398.595	527.56
398.82	540.56
399.044	558.56
399.268	590.56
399.492	632.56
399.717	652.56
399.941	691.56
400.165	702.56
400.389	693.56
400.613	645.56
400.837	581.56
401.062	570.56
401.286	570.56
401.51	567.56
401.734	558.56
401.958	557.56
402.182	572.56
402.406	549.56
402.63	571.56
402.854	552.56
403.078	550.56
403.302	585.56
403.526	595.56
403.75	588.56
403.974	570.56
404.198	576.56
404.422	581.56
404.645	589.56
404.869	612.56
405.093	632.56
405.317	656.56
405.541	685.56
405.765	634.56
405.988	607.56
406.212	611.56
406.436	645.56
406.66	621.56
406.883	636.56
407.107	647.56
407.331	714.56
407.555	781.56
407.778	780.56
408.002	704.56
408.226	661.56
408.449	628.56
408.673	648.56
408.896	666.56
409.12	698.56
409.344	677.56
409.567	598.56
409.791	608.56
410.014	597.56
410.238	587.56
410.461	576.56
410.685	588.56
410.908	577.56
411.132	612.56
411.355	669.56
411.578	622.56
411.802	587.56
412.025	570.56
412.249	596.56
412.472	606.56
412.695	634.56
412.919	619.56
413.142	572.56
413.365	577.56
413.589	526.56
413.812	544.56
414.035	541.56
414.258	528.56
414.482	525.56
414.705	556.56
414.928	546.56
415.151	550.56
415.374	553.56
415.597	544.56
415.821	532.56
416.044	518.56
416.267	533.56
416.49	518.56
416.713	509.56
416.936	516.56
417.159	541.56
417.382	547.56
417.605	536.56
417.828	537.56
418.051	562.56
418.274	533.56
418.497	536.56
418.72	543.56
418.943	548.56
419.166	578.56
419.389	586.56
419.611	587.56
419.834	577.56
420.057	583.56
420.28	585.56
420.503	555.56
420.726	554.56
420.948	568.56
421.171	621.56
421.394	658.56
421.617	567.56
421.839	541.56
422.062	553.56
422.285	557.56
422.507	646.56
422.73	691.56
422.953	707.56
423.175	600.56
423.398	603.56
423.621	609.56
423.843	608.56
424.066	619.56
424.288	608.56
424.511	616.56
424.733	672.56
424.956	746.56
425.178	702.56
425.401	724.56
425.623	760.56
425.846	652.56
426.068	582.56
426.291	626.56
426.513	585.56
426.735	610.56
426.958	646.56
427.18	716.56
427.402	850.56
427.625	941.56
427.847	803.56
428.069	685.56
428.292	616.56
428.514	585.56
428.736	577.56
428.958	559.56
429.181	536.56
429.403	542.56
429.625	547.56
429.847	586.56
430.069	669.56
430.292	650.56
430.514	577.56
430.736	572.56
430.958	512.56
431.18	538.56
431.402	526.56
431.624	524.56
431.846	519.56
432.068	515.56
432.29	533.56
432.512	537.56
432.734	521.56
432.956	538.56
433.178	533.56
433.4	538.56
433.622	544.56
433.844	525.56
434.066	523.56
434.287	514.56
434.509	536.56
434.731	548.56
434.953	546.56
435.175	562.56
435.397	580.56
435.618	611.56
435.84	609.56
436.062	746.56
436.284	788.56
436.505	683.56
436.727	590.56
436.949	564.56
437.17	535.56
437.392	528.56
437.614	562.56
437.835	587.56
438.057	681.56
438.278	799.56
438.5	780.56
438.721	846.56
438.943	815.56
439.165	660.56
439.386	601.56
439.608	586.56
439.829	586.56
440.05	629.56
440.272	657.56
440.493	625.56
440.715	586.56
440.936	564.56
441.158	544.56
441.379	583.56
441.6	557.56
441.822	606.56
442.043	636.56
442.264	732.56
442.486	747.56
442.707	669.56
442.928	617.56
443.149	615.56
443.371	624.56
443.592	659.56
443.813	764.56
444.034	825.56
444.255	704.56
444.476	620.56
444.698	619.56
444.919	598.56
445.14	710.56
445.361	666.56
445.582	654.56
445.803	690.56
446.024	808.56
446.245	813.56
446.466	733.56
446.687	646.56
446.908	595.56
447.129	560.56
447.35	564.56
447.571	543.56
447.792	548.56
448.013	536.56
448.234	541.56
448.455	616.56
448.675	734.56
448.896	850.56
449.117	722.56
449.338	677.56
449.559	780.56
449.779	895.56
450	704.56
450.221	569.56
450.442	555.56
450.662	527.56
450.883	512.56
451.104	539.56
451.324	540.56
451.545	497.56
451.766	481.56
451.986	517.56
452.207	486.56
452.428	470.56
452.648	476.56
452.869	470.56
453.089	489.56
453.31	481.56
453.53	496.56
453.751	471.56
453.971	488.56
454.192	517.56
454.412	502.56
454.633	482.56
454.853	484.56
455.073	478.56
455.294	533.56
455.514	566.56
455.734	549.56
455.955	482.56
456.175	448.56
456.395	442.56
456.616	462.56
456.836	445.56
457.056	430.56
457.276	456.56
457.497	440.56
457.717	473.56
457.937	472.56
458.157	451.56
458.377	472.56
458.598	507.56
458.818	535.56
459.038	613.56
459.258	651.56
459.478	556.56
459.698	536.56
459.918	512.56
460.138	501.56
460.358	542.56
460.578	533.56
460.798	541.56
461.018	547.56
461.238	550.56
461.458	552.56
461.678	540.56
461.898	522.56
462.118	547.56
462.338	569.56
462.558	544.56
462.777	562.56
462.997	587.56
463.217	611.56
463.437	608.56
463.657	609.56
463.876	594.56
464.096	576.56
464.316	569.56
464.536	584.56
464.755	583.56
464.975	574.56
465.195	600.56
465.414	649.56
465.634	574.56
465.854	566.56
466.073	547.56
466.293	498.56
466.512	522.56
466.732	497.56
466.951	503.56
467.171	487.56
467.391	488.56
467.61	524.56
467.829	512.56
468.049	512.56
468.268	514.56
468.488	506.56
468.707	498.56
468.927	497.56
469.146	474.56
469.365	490.56
469.585	485.56
469.804	496.56
470.023	524.56
470.243	490.56
470.462	514.56
470.681	527.56
470.901	521.56
471.12	520.56
471.339	535.56
471.558	512.56
471.777	485.56
471.997	508.56
472.216	509.56
472.435	533.56
472.654	535.56
472.873	498.56
473.092	477.56
473.311	496.56
473.53	491.56
473.749	507.56
473.968	526.56
474.187	634.56
474.406	648.56
474.625	552.56
474.844	514.56
475.063	500.56
475.282	512.56
475.501	524.56
475.72	526.56
475.939	517.56
476.158	519.56
476.377	526.56
476.596	492.56
476.814	500.56
477.033	519.56
477.252	552.56
477.471	555.56
477.69	550.56
477.908	527.56
478.127	563.56
478.346	556.56
478.564	550.56
478.783	572.56
479.002	573.56
479.22	578.56
479.439	589.56
479.658	603.56
479.876	624.56
480.095	597.56
480.313	640.56
480.532	649.56
480.751	638.56
480.969	631.56
481.188	681.56
481.406	712.56
481.624	632.56
481.843	621.56
482.061	592.56
482.28	570.56
482.498	586.56
482.717	571.56
482.935	592.56
483.153	612.56
483.372	590.56
483.59	598.56
483.808	589.56
484.027	586.56
484.245	571.56
484.463	599.56
484.681	616.56
484.9	595.56
485.118	605.56
485.336	593.56
485.554	596.56
485.772	594.56
485.99	615.56
486.209	610.56
486.427	595.56
486.645	612.56
486.863	629.56
487.081	645.56
487.299	612.56
487.517	636.56
487.735	614.56
487.953	610.56
488.171	630.56
488.389	609.56
488.607	624.56
488.825	644.56
489.043	655.56
489.261	641.56
489.479	646.56
489.696	637.56
489.914	630.56
490.132	636.56
490.35	681.56
490.568	662.56
490.786	706.56
491.003	668.56
491.221	686.56
491.439	682.56
491.657	690.56
491.874	698.56
492.092	718.56
492.31	688.56
492.527	712.56
492.745	713.56
492.963	730.56
493.18	722.56
493.398	752.56
493.615	759.56
493.833	753.56
494.05	720.56
494.268	744.56
494.485	752.56
494.703	731.56
494.92	738.56
495.138	772.56
495.355	752.56
495.573	729.56
495.79	743.56
496.008	720.56
496.225	752.56
496.442	742.56
496.66	724.56
496.877	749.56
497.094	737.56
497.312	761.56
497.529	742.56
497.746	768.56
497.963	797.56
498.181	831.56
498.398	809.56
498.615	851.56
498.832	873.56
499.049	884.56
499.267	916.56
499.484	969.56
499.701	1012.56
499.918	1044.56
500.135	1085.56
500.352	1152.56
500.569	1211.56
500.786	1204.56
501.003	1180.56
501.22	1108.56
501.437	1041.56
501.654	1025.56
501.871	1005.56
502.088	923.56
502.305	903.56
502.522	878.56
502.739	867.56
502.956	801.56
503.172	819.56
503.389	787.56
503.606	786.56
503.823	776.56
504.04	755.56
504.256	758.56
504.473	758.56
504.69	759.56
504.907	775.56
505.123	762.56
505.34	726.56
505.557	712.56
505.773	716.56
505.99	728.56
506.207	693.56
506.423	714.56
506.64	684.56
506.856	696.56
507.073	668.56
507.289	659.56
507.506	682.56
507.722	668.56
507.939	695.56
508.155	674.56
508.372	642.56
508.588	673.56
508.805	648.56
509.021	644.56
509.238	680.56
509.454	689.56
509.67	664.56
509.887	677.56
510.103	662.56
510.319	642.56
510.536	691.56
510.752	1088.56
510.968	922.56
511.184	655.56
511.401	611.56
511.617	629.56
511.833	631.56
512.049	615.56
512.265	617.56
512.481	615.56
512.698	616.56
512.914	623.56
513.13	633.56
513.346	617.56
513.562	625.56
513.778	619.56
513.994	636.56
514.21	635.56
514.426	654.56
514.642	671.56
514.858	698.56
515.074	711.56
515.29	810.56
515.506	1120.56
515.721	928.56
515.937	726.56
516.153	678.56
516.369	654.56
516.585	653.56
516.801	644.56
517.016	670.56
517.232	649.56
517.448	638.56
517.664	672.56
517.879	692.56
518.095	665.56
518.311	678.56
518.527	654.56
518.742	644.56
518.958	632.56
519.173	629.56
519.389	641.56
519.605	621.56
519.82	632.56
520.036	623.56
520.251	630.56
520.467	658.56
520.682	661.56
520.898	650.56
521.113	654.56
521.329	709.56
521.544	743.56
521.76	902.56
521.975	1391.56
522.19	1365.56
522.406	820.56
522.621	665.56
522.836	608.56
523.052	616.56
523.267	577.56
523.482	580.56
523.698	538.56
523.913	551.56
524.128	571.56
524.343	531.56
524.559	535.56
524.774	534.56
524.989	555.56
525.204	547.56
525.419	561.56
525.634	539.56
525.849	512.56
526.064	530.56
526.28	509.56
526.495	514.56
526.71	537.56
526.925	530.56
527.14	501.56
527.355	502.56
527.57	505.56
527.785	539.56
527.999	498.56
528.214	524.56
528.429	529.56
528.644	516.56
528.859	501.56
529.074	528.56
529.289	532.56
529.503	595.56
529.718	590.56
529.933	556.56
530.148	515.56
530.363	487.56
530.577	488.56
530.792	479.56
531.007	498.56
531.221	516.56
531.436	501.56
531.651	516.56
531.865	474.56
532.08	504.56
532.295	488.56
532.509	496.56
532.724	495.56
532.938	489.56
533.153	495.56
533.367	507.56
533.582	492.56
533.796	500.56
534.011	485.56
534.225	485.56
534.44	483.56
534.654	499.56
534.868	478.56
535.083	470.56
535.297	491.56
535.511	502.56
535.726	510.56
535.94	512.56
536.154	480.56
536.369	477.56
536.583	473.56
536.797	491.56
537.011	483.56
537.225	469.56
537.44	459.56
537.654	468.56
537.868	462.56
538.082	483.56
538.296	486.56
538.51	521.56
538.724	476.56
538.938	469.56
539.153	473.56
539.367	488.56
539.581	476.56
539.795	481.56
540.009	464.56
540.222	459.56
540.436	466.56
540.65	489.56
540.864	463.56
541.078	469.56
541.292	476.56
541.506	482.56
541.72	470.56
541.934	485.56
542.147	465.56
542.361	497.56
542.575	466.56
542.789	465.56
543.002	473.56
543.216	477.56
543.43	467.56
543.644	476.56
543.857	473.56
544.071	493.56
544.285	485.56
544.498	477.56
544.712	462.56
544.925	468.56
545.139	471.56
545.352	479.56
545.566	475.56
545.779	465.56
545.993	456.56
546.206	483.56
546.42	459.56
546.633	465.56
546.847	451.56
547.06	468.56
547.274	469.56
547.487	453.56
547.7	482.56
547.914	445.56
548.127	476.56
548.34	457.56
548.554	446.56
548.767	470.56
548.98	448.56
549.193	461.56
549.407	472.56
549.62	444.56
549.833	485.56
550.046	453.56
550.259	462.56
550.473	456.56
550.686	447.56
550.899	458.56
551.112	457.56
551.325	458.56
551.538	451.56
551.751	460.56
551.964	453.56
552.177	457.56
552.39	455.56
552.603	476.56
552.816	480.56
553.029	468.56
553.242	465.56
553.455	493.56
553.667	489.56
553.88	477.56
554.093	453.56
554.306	457.56
554.519	469.56
554.732	463.56
554.944	453.56
555.157	439.56
555.37	426.56
555.583	438.56
555.795	440.56
556.008	434.56
556.221	434.56
556.433	425.56
556.646	440.56
556.859	397.56
557.071	432.56
557.284	406.56
557.496	405.56
557.709	426.56
557.921	421.56
558.134	414.56
558.346	429.56
558.559	405.56
558.771	409.56
558.984	416.56
559.196	394.56
559.409	412.56
559.621	390.56
559.833	417.56
560.046	389.56
560.258	407.56
560.47	392.56
560.683	394.56
560.895	403.56
561.107	414.56
561.32	407.56
561.532	404.56
561.744	390.56
561.956	388.56
562.168	379.56
562.381	406.56
562.593	407.56
562.805	413.56
563.017	415.56
563.229	410.56
563.441	402.56
563.653	427.56
563.865	412.56
564.077	405.56
564.289	397.56
564.501	411.56
564.713	419.56
564.925	435.56
565.137	437.56
565.349	442.56
565.561	453.56
565.773	454.56
565.985	487.56
566.197	459.56
566.408	498.56
566.62	498.56
566.832	520.56
567.044	542.56
567.255	544.56
567.467	530.56
567.679	552.56
567.891	568.56
568.102	570.56
568.314	557.56
568.526	525.56
568.737	507.56
568.949	488.56
569.161	468.56
569.372	464.56
569.584	446.56
569.795	438.56
570.007	431.56
570.218	425.56
570.43	427.56
570.641	420.56
570.853	408.56
571.064	393.56
571.276	398.56
571.487	397.56
571.698	404.56
571.91	388.56
572.121	384.56
572.333	400.56
572.544	366.56
572.755	363.56
572.966	377.56
573.178	362.56
573.389	362.56
573.6	377.56
573.811	365.56
574.023	355.56
574.234	354.56
574.445	361.56
574.656	352.56
574.867	354.56
575.078	359.56
575.289	366.56
575.501	372.56
575.712	352.56
575.923	357.56
576.134	344.56
576.345	340.56
576.556	343.56
576.767	342.56
576.978	354.56
577.188	341.56
577.399	343.56
577.61	354.56
577.821	332.56
578.032	363.56
578.243	361.56
578.454	514.56
578.665	418.56
578.875	345.56
579.086	322.56
579.297	318.56
579.508	333.56
579.718	325.56
579.929	317.56
580.14	336.56
580.35	321.56
580.561	333.56
580.772	314.56
580.982	322.56
581.193	321.56
581.403	313.56
581.614	317.56
581.825	314.56
582.035	320.56
582.246	317.56
582.456	342.56
582.667	313.56
582.877	327.56
583.087	308.56
583.298	308.56
583.508	325.56
583.719	301.56
583.929	325.56
584.139	298.56
584.35	318.56
584.56	322.56
584.77	324.56
584.981	323.56
585.191	315.56
585.401	326.56
585.611	285.56
585.821	321.56
586.032	320.56
586.242	294.56
586.452	312.56
586.662	298.56
586.872	313.56
587.082	318.56
587.292	317.56
587.502	311.56
587.713	308.56
587.923	329.56
588.133	298.56
588.343	301.56
588.553	289.56
588.762	298.56
588.972	301.56
589.182	306.56
589.392	307.56
589.602	294.56
589.812	286.56
590.022	314.56
590.232	295.56
590.441	313.56
590.651	305.56
590.861	306.56
591.071	305.56
591.281	309.56
591.49	313.56
591.7	336.56
591.91	316.56
592.119	312.56
592.329	318.56
592.539	338.56
592.748	325.56
592.958	331.56
593.167	312.56
593.377	339.56
593.587	350.56
593.796	329.56
594.006	332.56
594.215	326.56
594.424	339.56
594.634	349.56
594.843	310.56
595.053	313.56
595.262	308.56
595.472	328.56
595.681	304.56
595.89	311.56
596.1	297.56
596.309	285.56
596.518	305.56
596.727	301.56
596.937	288.56
597.146	297.56
597.355	290.56
597.564	284.56
597.774	285.56
597.983	283.56
598.192	283.56
598.401	273.56
598.61	286.56
598.819	279.56
599.028	278.56
599.237	268.56
599.446	272.56
599.655	265.56
599.864	265.56
600.073	280.56
600.282	285.56
600.491	279.56
600.7	257.56
600.909	277.56
601.118	265.56
601.327	264.56
601.536	249.56
601.745	261.56
601.953	267.56
602.162	256.56
602.371	289.56
602.58	274.56
602.789	267.56
602.997	262.56
603.206	260.56
603.415	250.56
603.623	269.56
603.832	264.56
604.041	273.56
604.249	254.56
604.458	256.56
604.666	251.56
604.875	261.56
605.084	255.56
605.292	277.56
605.501	270.56
605.709	274.56
605.918	253.56
606.126	266.56
606.334	249.56
606.543	254.56
606.751	252.56
606.96	239.56
607.168	244.56
607.376	268.56
607.585	262.56
607.793	230.56
608.001	252.56
608.21	249.56
608.418	231.56
608.626	247.56
608.834	249.56
609.043	258.56
609.251	259.56
609.459	222.56
609.667	235.56
609.875	248.56
610.083	240.56
610.291	253.56
610.499	252.56
610.707	237.56
610.916	240.56
611.124	245.56
611.332	271.56
611.54	250.56
611.748	257.56
611.955	248.56
612.163	248.56
612.371	241.56
612.579	233.56
612.787	237.56
612.995	243.56
613.203	258.56
613.411	232.56
613.618	237.56
613.826	252.56
614.034	239.56
614.242	241.56
614.449	241.56
614.657	251.56
614.865	249.56
615.072	234.56
615.28	249.56
615.488	230.56
615.695	242.56
615.903	245.56
616.111	245.56
616.318	249.56
616.526	246.56
616.733	262.56
616.941	245.56
617.148	254.56
617.356	252.56
617.563	260.56
617.771	233.56
617.978	251.56
618.185	234.56
618.393	244.56
618.6	230.56
618.807	240.56
619.015	248.56
619.222	234.56
619.429	230.56
619.637	228.56
619.844	231.56
620.051	238.56
620.258	234.56
620.466	218.56
620.673	221.56
620.88	245.56
621.087	226.56
621.294	229.56
621.501	228.56
621.708	240.56
621.915	233.56
622.122	227.56
622.329	228.56
622.536	231.56
622.743	241.56
622.95	218.56
623.157	229.56
623.364	216.56
623.571	222.56
623.778	214.56
623.985	227.56
624.192	233.56
624.399	213.56
624.606	203.56
624.812	230.56
625.019	216.56
625.226	197.56
625.433	225.56
625.639	238.56
625.846	230.56
626.053	228.56
626.259	217.56
626.466	204.56
626.673	214.56
626.879	223.56
627.086	203.56
627.293	214.56
627.499	212.56
627.706	216.56
627.912	208.56
628.119	215.56
628.325	216.56
628.532	213.56
628.738	212.56
628.945	199.56
629.151	205.56
629.357	194.56
629.564	200.56
629.77	208.56
629.976	192.56
630.183	220.56
630.389	202.56
630.595	201.56
630.802	210.56
631.008	213.56
631.214	217.56
631.42	194.56
631.627	202.56
631.833	210.56
632.039	201.56
632.245	189.56
632.451	201.56
632.657	189.56
632.863	203.56
633.069	184.56
633.275	192.56
633.481	207.56
633.688	201.56
633.893	201.56
634.099	203.56
634.305	194.56
634.511	198.56
634.717	210.56
634.923	200.56
635.129	178.56
635.335	190.56
635.541	187.56
635.747	192.56
635.952	171.56
636.158	188.56
636.364	196.56
636.57	181.56
636.775	204.56
636.981	198.56
637.187	193.56
637.392	181.56
637.598	198.56
637.804	189.56
638.009	173.56
638.215	189.56
638.421	182.56
638.626	189.56
638.832	174.56
639.037	184.56
639.243	179.56
639.448	184.56
639.654	184.56
639.859	152.56
640.065	180.56
640.27	190.56
640.475	165.56
640.681	188.56
640.886	162.56
641.091	192.56
641.297	177.56
641.502	174.56
641.707	172.56
641.913	182.56
642.118	160.56
642.323	196.56
642.528	190.56
642.733	181.56
642.939	176.56
643.144	172.56
643.349	172.56
643.554	171.56
643.759	171.56
643.964	174.56
644.169	182.56
644.374	181.56
644.579	171.56
644.784	169.56
644.989	170.56
645.194	171.56
645.399	177.56
645.604	176.56
645.809	166.56
646.014	169.56
646.219	184.56
646.423	182.56
646.628	172.56
646.833	160.56
647.038	188.56
647.243	172.56
647.447	194.56
647.652	191.56
647.857	175.56
648.062	173.56
648.266	184.56
648.471	192.56
648.676	176.56
648.88	194.56
649.085	192.56
649.289	189.56
649.494	177.56
649.698	183.56
649.903	178.56
650.107	178.56
650.312	165.56
650.516	168.56
650.721	164.56
650.925	163.56
651.13	169.56
651.334	156.56
651.539	166.56
651.743	150.56
651.947	149.56
652.152	161.56
652.356	141.56
652.56	144.56
652.764	133.56
652.969	156.56
653.173	143.56
653.377	146.56
653.581	144.56
653.785	141.56
653.99	144.56
654.194	141.56
654.398	134.56
654.602	152.56
654.806	136.56
655.01	138.56
655.214	135.56
655.418	141.56
655.622	141.56
655.826	153.56
656.03	156.56
656.234	132.56
656.438	150.56
656.642	149.56
656.846	122.56
657.049	124.56
657.253	127.56
657.457	130.56
657.661	123.56
657.865	119.56
658.068	111.56
658.272	116.56
658.476	114.56
658.68	104.56
658.883	124.56
659.087	113.56
659.291	106.56
659.494	97.56
659.698	86.56
659.901	108.56
660.105	99.56
660.309	105.56
660.512	96.56
660.716	87.56
660.919	84.56
661.123	100.56
661.326	83.56
661.53	97.56
661.733	94.56
661.936	98.56
662.14	80.56
662.343	83.56
662.546	98.56
662.75	93.56
662.953	86.56
663.156	80.56
663.36	72.56
663.563	81.56
663.766	79.56
663.969	98.56
664.173	91.56
664.376	85.56
664.579	84.56
664.782	91.56
664.985	82.56
665.188	78.56
665.391	85.56
665.594	80.56
665.797	92.56
666	85.56
666.203	82.56
666.406	68.56
666.609	74.56
666.812	90.56
667.015	80.56
667.218	79.56
667.421	89.56
667.624	86.56
667.827	86.56
668.03	85.56
668.232	85.56
668.435	77.56
668.638	72.56
668.841	73.56
669.043	93.56
669.246	84.56
669.449	85.56
669.651	83.56
669.854	76.56
670.057	73.56
670.259	78.56
670.462	80.56
670.665	77.56
670.867	82.56
671.07	64.56
671.272	70.56
671.475	81.56
671.677	103.56
671.88	81.56
672.082	93.56
672.284	98.56
672.487	68.56
672.689	83.56
672.892	73.56
